time,ch1,ch2,ch3,ch4,ch5,ch6,ch7,ch8
145.5588517189026,-400000.0625,-20800.9296875,-15147.58984375,-400000.0625,-20118.4296875,-400000.0625,-14332.3896484375,-400000.0625
145.57097172737122,-400000.0625,-20760.5390625,-15112.349609375,-400000.0625,-20093.400390625,-400000.0625,-14294.8203125,-400000.0625
145.5769543647766,-400000.0625,-20769.220703125,-15120.3701171875,-400000.0625,-20108.419921875,-400000.0625,-14304.01953125,-400000.0625
145.58284187316895,-400000.0625,-20812.939453125,-15159.509765625,-400000.0625,-20137.029296875,-400000.0625,-14350.1796875,-400000.0625
145.58822226524353,-400000.0625,-20834.58984375,-15181.6904296875,-400000.0625,-20155.529296875,-400000.0625,-14370.0595703125,-400000.0625
145.59546494483948,-400000.0625,-20802.830078125,-15151.4501953125,-400000.0625,-20132.58984375,-400000.0625,-14339.400390625,-400000.0625
145.60061502456665,-400000.0625,-20763.970703125,-15112.6904296875,-400000.0625,-20095.640625,-400000.0625,-14296.580078125,-400000.0625
145.60640048980713,-400000.0625,-20766.359375,-15113.8798828125,-400000.0625,-20098.880859375,-400000.0625,-14304.349609375,-400000.0625
145.61798572540283,-400000.0625,-20813.66015625,-15159.080078125,-400000.0625,-20136.41015625,-400000.0625,-14354.1796875,-400000.0625
145.6239743232727,-400000.0625,-20836.55078125,-15180.919921875,-400000.0625,-20162.869140625,-400000.0625,-14378.83984375,-400000.0625
145.62925624847412,-400000.0625,-20802.310546875,-15149.830078125,-400000.0625,-20138.83984375,-400000.0625,-14343.9296875,-400000.0625
145.63431930541992,-400000.0625,-20762.259765625,-15111.73046875,-400000.0625,-20100.880859375,-400000.0625,-14302.2998046875,-400000.0625
145.63902521133423,-400000.0625,-20770.83984375,-15120.26953125,-400000.0625,-20101.599609375,-400000.0625,-14306.3095703125,-400000.0625
145.6390335559845,-400000.0625,-20819.0,-15167.2900390625,-400000.0625,-20136.01953125,-400000.0625,-14354.9501953125,-400000.0625
145.63903760910034,-400000.0625,-20838.220703125,-15185.3603515625,-400000.0625,-20151.5703125,-400000.0625,-14376.58984375,-400000.0625
145.63904213905334,-400000.0625,-20799.109375,-15150.5,-400000.0625,-20123.05078125,-400000.0625,-14342.599609375,-400000.0625
145.63904643058777,-400000.0625,-20767.359375,-15119.2197265625,-400000.0625,-20098.830078125,-400000.0625,-14302.01953125,-400000.0625
145.63905119895935,-400000.0625,-20774.029296875,-15129.759765625,-400000.0625,-20109.66015625,-400000.0625,-14308.8798828125,-400000.0625
145.6390552520752,-400000.0625,-20813.66015625,-15170.1904296875,-400000.0625,-20149.900390625,-400000.0625,-14354.7099609375,-400000.0625
145.63905954360962,-400000.0625,-20836.2109375,-15189.3603515625,-400000.0625,-20168.400390625,-400000.0625,-14374.9296875,-400000.0625
145.63906359672546,-400000.0625,-20804.9296875,-15158.0400390625,-400000.0625,-20135.359375,-400000.0625,-14341.6396484375,-400000.0625
145.63906717300415,-400000.0625,-20763.919921875,-15118.2197265625,-400000.0625,-20096.01953125,-400000.0625,-14302.490234375,-400000.0625
145.63907146453857,-400000.0625,-20768.5,-15123.1796875,-400000.0625,-20098.880859375,-400000.0625,-14305.1201171875,-400000.0625
145.63907551765442,-400000.0625,-20815.140625,-15168.7197265625,-400000.0625,-20140.080078125,-400000.0625,-14353.0400390625,-400000.0625
145.63907980918884,-400000.0625,-20834.5390625,-15186.98046875,-400000.0625,-20162.390625,-400000.0625,-14377.169921875,-400000.0625
145.6390838623047,-400000.0625,-20810.080078125,-15161.4697265625,-400000.0625,-20134.880859375,-400000.0625,-14344.0302734375,-400000.0625
145.63908767700195,-400000.0625,-20767.7890625,-15122.3203125,-400000.0625,-20098.44921875,-400000.0625,-14304.259765625,-400000.0625
145.63909149169922,-400000.0625,-20769.7890625,-15127.330078125,-400000.0625,-20104.220703125,-400000.0625,-14312.0302734375,-400000.0625
145.6390950679779,-400000.0625,-20818.759765625,-15171.4296875,-400000.0625,-20144.939453125,-400000.0625,-14354.66015625,-400000.0625
145.63909888267517,-400000.0625,-20840.26953125,-15193.650390625,-400000.0625,-20159.2890625,-400000.0625,-14376.9296875,-400000.0625
145.63910269737244,-400000.0625,-20806.26953125,-15162.51953125,-400000.0625,-20130.919921875,-400000.0625,-14342.4501953125,-400000.0625
145.6391065120697,-400000.0625,-20768.119140625,-15122.9404296875,-400000.0625,-20097.58984375,-400000.0625,-14300.490234375,-400000.0625
145.63911080360413,-400000.0625,-20771.119140625,-15126.419921875,-400000.0625,-20104.509765625,-400000.0625,-14306.98046875,-400000.0625
145.6391146183014,-400000.0625,-20812.279296875,-15168.6201171875,-400000.0625,-20140.599609375,-400000.0625,-14353.1298828125,-400000.0625
145.63911843299866,-400000.0625,-20838.640625,-15189.8896484375,-400000.0625,-20160.25,-400000.0625,-14375.4501953125,-400000.0625
145.63912200927734,-400000.0625,-20807.3203125,-15160.849609375,-400000.0625,-20139.740234375,-400000.0625,-14340.16015625,-400000.0625
145.6391260623932,-400000.0625,-20768.5,-15122.509765625,-400000.0625,-20103.650390625,-400000.0625,-14300.1103515625,-400000.0625
145.63912963867188,-400000.0625,-20775.890625,-15129.5703125,-400000.0625,-20107.130859375,-400000.0625,-14308.5498046875,-400000.0625
145.63913345336914,-400000.0625,-20816.419921875,-15171.150390625,-400000.0625,-20141.650390625,-400000.0625,-14358.4697265625,-400000.0625
145.6391372680664,-400000.0625,-20837.259765625,-15192.3701171875,-400000.0625,-20153.48046875,-400000.0625,-14381.41015625,-400000.0625
145.6391408443451,-400000.0625,-20804.689453125,-15160.7099609375,-400000.0625,-20124.009765625,-400000.0625,-14346.7900390625,-400000.0625
145.6391453742981,-400000.0625,-20767.740234375,-15124.6103515625,-400000.0625,-20096.400390625,-400000.0625,-14305.16015625,-400000.0625
145.63914895057678,-400000.0625,-20773.130859375,-15130.9501953125,-400000.0625,-20109.26953125,-400000.0625,-14308.7900390625,-400000.0625
145.63915276527405,-400000.0625,-20815.80078125,-15172.580078125,-400000.0625,-20146.560546875,-400000.0625,-14359.2900390625,-400000.0625
145.6391568183899,-400000.0625,-20836.640625,-15192.5595703125,-400000.0625,-20163.16015625,-400000.0625,-14382.8896484375,-400000.0625
145.63916039466858,-400000.0625,-20805.98046875,-15163.1396484375,-400000.0625,-20136.01953125,-400000.0625,-14347.83984375,-400000.0625
145.66098141670227,-400000.0625,-20765.689453125,-15123.419921875,-400000.0625,-20101.98046875,-400000.0625,-14306.0703125,-400000.0625
145.66711974143982,-400000.0625,-20768.83984375,-15128.8095703125,-400000.0625,-20104.4609375,-400000.0625,-14310.5498046875,-400000.0625
145.67195582389832,-400000.0625,-20818.669921875,-15176.349609375,-400000.0625,-20142.26953125,-400000.0625,-14363.580078125,-400000.0625
145.67196679115295,-400000.0625,-20845.75,-15197.4697265625,-400000.0625,-20166.349609375,-400000.0625,-14388.2802734375,-400000.0625
145.67197132110596,-400000.0625,-20811.609375,-15166.9501953125,-400000.0625,-20138.080078125,-400000.0625,-14349.75,-400000.0625
145.6719753742218,-400000.0625,-20769.41015625,-15127.990234375,-400000.0625,-20100.689453125,-400000.0625,-14311.41015625,-400000.0625
145.67197918891907,-400000.0625,-20769.169921875,-15131.330078125,-400000.0625,-20107.939453125,-400000.0625,-14319.2802734375,-400000.0625
145.6719832420349,-400000.0625,-20815.330078125,-15174.8203125,-400000.0625,-20148.609375,-400000.0625,-14365.6298828125,-400000.0625
145.6719868183136,-400000.0625,-20840.98046875,-15193.990234375,-400000.0625,-20161.349609375,-400000.0625,-14389.330078125,-400000.0625
145.67199039459229,-400000.0625,-20809.26953125,-15165.9501953125,-400000.0625,-20131.400390625,-400000.0625,-14355.23046875,-400000.0625
145.67199397087097,-400000.0625,-20768.119140625,-15130.759765625,-400000.0625,-20102.740234375,-400000.0625,-14312.83984375,-400000.0625
145.67199778556824,-400000.0625,-20772.7890625,-15131.51953125,-400000.0625,-20108.990234375,-400000.0625,-14314.9404296875,-400000.0625
145.67200136184692,-400000.0625,-20816.900390625,-15172.91015625,-400000.0625,-20140.359375,-400000.0625,-14363.2001953125,-400000.0625
145.6720049381256,-400000.0625,-20834.0703125,-15190.509765625,-400000.0625,-20159.720703125,-400000.0625,-14388.0400390625,-400000.0625
145.6720085144043,-400000.0625,-20807.98046875,-15166.48046875,-400000.0625,-20139.080078125,-400000.0625,-14353.6103515625,-400000.0625
145.67201209068298,-400000.0625,-20769.359375,-15129.419921875,-400000.0625,-20105.69921875,-400000.0625,-14312.3203125,-400000.0625
145.74612760543823,-400000.0625,-20767.169921875,-15128.51953125,-400000.0625,-20108.509765625,-400000.0625,-14315.3701171875,-400000.0625
145.75732493400574,-400000.0625,-20812.990234375,-15173.3896484375,-400000.0625,-20150.619140625,-400000.0625,-14363.8203125,-400000.0625
145.76289319992065,-400000.0625,-20831.5390625,-15190.7001953125,-400000.0625,-20162.16015625,-400000.0625,-14386.7998046875,-400000.0625
145.76778531074524,-400000.0625,-20800.16015625,-15161.3701171875,-400000.0625,-20131.259765625,-400000.0625,-14350.849609375,-400000.0625
145.76779317855835,-400000.0625,-20763.44921875,-15126.330078125,-400000.0625,-20104.4609375,-400000.0625,-14310.0302734375,-400000.0625
145.76779770851135,-400000.0625,-20764.9296875,-15125.849609375,-400000.0625,-20098.740234375,-400000.0625,-14311.3203125,-400000.0625
145.76780152320862,-400000.0625,-20807.83984375,-15165.6201171875,-400000.0625,-20135.9296875,-400000.0625,-14356.6103515625,-400000.0625
145.76780533790588,-400000.0625,-20829.970703125,-15189.7900390625,-400000.0625,-20161.869140625,-400000.0625,-14380.1201171875,-400000.0625
145.767808675766,-400000.0625,-20796.25,-15161.7998046875,-400000.0625,-20138.359375,-400000.0625,-14345.1201171875,-400000.0625
145.76781249046326,-400000.0625,-20757.630859375,-15124.419921875,-400000.0625,-20104.359375,-400000.0625,-14308.5498046875,-400000.0625
145.76781582832336,-400000.0625,-20764.970703125,-15128.7099609375,-400000.0625,-20104.599609375,-400000.0625,-14310.3095703125,-400000.0625
145.76781964302063,-400000.0625,-20813.75,-15174.3896484375,-400000.0625,-20142.4609375,-400000.0625,-14359.51953125,-400000.0625
145.76782298088074,-400000.0625,-20834.0703125,-15191.9404296875,-400000.0625,-20164.779296875,-400000.0625,-14380.26953125,-400000.0625
145.76782655715942,-400000.0625,-20802.640625,-15161.5595703125,-400000.0625,-20138.7890625,-400000.0625,-14346.4599609375,-400000.0625
145.7678301334381,-400000.0625,-20765.349609375,-15126.849609375,-400000.0625,-20101.880859375,-400000.0625,-14308.41015625,-400000.0625
145.7678349018097,-400000.0625,-20765.16015625,-15124.9404296875,-400000.0625,-20104.080078125,-400000.0625,-14313.0302734375,-400000.0625
145.77855372428894,-400000.0625,-20809.75,-15168.7197265625,-400000.0625,-20138.650390625,-400000.0625,-14362.150390625,-400000.0625
145.7845437526703,-400000.0625,-20834.5,-15191.26953125,-400000.0625,-20161.490234375,-400000.0625,-14384.650390625,-400000.0625
145.7896647453308,-400000.0625,-20803.44921875,-15159.3701171875,-400000.0625,-20131.689453125,-400000.0625,-14347.83984375,-400000.0625
145.796231508255,-400000.0625,-20762.16015625,-15121.5595703125,-400000.0625,-20093.16015625,-400000.0625,-14308.259765625,-400000.0625
145.80118799209595,-400000.0625,-20762.109375,-15124.419921875,-400000.0625,-20100.640625,-400000.0625,-14311.7900390625,-400000.0625
145.80119705200195,-400000.0625,-20807.3203125,-15168.240234375,-400000.0625,-20144.509765625,-400000.0625,-14359.5703125,-400000.0625
145.80120158195496,-400000.0625,-20835.830078125,-15193.1298828125,-400000.0625,-20164.779296875,-400000.0625,-14382.9404296875,-400000.0625
145.80120539665222,-400000.0625,-20808.990234375,-15167.330078125,-400000.0625,-20137.259765625,-400000.0625,-14348.169921875,-400000.0625
145.8012092113495,-400000.0625,-20766.169921875,-15129.0400390625,-400000.0625,-20103.5,-400000.0625,-14310.41015625,-400000.0625
145.80121302604675,-400000.0625,-20769.599609375,-15129.8095703125,-400000.0625,-20101.650390625,-400000.0625,-14315.419921875,-400000.0625
145.80121660232544,-400000.0625,-20816.470703125,-15172.7197265625,-400000.0625,-20138.080078125,-400000.0625,-14358.330078125,-400000.0625
145.8012204170227,-400000.0625,-20841.55078125,-15197.5595703125,-400000.0625,-20158.439453125,-400000.0625,-14387.0400390625,-400000.0625
145.8012239933014,-400000.0625,-20809.69921875,-15168.48046875,-400000.0625,-20136.98046875,-400000.0625,-14351.1298828125,-400000.0625
145.80122780799866,-400000.0625,-20767.41015625,-15129.8095703125,-400000.0625,-20109.0390625,-400000.0625,-14309.5,-400000.0625
145.80123138427734,-400000.0625,-20770.740234375,-15134.1904296875,-400000.0625,-20108.130859375,-400000.0625,-14314.7001953125,-400000.0625
145.80123662948608,-400000.0625,-20812.560546875,-15172.099609375,-400000.0625,-20136.83984375,-400000.0625,-14357.3798828125,-400000.0625
145.84414839744568,-400000.0625,-20835.779296875,-15195.7099609375,-400000.0625,-20165.779296875,-400000.0625,-14385.0302734375,-400000.0625
145.8492283821106,-400000.0625,-20804.029296875,-15167.2900390625,-400000.0625,-20143.609375,-400000.0625,-14354.9501953125,-400000.0625
145.85815834999084,-400000.0625,-20765.310546875,-15127.4697265625,-400000.0625,-20098.55078125,-400000.0625,-14312.4599609375,-400000.0625
145.8635015487671,-400000.0625,-20767.55078125,-15126.419921875,-400000.0625,-20094.490234375,-400000.0625,-14313.080078125,-400000.0625
145.86825561523438,-400000.0625,-20811.23046875,-15169.7197265625,-400000.0625,-20134.740234375,-400000.0625,-14359.6201171875,-400000.0625
145.86826348304749,-400000.0625,-20833.0703125,-15189.4599609375,-400000.0625,-20158.009765625,-400000.0625,-14389.6103515625,-400000.0625
145.8682680130005,-400000.0625,-20802.830078125,-15159.4697265625,-400000.0625,-20135.259765625,-400000.0625,-14351.4697265625,-400000.0625
145.86827206611633,-400000.0625,-20762.060546875,-15122.1298828125,-400000.0625,-20101.5,-400000.0625,-14307.01953125,-400000.0625
145.86827564239502,-400000.0625,-20764.2109375,-15125.849609375,-400000.0625,-20102.41015625,-400000.0625,-14315.080078125,-400000.0625
145.8682792186737,-400000.0625,-20808.41015625,-15167.9501953125,-400000.0625,-20137.880859375,-400000.0625,-14363.33984375,-400000.0625
145.8682827949524,-400000.0625,-20834.400390625,-15191.7001953125,-400000.0625,-20158.8203125,-400000.0625,-14385.1796875,-400000.0625
145.8682861328125,-400000.0625,-20801.740234375,-15160.3701171875,-400000.0625,-20133.400390625,-400000.0625,-14352.900390625,-400000.0625
145.8682897090912,-400000.0625,-20764.259765625,-15124.66015625,-400000.0625,-20100.0703125,-400000.0625,-14308.650390625,-400000.0625
145.86829328536987,-400000.0625,-20770.26953125,-15128.849609375,-400000.0625,-20097.73046875,-400000.0625,-14317.419921875,-400000.0625
145.86829662322998,-400000.0625,-20813.08984375,-15170.669921875,-400000.0625,-20132.640625,-400000.0625,-14364.4404296875,-400000.0625
145.86830115318298,-400000.0625,-20834.73046875,-15192.8896484375,-400000.0625,-20156.619140625,-400000.0625,-14385.26953125,-400000.0625
145.9124140739441,-400000.0625,-20803.0703125,-15162.759765625,-400000.0625,-20134.98046875,-400000.0625,-14354.330078125,-400000.0625
145.91780996322632,-400000.0625,-20761.490234375,-15123.7998046875,-400000.0625,-20104.939453125,-400000.0625,-14313.0302734375,-400000.0625
145.92246532440186,-400000.0625,-20759.5390625,-15125.08984375,-400000.0625,-20098.970703125,-400000.0625,-14314.509765625,-400000.0625
145.92247319221497,-400000.0625,-20807.75,-15171.91015625,-400000.0625,-20133.640625,-400000.0625,-14359.91015625,-400000.0625
145.9224774837494,-400000.0625,-20833.880859375,-15192.83984375,-400000.0625,-20156.580078125,-400000.0625,-14381.0302734375,-400000.0625
145.92248153686523,-400000.0625,-20803.259765625,-15165.8603515625,-400000.0625,-20135.9296875,-400000.0625,-14352.509765625,-400000.0625
145.9224853515625,-400000.0625,-20764.44921875,-15129.0400390625,-400000.0625,-20099.0703125,-400000.0625,-14311.2197265625,-400000.0625
145.9224889278412,-400000.0625,-20766.740234375,-15132.3798828125,-400000.0625,-20096.30078125,-400000.0625,-14312.41015625,-400000.0625
145.92249250411987,-400000.0625,-20809.1796875,-15175.5400390625,-400000.0625,-20135.41015625,-400000.0625,-14356.330078125,-400000.0625
145.92249608039856,-400000.0625,-20831.869140625,-15195.849609375,-400000.0625,-20161.25,-400000.0625,-14381.3203125,-400000.0625
145.92249965667725,-400000.0625,-20803.119140625,-15166.330078125,-400000.0625,-20134.7890625,-400000.0625,-14352.0400390625,-400000.0625
145.9225034713745,-400000.0625,-20761.869140625,-15127.2802734375,-400000.0625,-20093.19921875,-400000.0625,-14309.83984375,-400000.0625
145.92250728607178,-400000.0625,-20765.119140625,-15134.0498046875,-400000.0625,-20096.01953125,-400000.0625,-14307.830078125,-400000.0625
145.92251086235046,-400000.0625,-20811.080078125,-15177.73046875,-400000.0625,-20138.69921875,-400000.0625,-14355.5703125,-400000.0625
145.9225151538849,-400000.0625,-20834.640625,-15199.7099609375,-400000.0625,-20158.8203125,-400000.0625,-14380.8896484375,-400000.0625
145.92251896858215,-400000.0625,-20805.029296875,-15173.4404296875,-400000.0625,-20135.01953125,-400000.0625,-14349.6103515625,-400000.0625
145.97589898109436,-400000.0625,-20764.830078125,-15135.150390625,-400000.0625,-20097.9296875,-400000.0625,-14305.9296875,-400000.0625
145.98543238639832,-400000.0625,-20774.220703125,-15134.669921875,-400000.0625,-20103.080078125,-400000.0625,-14310.3095703125,-400000.0625
145.9896945953369,-400000.0625,-20829.16015625,-15182.9697265625,-400000.0625,-20146.900390625,-400000.0625,-14365.91015625,-400000.0625
145.98970222473145,-400000.0625,-20852.900390625,-15202.0498046875,-400000.0625,-20162.630859375,-400000.0625,-14392.5703125,-400000.0625
145.98970651626587,-400000.0625,-20823.529296875,-15180.0703125,-400000.0625,-20140.650390625,-400000.0625,-14359.330078125,-400000.0625
145.9897105693817,-400000.0625,-20787.240234375,-15148.6904296875,-400000.0625,-20104.939453125,-400000.0625,-14315.1298828125,-400000.0625
145.98971390724182,-400000.0625,-20787.33984375,-15151.9296875,-400000.0625,-20100.7890625,-400000.0625,-14318.3701171875,-400000.0625
145.98971796035767,-400000.0625,-20836.44921875,-15198.419921875,-400000.0625,-20129.30078125,-400000.0625,-14371.58984375,-400000.0625
145.98972129821777,-400000.0625,-20869.830078125,-15225.8896484375,-400000.0625,-20155.05078125,-400000.0625,-14399.6298828125,-400000.0625
145.9897243976593,-400000.0625,-20847.509765625,-15203.099609375,-400000.0625,-20138.5,-400000.0625,-14376.6904296875,-400000.0625
145.9897277355194,-400000.0625,-20811.3203125,-15164.9501953125,-400000.0625,-20101.169921875,-400000.0625,-14337.5400390625,-400000.0625
145.98973107337952,-400000.0625,-20817.08984375,-15171.7197265625,-400000.0625,-20097.16015625,-400000.0625,-14338.01953125,-400000.0625
145.98973441123962,-400000.0625,-20865.060546875,-15218.5498046875,-400000.0625,-20132.16015625,-400000.0625,-14389.7099609375,-400000.0625
145.98973774909973,-400000.0625,-20902.109375,-15246.25,-400000.0625,-20157.4296875,-400000.0625,-14421.66015625,-400000.0625
145.98974108695984,-400000.0625,-20880.1796875,-15221.8798828125,-400000.0625,-20131.779296875,-400000.0625,-14395.8603515625,-400000.0625
145.98974442481995,-400000.0625,-20845.69921875,-15190.41015625,-400000.0625,-20103.5,-400000.0625,-14359.0498046875,-400000.0625
146.04305243492126,-400000.0625,-20849.51953125,-15194.1298828125,-400000.0625,-20107.080078125,-400000.0625,-14361.3798828125,-400000.0625
146.04861569404602,-400000.0625,-20898.30078125,-15235.6201171875,-400000.0625,-20133.9296875,-400000.0625,-14412.1201171875,-400000.0625
146.0535168647766,-400000.0625,-20940.119140625,-15271.0498046875,-400000.0625,-20150.849609375,-400000.0625,-14444.0703125,-400000.0625
146.05352568626404,-400000.0625,-20912.509765625,-15246.6796875,-400000.0625,-20127.73046875,-400000.0625,-14417.4599609375,-400000.0625
146.05352997779846,-400000.0625,-20875.26953125,-15212.4404296875,-400000.0625,-20093.060546875,-400000.0625,-14381.98046875,-400000.0625
146.05353379249573,-400000.0625,-20893.0,-15222.740234375,-400000.0625,-20101.119140625,-400000.0625,-14388.2802734375,-400000.0625
146.0535373687744,-400000.0625,-20946.83984375,-15268.3798828125,-400000.0625,-20145.66015625,-400000.0625,-14437.76953125,-400000.0625
146.05354237556458,-400000.0625,-20977.169921875,-15293.7900390625,-400000.0625,-20160.9609375,-400000.0625,-14473.8203125,-400000.0625
146.05354619026184,-400000.0625,-20953.509765625,-15264.3203125,-400000.0625,-20128.439453125,-400000.0625,-14440.349609375,-400000.0625
146.0535500049591,-400000.0625,-20912.509765625,-15228.3701171875,-400000.0625,-20090.6796875,-400000.0625,-14400.33984375,-400000.0625
146.0535535812378,-400000.0625,-20930.859375,-15241.33984375,-400000.0625,-20099.169921875,-400000.0625,-14411.98046875,-400000.0625
146.05355739593506,-400000.0625,-20978.0703125,-15285.6396484375,-400000.0625,-20135.41015625,-400000.0625,-14455.650390625,-400000.0625
146.05356097221375,-400000.0625,-21003.529296875,-15313.48046875,-400000.0625,-20155.240234375,-400000.0625,-14480.9296875,-400000.0625
146.05356431007385,-400000.0625,-20970.439453125,-15279.580078125,-400000.0625,-20134.310546875,-400000.0625,-14452.4599609375,-400000.0625
146.05356812477112,-400000.0625,-20932.009765625,-15239.33984375,-400000.0625,-20105.029296875,-400000.0625,-14407.6796875,-400000.0625
146.0535717010498,-400000.0625,-20937.5390625,-15243.76953125,-400000.0625,-20102.689453125,-400000.0625,-14409.259765625,-400000.0625
146.1175925731659,-400000.0625,-20977.359375,-15281.4404296875,-400000.0625,-20139.55078125,-400000.0625,-14455.83984375,-400000.0625
146.12734723091125,-400000.0625,-20999.05078125,-15301.900390625,-400000.0625,-20162.8203125,-400000.0625,-14477.58984375,-400000.0625
146.13240385055542,-400000.0625,-20968.060546875,-15273.48046875,-400000.0625,-20135.689453125,-400000.0625,-14445.400390625,-400000.0625
146.13770508766174,-400000.0625,-20923.330078125,-15233.7099609375,-400000.0625,-20099.58984375,-400000.0625,-14399.3896484375,-400000.0625
146.14282512664795,-400000.0625,-20921.849609375,-15233.849609375,-400000.0625,-20100.9296875,-400000.0625,-14399.150390625,-400000.0625
146.1478362083435,-400000.0625,-20966.580078125,-15274.7197265625,-400000.0625,-20138.080078125,-400000.0625,-14446.5498046875,-400000.0625
146.1529598236084,-400000.0625,-20990.330078125,-15300.3203125,-400000.0625,-20162.25,-400000.0625,-14471.580078125,-400000.0625
146.1577696800232,-400000.0625,-20961.859375,-15273.91015625,-400000.0625,-20137.98046875,-400000.0625,-14441.400390625,-400000.0625
146.15777826309204,-400000.0625,-20919.66015625,-15235.900390625,-400000.0625,-20106.890625,-400000.0625,-14399.150390625,-400000.0625
146.15778255462646,-400000.0625,-20918.66015625,-15233.08984375,-400000.0625,-20113.0390625,-400000.0625,-14396.91015625,-400000.0625
146.15778613090515,-400000.0625,-20970.779296875,-15276.8203125,-400000.0625,-20149.810546875,-400000.0625,-14441.6796875,-400000.0625
146.15778994560242,-400000.0625,-20998.76953125,-15299.509765625,-400000.0625,-20163.16015625,-400000.0625,-14471.91015625,-400000.0625
146.1577935218811,-400000.0625,-20965.009765625,-15270.2802734375,-400000.0625,-20132.01953125,-400000.0625,-14438.5400390625,-400000.0625
146.15779757499695,-400000.0625,-20918.560546875,-15234.419921875,-400000.0625,-20103.55078125,-400000.0625,-14388.0400390625,-400000.0625
146.15780115127563,-400000.0625,-20922.51953125,-15247.16015625,-400000.0625,-20113.279296875,-400000.0625,-14387.419921875,-400000.0625
146.1578061580658,-400000.0625,-20972.30078125,-15296.1298828125,-400000.0625,-20151.810546875,-400000.0625,-14430.330078125,-400000.0625
146.17756462097168,-400000.0625,-20996.5703125,-15317.7802734375,-400000.0625,-20169.58984375,-400000.0625,-14447.8798828125,-400000.0625
146.18305277824402,-400000.0625,-20976.830078125,-15300.2802734375,-400000.0625,-20151.94921875,-400000.0625,-14419.0302734375,-400000.0625
146.18754386901855,-400000.0625,-20937.6796875,-15268.66015625,-400000.0625,-20125.439453125,-400000.0625,-14365.5302734375,-400000.0625
146.1875512599945,-400000.0625,-20934.439453125,-15272.3798828125,-400000.0625,-20131.16015625,-400000.0625,-14363.33984375,-400000.0625
146.18755531311035,-400000.0625,-20979.119140625,-15313.8701171875,-400000.0625,-20163.970703125,-400000.0625,-14407.4501953125,-400000.0625
146.18755888938904,-400000.0625,-21002.30078125,-15337.08984375,-400000.0625,-20179.23046875,-400000.0625,-14430.1904296875,-400000.0625
146.18756222724915,-400000.0625,-20970.869140625,-15311.6201171875,-400000.0625,-20156.19921875,-400000.0625,-14399.009765625,-400000.0625
146.18756532669067,-400000.0625,-20932.630859375,-15274.8095703125,-400000.0625,-20126.060546875,-400000.0625,-14355.51953125,-400000.0625
146.18756866455078,-400000.0625,-20933.580078125,-15276.669921875,-400000.0625,-20127.630859375,-400000.0625,-14354.990234375,-400000.0625
146.1875717639923,-400000.0625,-20974.73046875,-15318.2001953125,-400000.0625,-20163.060546875,-400000.0625,-14402.9599609375,-400000.0625
146.18757510185242,-400000.0625,-20994.05078125,-15339.1904296875,-400000.0625,-20183.140625,-400000.0625,-14426.23046875,-400000.0625
146.18757820129395,-400000.0625,-20963.0,-15310.8603515625,-400000.0625,-20161.5390625,-400000.0625,-14392.759765625,-400000.0625
146.18758153915405,-400000.0625,-20921.810546875,-15271.8603515625,-400000.0625,-20132.970703125,-400000.0625,-14353.7099609375,-400000.0625
146.18758463859558,-400000.0625,-20925.099609375,-15270.849609375,-400000.0625,-20134.55078125,-400000.0625,-14349.7998046875,-400000.0625
146.1875879764557,-400000.0625,-20969.8203125,-15312.009765625,-400000.0625,-20164.919921875,-400000.0625,-14394.5703125,-400000.0625
146.18759107589722,-400000.0625,-20990.759765625,-15333.509765625,-400000.0625,-20177.4609375,-400000.0625,-14423.3701171875,-400000.0625
146.2248673439026,-400000.0625,-20963.9609375,-15308.099609375,-400000.0625,-20158.580078125,-400000.0625,-14394.0498046875,-400000.0625
146.23443508148193,-400000.0625,-20924.189453125,-15272.91015625,-400000.0625,-20128.5390625,-400000.0625,-14350.849609375,-400000.0625
146.2390604019165,-400000.0625,-20923.279296875,-15273.8095703125,-400000.0625,-20131.58984375,-400000.0625,-14350.9404296875,-400000.0625
146.2390685081482,-400000.0625,-20968.25,-15315.1103515625,-400000.0625,-20163.009765625,-400000.0625,-14398.240234375,-400000.0625
146.23907279968262,-400000.0625,-20989.7109375,-15336.9404296875,-400000.0625,-20176.75,-400000.0625,-14425.08984375,-400000.0625
146.23907661437988,-400000.0625,-20961.619140625,-15309.8603515625,-400000.0625,-20157.48046875,-400000.0625,-14395.240234375,-400000.0625
146.23908042907715,-400000.0625,-20917.470703125,-15266.7998046875,-400000.0625,-20127.6796875,-400000.0625,-14351.8896484375,-400000.0625
146.2390842437744,-400000.0625,-20919.51953125,-15268.2802734375,-400000.0625,-20125.73046875,-400000.0625,-14354.51953125,-400000.0625
146.2390878200531,-400000.0625,-20964.009765625,-15310.6201171875,-400000.0625,-20158.009765625,-400000.0625,-14402.009765625,-400000.0625
146.2390913963318,-400000.0625,-20991.380859375,-15336.9404296875,-400000.0625,-20183.849609375,-400000.0625,-14429.0498046875,-400000.0625
146.23909497261047,-400000.0625,-20968.73046875,-15313.580078125,-400000.0625,-20168.01953125,-400000.0625,-14401.6796875,-400000.0625
146.2390992641449,-400000.0625,-20925.330078125,-15271.240234375,-400000.0625,-20129.779296875,-400000.0625,-14355.3798828125,-400000.0625
146.23910284042358,-400000.0625,-20918.609375,-15269.6201171875,-400000.0625,-20129.25,-400000.0625,-14357.9501953125,-400000.0625
146.23910641670227,-400000.0625,-20962.91015625,-15308.9501953125,-400000.0625,-20164.25,-400000.0625,-14404.1103515625,-400000.0625
146.23911023139954,-400000.0625,-20991.609375,-15333.23046875,-400000.0625,-20178.509765625,-400000.0625,-14426.66015625,-400000.0625
146.23911380767822,-400000.0625,-20959.759765625,-15304.0400390625,-400000.0625,-20153.240234375,-400000.0625,-14402.2001953125,-400000.0625
146.29014134407043,-400000.0625,-20916.75,-15266.4697265625,-400000.0625,-20125.869140625,-400000.0625,-14356.759765625,-400000.0625
146.29625296592712,-400000.0625,-20918.939453125,-15268.1396484375,-400000.0625,-20124.580078125,-400000.0625,-14357.6201171875,-400000.0625
146.3035056591034,-400000.0625,-20967.060546875,-15314.3896484375,-400000.0625,-20155.9609375,-400000.0625,-14410.0703125,-400000.0625
146.30876851081848,-400000.0625,-20990.08984375,-15336.08984375,-400000.0625,-20177.220703125,-400000.0625,-14432.240234375,-400000.0625
146.31435990333557,-400000.0625,-20966.25,-15313.009765625,-400000.0625,-20163.16015625,-400000.0625,-14404.6796875,-400000.0625
146.31944131851196,-400000.0625,-20923.7109375,-15273.1904296875,-400000.0625,-20128.6796875,-400000.0625,-14358.900390625,-400000.0625
146.32413530349731,-400000.0625,-20923.7109375,-15271.1904296875,-400000.0625,-20124.490234375,-400000.0625,-14362.669921875,-400000.0625
146.32414364814758,-400000.0625,-20965.669921875,-15311.580078125,-400000.0625,-20160.73046875,-400000.0625,-14407.58984375,-400000.0625
146.32414770126343,-400000.0625,-20988.560546875,-15332.7998046875,-400000.0625,-20177.80078125,-400000.0625,-14429.669921875,-400000.0625
146.32415175437927,-400000.0625,-20961.189453125,-15306.330078125,-400000.0625,-20149.66015625,-400000.0625,-14399.76953125,-400000.0625
146.32415533065796,-400000.0625,-20924.240234375,-15271.240234375,-400000.0625,-20123.19921875,-400000.0625,-14360.48046875,-400000.0625
146.32415890693665,-400000.0625,-20931.580078125,-15274.240234375,-400000.0625,-20133.9296875,-400000.0625,-14360.4296875,-400000.0625
146.32416248321533,-400000.0625,-20975.640625,-15312.5302734375,-400000.0625,-20164.58984375,-400000.0625,-14403.5400390625,-400000.0625
146.32416605949402,-400000.0625,-20986.75,-15330.650390625,-400000.0625,-20173.119140625,-400000.0625,-14433.8603515625,-400000.0625
146.32416987419128,-400000.0625,-20957.7109375,-15307.3798828125,-400000.0625,-20154.91015625,-400000.0625,-14409.9697265625,-400000.0625
146.32417345046997,-400000.0625,-20915.69921875,-15264.3701171875,-400000.0625,-20122.009765625,-400000.0625,-14367.150390625,-400000.0625
146.3598816394806,-400000.0625,-20912.75,-15259.5498046875,-400000.0625,-20122.099609375,-400000.0625,-14372.490234375,-400000.0625
146.36976528167725,-400000.0625,-20955.900390625,-15294.169921875,-400000.0625,-20155.2890625,-400000.0625,-14425.4697265625,-400000.0625
146.374449968338,-400000.0625,-20979.880859375,-15314.0595703125,-400000.0625,-20167.58984375,-400000.0625,-14456.0400390625,-400000.0625
146.37445759773254,-400000.0625,-20951.80078125,-15287.3095703125,-400000.0625,-20139.41015625,-400000.0625,-14429.900390625,-400000.0625
146.37446188926697,-400000.0625,-20904.109375,-15239.8095703125,-400000.0625,-20103.220703125,-400000.0625,-14393.8603515625,-400000.0625
146.3744659423828,-400000.0625,-20903.2109375,-15235.8095703125,-400000.0625,-20104.3203125,-400000.0625,-14399.76953125,-400000.0625
146.37446999549866,-400000.0625,-20945.41015625,-15273.2900390625,-400000.0625,-20144.0390625,-400000.0625,-14456.419921875,-400000.0625
146.37447381019592,-400000.0625,-20968.390625,-15288.9296875,-400000.0625,-20163.58984375,-400000.0625,-14486.169921875,-400000.0625
146.3744773864746,-400000.0625,-20938.44921875,-15255.98046875,-400000.0625,-20137.359375,-400000.0625,-14456.6103515625,-400000.0625
146.3744809627533,-400000.0625,-20896.2890625,-15210.6298828125,-400000.0625,-20102.220703125,-400000.0625,-14418.2197265625,-400000.0625
146.37448477745056,-400000.0625,-20898.060546875,-15206.3896484375,-400000.0625,-20095.6796875,-400000.0625,-14417.98046875,-400000.0625
146.37448954582214,-400000.0625,-20954.130859375,-15250.6396484375,-400000.0625,-20125.919921875,-400000.0625,-14457.23046875,-400000.0625
146.37449312210083,-400000.0625,-21000.580078125,-15257.6904296875,-400000.0625,-20139.69921875,-400000.0625,-14475.2998046875,-400000.0625
146.37449645996094,-400000.0625,-20971.869140625,-15233.0400390625,-400000.0625,-20120.2890625,-400000.0625,-14449.0703125,-400000.0625
146.37450003623962,-400000.0625,-20942.0703125,-15200.8095703125,-400000.0625,-20091.109375,-400000.0625,-14402.0595703125,-400000.0625
146.3745036125183,-400000.0625,-20939.5390625,-15189.26953125,-400000.0625,-20080.0390625,-400000.0625,-14391.23046875,-400000.0625
146.48515272140503,-400000.0625,-20993.900390625,-15245.25,-400000.0625,-20115.380859375,-400000.0625,-14464.900390625,-400000.0625
146.4959590435028,-400000.0625,-21013.44921875,-15283.400390625,-400000.0625,-20135.5,-400000.0625,-14502.48046875,-400000.0625
146.5011863708496,-400000.0625,-20993.4296875,-15270.4697265625,-400000.0625,-20107.560546875,-400000.0625,-14484.2197265625,-400000.0625
146.5061228275299,-400000.0625,-21008.73046875,-15240.8603515625,-400000.0625,-20067.119140625,-400000.0625,-14444.3095703125,-400000.0625
146.5061318874359,-400000.0625,-21035.33984375,-15230.0400390625,-400000.0625,-20047.05078125,-400000.0625,-14436.33984375,-400000.0625
146.50613641738892,-400000.0625,-21082.5,-15288.7802734375,-400000.0625,-20073.849609375,-400000.0625,-14508.73046875,-400000.0625
146.50614047050476,-400000.0625,-21155.310546875,-15353.5400390625,-400000.0625,-20091.390625,-400000.0625,-14568.9501953125,-400000.0625
146.50614404678345,-400000.0625,-21154.259765625,-15345.3798828125,-400000.0625,-20061.44921875,-400000.0625,-14569.48046875,-400000.0625
146.50614762306213,-400000.0625,-21170.240234375,-15323.2099609375,-400000.0625,-20013.099609375,-400000.0625,-14549.01953125,-400000.0625
146.5061514377594,-400000.0625,-21209.619140625,-15333.26953125,-400000.0625,-19989.779296875,-400000.0625,-14554.5498046875,-400000.0625
146.5061550140381,-400000.0625,-21261.310546875,-15389.1103515625,-400000.0625,-20020.630859375,-400000.0625,-14619.16015625,-400000.0625
146.5061593055725,-400000.0625,-21328.740234375,-15436.7900390625,-400000.0625,-20044.51953125,-400000.0625,-14673.2802734375,-400000.0625
146.5061628818512,-400000.0625,-21328.98046875,-15407.66015625,-400000.0625,-20008.0390625,-400000.0625,-14649.2001953125,-400000.0625
146.50616645812988,-400000.0625,-21308.470703125,-15370.7001953125,-400000.0625,-19967.369140625,-400000.0625,-14613.919921875,-400000.0625
146.50617003440857,-400000.0625,-21334.890625,-15392.400390625,-400000.0625,-19968.80078125,-400000.0625,-14627.740234375,-400000.0625
146.50617384910583,-400000.0625,-21394.640625,-15428.8798828125,-400000.0625,-19989.30078125,-400000.0625,-14665.8896484375,-400000.0625
146.5061776638031,-400000.0625,-21461.439453125,-15448.0498046875,-400000.0625,-20003.890625,-400000.0625,-14708.0400390625,-400000.0625
146.5061821937561,-400000.0625,-21446.08984375,-15426.830078125,-400000.0625,-19982.150390625,-400000.0625,-14685.6796875,-400000.0625
146.5061857700348,-400000.0625,-21371.560546875,-15408.6103515625,-400000.0625,-19946.9609375,-400000.0625,-14659.3603515625,-400000.0625
146.50618958473206,-400000.0625,-21385.05078125,-15414.7197265625,-400000.0625,-19945.91015625,-400000.0625,-14665.9404296875,-400000.0625
146.50619316101074,-400000.0625,-21449.0390625,-15451.9599609375,-400000.0625,-19976.08984375,-400000.0625,-14713.3798828125,-400000.0625
146.5113070011139,-400000.0625,-21492.009765625,-15476.990234375,-400000.0625,-19993.44921875,-400000.0625,-14733.3203125,-400000.0625
146.51661801338196,-400000.0625,-21480.51953125,-15442.330078125,-400000.0625,-19963.359375,-400000.0625,-14710.7099609375,-400000.0625
146.52131009101868,-400000.0625,-21433.640625,-15394.740234375,-400000.0625,-19919.830078125,-400000.0625,-14681.099609375,-400000.0625
146.52131867408752,-400000.0625,-21438.69921875,-15402.26953125,-400000.0625,-19914.630859375,-400000.0625,-14681.3896484375,-400000.0625
146.52132320404053,-400000.0625,-21495.25,-15454.150390625,-400000.0625,-19954.2109375,-400000.0625,-14738.1298828125,-400000.0625
146.5213270187378,-400000.0625,-21515.08984375,-15484.2900390625,-400000.0625,-19983.150390625,-400000.0625,-14763.400390625,-400000.0625
146.52133083343506,-400000.0625,-21485.05078125,-15454.8203125,-400000.0625,-19958.16015625,-400000.0625,-14732.3603515625,-400000.0625
146.52133464813232,-400000.0625,-21449.0390625,-15413.3798828125,-400000.0625,-19919.830078125,-400000.0625,-14687.6396484375,-400000.0625
146.521338224411,-400000.0625,-21453.0,-15413.330078125,-400000.0625,-19916.490234375,-400000.0625,-14682.099609375,-400000.0625
146.52134203910828,-400000.0625,-21502.9296875,-15456.3896484375,-400000.0625,-19956.44921875,-400000.0625,-14724.0703125,-400000.0625
146.5213475227356,-400000.0625,-21529.25,-15473.7998046875,-400000.0625,-19972.849609375,-400000.0625,-14750.48046875,-400000.0625
146.56011581420898,-400000.0625,-21503.0703125,-15445.900390625,-400000.0625,-19958.9296875,-400000.0625,-14725.349609375,-400000.0625
146.56626176834106,-400000.0625,-21450.470703125,-15401.26953125,-400000.0625,-19925.259765625,-400000.0625,-14672.5703125,-400000.0625
146.57078099250793,-400000.0625,-21444.0390625,-15392.8798828125,-400000.0625,-19917.6796875,-400000.0625,-14662.41015625,-400000.0625
146.57078862190247,-400000.0625,-21498.490234375,-15427.01953125,-400000.0625,-19954.73046875,-400000.0625,-14719.2998046875,-400000.0625
146.5707929134369,-400000.0625,-21506.220703125,-15455.4404296875,-400000.0625,-19979.33984375,-400000.0625,-14748.4296875,-400000.0625
146.57079696655273,-400000.0625,-21472.55078125,-15427.01953125,-400000.0625,-19960.259765625,-400000.0625,-14714.099609375,-400000.0625
146.57080054283142,-400000.0625,-21429.970703125,-15380.9599609375,-400000.0625,-19925.5,-400000.0625,-14667.0400390625,-400000.0625
146.5708041191101,-400000.0625,-21432.259765625,-15374.1904296875,-400000.0625,-19919.869140625,-400000.0625,-14658.98046875,-400000.0625
146.57080793380737,-400000.0625,-21479.80078125,-15407.419921875,-400000.0625,-19956.44921875,-400000.0625,-14706.849609375,-400000.0625
146.57081174850464,-400000.0625,-21500.970703125,-15441.1298828125,-400000.0625,-19974.66015625,-400000.0625,-14740.7998046875,-400000.0625
146.57081532478333,-400000.0625,-21475.509765625,-15423.7802734375,-400000.0625,-19954.490234375,-400000.0625,-14702.3701171875,-400000.0625
146.570818901062,-400000.0625,-21430.30078125,-15383.6298828125,-400000.0625,-19922.310546875,-400000.0625,-14660.3603515625,-400000.0625
146.5708224773407,-400000.0625,-21430.01953125,-15384.76953125,-400000.0625,-19922.880859375,-400000.0625,-14662.1201171875,-400000.0625
146.57082605361938,-400000.0625,-21474.029296875,-15425.8701171875,-400000.0625,-19960.7890625,-400000.0625,-14708.7099609375,-400000.0625
146.57082962989807,-400000.0625,-21499.970703125,-15446.0400390625,-400000.0625,-19978.5703125,-400000.0625,-14735.080078125,-400000.0625
146.57083344459534,-400000.0625,-21474.98046875,-15419.3896484375,-400000.0625,-19957.880859375,-400000.0625,-14696.3095703125,-400000.0625
146.61502242088318,-400000.0625,-21428.439453125,-15376.4697265625,-400000.0625,-19927.119140625,-400000.0625,-14642.0,-400000.0625
146.6257951259613,-400000.0625,-21423.869140625,-15378.5703125,-400000.0625,-19931.26953125,-400000.0625,-14654.4501953125,-400000.0625
146.63173031806946,-400000.0625,-21460.109375,-15420.76953125,-400000.0625,-19974.0,-400000.0625,-14695.3603515625,-400000.0625
146.63660788536072,-400000.0625,-21480.51953125,-15443.849609375,-400000.0625,-19996.9296875,-400000.0625,-14714.6201171875,-400000.0625
146.63661646842957,-400000.0625,-21452.330078125,-15417.4296875,-400000.0625,-19975.470703125,-400000.0625,-14682.8701171875,-400000.0625
146.6366205215454,-400000.0625,-21401.259765625,-15373.2802734375,-400000.0625,-19941.94921875,-400000.0625,-14635.6103515625,-400000.0625
146.63662481307983,-400000.0625,-21400.9296875,-15378.330078125,-400000.0625,-19942.380859375,-400000.0625,-14630.6103515625,-400000.0625
146.63662838935852,-400000.0625,-21439.98046875,-15416.8603515625,-400000.0625,-19981.099609375,-400000.0625,-14674.08984375,-400000.0625
146.6366319656372,-400000.0625,-21450.189453125,-15436.3203125,-400000.0625,-20011.279296875,-400000.0625,-14694.5498046875,-400000.0625
146.6366355419159,-400000.0625,-21409.609375,-15410.4697265625,-400000.0625,-19993.400390625,-400000.0625,-14658.9296875,-400000.0625
146.63663935661316,-400000.0625,-21360.2109375,-15364.26953125,-400000.0625,-19956.310546875,-400000.0625,-14608.4296875,-400000.0625
146.63664293289185,-400000.0625,-21343.66015625,-15352.1103515625,-400000.0625,-19956.349609375,-400000.0625,-14602.6201171875,-400000.0625
146.63664627075195,-400000.0625,-21366.880859375,-15391.4501953125,-400000.0625,-20001.369140625,-400000.0625,-14643.099609375,-400000.0625
146.63664984703064,-400000.0625,-21376.80078125,-15413.5703125,-400000.0625,-20029.310546875,-400000.0625,-14665.9404296875,-400000.0625
146.63665342330933,-400000.0625,-21343.0,-15385.9599609375,-400000.0625,-20014.669921875,-400000.0625,-14635.3701171875,-400000.0625
146.6366572380066,-400000.0625,-21283.099609375,-15341.1904296875,-400000.0625,-19981.91015625,-400000.0625,-14584.400390625,-400000.0625
146.67373919487,-400000.0625,-21255.349609375,-15331.26953125,-400000.0625,-19983.869140625,-400000.0625,-14575.6298828125,-400000.0625
146.6800196170807,-400000.0625,-21281.390625,-15367.3203125,-400000.0625,-20022.73046875,-400000.0625,-14615.490234375,-400000.0625
146.68559622764587,-400000.0625,-21296.55078125,-15393.740234375,-400000.0625,-20053.150390625,-400000.0625,-14635.849609375,-400000.0625
146.69064497947693,-400000.0625,-21250.580078125,-15360.9296875,-400000.0625,-20038.419921875,-400000.0625,-14607.76953125,-400000.0625
146.69686937332153,-400000.0625,-21188.0703125,-15314.490234375,-400000.0625,-20006.08984375,-400000.0625,-14556.169921875,-400000.0625
146.70192670822144,-400000.0625,-21166.470703125,-15309.4296875,-400000.0625,-20004.69921875,-400000.0625,-14542.9599609375,-400000.0625
146.70672488212585,-400000.0625,-21196.69921875,-15348.0498046875,-400000.0625,-20047.859375,-400000.0625,-14582.1103515625,-400000.0625
146.7067379951477,-400000.0625,-21209.4296875,-15367.9404296875,-400000.0625,-20078.380859375,-400000.0625,-14602.8095703125,-400000.0625
146.70674204826355,-400000.0625,-21166.369140625,-15335.990234375,-400000.0625,-20066.98046875,-400000.0625,-14567.419921875,-400000.0625
146.70674586296082,-400000.0625,-21104.240234375,-15289.01953125,-400000.0625,-20040.3203125,-400000.0625,-14516.9296875,-400000.0625
146.70675015449524,-400000.0625,-21085.7890625,-15279.91015625,-400000.0625,-20039.849609375,-400000.0625,-14508.33984375,-400000.0625
146.70675373077393,-400000.0625,-21116.44921875,-15315.25,-400000.0625,-20073.69921875,-400000.0625,-14545.5400390625,-400000.0625
146.7067575454712,-400000.0625,-21126.509765625,-15333.0302734375,-400000.0625,-20099.640625,-400000.0625,-14566.900390625,-400000.0625
146.70676136016846,-400000.0625,-21089.560546875,-15304.1396484375,-400000.0625,-20088.6796875,-400000.0625,-14532.1904296875,-400000.0625
146.70676493644714,-400000.0625,-21037.630859375,-15260.169921875,-400000.0625,-20066.599609375,-400000.0625,-14482.1201171875,-400000.0625
146.7067687511444,-400000.0625,-21020.939453125,-15249.830078125,-400000.0625,-20060.490234375,-400000.0625,-14471.48046875,-400000.0625
146.74312829971313,-400000.0625,-21052.41015625,-15285.0595703125,-400000.0625,-20095.259765625,-400000.0625,-14510.919921875,-400000.0625
146.7535364627838,-400000.0625,-21068.150390625,-15306.1396484375,-400000.0625,-20120.619140625,-400000.0625,-14535.5703125,-400000.0625
146.75864934921265,-400000.0625,-21031.94921875,-15277.3896484375,-400000.0625,-20105.7890625,-400000.0625,-14502.150390625,-400000.0625
146.76391673088074,-400000.0625,-20983.69921875,-15238.6201171875,-400000.0625,-20076.130859375,-400000.0625,-14450.98046875,-400000.0625
146.76915216445923,-400000.0625,-20966.099609375,-15230.0400390625,-400000.0625,-20082.669921875,-400000.0625,-14444.9296875,-400000.0625
146.7741413116455,-400000.0625,-20997.150390625,-15265.75,-400000.0625,-20122.76953125,-400000.0625,-14483.6396484375,-400000.0625
146.77414917945862,-400000.0625,-21016.4609375,-15288.2099609375,-400000.0625,-20149.08984375,-400000.0625,-14508.33984375,-400000.0625
146.77415370941162,-400000.0625,-20981.310546875,-15257.41015625,-400000.0625,-20132.349609375,-400000.0625,-14476.0595703125,-400000.0625
146.77415800094604,-400000.0625,-20930.33984375,-15213.400390625,-400000.0625,-20091.5390625,-400000.0625,-14428.1396484375,-400000.0625
146.77928233146667,-400000.0625,-20917.470703125,-15206.150390625,-400000.0625,-20088.9609375,-400000.0625,-14420.419921875,-400000.0625
146.78465342521667,-400000.0625,-20953.509765625,-15245.919921875,-400000.0625,-20130.2109375,-400000.0625,-14461.330078125,-400000.0625
146.78991723060608,-400000.0625,-20975.310546875,-15268.6103515625,-400000.0625,-20153.669921875,-400000.0625,-14486.26953125,-400000.0625
146.79526615142822,-400000.0625,-20942.310546875,-15240.1904296875,-400000.0625,-20127.109375,-400000.0625,-14458.509765625,-400000.0625
146.8005290031433,-400000.0625,-20897.25,-15195.4697265625,-400000.0625,-20092.8203125,-400000.0625,-14409.400390625,-400000.0625
146.8056366443634,-400000.0625,-20886.759765625,-15190.3603515625,-400000.0625,-20095.01953125,-400000.0625,-14402.5302734375,-400000.0625
146.81125330924988,-400000.0625,-20923.4296875,-15232.759765625,-400000.0625,-20133.58984375,-400000.0625,-14447.01953125,-400000.0625
146.8427345752716,-400000.0625,-20950.4609375,-15259.2197265625,-400000.0625,-20158.19921875,-400000.0625,-14478.6396484375,-400000.0625
146.84827852249146,-400000.0625,-20915.130859375,-15229.990234375,-400000.0625,-20138.220703125,-400000.0625,-14449.169921875,-400000.0625
146.85882687568665,-400000.0625,-20865.490234375,-15186.8798828125,-400000.0625,-20106.83984375,-400000.0625,-14400.33984375,-400000.0625
146.86489295959473,-400000.0625,-20862.529296875,-15183.2099609375,-400000.0625,-20107.609375,-400000.0625,-14395.0498046875,-400000.0625
146.8701674938202,-400000.0625,-20899.970703125,-15220.98046875,-400000.0625,-20146.1796875,-400000.0625,-14438.25,-400000.0625
146.87552762031555,-400000.0625,-20923.240234375,-15245.490234375,-400000.0625,-20166.919921875,-400000.0625,-14464.08984375,-400000.0625
146.88077402114868,-400000.0625,-20900.16015625,-15221.2197265625,-400000.0625,-20146.900390625,-400000.0625,-14437.2998046875,-400000.0625
146.88628768920898,-400000.0625,-20858.810546875,-15183.01953125,-400000.0625,-20114.08984375,-400000.0625,-14394.6201171875,-400000.0625
146.89146995544434,-400000.0625,-20849.51953125,-15178.009765625,-400000.0625,-20107.939453125,-400000.0625,-14388.990234375,-400000.0625
146.89751720428467,-400000.0625,-20890.51953125,-15218.830078125,-400000.0625,-20145.279296875,-400000.0625,-14432.240234375,-400000.0625
146.9038405418396,-400000.0625,-20915.4609375,-15242.8203125,-400000.0625,-20175.55078125,-400000.0625,-14460.1796875,-400000.0625
146.90969467163086,-400000.0625,-20884.900390625,-15217.1201171875,-400000.0625,-20147.66015625,-400000.0625,-14429.9501953125,-400000.0625
146.91548609733582,-400000.0625,-20835.310546875,-15174.7197265625,-400000.0625,-20110.279296875,-400000.0625,-14387.900390625,-400000.0625
146.92036628723145,-400000.0625,-20831.869140625,-15168.8603515625,-400000.0625,-20109.560546875,-400000.0625,-14382.41015625,-400000.0625
146.92037558555603,-400000.0625,-20874.41015625,-15206.5302734375,-400000.0625,-20144.1796875,-400000.0625,-14429.1904296875,-400000.0625
146.9203805923462,-400000.0625,-20899.869140625,-15233.9501953125,-400000.0625,-20169.119140625,-400000.0625,-14457.6103515625,-400000.0625
146.92038440704346,-400000.0625,-20873.740234375,-15209.8701171875,-400000.0625,-20148.900390625,-400000.0625,-14432.099609375,-400000.0625
146.9203884601593,-400000.0625,-20828.73046875,-15168.759765625,-400000.0625,-20118.48046875,-400000.0625,-14389.9501953125,-400000.0625
146.920392036438,-400000.0625,-20821.33984375,-15164.2802734375,-400000.0625,-20112.759765625,-400000.0625,-14379.599609375,-400000.0625
146.92039799690247,-400000.0625,-20866.25,-15206.580078125,-400000.0625,-20147.330078125,-400000.0625,-14424.990234375,-400000.0625
146.92040157318115,-400000.0625,-20894.240234375,-15229.1796875,-400000.0625,-20168.740234375,-400000.0625,-14455.0302734375,-400000.0625
146.92040586471558,-400000.0625,-20873.119140625,-15205.48046875,-400000.0625,-20149.08984375,-400000.0625,-14427.4296875,-400000.0625
146.92041039466858,-400000.0625,-20840.55078125,-15167.099609375,-400000.0625,-20121.2890625,-400000.0625,-14384.3203125,-400000.0625
146.92041444778442,-400000.0625,-20838.0703125,-15162.0400390625,-400000.0625,-20116.51953125,-400000.0625,-14379.5,-400000.0625
146.92041873931885,-400000.0625,-20869.16015625,-15200.8095703125,-400000.0625,-20145.609375,-400000.0625,-14434.099609375,-400000.0625
146.9204227924347,-400000.0625,-20901.970703125,-15230.849609375,-400000.0625,-20161.009765625,-400000.0625,-14473.5400390625,-400000.0625
146.92042684555054,-400000.0625,-20901.58984375,-15216.7802734375,-400000.0625,-20143.939453125,-400000.0625,-14455.0302734375,-400000.0625
146.92043089866638,-400000.0625,-20872.640625,-15178.490234375,-400000.0625,-20107.609375,-400000.0625,-14419.2197265625,-400000.0625
146.92043471336365,-400000.0625,-20871.44921875,-15178.400390625,-400000.0625,-20095.2109375,-400000.0625,-14423.3203125,-400000.0625
146.9204385280609,-400000.0625,-20922.279296875,-15221.7900390625,-400000.0625,-20124.9609375,-400000.0625,-14475.5400390625,-400000.0625
146.92044281959534,-400000.0625,-20952.75,-15245.0595703125,-400000.0625,-20145.990234375,-400000.0625,-14507.76953125,-400000.0625
146.9204466342926,-400000.0625,-20930.8203125,-15223.3095703125,-400000.0625,-20131.259765625,-400000.0625,-14482.4501953125,-400000.0625
146.93097472190857,-400000.0625,-20897.390625,-15190.599609375,-400000.0625,-20100.880859375,-400000.0625,-14441.7802734375,-400000.0625
146.9365155696869,-400000.0625,-20895.009765625,-15184.5,-400000.0625,-20096.970703125,-400000.0625,-14443.58984375,-400000.0625
146.9414026737213,-400000.0625,-20940.01953125,-15223.7001953125,-400000.0625,-20139.509765625,-400000.0625,-14491.419921875,-400000.0625
146.94141054153442,-400000.0625,-20967.919921875,-15248.73046875,-400000.0625,-20156.150390625,-400000.0625,-14519.650390625,-400000.0625
146.94141507148743,-400000.0625,-20937.16015625,-15225.1298828125,-400000.0625,-20140.029296875,-400000.0625,-14493.3203125,-400000.0625
146.94141912460327,-400000.0625,-20892.669921875,-15187.6904296875,-400000.0625,-20112.08984375,-400000.0625,-14446.3603515625,-400000.0625
146.94142293930054,-400000.0625,-20889.48046875,-15186.98046875,-400000.0625,-20102.259765625,-400000.0625,-14438.580078125,-400000.0625
146.94142651557922,-400000.0625,-20930.9609375,-15225.599609375,-400000.0625,-20131.349609375,-400000.0625,-14483.740234375,-400000.0625
146.9414303302765,-400000.0625,-20963.2890625,-15250.16015625,-400000.0625,-20152.91015625,-400000.0625,-14514.6396484375,-400000.0625
146.94143414497375,-400000.0625,-20937.30078125,-15226.5595703125,-400000.0625,-20133.310546875,-400000.0625,-14492.1298828125,-400000.0625
146.94143772125244,-400000.0625,-20894.150390625,-15185.7900390625,-400000.0625,-20096.400390625,-400000.0625,-14449.740234375,-400000.0625
146.9414415359497,-400000.0625,-20888.619140625,-15182.6396484375,-400000.0625,-20099.259765625,-400000.0625,-14441.1103515625,-400000.0625
146.94144558906555,-400000.0625,-20930.150390625,-15224.3603515625,-400000.0625,-20141.990234375,-400000.0625,-14484.650390625,-400000.0625
146.94144940376282,-400000.0625,-20953.990234375,-15247.7802734375,-400000.0625,-20166.490234375,-400000.0625,-14511.6796875,-400000.0625
146.94145321846008,-400000.0625,-20926.810546875,-15224.169921875,-400000.0625,-20146.7109375,-400000.0625,-14482.0703125,-400000.0625
146.94145703315735,-400000.0625,-20883.560546875,-15182.9296875,-400000.0625,-20110.0390625,-400000.0625,-14438.4404296875,-400000.0625
146.99861454963684,-400000.0625,-20877.509765625,-15177.2998046875,-400000.0625,-20107.029296875,-400000.0625,-14431.91015625,-400000.0625
147.0084421634674,-400000.0625,-20920.23046875,-15217.830078125,-400000.0625,-20146.560546875,-400000.0625,-14474.9697265625,-400000.0625
147.013658285141,-400000.0625,-20947.41015625,-15246.580078125,-400000.0625,-20167.640625,-400000.0625,-14505.150390625,-400000.0625
147.01847338676453,-400000.0625,-20925.240234375,-15226.3701171875,-400000.0625,-20142.80078125,-400000.0625,-14482.3095703125,-400000.0625
147.01848340034485,-400000.0625,-20879.080078125,-15181.16015625,-400000.0625,-20105.4609375,-400000.0625,-14437.4404296875,-400000.0625
147.01848793029785,-400000.0625,-20869.2109375,-15173.5302734375,-400000.0625,-20104.4609375,-400000.0625,-14429.0498046875,-400000.0625
147.01849222183228,-400000.0625,-20914.560546875,-15216.5400390625,-400000.0625,-20143.509765625,-400000.0625,-14474.349609375,-400000.0625
147.01849603652954,-400000.0625,-20943.359375,-15240.150390625,-400000.0625,-20168.830078125,-400000.0625,-14502.33984375,-400000.0625
147.01850032806396,-400000.0625,-20917.69921875,-15217.4501953125,-400000.0625,-20146.0390625,-400000.0625,-14478.6396484375,-400000.0625
147.0185046195984,-400000.0625,-20877.029296875,-15179.919921875,-400000.0625,-20106.41015625,-400000.0625,-14434.6298828125,-400000.0625
147.01850843429565,-400000.0625,-20867.869140625,-15172.580078125,-400000.0625,-20104.169921875,-400000.0625,-14423.7998046875,-400000.0625
147.01851224899292,-400000.0625,-20911.119140625,-15212.1103515625,-400000.0625,-20141.3203125,-400000.0625,-14470.2900390625,-400000.0625
147.0185158252716,-400000.0625,-20940.310546875,-15239.2900390625,-400000.0625,-20165.869140625,-400000.0625,-14502.099609375,-400000.0625
147.01851987838745,-400000.0625,-20914.69921875,-15212.919921875,-400000.0625,-20145.369140625,-400000.0625,-14476.73046875,-400000.0625
147.01852369308472,-400000.0625,-20866.630859375,-15171.6298828125,-400000.0625,-20104.359375,-400000.0625,-14431.759765625,-400000.0625
147.0185272693634,-400000.0625,-20859.8203125,-15167.8603515625,-400000.0625,-20093.869140625,-400000.0625,-14426.6103515625,-400000.0625
147.0594654083252,-400000.0625,-20910.5,-15212.1103515625,-400000.0625,-20135.41015625,-400000.0625,-14473.150390625,-400000.0625
147.0655279159546,-400000.0625,-20936.349609375,-15235.8095703125,-400000.0625,-20162.109375,-400000.0625,-14503.2900390625,-400000.0625
147.07041382789612,-400000.0625,-20912.169921875,-15216.830078125,-400000.0625,-20144.80078125,-400000.0625,-14478.490234375,-400000.0625
147.07042503356934,-400000.0625,-20873.9296875,-15177.2998046875,-400000.0625,-20111.990234375,-400000.0625,-14434.150390625,-400000.0625
147.07042956352234,-400000.0625,-20866.439453125,-15171.33984375,-400000.0625,-20104.740234375,-400000.0625,-14427.7099609375,-400000.0625
147.07043361663818,-400000.0625,-20911.650390625,-15214.1103515625,-400000.0625,-20140.26953125,-400000.0625,-14473.2998046875,-400000.0625
147.07043766975403,-400000.0625,-20944.119140625,-15245.6796875,-400000.0625,-20172.98046875,-400000.0625,-14503.1904296875,-400000.0625
147.07044172286987,-400000.0625,-20920.1796875,-15225.3603515625,-400000.0625,-20150.51953125,-400000.0625,-14481.3603515625,-400000.0625
147.0704460144043,-400000.0625,-20881.369140625,-15183.7802734375,-400000.0625,-20115.759765625,-400000.0625,-14437.5302734375,-400000.0625
147.07045030593872,-400000.0625,-20873.5,-15172.91015625,-400000.0625,-20110.0390625,-400000.0625,-14432.2900390625,-400000.0625
147.07045435905457,-400000.0625,-20916.80078125,-15214.16015625,-400000.0625,-20132.970703125,-400000.0625,-14479.01953125,-400000.0625
147.070458650589,-400000.0625,-20945.359375,-15245.6796875,-400000.0625,-20153.810546875,-400000.0625,-14507.150390625,-400000.0625
147.07046341896057,-400000.0625,-20917.130859375,-15218.4501953125,-400000.0625,-20135.740234375,-400000.0625,-14479.0703125,-400000.0625
147.07046747207642,-400000.0625,-20878.7890625,-15181.16015625,-400000.0625,-20109.75,-400000.0625,-14438.25,-400000.0625
147.07047128677368,-400000.0625,-20872.259765625,-15177.8203125,-400000.0625,-20104.599609375,-400000.0625,-14438.8701171875,-400000.0625
147.07047533988953,-400000.0625,-20913.83984375,-15217.9697265625,-400000.0625,-20139.169921875,-400000.0625,-14481.1201171875,-400000.0625
147.1261649131775,-400000.0625,-20944.55078125,-15244.91015625,-400000.0625,-20165.01953125,-400000.0625,-14511.6796875,-400000.0625
147.13631296157837,-400000.0625,-20920.609375,-15221.599609375,-400000.0625,-20142.369140625,-400000.0625,-14489.75,-400000.0625
147.1410129070282,-400000.0625,-20876.9296875,-15181.7802734375,-400000.0625,-20109.26953125,-400000.0625,-14445.3095703125,-400000.0625
147.14102053642273,-400000.0625,-20874.0703125,-15177.2998046875,-400000.0625,-20106.369140625,-400000.0625,-14436.2001953125,-400000.0625
147.14102506637573,-400000.0625,-20917.3203125,-15218.7802734375,-400000.0625,-20144.23046875,-400000.0625,-14477.6396484375,-400000.0625
147.14102864265442,-400000.0625,-20944.0703125,-15245.6298828125,-400000.0625,-20166.490234375,-400000.0625,-14511.8701171875,-400000.0625
147.141033411026,-400000.0625,-20920.08984375,-15223.83984375,-400000.0625,-20148.330078125,-400000.0625,-14487.8896484375,-400000.0625
147.14103722572327,-400000.0625,-20877.650390625,-15186.259765625,-400000.0625,-20106.650390625,-400000.0625,-14441.6796875,-400000.0625
147.14104080200195,-400000.0625,-20877.41015625,-15182.01953125,-400000.0625,-20098.310546875,-400000.0625,-14437.76953125,-400000.0625
147.14104437828064,-400000.0625,-20924.140625,-15222.4599609375,-400000.0625,-20134.169921875,-400000.0625,-14482.169921875,-400000.0625
147.1410481929779,-400000.0625,-20952.890625,-15250.8798828125,-400000.0625,-20162.390625,-400000.0625,-14512.6396484375,-400000.0625
147.14105200767517,-400000.0625,-20928.580078125,-15231.08984375,-400000.0625,-20150.619140625,-400000.0625,-14487.2197265625,-400000.0625
147.14105558395386,-400000.0625,-20887.5703125,-15191.26953125,-400000.0625,-20116.900390625,-400000.0625,-14440.6298828125,-400000.0625
147.14105939865112,-400000.0625,-20881.419921875,-15184.5,-400000.0625,-20109.369140625,-400000.0625,-14430.8603515625,-400000.0625
147.1410629749298,-400000.0625,-20917.990234375,-15216.7802734375,-400000.0625,-20137.740234375,-400000.0625,-14477.4501953125,-400000.0625
147.14106678962708,-400000.0625,-20949.080078125,-15246.9697265625,-400000.0625,-20161.150390625,-400000.0625,-14513.5400390625,-400000.0625
147.22622513771057,-400000.0625,-20928.580078125,-15230.75,-400000.0625,-20149.380859375,-400000.0625,-14487.3603515625,-400000.0625
147.23603415489197,-400000.0625,-20889.0,-15191.1796875,-400000.0625,-20118.5703125,-400000.0625,-14442.73046875,-400000.0625
147.24040460586548,-400000.0625,-20878.599609375,-15181.5400390625,-400000.0625,-20109.609375,-400000.0625,-14439.2001953125,-400000.0625
147.24041414260864,-400000.0625,-20920.419921875,-15220.3095703125,-400000.0625,-20138.599609375,-400000.0625,-14481.4501953125,-400000.0625
147.2404181957245,-400000.0625,-20950.1796875,-15248.8701171875,-400000.0625,-20162.25,-400000.0625,-14511.2099609375,-400000.0625
147.24042177200317,-400000.0625,-20925.240234375,-15223.9296875,-400000.0625,-20140.359375,-400000.0625,-14487.7900390625,-400000.0625
147.24042534828186,-400000.0625,-20880.029296875,-15179.16015625,-400000.0625,-20103.55078125,-400000.0625,-14440.2998046875,-400000.0625
147.24042868614197,-400000.0625,-20874.83984375,-15175.25,-400000.0625,-20106.890625,-400000.0625,-14433.5302734375,-400000.0625
147.24043202400208,-400000.0625,-20917.69921875,-15217.259765625,-400000.0625,-20149.330078125,-400000.0625,-14479.6396484375,-400000.0625
147.24043560028076,-400000.0625,-20946.080078125,-15244.3896484375,-400000.0625,-20165.919921875,-400000.0625,-14511.490234375,-400000.0625
147.24043917655945,-400000.0625,-20922.470703125,-15223.4599609375,-400000.0625,-20141.990234375,-400000.0625,-14487.8896484375,-400000.0625
147.24044251441956,-400000.0625,-20880.69921875,-15181.58984375,-400000.0625,-20112.279296875,-400000.0625,-14447.169921875,-400000.0625
147.24044585227966,-400000.0625,-20873.169921875,-15176.3896484375,-400000.0625,-20105.509765625,-400000.0625,-14438.919921875,-400000.0625
147.24044919013977,-400000.0625,-20919.369140625,-15219.58984375,-400000.0625,-20138.359375,-400000.0625,-14482.740234375,-400000.0625
147.24045276641846,-400000.0625,-20947.130859375,-15245.9599609375,-400000.0625,-20160.630859375,-400000.0625,-14515.6396484375,-400000.0625
147.24045610427856,-400000.0625,-20924.330078125,-15225.7001953125,-400000.0625,-20142.83984375,-400000.0625,-14487.3203125,-400000.0625
147.2594757080078,-400000.0625,-20883.470703125,-15187.4599609375,-400000.0625,-20114.470703125,-400000.0625,-14442.5400390625,-400000.0625
147.2648446559906,-400000.0625,-20874.220703125,-15179.2099609375,-400000.0625,-20108.080078125,-400000.0625,-14433.48046875,-400000.0625
147.26947236061096,-400000.0625,-20917.939453125,-15220.01953125,-400000.0625,-20144.80078125,-400000.0625,-14481.830078125,-400000.0625
147.26948022842407,-400000.0625,-20940.5390625,-15246.4404296875,-400000.0625,-20170.2109375,-400000.0625,-14511.2998046875,-400000.0625
147.2694845199585,-400000.0625,-20916.369140625,-15224.7001953125,-400000.0625,-20150.23046875,-400000.0625,-14486.98046875,-400000.0625
147.26948857307434,-400000.0625,-20880.1796875,-15187.41015625,-400000.0625,-20115.470703125,-400000.0625,-14442.9697265625,-400000.0625
147.26949262619019,-400000.0625,-20869.689453125,-15181.2099609375,-400000.0625,-20111.279296875,-400000.0625,-14439.2001953125,-400000.0625
147.26949644088745,-400000.0625,-20911.26953125,-15218.8798828125,-400000.0625,-20139.83984375,-400000.0625,-14486.3603515625,-400000.0625
147.26950001716614,-400000.0625,-20949.80078125,-15255.740234375,-400000.0625,-20170.830078125,-400000.0625,-14508.3896484375,-400000.0625
147.2695038318634,-400000.0625,-20929.19921875,-15244.580078125,-400000.0625,-20161.060546875,-400000.0625,-14474.8203125,-400000.0625
147.2695074081421,-400000.0625,-20880.69921875,-15205.91015625,-400000.0625,-20120.33984375,-400000.0625,-14424.1396484375,-400000.0625
147.26951265335083,-400000.0625,-20869.830078125,-15206.8603515625,-400000.0625,-20113.23046875,-400000.0625,-14409.349609375,-400000.0625
147.26951622962952,-400000.0625,-20908.0703125,-15251.2998046875,-400000.0625,-20151.08984375,-400000.0625,-14443.919921875,-400000.0625
147.26952004432678,-400000.0625,-20936.6796875,-15286.6904296875,-400000.0625,-20182.900390625,-400000.0625,-14463.8603515625,-400000.0625
147.26952362060547,-400000.0625,-20907.9296875,-15274.3798828125,-400000.0625,-20171.220703125,-400000.0625,-14427.9501953125,-400000.0625
147.2695276737213,-400000.0625,-20856.759765625,-15239.76953125,-400000.0625,-20140.359375,-400000.0625,-14370.4404296875,-400000.0625
147.3144977092743,-400000.0625,-20849.560546875,-15243.48046875,-400000.0625,-20145.470703125,-400000.0625,-14355.9501953125,-400000.0625
147.31977939605713,-400000.0625,-20890.810546875,-15285.4501953125,-400000.0625,-20181.990234375,-400000.0625,-14395.669921875,-400000.0625
147.32491731643677,-400000.0625,-20917.939453125,-15315.490234375,-400000.0625,-20203.44921875,-400000.0625,-14421.66015625,-400000.0625
147.32979798316956,-400000.0625,-20890.099609375,-15295.8896484375,-400000.0625,-20185.66015625,-400000.0625,-14393.1904296875,-400000.0625
147.33422374725342,-400000.0625,-20839.5,-15253.58984375,-400000.0625,-20144.990234375,-400000.0625,-14346.080078125,-400000.0625
147.338937997818,-400000.0625,-20830.919921875,-15245.3896484375,-400000.0625,-20135.119140625,-400000.0625,-14340.7802734375,-400000.0625
147.33894896507263,-400000.0625,-20873.9296875,-15285.1103515625,-400000.0625,-20175.169921875,-400000.0625,-14386.5595703125,-400000.0625
147.33895468711853,-400000.0625,-20899.390625,-15311.099609375,-400000.0625,-20196.580078125,-400000.0625,-14415.7900390625,-400000.0625
147.33895897865295,-400000.0625,-20877.41015625,-15293.7900390625,-400000.0625,-20183.609375,-400000.0625,-14394.51953125,-400000.0625
147.33896327018738,-400000.0625,-20836.310546875,-15249.01953125,-400000.0625,-20148.5703125,-400000.0625,-14349.6103515625,-400000.0625
147.33896780014038,-400000.0625,-20835.640625,-15245.8701171875,-400000.0625,-20139.509765625,-400000.0625,-14335.919921875,-400000.0625
147.33897185325623,-400000.0625,-20880.560546875,-15284.830078125,-400000.0625,-20171.689453125,-400000.0625,-14382.26953125,-400000.0625
147.33897590637207,-400000.0625,-20911.029296875,-15311.099609375,-400000.0625,-20193.8203125,-400000.0625,-14416.3095703125,-400000.0625
147.3389801979065,-400000.0625,-20893.0,-15294.3603515625,-400000.0625,-20176.130859375,-400000.0625,-14392.0,-400000.0625
147.33898448944092,-400000.0625,-20857.720703125,-15256.2197265625,-400000.0625,-20142.130859375,-400000.0625,-14347.41015625,-400000.0625
147.33898854255676,-400000.0625,-20858.2890625,-15252.16015625,-400000.0625,-20137.5,-400000.0625,-14343.599609375,-400000.0625
147.38108325004578,-400000.0625,-20913.3203125,-15282.4404296875,-400000.0625,-20167.5390625,-400000.0625,-14380.3095703125,-400000.0625
147.38638043403625,-400000.0625,-20962.859375,-15308.9501953125,-400000.0625,-20184.7109375,-400000.0625,-14411.5,-400000.0625
147.39102363586426,-400000.0625,-20938.919921875,-15293.7900390625,-400000.0625,-20161.580078125,-400000.0625,-14393.1904296875,-400000.0625
147.39103078842163,-400000.0625,-20908.169921875,-15254.98046875,-400000.0625,-20122.630859375,-400000.0625,-14343.6904296875,-400000.0625
147.39103531837463,-400000.0625,-20915.75,-15258.169921875,-400000.0625,-20117.05078125,-400000.0625,-14341.98046875,-400000.0625
147.39103960990906,-400000.0625,-20976.98046875,-15308.48046875,-400000.0625,-20147.80078125,-400000.0625,-14406.490234375,-400000.0625
147.39104390144348,-400000.0625,-21018.599609375,-15341.900390625,-400000.0625,-20162.439453125,-400000.0625,-14441.830078125,-400000.0625
147.39104795455933,-400000.0625,-21008.30078125,-15344.8095703125,-400000.0625,-20146.419921875,-400000.0625,-14438.4404296875,-400000.0625
147.3910517692566,-400000.0625,-20982.7890625,-15331.3203125,-400000.0625,-20107.990234375,-400000.0625,-14417.9404296875,-400000.0625
147.3910562992096,-400000.0625,-21012.400390625,-15335.900390625,-400000.0625,-20085.189453125,-400000.0625,-14417.2197265625,-400000.0625
147.39106035232544,-400000.0625,-21103.9609375,-15398.1201171875,-400000.0625,-20108.080078125,-400000.0625,-14484.169921875,-400000.0625
147.39106440544128,-400000.0625,-21195.369140625,-15454.9599609375,-400000.0625,-20123.529296875,-400000.0625,-14546.490234375,-400000.0625
147.39106822013855,-400000.0625,-21241.380859375,-15459.009765625,-400000.0625,-20095.30078125,-400000.0625,-14549.8798828125,-400000.0625
147.39107203483582,-400000.0625,-21238.5703125,-15434.080078125,-400000.0625,-20051.099609375,-400000.0625,-14527.419921875,-400000.0625
147.39107584953308,-400000.0625,-21248.6796875,-15442.7099609375,-400000.0625,-20036.560546875,-400000.0625,-14527.7998046875,-400000.0625
147.3910801410675,-400000.0625,-21323.970703125,-15500.5,-400000.0625,-20070.41015625,-400000.0625,-14581.6298828125,-400000.0625
147.4428198337555,-400000.0625,-21371.890625,-15540.2197265625,-400000.0625,-20095.830078125,-400000.0625,-14613.33984375,-400000.0625
147.4526388645172,-400000.0625,-21368.509765625,-15524.0595703125,-400000.0625,-20071.83984375,-400000.0625,-14593.26953125,-400000.0625
147.45747661590576,-400000.0625,-21343.419921875,-15484.5703125,-400000.0625,-20029.400390625,-400000.0625,-14548.2998046875,-400000.0625
147.4574851989746,-400000.0625,-21342.470703125,-15478.5703125,-400000.0625,-20025.060546875,-400000.0625,-14530.66015625,-400000.0625
147.4574899673462,-400000.0625,-21385.0,-15522.33984375,-400000.0625,-20073.029296875,-400000.0625,-14571.0498046875,-400000.0625
147.45749425888062,-400000.0625,-21405.130859375,-15545.7998046875,-400000.0625,-20093.30078125,-400000.0625,-14602.08984375,-400000.0625
147.45749831199646,-400000.0625,-21380.669921875,-15521.240234375,-400000.0625,-20068.599609375,-400000.0625,-14569.8603515625,-400000.0625
147.45750212669373,-400000.0625,-21321.970703125,-15475.7001953125,-400000.0625,-20038.69921875,-400000.0625,-14516.7802734375,-400000.0625
147.45750617980957,-400000.0625,-21295.259765625,-15460.6396484375,-400000.0625,-20036.990234375,-400000.0625,-14505.91015625,-400000.0625
147.45751023292542,-400000.0625,-21326.349609375,-15499.8798828125,-400000.0625,-20082.0,-400000.0625,-14536.91015625,-400000.0625
147.45751428604126,-400000.0625,-21338.0390625,-15526.73046875,-400000.0625,-20112.7109375,-400000.0625,-14556.740234375,-400000.0625
147.45751857757568,-400000.0625,-21300.369140625,-15502.8798828125,-400000.0625,-20098.310546875,-400000.0625,-14531.0400390625,-400000.0625
147.4575231075287,-400000.0625,-21240.5703125,-15455.33984375,-400000.0625,-20074.80078125,-400000.0625,-14481.8798828125,-400000.0625
147.45752716064453,-400000.0625,-21207.759765625,-15440.7001953125,-400000.0625,-20071.369140625,-400000.0625,-14467.8095703125,-400000.0625
147.45753121376038,-400000.0625,-21235.990234375,-15477.7099609375,-400000.0625,-20105.41015625,-400000.0625,-14506.5302734375,-400000.0625
147.45753526687622,-400000.0625,-21251.919921875,-15503.2197265625,-400000.0625,-20137.259765625,-400000.0625,-14533.9501953125,-400000.0625
147.5267186164856,-400000.0625,-21214.33984375,-15475.4697265625,-400000.0625,-20127.73046875,-400000.0625,-14507.6298828125,-400000.0625
147.5320918560028,-400000.0625,-21147.970703125,-15424.0595703125,-400000.0625,-20098.5,-400000.0625,-14457.0400390625,-400000.0625
147.53682780265808,-400000.0625,-21123.26953125,-15411.0,-400000.0625,-20102.029296875,-400000.0625,-14442.6396484375,-400000.0625
147.5368366241455,-400000.0625,-21156.359375,-15445.900390625,-400000.0625,-20146.23046875,-400000.0625,-14479.400390625,-400000.0625
147.5368413925171,-400000.0625,-21172.5703125,-15468.8896484375,-400000.0625,-20176.169921875,-400000.0625,-14504.240234375,-400000.0625
147.53684544563293,-400000.0625,-21134.810546875,-15441.900390625,-400000.0625,-20152.48046875,-400000.0625,-14476.5400390625,-400000.0625
147.53684949874878,-400000.0625,-21082.400390625,-15396.5,-400000.0625,-20117.810546875,-400000.0625,-14424.9501953125,-400000.0625
147.53685331344604,-400000.0625,-21060.279296875,-15380.6201171875,-400000.0625,-20111.369140625,-400000.0625,-14409.5,-400000.0625
147.53685688972473,-400000.0625,-21087.119140625,-15409.6103515625,-400000.0625,-20152.05078125,-400000.0625,-14446.740234375,-400000.0625
147.536860704422,-400000.0625,-21105.240234375,-15431.8798828125,-400000.0625,-20186.669921875,-400000.0625,-14473.2998046875,-400000.0625
147.53686475753784,-400000.0625,-21075.390625,-15411.1904296875,-400000.0625,-20168.55078125,-400000.0625,-14446.1201171875,-400000.0625
147.53687024116516,-400000.0625,-21021.080078125,-15364.9296875,-400000.0625,-20135.9296875,-400000.0625,-14394.1396484375,-400000.0625
147.53687405586243,-400000.0625,-20999.859375,-15349.0595703125,-400000.0625,-20130.880859375,-400000.0625,-14378.2197265625,-400000.0625
147.5368776321411,-400000.0625,-21031.140625,-15381.669921875,-400000.0625,-20168.01953125,-400000.0625,-14414.9296875,-400000.0625
147.5368812084198,-400000.0625,-21058.900390625,-15411.5703125,-400000.0625,-20194.009765625,-400000.0625,-14444.73046875,-400000.0625
147.53688502311707,-400000.0625,-21032.76953125,-15390.830078125,-400000.0625,-20178.80078125,-400000.0625,-14425.4697265625,-400000.0625
147.58752059936523,-400000.0625,-20977.310546875,-15341.7099609375,-400000.0625,-20143.130859375,-400000.0625,-14376.400390625,-400000.0625
147.59702277183533,-400000.0625,-20959.900390625,-15329.0302734375,-400000.0625,-20138.359375,-400000.0625,-14358.3798828125,-400000.0625
147.60200595855713,-400000.0625,-20996.189453125,-15363.8896484375,-400000.0625,-20175.7890625,-400000.0625,-14400.669921875,-400000.0625
147.60201573371887,-400000.0625,-21020.220703125,-15389.349609375,-400000.0625,-20201.73046875,-400000.0625,-14429.330078125,-400000.0625
147.60202050209045,-400000.0625,-20988.900390625,-15364.3095703125,-400000.0625,-20185.08984375,-400000.0625,-14401.6796875,-400000.0625
147.60202479362488,-400000.0625,-20938.44921875,-15317.7802734375,-400000.0625,-20149.7109375,-400000.0625,-14353.23046875,-400000.0625
147.6020290851593,-400000.0625,-20925.189453125,-15309.0498046875,-400000.0625,-20144.80078125,-400000.0625,-14340.4501953125,-400000.0625
147.60719060897827,-400000.0625,-20962.91015625,-15346.8603515625,-400000.0625,-20173.650390625,-400000.0625,-14382.8896484375,-400000.0625
147.61280798912048,-400000.0625,-20991.849609375,-15375.1904296875,-400000.0625,-20203.689453125,-400000.0625,-14414.83984375,-400000.0625
147.61770701408386,-400000.0625,-20969.73046875,-15356.830078125,-400000.0625,-20190.2890625,-400000.0625,-14392.849609375,-400000.0625
147.6177158355713,-400000.0625,-20920.5703125,-15313.3896484375,-400000.0625,-20157.529296875,-400000.0625,-14343.0703125,-400000.0625
147.61772084236145,-400000.0625,-20908.259765625,-15299.26953125,-400000.0625,-20149.08984375,-400000.0625,-14330.33984375,-400000.0625
147.61772561073303,-400000.0625,-20946.4609375,-15333.4599609375,-400000.0625,-20184.140625,-400000.0625,-14374.400390625,-400000.0625
147.6177294254303,-400000.0625,-20973.400390625,-15359.830078125,-400000.0625,-20209.41015625,-400000.0625,-14405.0595703125,-400000.0625
147.61773347854614,-400000.0625,-20947.509765625,-15336.7998046875,-400000.0625,-20192.4296875,-400000.0625,-14379.2197265625,-400000.0625
147.61773777008057,-400000.0625,-20905.119140625,-15297.26953125,-400000.0625,-20159.060546875,-400000.0625,-14332.490234375,-400000.0625
147.63749718666077,-400000.0625,-20897.630859375,-15291.5,-400000.0625,-20149.279296875,-400000.0625,-14324.669921875,-400000.0625
147.6437213420868,-400000.0625,-20939.44921875,-15331.9404296875,-400000.0625,-20189.240234375,-400000.0625,-14368.490234375,-400000.0625
147.64898324012756,-400000.0625,-20968.009765625,-15361.8798828125,-400000.0625,-20215.69921875,-400000.0625,-14399.3896484375,-400000.0625
147.65570497512817,-400000.0625,-20944.0703125,-15340.7099609375,-400000.0625,-20197.919921875,-400000.0625,-14375.1201171875,-400000.0625
147.66076517105103,-400000.0625,-20897.630859375,-15296.3203125,-400000.0625,-20162.779296875,-400000.0625,-14326.5302734375,-400000.0625
147.66596794128418,-400000.0625,-20888.189453125,-15285.0595703125,-400000.0625,-20159.439453125,-400000.0625,-14316.9404296875,-400000.0625
147.67069554328918,-400000.0625,-20927.810546875,-15321.5400390625,-400000.0625,-20185.759765625,-400000.0625,-14360.4296875,-400000.0625
147.67070412635803,-400000.0625,-20957.0390625,-15350.25,-400000.0625,-20212.560546875,-400000.0625,-14393.0,-400000.0625
147.67070865631104,-400000.0625,-20934.6796875,-15330.9404296875,-400000.0625,-20193.439453125,-400000.0625,-14374.16015625,-400000.0625
147.6707124710083,-400000.0625,-20888.4296875,-15288.4501953125,-400000.0625,-20151.4296875,-400000.0625,-14329.3896484375,-400000.0625
147.67071652412415,-400000.0625,-20878.599609375,-15279.3896484375,-400000.0625,-20145.369140625,-400000.0625,-14316.990234375,-400000.0625
147.67072057724,-400000.0625,-20919.279296875,-15317.8203125,-400000.0625,-20183.279296875,-400000.0625,-14361.8095703125,-400000.0625
147.67072463035583,-400000.0625,-20950.419921875,-15347.9599609375,-400000.0625,-20212.220703125,-400000.0625,-14393.669921875,-400000.0625
147.6707284450531,-400000.0625,-20930.91015625,-15327.98046875,-400000.0625,-20196.33984375,-400000.0625,-14374.5,-400000.0625
147.6707320213318,-400000.0625,-20884.609375,-15283.919921875,-400000.0625,-20161.490234375,-400000.0625,-14326.099609375,-400000.0625
147.6707363128662,-400000.0625,-20877.650390625,-15273.3798828125,-400000.0625,-20147.66015625,-400000.0625,-14320.6103515625,-400000.0625
147.71282196044922,-400000.0625,-20921.849609375,-15313.91015625,-400000.0625,-20178.75,-400000.0625,-14363.48046875,-400000.0625
147.72354125976562,-400000.0625,-20951.890625,-15347.009765625,-400000.0625,-20210.599609375,-400000.0625,-14394.0498046875,-400000.0625
147.72918844223022,-400000.0625,-20931.91015625,-15327.8798828125,-400000.0625,-20199.30078125,-400000.0625,-14370.8701171875,-400000.0625
147.7340898513794,-400000.0625,-20889.619140625,-15286.2099609375,-400000.0625,-20164.6796875,-400000.0625,-14326.48046875,-400000.0625
147.7341001033783,-400000.0625,-20878.169921875,-15278.91015625,-400000.0625,-20150.759765625,-400000.0625,-14318.419921875,-400000.0625
147.7341046333313,-400000.0625,-20918.369140625,-15316.009765625,-400000.0625,-20181.66015625,-400000.0625,-14358.9501953125,-400000.0625
147.73410892486572,-400000.0625,-20952.130859375,-15347.2900390625,-400000.0625,-20211.990234375,-400000.0625,-14391.0400390625,-400000.0625
147.73411297798157,-400000.0625,-20931.2890625,-15329.650390625,-400000.0625,-20204.259765625,-400000.0625,-14370.25,-400000.0625
147.7341170310974,-400000.0625,-20884.330078125,-15286.400390625,-400000.0625,-20169.01953125,-400000.0625,-14321.6201171875,-400000.0625
147.73412084579468,-400000.0625,-20873.41015625,-15278.7197265625,-400000.0625,-20153.2890625,-400000.0625,-14311.7900390625,-400000.0625
147.73412442207336,-400000.0625,-20917.369140625,-15317.5400390625,-400000.0625,-20187.140625,-400000.0625,-14358.900390625,-400000.0625
147.73412799835205,-400000.0625,-20948.939453125,-15348.8203125,-400000.0625,-20214.75,-400000.0625,-14388.3203125,-400000.0625
147.73413181304932,-400000.0625,-20926.380859375,-15327.650390625,-400000.0625,-20198.970703125,-400000.0625,-14365.7197265625,-400000.0625
147.73413562774658,-400000.0625,-20879.83984375,-15283.25,-400000.0625,-20160.580078125,-400000.0625,-14314.3701171875,-400000.0625
147.73413920402527,-400000.0625,-20870.119140625,-15274.8095703125,-400000.0625,-20146.80078125,-400000.0625,-14302.9697265625,-400000.0625
147.73414278030396,-400000.0625,-20912.029296875,-15314.2900390625,-400000.0625,-20181.23046875,-400000.0625,-14349.9404296875,-400000.0625
147.76859068870544,-400000.0625,-20946.41015625,-15347.76953125,-400000.0625,-20217.0390625,-400000.0625,-14385.5595703125,-400000.0625
147.77397179603577,-400000.0625,-20928.619140625,-15328.2197265625,-400000.0625,-20204.880859375,-400000.0625,-14366.4404296875,-400000.0625
147.77968907356262,-400000.0625,-20886.5703125,-15285.73046875,-400000.0625,-20160.19921875,-400000.0625,-14326.3798828125,-400000.0625
147.7848653793335,-400000.0625,-20877.939453125,-15277.91015625,-400000.0625,-20153.619140625,-400000.0625,-14314.7001953125,-400000.0625
147.78960275650024,-400000.0625,-20920.140625,-15318.25,-400000.0625,-20189.2890625,-400000.0625,-14354.23046875,-400000.0625
147.78961157798767,-400000.0625,-20949.130859375,-15347.4296875,-400000.0625,-20213.75,-400000.0625,-14388.6103515625,-400000.0625
147.78961610794067,-400000.0625,-20926.669921875,-15326.259765625,-400000.0625,-20195.439453125,-400000.0625,-14367.25,-400000.0625
147.78961992263794,-400000.0625,-20883.1796875,-15284.919921875,-400000.0625,-20164.970703125,-400000.0625,-14325.1904296875,-400000.0625
147.78962397575378,-400000.0625,-20872.9296875,-15275.9599609375,-400000.0625,-20161.6796875,-400000.0625,-14314.990234375,-400000.0625
147.78962779045105,-400000.0625,-20912.98046875,-15312.580078125,-400000.0625,-20192.150390625,-400000.0625,-14360.9501953125,-400000.0625
147.78963136672974,-400000.0625,-20945.55078125,-15343.759765625,-400000.0625,-20207.029296875,-400000.0625,-14396.3798828125,-400000.0625
147.78963541984558,-400000.0625,-20924.859375,-15322.5400390625,-400000.0625,-20185.51953125,-400000.0625,-14372.8798828125,-400000.0625
147.78963947296143,-400000.0625,-20883.66015625,-15283.6796875,-400000.0625,-20158.48046875,-400000.0625,-14330.009765625,-400000.0625
147.7896432876587,-400000.0625,-20881.80078125,-15273.9501953125,-400000.0625,-20145.69921875,-400000.0625,-14324.1904296875,-400000.0625
147.78964686393738,-400000.0625,-20917.279296875,-15309.099609375,-400000.0625,-20176.75,-400000.0625,-14362.33984375,-400000.0625
147.7896511554718,-400000.0625,-20945.83984375,-15349.5302734375,-400000.0625,-20210.4609375,-400000.0625,-14393.4296875,-400000.0625
147.82640147209167,-400000.0625,-20934.19921875,-15335.849609375,-400000.0625,-20195.490234375,-400000.0625,-14372.73046875,-400000.0625
147.8360435962677,-400000.0625,-20891.05078125,-15298.650390625,-400000.0625,-20161.439453125,-400000.0625,-14322.7099609375,-400000.0625
147.8408284187317,-400000.0625,-20879.890625,-15289.2099609375,-400000.0625,-20153.2890625,-400000.0625,-14307.2099609375,-400000.0625
147.8408396244049,-400000.0625,-20919.369140625,-15325.6396484375,-400000.0625,-20185.900390625,-400000.0625,-14347.5498046875,-400000.0625
147.8408443927765,-400000.0625,-20951.66015625,-15359.3603515625,-400000.0625,-20215.849609375,-400000.0625,-14380.740234375,-400000.0625
147.84084820747375,-400000.0625,-20929.05078125,-15341.0,-400000.0625,-20201.640625,-400000.0625,-14359.8603515625,-400000.0625
147.84085202217102,-400000.0625,-20890.759765625,-15301.7998046875,-400000.0625,-20172.9296875,-400000.0625,-14312.650390625,-400000.0625
147.8408555984497,-400000.0625,-20880.1796875,-15292.5,-400000.0625,-20162.580078125,-400000.0625,-14301.1103515625,-400000.0625
147.84085965156555,-400000.0625,-20921.609375,-15332.41015625,-400000.0625,-20187.0,-400000.0625,-14347.509765625,-400000.0625
147.84086346626282,-400000.0625,-20951.66015625,-15363.3095703125,-400000.0625,-20214.849609375,-400000.0625,-14380.740234375,-400000.0625
147.84086799621582,-400000.0625,-20931.8203125,-15344.8603515625,-400000.0625,-20208.7890625,-400000.0625,-14361.8603515625,-400000.0625
147.84087204933167,-400000.0625,-20887.51953125,-15303.900390625,-400000.0625,-20173.359375,-400000.0625,-14316.080078125,-400000.0625
147.84087586402893,-400000.0625,-20876.080078125,-15293.7900390625,-400000.0625,-20154.9609375,-400000.0625,-14303.9697265625,-400000.0625
147.84087944030762,-400000.0625,-20915.4609375,-15328.3603515625,-400000.0625,-20182.66015625,-400000.0625,-14345.5498046875,-400000.0625
147.8408830165863,-400000.0625,-20951.890625,-15360.2099609375,-400000.0625,-20210.55078125,-400000.0625,-14379.259765625,-400000.0625
147.840886592865,-400000.0625,-20933.630859375,-15344.8095703125,-400000.0625,-20199.5390625,-400000.0625,-14360.3798828125,-400000.0625
147.92594861984253,-400000.0625,-20889.330078125,-15302.1396484375,-400000.0625,-20163.400390625,-400000.0625,-14316.75,-400000.0625
147.93113541603088,-400000.0625,-20883.509765625,-15295.26953125,-400000.0625,-20160.919921875,-400000.0625,-14305.8798828125,-400000.0625
147.94202733039856,-400000.0625,-20922.140625,-15329.4599609375,-400000.0625,-20193.33984375,-400000.0625,-14348.3203125,-400000.0625
147.94777488708496,-400000.0625,-20952.80078125,-15359.830078125,-400000.0625,-20219.23046875,-400000.0625,-14382.41015625,-400000.0625
147.95321607589722,-400000.0625,-20942.01953125,-15346.2001953125,-400000.0625,-20203.259765625,-400000.0625,-14361.48046875,-400000.0625
147.95797324180603,-400000.0625,-20894.33984375,-15299.8896484375,-400000.0625,-20162.490234375,-400000.0625,-14315.990234375,-400000.0625
147.95798182487488,-400000.0625,-20886.470703125,-15292.3095703125,-400000.0625,-20157.33984375,-400000.0625,-14307.169921875,-400000.0625
147.95798635482788,-400000.0625,-20925.669921875,-15329.4599609375,-400000.0625,-20184.330078125,-400000.0625,-14349.7001953125,-400000.0625
147.9579906463623,-400000.0625,-20956.609375,-15360.1201171875,-400000.0625,-20211.560546875,-400000.0625,-14383.599609375,-400000.0625
147.95799493789673,-400000.0625,-20941.44921875,-15345.1904296875,-400000.0625,-20199.919921875,-400000.0625,-14365.76953125,-400000.0625
147.957998752594,-400000.0625,-20898.30078125,-15303.900390625,-400000.0625,-20164.869140625,-400000.0625,-14318.66015625,-400000.0625
147.95800232887268,-400000.0625,-20890.51953125,-15294.0302734375,-400000.0625,-20155.720703125,-400000.0625,-14304.259765625,-400000.0625
147.95800590515137,-400000.0625,-20928.4296875,-15328.740234375,-400000.0625,-20183.1796875,-400000.0625,-14351.4697265625,-400000.0625
147.95800948143005,-400000.0625,-20956.94921875,-15360.01953125,-400000.0625,-20209.69921875,-400000.0625,-14385.26953125,-400000.0625
147.95801281929016,-400000.0625,-20940.779296875,-15347.33984375,-400000.0625,-20207.9296875,-400000.0625,-14361.7197265625,-400000.0625
147.95801663398743,-400000.0625,-20897.439453125,-15305.7099609375,-400000.0625,-20179.369140625,-400000.0625,-14314.509765625,-400000.0625
147.9580204486847,-400000.0625,-20890.05078125,-15293.4599609375,-400000.0625,-20164.2109375,-400000.0625,-14306.740234375,-400000.0625
147.95802402496338,-400000.0625,-20940.349609375,-15333.9404296875,-400000.0625,-20185.66015625,-400000.0625,-14354.66015625,-400000.0625
147.95802760124207,-400000.0625,-20974.5,-15361.599609375,-400000.0625,-20209.98046875,-400000.0625,-14388.0400390625,-400000.0625
147.95803141593933,-400000.0625,-20935.869140625,-15333.3701171875,-400000.0625,-20190.580078125,-400000.0625,-14378.259765625,-400000.0625
147.95803499221802,-400000.0625,-20880.75,-15280.0595703125,-400000.0625,-20152.08984375,-400000.0625,-14339.9296875,-400000.0625
147.95803904533386,-400000.0625,-20863.060546875,-15259.1201171875,-400000.0625,-20139.359375,-400000.0625,-14335.2001953125,-400000.0625
147.95804262161255,-400000.0625,-20894.150390625,-15287.5400390625,-400000.0625,-20169.58984375,-400000.0625,-14388.900390625,-400000.0625
147.95804595947266,-400000.0625,-20924.189453125,-15307.0,-400000.0625,-20190.669921875,-400000.0625,-14435.2001953125,-400000.0625
147.95805025100708,-400000.0625,-20902.490234375,-15277.8603515625,-400000.0625,-20173.740234375,-400000.0625,-14426.759765625,-400000.0625
147.95805382728577,-400000.0625,-20847.369140625,-15225.75,-400000.0625,-20131.0703125,-400000.0625,-14392.66015625,-400000.0625
147.95805740356445,-400000.0625,-20839.169921875,-15211.490234375,-400000.0625,-20126.150390625,-400000.0625,-14391.5703125,-400000.0625
147.95806097984314,-400000.0625,-20879.369140625,-15238.0,-400000.0625,-20161.8203125,-400000.0625,-14437.919921875,-400000.0625
147.95806455612183,-400000.0625,-20905.2109375,-15259.5498046875,-400000.0625,-20180.560546875,-400000.0625,-14479.4501953125,-400000.0625
147.9580681324005,-400000.0625,-20888.08984375,-15242.76953125,-400000.0625,-20158.630859375,-400000.0625,-14460.23046875,-400000.0625
147.95807194709778,-400000.0625,-20845.369140625,-15202.4296875,-400000.0625,-20121.4296875,-400000.0625,-14414.0302734375,-400000.0625
147.95807552337646,-400000.0625,-20836.779296875,-15190.3203125,-400000.0625,-20111.51953125,-400000.0625,-14401.580078125,-400000.0625
148.02647161483765,-400000.0625,-20877.939453125,-15230.23046875,-400000.0625,-20154.0,-400000.0625,-14447.8798828125,-400000.0625
148.03197288513184,-400000.0625,-20908.169921875,-15261.1298828125,-400000.0625,-20185.849609375,-400000.0625,-14481.16015625,-400000.0625
148.0406494140625,-400000.0625,-20889.859375,-15242.099609375,-400000.0625,-20165.109375,-400000.0625,-14461.4697265625,-400000.0625
148.04605889320374,-400000.0625,-20850.1796875,-15200.330078125,-400000.0625,-20125.009765625,-400000.0625,-14414.2197265625,-400000.0625
148.05099153518677,-400000.0625,-20837.5,-15187.2197265625,-400000.0625,-20117.7109375,-400000.0625,-14401.150390625,-400000.0625
148.05100178718567,-400000.0625,-20880.3203125,-15227.7001953125,-400000.0625,-20157.05078125,-400000.0625,-14441.919921875,-400000.0625
148.05100631713867,-400000.0625,-20916.3203125,-15260.75,-400000.0625,-20184.08984375,-400000.0625,-14478.9697265625,-400000.0625
148.05101037025452,-400000.0625,-20895.869140625,-15243.48046875,-400000.0625,-20166.5390625,-400000.0625,-14463.240234375,-400000.0625
148.05101418495178,-400000.0625,-20846.890625,-15195.75,-400000.0625,-20120.720703125,-400000.0625,-14417.98046875,-400000.0625
148.05101776123047,-400000.0625,-20834.970703125,-15185.2099609375,-400000.0625,-20116.669921875,-400000.0625,-14400.5302734375,-400000.0625
148.05102229118347,-400000.0625,-20878.7890625,-15224.4599609375,-400000.0625,-20154.380859375,-400000.0625,-14443.919921875,-400000.0625
148.05102610588074,-400000.0625,-20911.55078125,-15255.740234375,-400000.0625,-20177.41015625,-400000.0625,-14477.7802734375,-400000.0625
148.051029920578,-400000.0625,-20894.48046875,-15240.9599609375,-400000.0625,-20163.630859375,-400000.0625,-14460.849609375,-400000.0625
148.05103397369385,-400000.0625,-20851.419921875,-15198.419921875,-400000.0625,-20128.8203125,-400000.0625,-14411.7802734375,-400000.0625
148.05103754997253,-400000.0625,-20839.83984375,-15186.98046875,-400000.0625,-20120.9609375,-400000.0625,-14397.9599609375,-400000.0625
148.05104088783264,-400000.0625,-20879.080078125,-15223.8896484375,-400000.0625,-20153.720703125,-400000.0625,-14441.7802734375,-400000.0625
148.093523979187,-400000.0625,-20916.0390625,-15256.599609375,-400000.0625,-20174.4609375,-400000.0625,-14477.7802734375,-400000.0625
148.09881067276,-400000.0625,-20894.150390625,-15237.330078125,-400000.0625,-20157.150390625,-400000.0625,-14459.7099609375,-400000.0625
148.1037585735321,-400000.0625,-20852.189453125,-15199.6201171875,-400000.0625,-20124.150390625,-400000.0625,-14412.740234375,-400000.0625
148.1037676334381,-400000.0625,-20841.080078125,-15188.509765625,-400000.0625,-20121.05078125,-400000.0625,-14396.0,-400000.0625
148.10377192497253,-400000.0625,-20879.939453125,-15225.2197265625,-400000.0625,-20155.240234375,-400000.0625,-14440.0595703125,-400000.0625
148.1037757396698,-400000.0625,-20912.3203125,-15253.6396484375,-400000.0625,-20181.900390625,-400000.0625,-14479.830078125,-400000.0625
148.1037793159485,-400000.0625,-20894.630859375,-15237.3798828125,-400000.0625,-20165.779296875,-400000.0625,-14459.23046875,-400000.0625
148.1037836074829,-400000.0625,-20854.330078125,-15195.23046875,-400000.0625,-20121.76953125,-400000.0625,-14408.400390625,-400000.0625
148.1037871837616,-400000.0625,-20843.080078125,-15184.5498046875,-400000.0625,-20113.419921875,-400000.0625,-14398.76953125,-400000.0625
148.10379099845886,-400000.0625,-20881.419921875,-15221.650390625,-400000.0625,-20154.099609375,-400000.0625,-14442.4501953125,-400000.0625
148.10379457473755,-400000.0625,-20913.98046875,-15251.73046875,-400000.0625,-20179.130859375,-400000.0625,-14477.0595703125,-400000.0625
148.10379815101624,-400000.0625,-20899.630859375,-15236.9501953125,-400000.0625,-20161.009765625,-400000.0625,-14458.2802734375,-400000.0625
148.10380172729492,-400000.0625,-20852.66015625,-15194.419921875,-400000.0625,-20121.859375,-400000.0625,-14416.650390625,-400000.0625
148.1038053035736,-400000.0625,-20842.650390625,-15184.4501953125,-400000.0625,-20117.240234375,-400000.0625,-14400.7197265625,-400000.0625
148.1038088798523,-400000.0625,-20877.26953125,-15217.16015625,-400000.0625,-20147.609375,-400000.0625,-14438.9599609375,-400000.0625
148.10381245613098,-400000.0625,-20912.509765625,-15251.4501953125,-400000.0625,-20179.509765625,-400000.0625,-14478.400390625,-400000.0625
148.1607871055603,-400000.0625,-20901.58984375,-15238.099609375,-400000.0625,-20169.119140625,-400000.0625,-14458.9404296875,-400000.0625
148.17052364349365,-400000.0625,-20854.51953125,-15194.509765625,-400000.0625,-20134.880859375,-400000.0625,-14415.169921875,-400000.0625
148.17568564414978,-400000.0625,-20843.220703125,-15182.349609375,-400000.0625,-20116.470703125,-400000.0625,-14402.919921875,-400000.0625
148.1805064678192,-400000.0625,-20888.759765625,-15224.41015625,-400000.0625,-20142.1796875,-400000.0625,-14443.73046875,-400000.0625
148.18051600456238,-400000.0625,-20915.83984375,-15250.16015625,-400000.0625,-20170.880859375,-400000.0625,-14483.8798828125,-400000.0625
148.18052053451538,-400000.0625,-20898.25,-15233.2802734375,-400000.0625,-20160.76953125,-400000.0625,-14467.6201171875,-400000.0625
148.18052530288696,-400000.0625,-20860.33984375,-15196.990234375,-400000.0625,-20134.740234375,-400000.0625,-14415.7001953125,-400000.0625
148.1805295944214,-400000.0625,-20849.330078125,-15187.3603515625,-400000.0625,-20125.439453125,-400000.0625,-14403.4404296875,-400000.0625
148.18053340911865,-400000.0625,-20890.91015625,-15225.4599609375,-400000.0625,-20147.990234375,-400000.0625,-14446.3603515625,-400000.0625
148.18053770065308,-400000.0625,-20923.189453125,-15256.169921875,-400000.0625,-20174.7890625,-400000.0625,-14482.9296875,-400000.0625
148.18054175376892,-400000.0625,-20902.58984375,-15237.3798828125,-400000.0625,-20170.9296875,-400000.0625,-14462.3798828125,-400000.0625
148.1805455684662,-400000.0625,-20855.94921875,-15192.9404296875,-400000.0625,-20135.55078125,-400000.0625,-14416.3603515625,-400000.0625
148.18054914474487,-400000.0625,-20844.509765625,-15183.8798828125,-400000.0625,-20116.669921875,-400000.0625,-14404.0595703125,-400000.0625
148.18055295944214,-400000.0625,-20884.75,-15218.58984375,-400000.0625,-20145.130859375,-400000.0625,-14443.259765625,-400000.0625
148.18055653572083,-400000.0625,-20919.1796875,-15251.1103515625,-400000.0625,-20175.169921875,-400000.0625,-14477.2099609375,-400000.0625
148.1805601119995,-400000.0625,-20904.400390625,-15238.3798828125,-400000.0625,-20163.779296875,-400000.0625,-14458.3203125,-400000.0625
148.21260595321655,-400000.0625,-20857.48046875,-15195.1796875,-400000.0625,-20130.259765625,-400000.0625,-14418.5595703125,-400000.0625
148.2181007862091,-400000.0625,-20845.509765625,-15185.6396484375,-400000.0625,-20123.91015625,-400000.0625,-14406.7802734375,-400000.0625
148.2230429649353,-400000.0625,-20882.1796875,-15219.58984375,-400000.0625,-20153.5703125,-400000.0625,-14444.6904296875,-400000.0625
148.2230498790741,-400000.0625,-20917.279296875,-15249.1103515625,-400000.0625,-20170.98046875,-400000.0625,-14479.1103515625,-400000.0625
148.2230544090271,-400000.0625,-20901.30078125,-15235.759765625,-400000.0625,-20153.51953125,-400000.0625,-14458.7998046875,-400000.0625
148.22305846214294,-400000.0625,-20857.9609375,-15197.23046875,-400000.0625,-20124.580078125,-400000.0625,-14413.98046875,-400000.0625
148.2230622768402,-400000.0625,-20844.75,-15184.830078125,-400000.0625,-20116.279296875,-400000.0625,-14401.76953125,-400000.0625
148.22306609153748,-400000.0625,-20884.08984375,-15223.169921875,-400000.0625,-20152.240234375,-400000.0625,-14447.3095703125,-400000.0625
148.22307014465332,-400000.0625,-20920.23046875,-15257.3095703125,-400000.0625,-20182.80078125,-400000.0625,-14479.919921875,-400000.0625
148.223073720932,-400000.0625,-20898.060546875,-15237.0498046875,-400000.0625,-20162.869140625,-400000.0625,-14460.1796875,-400000.0625
148.2230772972107,-400000.0625,-20859.2890625,-15198.419921875,-400000.0625,-20126.73046875,-400000.0625,-14418.169921875,-400000.0625
148.22308087348938,-400000.0625,-20851.140625,-15190.7001953125,-400000.0625,-20125.060546875,-400000.0625,-14400.91015625,-400000.0625
148.22308444976807,-400000.0625,-20886.51953125,-15222.169921875,-400000.0625,-20162.919921875,-400000.0625,-14443.2099609375,-400000.0625
148.22308802604675,-400000.0625,-20921.08984375,-15252.7802734375,-400000.0625,-20188.0,-400000.0625,-14478.01953125,-400000.0625
148.22309160232544,-400000.0625,-20900.73046875,-15241.8603515625,-400000.0625,-20170.400390625,-400000.0625,-14457.509765625,-400000.0625
148.2230954170227,-400000.0625,-20857.76953125,-15205.1904296875,-400000.0625,-20132.880859375,-400000.0625,-14406.2998046875,-400000.0625
148.33750438690186,-400000.0625,-20847.66015625,-15193.1796875,-400000.0625,-20124.060546875,-400000.0625,-14396.6201171875,-400000.0625
148.34703826904297,-400000.0625,-20885.0390625,-15227.26953125,-400000.0625,-20149.810546875,-400000.0625,-14435.580078125,-400000.0625
148.3511893749237,-400000.0625,-20921.419921875,-15266.23046875,-400000.0625,-20178.029296875,-400000.0625,-14467.91015625,-400000.0625
148.35119605064392,-400000.0625,-20904.349609375,-15251.1103515625,-400000.0625,-20170.119140625,-400000.0625,-14448.1201171875,-400000.0625
148.3511998653412,-400000.0625,-20861.099609375,-15209.3896484375,-400000.0625,-20134.44921875,-400000.0625,-14403.33984375,-400000.0625
148.35120368003845,-400000.0625,-20845.3203125,-15196.849609375,-400000.0625,-20120.9609375,-400000.0625,-14391.23046875,-400000.0625
148.35120701789856,-400000.0625,-20883.509765625,-15234.0400390625,-400000.0625,-20156.720703125,-400000.0625,-14430.8603515625,-400000.0625
148.35121035575867,-400000.0625,-20916.609375,-15262.7998046875,-400000.0625,-20185.759765625,-400000.0625,-14467.8095703125,-400000.0625
148.35121393203735,-400000.0625,-20899.580078125,-15247.5400390625,-400000.0625,-20174.119140625,-400000.0625,-14451.7001953125,-400000.0625
148.35121726989746,-400000.0625,-20854.900390625,-15206.7197265625,-400000.0625,-20137.029296875,-400000.0625,-14402.9599609375,-400000.0625
148.35122060775757,-400000.0625,-20840.83984375,-15192.4599609375,-400000.0625,-20117.4296875,-400000.0625,-14387.900390625,-400000.0625
148.35122394561768,-400000.0625,-20881.130859375,-15231.3701171875,-400000.0625,-20149.279296875,-400000.0625,-14432.48046875,-400000.0625
148.35122728347778,-400000.0625,-20921.279296875,-15265.08984375,-400000.0625,-20179.849609375,-400000.0625,-14469.150390625,-400000.0625
148.3512306213379,-400000.0625,-20904.310546875,-15248.16015625,-400000.0625,-20161.73046875,-400000.0625,-14452.0302734375,-400000.0625
148.35123372077942,-400000.0625,-20857.150390625,-15205.150390625,-400000.0625,-20124.9609375,-400000.0625,-14401.2001953125,-400000.0625
148.3512372970581,-400000.0625,-20848.849609375,-15194.3701171875,-400000.0625,-20117.330078125,-400000.0625,-14387.4697265625,-400000.0625
148.35962843894958,-400000.0625,-20889.08984375,-15233.3798828125,-400000.0625,-20157.4296875,-400000.0625,-14427.849609375,-400000.0625
148.36499404907227,-400000.0625,-20917.849609375,-15263.650390625,-400000.0625,-20187.5703125,-400000.0625,-14465.669921875,-400000.0625
148.36960244178772,-400000.0625,-20902.109375,-15250.349609375,-400000.0625,-20170.689453125,-400000.0625,-14452.7900390625,-400000.0625
148.36961197853088,-400000.0625,-20860.580078125,-15209.150390625,-400000.0625,-20131.880859375,-400000.0625,-14407.6796875,-400000.0625
148.36961603164673,-400000.0625,-20847.23046875,-15199.2802734375,-400000.0625,-20126.439453125,-400000.0625,-14392.4697265625,-400000.0625
148.369619846344,-400000.0625,-20886.0390625,-15234.08984375,-400000.0625,-20149.94921875,-400000.0625,-14434.5302734375,-400000.0625
148.36962366104126,-400000.0625,-20925.5703125,-15266.6103515625,-400000.0625,-20173.9296875,-400000.0625,-14466.8603515625,-400000.0625
148.36962723731995,-400000.0625,-20907.2109375,-15250.6396484375,-400000.0625,-20165.400390625,-400000.0625,-14449.1201171875,-400000.0625
148.3696310520172,-400000.0625,-20863.390625,-15210.25,-400000.0625,-20132.5,-400000.0625,-14405.009765625,-400000.0625
148.36963486671448,-400000.0625,-20847.990234375,-15195.75,-400000.0625,-20122.009765625,-400000.0625,-14391.23046875,-400000.0625
148.36963868141174,-400000.0625,-20889.94921875,-15233.419921875,-400000.0625,-20153.619140625,-400000.0625,-14435.150390625,-400000.0625
148.36964225769043,-400000.0625,-20922.470703125,-15266.7099609375,-400000.0625,-20191.810546875,-400000.0625,-14472.009765625,-400000.0625
148.36964583396912,-400000.0625,-20907.599609375,-15250.259765625,-400000.0625,-20169.9296875,-400000.0625,-14455.8896484375,-400000.0625
148.3696494102478,-400000.0625,-20863.490234375,-15207.7197265625,-400000.0625,-20122.009765625,-400000.0625,-14410.2099609375,-400000.0625
148.3696529865265,-400000.0625,-20842.599609375,-15190.26953125,-400000.0625,-20116.51953125,-400000.0625,-14391.51953125,-400000.0625
148.36965656280518,-400000.0625,-20883.0390625,-15225.98046875,-400000.0625,-20144.890625,-400000.0625,-14437.490234375,-400000.0625
148.40879654884338,-400000.0625,-20919.51953125,-15261.1298828125,-400000.0625,-20170.310546875,-400000.0625,-14473.3896484375,-400000.0625
148.4146213531494,-400000.0625,-20906.44921875,-15250.6396484375,-400000.0625,-20164.779296875,-400000.0625,-14454.5595703125,-400000.0625
148.41939783096313,-400000.0625,-20862.150390625,-15208.9599609375,-400000.0625,-20137.740234375,-400000.0625,-14411.9296875,-400000.0625
148.41940593719482,-400000.0625,-20852.7109375,-15199.51953125,-400000.0625,-20128.970703125,-400000.0625,-14392.66015625,-400000.0625
148.41941022872925,-400000.0625,-20889.94921875,-15233.849609375,-400000.0625,-20151.240234375,-400000.0625,-14434.9599609375,-400000.0625
148.41941452026367,-400000.0625,-20924.4296875,-15268.1796875,-400000.0625,-20177.220703125,-400000.0625,-14476.009765625,-400000.0625
148.41941928863525,-400000.0625,-20913.029296875,-15259.0302734375,-400000.0625,-20168.9296875,-400000.0625,-14460.51953125,-400000.0625
148.4194233417511,-400000.0625,-20862.630859375,-15214.2099609375,-400000.0625,-20130.30078125,-400000.0625,-14411.8798828125,-400000.0625
148.41942739486694,-400000.0625,-20848.609375,-15200.4296875,-400000.0625,-20117.669921875,-400000.0625,-14395.8095703125,-400000.0625
148.4194314479828,-400000.0625,-20887.66015625,-15232.3701171875,-400000.0625,-20154.189453125,-400000.0625,-14433.33984375,-400000.0625
148.41943502426147,-400000.0625,-20924.669921875,-15266.7099609375,-400000.0625,-20180.75,-400000.0625,-14467.4296875,-400000.0625
148.41943883895874,-400000.0625,-20909.880859375,-15253.9296875,-400000.0625,-20165.30078125,-400000.0625,-14457.7001953125,-400000.0625
148.41944241523743,-400000.0625,-20865.630859375,-15213.2099609375,-400000.0625,-20134.740234375,-400000.0625,-14414.9296875,-400000.0625
148.41944646835327,-400000.0625,-20851.900390625,-15200.900390625,-400000.0625,-20124.009765625,-400000.0625,-14396.1396484375,-400000.0625
148.41945028305054,-400000.0625,-20890.140625,-15236.1396484375,-400000.0625,-20152.330078125,-400000.0625,-14435.91015625,-400000.0625
148.4194540977478,-400000.0625,-20925.720703125,-15267.4697265625,-400000.0625,-20175.599609375,-400000.0625,-14473.6298828125,-400000.0625
148.46752190589905,-400000.0625,-20908.310546875,-15254.8798828125,-400000.0625,-20165.779296875,-400000.0625,-14455.4599609375,-400000.0625
148.4776005744934,-400000.0625,-20867.2109375,-15211.919921875,-400000.0625,-20129.060546875,-400000.0625,-14415.5498046875,-400000.0625
148.48268866539001,-400000.0625,-20849.990234375,-15192.4599609375,-400000.0625,-20112.23046875,-400000.0625,-14397.1904296875,-400000.0625
148.48754906654358,-400000.0625,-20890.759765625,-15232.990234375,-400000.0625,-20150.759765625,-400000.0625,-14439.16015625,-400000.0625
148.48755598068237,-400000.0625,-20934.869140625,-15269.1904296875,-400000.0625,-20186.759765625,-400000.0625,-14475.7802734375,-400000.0625
148.4875602722168,-400000.0625,-20912.359375,-15247.4404296875,-400000.0625,-20173.080078125,-400000.0625,-14459.990234375,-400000.0625
148.48756408691406,-400000.0625,-20855.380859375,-15200.5703125,-400000.0625,-20133.16015625,-400000.0625,-14422.2802734375,-400000.0625
148.48756790161133,-400000.0625,-20842.55078125,-15183.400390625,-400000.0625,-20116.189453125,-400000.0625,-14410.0703125,-400000.0625
148.48757147789001,-400000.0625,-20884.0390625,-15220.1201171875,-400000.0625,-20143.609375,-400000.0625,-14460.6103515625,-400000.0625
148.48757481575012,-400000.0625,-20910.359375,-15246.490234375,-400000.0625,-20169.44921875,-400000.0625,-14490.9404296875,-400000.0625
148.4875783920288,-400000.0625,-20889.0,-15225.080078125,-400000.0625,-20154.4296875,-400000.0625,-14475.919921875,-400000.0625
148.48758482933044,-400000.0625,-20851.23046875,-15183.259765625,-400000.0625,-20121.19921875,-400000.0625,-14434.009765625,-400000.0625
148.48758840560913,-400000.0625,-20837.689453125,-15169.6201171875,-400000.0625,-20111.0390625,-400000.0625,-14416.3095703125,-400000.0625
148.48759245872498,-400000.0625,-20871.689453125,-15202.5703125,-400000.0625,-20141.890625,-400000.0625,-14466.8095703125,-400000.0625
148.48759579658508,-400000.0625,-20907.9296875,-15236.759765625,-400000.0625,-20167.16015625,-400000.0625,-14506.150390625,-400000.0625
148.48759961128235,-400000.0625,-20886.759765625,-15216.2099609375,-400000.0625,-20154.91015625,-400000.0625,-14476.8701171875,-400000.0625
148.53009462356567,-400000.0625,-20841.41015625,-15174.490234375,-400000.0625,-20124.9609375,-400000.0625,-14430.6201171875,-400000.0625
148.53580164909363,-400000.0625,-20832.349609375,-15167.240234375,-400000.0625,-20111.23046875,-400000.0625,-14420.1298828125,-400000.0625
148.54046607017517,-400000.0625,-20869.9296875,-15196.849609375,-400000.0625,-20133.689453125,-400000.0625,-14460.849609375,-400000.0625
148.54047179222107,-400000.0625,-20897.6796875,-15224.7900390625,-400000.0625,-20160.8203125,-400000.0625,-14498.759765625,-400000.0625
148.54047632217407,-400000.0625,-20883.1796875,-15215.0595703125,-400000.0625,-20148.279296875,-400000.0625,-14481.259765625,-400000.0625
148.54047966003418,-400000.0625,-20841.220703125,-15172.5302734375,-400000.0625,-20110.900390625,-400000.0625,-14433.91015625,-400000.0625
148.5404829978943,-400000.0625,-20827.390625,-15160.4697265625,-400000.0625,-20101.119140625,-400000.0625,-14413.3095703125,-400000.0625
148.54048609733582,-400000.0625,-20868.830078125,-15197.900390625,-400000.0625,-20132.16015625,-400000.0625,-14456.23046875,-400000.0625
148.54048895835876,-400000.0625,-20902.060546875,-15229.0400390625,-400000.0625,-20166.259765625,-400000.0625,-14491.849609375,-400000.0625
148.5404920578003,-400000.0625,-20890.4296875,-15215.6396484375,-400000.0625,-20159.91015625,-400000.0625,-14475.490234375,-400000.0625
148.54049515724182,-400000.0625,-20843.990234375,-15174.5302734375,-400000.0625,-20124.869140625,-400000.0625,-14430.3798828125,-400000.0625
148.54049825668335,-400000.0625,-20827.439453125,-15160.1796875,-400000.0625,-20112.900390625,-400000.0625,-14414.259765625,-400000.0625
148.54050135612488,-400000.0625,-20866.25,-15193.26953125,-400000.0625,-20130.919921875,-400000.0625,-14454.4599609375,-400000.0625
148.5405044555664,-400000.0625,-20900.349609375,-15227.2197265625,-400000.0625,-20158.009765625,-400000.0625,-14489.7001953125,-400000.0625
148.5405077934265,-400000.0625,-20884.560546875,-15215.9697265625,-400000.0625,-20153.619140625,-400000.0625,-14481.3095703125,-400000.0625
148.54051089286804,-400000.0625,-20841.55078125,-15171.76953125,-400000.0625,-20111.23046875,-400000.0625,-14445.6904296875,-400000.0625
148.5949068069458,-400000.0625,-20828.6796875,-15158.8896484375,-400000.0625,-20101.5,-400000.0625,-14423.08984375,-400000.0625
148.60513591766357,-400000.0625,-20870.44921875,-15195.1796875,-400000.0625,-20134.7890625,-400000.0625,-14461.2802734375,-400000.0625
148.6107051372528,-400000.0625,-20904.5,-15228.9404296875,-400000.0625,-20161.349609375,-400000.0625,-14507.919921875,-400000.0625
148.61660504341125,-400000.0625,-20882.419921875,-15211.150390625,-400000.0625,-20152.810546875,-400000.0625,-14477.25,-400000.0625
148.62216305732727,-400000.0625,-20839.169921875,-15171.48046875,-400000.0625,-20122.91015625,-400000.0625,-14427.51953125,-400000.0625
148.62803411483765,-400000.0625,-20830.009765625,-15159.7998046875,-400000.0625,-20111.419921875,-400000.0625,-14418.9404296875,-400000.0625
148.63301467895508,-400000.0625,-20866.25,-15194.7001953125,-400000.0625,-20138.55078125,-400000.0625,-14461.7099609375,-400000.0625
148.63302397727966,-400000.0625,-20900.5390625,-15225.599609375,-400000.0625,-20161.25,-400000.0625,-14495.3701171875,-400000.0625
148.63302850723267,-400000.0625,-20888.279296875,-15215.0595703125,-400000.0625,-20153.330078125,-400000.0625,-14483.3603515625,-400000.0625
148.6330327987671,-400000.0625,-20839.029296875,-15172.2001953125,-400000.0625,-20113.419921875,-400000.0625,-14441.1103515625,-400000.0625
148.63303637504578,-400000.0625,-20822.380859375,-15156.599609375,-400000.0625,-20098.01953125,-400000.0625,-14418.9404296875,-400000.0625
148.63303995132446,-400000.0625,-20856.9609375,-15189.650390625,-400000.0625,-20131.689453125,-400000.0625,-14447.3603515625,-400000.0625
148.63304352760315,-400000.0625,-20893.619140625,-15220.4501953125,-400000.0625,-20166.44921875,-400000.0625,-14495.7998046875,-400000.0625
148.63773393630981,-400000.0625,-20882.130859375,-15210.009765625,-400000.0625,-20156.19921875,-400000.0625,-14476.73046875,-400000.0625
148.63774299621582,-400000.0625,-20836.400390625,-15167.1396484375,-400000.0625,-20121.33984375,-400000.0625,-14431.759765625,-400000.0625
148.63774752616882,-400000.0625,-20825.05078125,-15156.7001953125,-400000.0625,-20107.609375,-400000.0625,-14418.650390625,-400000.0625
148.68399572372437,-400000.0625,-20864.779296875,-15195.23046875,-400000.0625,-20130.880859375,-400000.0625,-14459.900390625,-400000.0625
148.68943285942078,-400000.0625,-20901.73046875,-15228.23046875,-400000.0625,-20155.189453125,-400000.0625,-14499.1396484375,-400000.0625
148.69489192962646,-400000.0625,-20887.0390625,-15214.7802734375,-400000.0625,-20145.900390625,-400000.0625,-14487.8896484375,-400000.0625
148.69971251487732,-400000.0625,-20846.4609375,-15174.6796875,-400000.0625,-20113.330078125,-400000.0625,-14434.91015625,-400000.0625
148.70460510253906,-400000.0625,-20828.439453125,-15158.9404296875,-400000.0625,-20104.359375,-400000.0625,-14421.7998046875,-400000.0625
148.7093801498413,-400000.0625,-20860.91015625,-15190.4599609375,-400000.0625,-20137.029296875,-400000.0625,-14457.23046875,-400000.0625
148.70938920974731,-400000.0625,-20902.58984375,-15226.3203125,-400000.0625,-20165.259765625,-400000.0625,-14498.8095703125,-400000.0625
148.70939350128174,-400000.0625,-20892.669921875,-15213.58984375,-400000.0625,-20149.330078125,-400000.0625,-14488.8896484375,-400000.0625
148.70939755439758,-400000.0625,-20850.470703125,-15168.9501953125,-400000.0625,-20112.560546875,-400000.0625,-14444.01953125,-400000.0625
148.70940136909485,-400000.0625,-20837.119140625,-15160.900390625,-400000.0625,-20102.0703125,-400000.0625,-14411.7802734375,-400000.0625
148.7094054222107,-400000.0625,-20878.650390625,-15212.16015625,-400000.0625,-20140.75,-400000.0625,-14450.7900390625,-400000.0625
148.70940923690796,-400000.0625,-20915.69921875,-15259.41015625,-400000.0625,-20178.369140625,-400000.0625,-14479.400390625,-400000.0625
148.70941281318665,-400000.0625,-20904.0703125,-15255.41015625,-400000.0625,-20165.640625,-400000.0625,-14453.080078125,-400000.0625
148.7094166278839,-400000.0625,-20861.720703125,-15222.98046875,-400000.0625,-20131.349609375,-400000.0625,-14398.9599609375,-400000.0625
148.7094202041626,-400000.0625,-20853.810546875,-15222.1201171875,-400000.0625,-20127.19921875,-400000.0625,-14377.5,-400000.0625
148.70942378044128,-400000.0625,-20891.240234375,-15267.2802734375,-400000.0625,-20156.580078125,-400000.0625,-14408.919921875,-400000.0625
148.72108674049377,-400000.0625,-20929.05078125,-15311.76953125,-400000.0625,-20191.91015625,-400000.0625,-14433.0,-400000.0625
148.72691655158997,-400000.0625,-20922.23046875,-15312.8603515625,-400000.0625,-20189.48046875,-400000.0625,-14420.8896484375,-400000.0625
148.73217153549194,-400000.0625,-20879.939453125,-15276.6201171875,-400000.0625,-20158.48046875,-400000.0625,-14367.009765625,-400000.0625
148.73751544952393,-400000.0625,-20866.30078125,-15267.2802734375,-400000.0625,-20137.689453125,-400000.0625,-14345.5,-400000.0625
148.7431628704071,-400000.0625,-20901.58984375,-15299.8896484375,-400000.0625,-20161.919921875,-400000.0625,-14380.98046875,-400000.0625
148.7487690448761,-400000.0625,-20935.439453125,-15334.7001953125,-400000.0625,-20192.390625,-400000.0625,-14418.0302734375,-400000.0625
148.75353169441223,-400000.0625,-20920.470703125,-15323.740234375,-400000.0625,-20183.140625,-400000.0625,-14406.7802734375,-400000.0625
148.75354051589966,-400000.0625,-20880.990234375,-15285.6796875,-400000.0625,-20152.330078125,-400000.0625,-14358.0,-400000.0625
148.7535445690155,-400000.0625,-20867.490234375,-15271.4697265625,-400000.0625,-20143.849609375,-400000.0625,-14337.9697265625,-400000.0625
148.7535481452942,-400000.0625,-20900.58984375,-15303.0400390625,-400000.0625,-20172.41015625,-400000.0625,-14378.98046875,-400000.0625
148.7535514831543,-400000.0625,-20938.259765625,-15338.23046875,-400000.0625,-20204.359375,-400000.0625,-14418.990234375,-400000.0625
148.75355505943298,-400000.0625,-20921.51953125,-15323.6396484375,-400000.0625,-20201.919921875,-400000.0625,-14402.919921875,-400000.0625
148.75355863571167,-400000.0625,-20877.650390625,-15280.6796875,-400000.0625,-20164.30078125,-400000.0625,-14354.5595703125,-400000.0625
148.75356268882751,-400000.0625,-20862.060546875,-15266.419921875,-400000.0625,-20146.369140625,-400000.0625,-14338.2998046875,-400000.0625
148.75356650352478,-400000.0625,-20902.349609375,-15304.7099609375,-400000.0625,-20175.169921875,-400000.0625,-14381.7001953125,-400000.0625
148.75357007980347,-400000.0625,-20937.970703125,-15338.7099609375,-400000.0625,-20203.0703125,-400000.0625,-14419.990234375,-400000.0625
148.78641986846924,-400000.0625,-20926.189453125,-15327.5498046875,-400000.0625,-20191.390625,-400000.0625,-14404.349609375,-400000.0625
148.791650056839,-400000.0625,-20880.650390625,-15285.1103515625,-400000.0625,-20157.529296875,-400000.0625,-14360.240234375,-400000.0625
148.7974877357483,-400000.0625,-20864.630859375,-15270.08984375,-400000.0625,-20143.3203125,-400000.0625,-14340.9697265625,-400000.0625
148.80230450630188,-400000.0625,-20898.8203125,-15299.26953125,-400000.0625,-20168.16015625,-400000.0625,-14384.41015625,-400000.0625
148.80806684494019,-400000.0625,-20935.8203125,-15332.83984375,-400000.0625,-20202.9296875,-400000.0625,-14412.599609375,-400000.0625
148.81390523910522,-400000.0625,-20923.810546875,-15322.9296875,-400000.0625,-20198.25,-400000.0625,-14397.91015625,-400000.0625
148.8190095424652,-400000.0625,-20877.890625,-15280.6796875,-400000.0625,-20158.669921875,-400000.0625,-14357.51953125,-400000.0625
148.82417964935303,-400000.0625,-20862.869140625,-15267.330078125,-400000.0625,-20146.1796875,-400000.0625,-14345.98046875,-400000.0625
148.82938027381897,-400000.0625,-20901.009765625,-15302.2802734375,-400000.0625,-20173.650390625,-400000.0625,-14378.1201171875,-400000.0625
148.8350703716278,-400000.0625,-20938.01953125,-15335.509765625,-400000.0625,-20204.169921875,-400000.0625,-14419.7998046875,-400000.0625
148.8397090435028,-400000.0625,-20927.76953125,-15324.6396484375,-400000.0625,-20191.240234375,-400000.0625,-14413.169921875,-400000.0625
148.83971762657166,-400000.0625,-20884.609375,-15284.2998046875,-400000.0625,-20156.33984375,-400000.0625,-14361.9599609375,-400000.0625
148.83972215652466,-400000.0625,-20868.01953125,-15267.759765625,-400000.0625,-20141.169921875,-400000.0625,-14338.2998046875,-400000.0625
148.83972597122192,-400000.0625,-20909.5,-15298.9404296875,-400000.0625,-20171.359375,-400000.0625,-14371.1103515625,-400000.0625
148.83973002433777,-400000.0625,-20951.609375,-15336.6103515625,-400000.0625,-20202.44921875,-400000.0625,-14407.0595703125,-400000.0625
148.83973360061646,-400000.0625,-20954.330078125,-15316.5400390625,-400000.0625,-20181.849609375,-400000.0625,-14397.240234375,-400000.0625
148.86121487617493,-400000.0625,-20902.44921875,-15277.9599609375,-400000.0625,-20144.66015625,-400000.0625,-14346.650390625,-400000.0625
148.8668134212494,-400000.0625,-20900.439453125,-15258.7900390625,-400000.0625,-20129.060546875,-400000.0625,-14322.51953125,-400000.0625
148.87181520462036,-400000.0625,-20936.400390625,-15284.400390625,-400000.0625,-20147.51953125,-400000.0625,-14350.990234375,-400000.0625
148.8769371509552,-400000.0625,-20992.51953125,-15326.169921875,-400000.0625,-20177.1796875,-400000.0625,-14408.9697265625,-400000.0625
148.88251161575317,-400000.0625,-20980.689453125,-15339.1904296875,-400000.0625,-20177.080078125,-400000.0625,-14405.25,-400000.0625
148.8873872756958,-400000.0625,-20946.310546875,-15312.099609375,-400000.0625,-20142.369140625,-400000.0625,-14370.009765625,-400000.0625
148.88739585876465,-400000.0625,-20977.7890625,-15286.259765625,-400000.0625,-20107.609375,-400000.0625,-14350.509765625,-400000.0625
148.8873999118805,-400000.0625,-21001.869140625,-15343.8095703125,-400000.0625,-20135.0703125,-400000.0625,-14407.490234375,-400000.0625
148.88740372657776,-400000.0625,-21067.669921875,-15401.2197265625,-400000.0625,-20165.400390625,-400000.0625,-14467.8603515625,-400000.0625
148.88740754127502,-400000.0625,-21085.9296875,-15404.0400390625,-400000.0625,-20150.619140625,-400000.0625,-14470.4404296875,-400000.0625
148.8874111175537,-400000.0625,-21088.3203125,-15383.48046875,-400000.0625,-20103.169921875,-400000.0625,-14441.830078125,-400000.0625
148.8874146938324,-400000.0625,-21119.41015625,-15390.25,-400000.0625,-20078.66015625,-400000.0625,-14446.01953125,-400000.0625
148.88741827011108,-400000.0625,-21208.4296875,-15448.51953125,-400000.0625,-20101.9296875,-400000.0625,-14503.8095703125,-400000.0625
148.88742208480835,-400000.0625,-21267.939453125,-15494.2099609375,-400000.0625,-20119.0,-400000.0625,-14554.2197265625,-400000.0625
148.88742566108704,-400000.0625,-21273.380859375,-15492.349609375,-400000.0625,-20109.69921875,-400000.0625,-14546.8701171875,-400000.0625
148.8874306678772,-400000.0625,-21243.91015625,-15453.2001953125,-400000.0625,-20077.08984375,-400000.0625,-14500.91015625,-400000.0625
148.92653465270996,-400000.0625,-21236.80078125,-15432.169921875,-400000.0625,-20063.2109375,-400000.0625,-14486.4599609375,-400000.0625
148.93595790863037,-400000.0625,-21271.279296875,-15459.2099609375,-400000.0625,-20082.5703125,-400000.0625,-14525.419921875,-400000.0625
148.94100689888,-400000.0625,-21298.650390625,-15489.91015625,-400000.0625,-20113.80078125,-400000.0625,-14557.26953125,-400000.0625
148.94585132598877,-400000.0625,-21279.9609375,-15477.7998046875,-400000.0625,-20110.75,-400000.0625,-14544.150390625,-400000.0625
148.94586038589478,-400000.0625,-21216.8203125,-15426.400390625,-400000.0625,-20072.560546875,-400000.0625,-14485.5498046875,-400000.0625
148.94586515426636,-400000.0625,-21181.6796875,-15402.7001953125,-400000.0625,-20064.01953125,-400000.0625,-14466.6201171875,-400000.0625
148.94586944580078,-400000.0625,-21199.609375,-15429.58984375,-400000.0625,-20099.740234375,-400000.0625,-14507.25,-400000.0625
148.94587349891663,-400000.0625,-21219.689453125,-15457.919921875,-400000.0625,-20138.69921875,-400000.0625,-14538.150390625,-400000.0625
148.9458773136139,-400000.0625,-21192.41015625,-15442.0400390625,-400000.0625,-20134.5,-400000.0625,-14520.740234375,-400000.0625
148.94588088989258,-400000.0625,-21127.080078125,-15391.2998046875,-400000.0625,-20104.69921875,-400000.0625,-14467.240234375,-400000.0625
148.94588470458984,-400000.0625,-21094.419921875,-15368.509765625,-400000.0625,-20094.400390625,-400000.0625,-14445.9697265625,-400000.0625
148.9458885192871,-400000.0625,-21113.400390625,-15391.490234375,-400000.0625,-20123.2890625,-400000.0625,-14471.2900390625,-400000.0625
148.94589185714722,-400000.0625,-21135.05078125,-15423.5400390625,-400000.0625,-20159.19921875,-400000.0625,-14506.76953125,-400000.0625
148.9458954334259,-400000.0625,-21116.349609375,-15408.4697265625,-400000.0625,-20150.94921875,-400000.0625,-14490.75,-400000.0625
148.9458990097046,-400000.0625,-21062.140625,-15362.740234375,-400000.0625,-20118.759765625,-400000.0625,-14445.6904296875,-400000.0625
148.94590282440186,-400000.0625,-21033.4296875,-15342.51953125,-400000.0625,-20109.939453125,-400000.0625,-14417.75,-400000.0625
