time,ch1,ch2,ch3,ch4,ch5,ch6,ch7,ch8
186.54690098762512,-400000.0625,-7634.58984375,-10801.3603515625,-400000.0625,-18567.759765625,-400000.0625,-12268.2099609375,-400000.0625
186.5535852909088,-400000.0625,-7519.580078125,-10731.5595703125,-400000.0625,-18542.859375,-400000.0625,-12204.080078125,-400000.0625
186.56022906303406,-400000.0625,-7386.2099609375,-10651.919921875,-400000.0625,-18545.25,-400000.0625,-12121.9599609375,-400000.0625
186.56595635414124,-400000.0625,-7337.85986328125,-10628.419921875,-400000.0625,-18523.9296875,-400000.0625,-12146.3798828125,-400000.0625
186.57091403007507,-400000.0625,-7245.02001953125,-10613.009765625,-400000.0625,-18572.48046875,-400000.0625,-12202.650390625,-400000.0625
186.57092452049255,-400000.0625,-7238.06005859375,-10457.900390625,-400000.0625,-18547.970703125,-400000.0625,-12119.009765625,-400000.0625
186.5709297657013,-400000.0625,-7216.83984375,-10382.75,-400000.0625,-18515.259765625,-400000.0625,-12102.1796875,-400000.0625
186.57093453407288,-400000.0625,-7221.83984375,-10351.3701171875,-400000.0625,-18479.30078125,-400000.0625,-12118.099609375,-400000.0625
186.57093930244446,-400000.0625,-7235.3798828125,-10270.41015625,-400000.0625,-18453.41015625,-400000.0625,-12066.7900390625,-400000.0625
186.57094407081604,-400000.0625,-7111.169921875,-10141.08984375,-400000.0625,-18449.400390625,-400000.0625,-12014.580078125,-400000.0625
186.57094812393188,-400000.0625,-7062.39013671875,-10175.08984375,-400000.0625,-18484.0703125,-400000.0625,-12035.1796875,-400000.0625
186.5709526538849,-400000.0625,-7027.009765625,-10170.650390625,-400000.0625,-18467.94921875,-400000.0625,-12014.8203125,-400000.0625
186.5709571838379,-400000.0625,-7029.43994140625,-10092.6904296875,-400000.0625,-18389.23046875,-400000.0625,-11951.9697265625,-400000.0625
186.57096099853516,-400000.0625,-6864.68994140625,-10125.1103515625,-400000.0625,-18409.16015625,-400000.0625,-11957.740234375,-400000.0625
186.57096457481384,-400000.0625,-6850.72021484375,-10091.5400390625,-400000.0625,-18380.5,-400000.0625,-11948.5400390625,-400000.0625
186.57875537872314,-400000.0625,-6812.85986328125,-10036.330078125,-400000.0625,-18372.919921875,-400000.0625,-11897.0400390625,-400000.0625
186.58480954170227,-400000.0625,-6669.85986328125,-9994.83984375,-400000.0625,-18409.109375,-400000.0625,-11872.48046875,-400000.0625
186.59045839309692,-400000.0625,-6586.080078125,-9918.0703125,-400000.0625,-18396.0,-400000.0625,-11833.5302734375,-400000.0625
186.600088596344,-400000.0625,-6552.89013671875,-9891.4599609375,-400000.0625,-18362.91015625,-400000.0625,-11838.8701171875,-400000.0625
186.6056478023529,-400000.0625,-6564.56982421875,-9889.5595703125,-400000.0625,-18354.890625,-400000.0625,-11874.150390625,-400000.0625
186.61449551582336,-400000.0625,-6563.18994140625,-9883.3603515625,-400000.0625,-18352.369140625,-400000.0625,-11881.400390625,-400000.0625
186.62042903900146,-400000.0625,-6533.14990234375,-9871.580078125,-400000.0625,-18346.650390625,-400000.0625,-11867.8603515625,-400000.0625
186.62936449050903,-400000.0625,-6479.60009765625,-9858.509765625,-400000.0625,-18334.25,-400000.0625,-11836.240234375,-400000.0625
186.64116764068604,-400000.0625,-6477.4501953125,-9899.5703125,-400000.0625,-18349.650390625,-400000.0625,-11849.6904296875,-400000.0625
186.6483438014984,-400000.0625,-6525.9501953125,-9984.7802734375,-400000.0625,-18360.94921875,-400000.0625,-11902.91015625,-400000.0625
186.65364480018616,-400000.0625,-6538.81982421875,-10045.6201171875,-400000.0625,-18374.970703125,-400000.0625,-11919.599609375,-400000.0625
186.65878224372864,-400000.0625,-6531.52978515625,-10076.48046875,-400000.0625,-18387.75,-400000.0625,-11902.1396484375,-400000.0625
186.66691517829895,-400000.0625,-6547.31005859375,-10119.9599609375,-400000.0625,-18388.990234375,-400000.0625,-11890.3203125,-400000.0625
186.67258477210999,-400000.0625,-6618.1201171875,-10194.349609375,-400000.0625,-18399.4296875,-400000.0625,-11927.83984375,-400000.0625
186.6802315711975,-400000.0625,-6745.9599609375,-10290.0,-400000.0625,-18410.880859375,-400000.0625,-11993.7900390625,-400000.0625
186.6863157749176,-400000.0625,-6834.60009765625,-10353.900390625,-400000.0625,-18432.94921875,-400000.0625,-12030.599609375,-400000.0625
186.69297337532043,-400000.0625,-6877.14013671875,-10375.5498046875,-400000.0625,-18451.169921875,-400000.0625,-12023.16015625,-400000.0625
186.70088458061218,-400000.0625,-6916.47998046875,-10382.4599609375,-400000.0625,-18491.83984375,-400000.0625,-12007.1396484375,-400000.0625
186.7065761089325,-400000.0625,-7004.60009765625,-10442.3095703125,-400000.0625,-18481.01953125,-400000.0625,-12045.8095703125,-400000.0625
186.7150115966797,-400000.0625,-7139.5400390625,-10537.2001953125,-400000.0625,-18489.98046875,-400000.0625,-12132.1201171875,-400000.0625
186.72192668914795,-400000.0625,-7240.580078125,-10585.2099609375,-400000.0625,-18527.130859375,-400000.0625,-12167.3095703125,-400000.0625
186.7282531261444,-400000.0625,-7322.31005859375,-10592.26953125,-400000.0625,-18518.0703125,-400000.0625,-12148.5703125,-400000.0625
186.73513078689575,-400000.0625,-7414.6298828125,-10603.48046875,-400000.0625,-18515.30078125,-400000.0625,-12136.7900390625,-400000.0625
186.74641871452332,-400000.0625,-7481.580078125,-10648.73046875,-400000.0625,-18544.529296875,-400000.0625,-12165.6396484375,-400000.0625
186.75156998634338,-400000.0625,-7537.509765625,-10711.6201171875,-400000.0625,-18583.30078125,-400000.0625,-12212.08984375,-400000.0625
186.75801062583923,-400000.0625,-7580.60986328125,-10750.7197265625,-400000.0625,-18618.5390625,-400000.0625,-12235.5,-400000.0625
186.76542210578918,-400000.0625,-7579.419921875,-10745.48046875,-400000.0625,-18618.869140625,-400000.0625,-12213.7998046875,-400000.0625
186.77137732505798,-400000.0625,-7556.06005859375,-10737.7998046875,-400000.0625,-18614.150390625,-400000.0625,-12179.1904296875,-400000.0625
186.77786231040955,-400000.0625,-7573.7001953125,-10764.8896484375,-400000.0625,-18653.19921875,-400000.0625,-12189.8701171875,-400000.0625
186.78519248962402,-400000.0625,-7620.43017578125,-10812.4697265625,-400000.0625,-18696.44921875,-400000.0625,-12238.599609375,-400000.0625
186.79093861579895,-400000.0625,-7649.66015625,-10843.5595703125,-400000.0625,-18719.720703125,-400000.0625,-12263.16015625,-400000.0625
186.79741144180298,-400000.0625,-7642.83984375,-10850.669921875,-400000.0625,-18703.80078125,-400000.0625,-12248.849609375,-400000.0625
186.8031530380249,-400000.0625,-7649.419921875,-10843.3701171875,-400000.0625,-18675.849609375,-400000.0625,-12240.26953125,-400000.0625
186.8089897632599,-400000.0625,-7662.10986328125,-10858.349609375,-400000.0625,-18687.390625,-400000.0625,-12246.08984375,-400000.0625
186.81625628471375,-400000.0625,-7672.06982421875,-10890.009765625,-400000.0625,-18716.619140625,-400000.0625,-12273.7900390625,-400000.0625
186.8224437236786,-400000.0625,-7782.7001953125,-10924.6298828125,-400000.0625,-18747.94921875,-400000.0625,-12276.26953125,-400000.0625
186.82872366905212,-400000.0625,-7744.41015625,-10951.759765625,-400000.0625,-18736.359375,-400000.0625,-12334.8701171875,-400000.0625
186.83601808547974,-400000.0625,-7684.66015625,-10893.5400390625,-400000.0625,-18714.5703125,-400000.0625,-12256.6201171875,-400000.0625
186.84825325012207,-400000.0625,-7703.58984375,-10900.01953125,-400000.0625,-18721.109375,-400000.0625,-12192.1103515625,-400000.0625
186.85405445098877,-400000.0625,-7743.02978515625,-11035.25,-400000.0625,-18751.529296875,-400000.0625,-12363.48046875,-400000.0625
186.8593680858612,-400000.0625,-7837.10986328125,-10972.1201171875,-400000.0625,-18704.419921875,-400000.0625,-12379.83984375,-400000.0625
186.86788320541382,-400000.0625,-7799.0498046875,-10867.0703125,-400000.0625,-18750.150390625,-400000.0625,-12313.75,-400000.0625
186.87305998802185,-400000.0625,-7730.2001953125,-10883.669921875,-400000.0625,-18703.26953125,-400000.0625,-12268.4501953125,-400000.0625
186.8792359828949,-400000.0625,-7716.56005859375,-10922.5302734375,-400000.0625,-18694.55078125,-400000.0625,-12292.5302734375,-400000.0625
186.8870804309845,-400000.0625,-7810.77978515625,-10983.51953125,-400000.0625,-18706.3203125,-400000.0625,-12310.8896484375,-400000.0625
186.89272785186768,-400000.0625,-7780.02978515625,-11013.599609375,-400000.0625,-18712.619140625,-400000.0625,-12354.419921875,-400000.0625
186.9000985622406,-400000.0625,-7809.1201171875,-10982.9404296875,-400000.0625,-18707.80078125,-400000.0625,-12340.98046875,-400000.0625
186.9071946144104,-400000.0625,-7782.75,-10894.9697265625,-400000.0625,-18671.130859375,-400000.0625,-12330.009765625,-400000.0625
186.9133050441742,-400000.0625,-7709.22021484375,-10907.509765625,-400000.0625,-18600.900390625,-400000.0625,-12353.0400390625,-400000.0625
186.91870021820068,-400000.0625,-7844.5,-10962.4404296875,-400000.0625,-18626.83984375,-400000.0625,-12330.6298828125,-400000.0625
186.9238657951355,-400000.0625,-7690.9599609375,-10839.509765625,-400000.0625,-18641.5703125,-400000.0625,-12415.1201171875,-400000.0625
186.93042707443237,-400000.0625,-7626.39013671875,-10743.48046875,-400000.0625,-18655.58984375,-400000.0625,-12428.48046875,-400000.0625
186.93904972076416,-400000.0625,-7625.77001953125,-10660.8896484375,-400000.0625,-18616.630859375,-400000.0625,-12272.98046875,-400000.0625
186.95112442970276,-400000.0625,-7577.27978515625,-10616.490234375,-400000.0625,-18613.25,-400000.0625,-12221.76953125,-400000.0625
186.95799279212952,-400000.0625,-7623.85986328125,-10616.6396484375,-400000.0625,-18623.01953125,-400000.0625,-12300.7802734375,-400000.0625
186.96490216255188,-400000.0625,-7617.08984375,-10570.5302734375,-400000.0625,-18599.609375,-400000.0625,-12296.5400390625,-400000.0625
186.9715917110443,-400000.0625,-7494.1201171875,-10446.0302734375,-400000.0625,-18590.9296875,-400000.0625,-12227.3896484375,-400000.0625
186.97710347175598,-400000.0625,-7390.31005859375,-10368.2998046875,-400000.0625,-18534.279296875,-400000.0625,-12182.48046875,-400000.0625
186.98225569725037,-400000.0625,-7279.72998046875,-10325.76953125,-400000.0625,-18533.5703125,-400000.0625,-12176.1796875,-400000.0625
186.9875807762146,-400000.0625,-7251.4501953125,-10321.330078125,-400000.0625,-18566.7109375,-400000.0625,-12199.830078125,-400000.0625
186.99266409873962,-400000.0625,-7212.2099609375,-10316.419921875,-400000.0625,-18578.48046875,-400000.0625,-12197.58984375,-400000.0625
187.000883102417,-400000.0625,-7134.14990234375,-10289.3798828125,-400000.0625,-18572.140625,-400000.0625,-12165.3095703125,-400000.0625
187.00712132453918,-400000.0625,-7063.72021484375,-10282.3701171875,-400000.0625,-18518.58984375,-400000.0625,-12140.66015625,-400000.0625
187.0126495361328,-400000.0625,-7069.77978515625,-10317.849609375,-400000.0625,-18477.8203125,-400000.0625,-12153.91015625,-400000.0625
187.01942253112793,-400000.0625,-7106.8798828125,-10394.91015625,-400000.0625,-18532.80078125,-400000.0625,-12190.2998046875,-400000.0625
187.02538776397705,-400000.0625,-7107.35009765625,-10458.330078125,-400000.0625,-18582.5390625,-400000.0625,-12215.8095703125,-400000.0625
187.0324149131775,-400000.0625,-7081.4599609375,-10480.4501953125,-400000.0625,-18588.400390625,-400000.0625,-12185.4296875,-400000.0625
187.0386438369751,-400000.0625,-7072.5400390625,-10507.6796875,-400000.0625,-18565.609375,-400000.0625,-12157.5400390625,-400000.0625
187.04441952705383,-400000.0625,-7116.89013671875,-10567.240234375,-400000.0625,-18554.169921875,-400000.0625,-12187.8203125,-400000.0625
187.05508065223694,-400000.0625,-7189.18017578125,-10642.6298828125,-400000.0625,-18586.259765625,-400000.0625,-12236.7900390625,-400000.0625
187.0612232685089,-400000.0625,-7243.81982421875,-10696.0302734375,-400000.0625,-18633.509765625,-400000.0625,-12276.3603515625,-400000.0625
187.06991839408875,-400000.0625,-7285.35986328125,-10709.5703125,-400000.0625,-18639.140625,-400000.0625,-12263.5400390625,-400000.0625
187.0767560005188,-400000.0625,-7318.06982421875,-10715.0595703125,-400000.0625,-18624.830078125,-400000.0625,-12244.0400390625,-400000.0625
187.0839786529541,-400000.0625,-7380.009765625,-10760.830078125,-400000.0625,-18653.25,-400000.0625,-12276.2197265625,-400000.0625
187.09072470664978,-400000.0625,-7483.0498046875,-10827.7802734375,-400000.0625,-18679.720703125,-400000.0625,-12334.16015625,-400000.0625
187.09774780273438,-400000.0625,-7586.33984375,-10869.7900390625,-400000.0625,-18690.779296875,-400000.0625,-12363.5302734375,-400000.0625
187.1047339439392,-400000.0625,-7689.9501953125,-10870.26953125,-400000.0625,-18686.490234375,-400000.0625,-12339.8798828125,-400000.0625
187.11045384407043,-400000.0625,-7758.18994140625,-10872.2197265625,-400000.0625,-18695.400390625,-400000.0625,-12324.8095703125,-400000.0625
187.11878538131714,-400000.0625,-7806.77978515625,-10901.3603515625,-400000.0625,-18716.2890625,-400000.0625,-12349.1796875,-400000.0625
187.12398624420166,-400000.0625,-7875.8701171875,-10954.51953125,-400000.0625,-18732.9296875,-400000.0625,-12398.7197265625,-400000.0625
187.1300938129425,-400000.0625,-7912.68017578125,-10989.6201171875,-400000.0625,-18750.9609375,-400000.0625,-12422.75,-400000.0625
187.13676810264587,-400000.0625,-7912.2099609375,-10985.4697265625,-400000.0625,-18751.05078125,-400000.0625,-12400.7197265625,-400000.0625
187.1422736644745,-400000.0625,-7897.0400390625,-10971.6396484375,-400000.0625,-18746.279296875,-400000.0625,-12373.5400390625,-400000.0625
187.14864349365234,-400000.0625,-7913.39990234375,-10990.7197265625,-400000.0625,-18762.0703125,-400000.0625,-12381.9404296875,-400000.0625
187.1592628955841,-400000.0625,-7959.7001953125,-11034.5400390625,-400000.0625,-18801.880859375,-400000.0625,-12425.8095703125,-400000.0625
187.1667788028717,-400000.0625,-7990.5,-11060.5302734375,-400000.0625,-18825.869140625,-400000.0625,-12442.6396484375,-400000.0625
187.17287945747375,-400000.0625,-7990.7900390625,-11046.0302734375,-400000.0625,-18827.150390625,-400000.0625,-12420.26953125,-400000.0625
187.18060636520386,-400000.0625,-7969.14013671875,-11024.1904296875,-400000.0625,-18809.650390625,-400000.0625,-12394.5302734375,-400000.0625
187.18781638145447,-400000.0625,-7991.97998046875,-11034.5400390625,-400000.0625,-18810.609375,-400000.0625,-12407.01953125,-400000.0625
187.19394516944885,-400000.0625,-8051.35009765625,-11082.4599609375,-400000.0625,-18843.80078125,-400000.0625,-12450.41015625,-400000.0625
187.20161962509155,-400000.0625,-8098.080078125,-11105.349609375,-400000.0625,-18849.330078125,-400000.0625,-12472.580078125,-400000.0625
187.20766139030457,-400000.0625,-8083.919921875,-11085.080078125,-400000.0625,-18817.279296875,-400000.0625,-12446.2099609375,-400000.0625
187.21424460411072,-400000.0625,-8065.83984375,-11058.4697265625,-400000.0625,-18792.009765625,-400000.0625,-12418.7998046875,-400000.0625
187.21994805335999,-400000.0625,-8076.47998046875,-11076.98046875,-400000.0625,-18806.83984375,-400000.0625,-12427.1904296875,-400000.0625
187.22652411460876,-400000.0625,-8121.77978515625,-11121.75,-400000.0625,-18839.5,-400000.0625,-12470.3896484375,-400000.0625
187.2327697277069,-400000.0625,-8151.14990234375,-11147.6904296875,-400000.0625,-18864.970703125,-400000.0625,-12494.7099609375,-400000.0625
187.23914337158203,-400000.0625,-8148.0498046875,-11135.8701171875,-400000.0625,-18846.130859375,-400000.0625,-12475.349609375,-400000.0625
187.24564170837402,-400000.0625,-8132.509765625,-11113.3603515625,-400000.0625,-18816.619140625,-400000.0625,-12450.3203125,-400000.0625
187.2510392665863,-400000.0625,-8142.0400390625,-11120.75,-400000.0625,-18823.8203125,-400000.0625,-12457.7099609375,-400000.0625
187.26187920570374,-400000.0625,-8187.490234375,-11165.099609375,-400000.0625,-18856.669921875,-400000.0625,-12501.099609375,-400000.0625
187.27026510238647,-400000.0625,-8213.900390625,-11187.509765625,-400000.0625,-18867.689453125,-400000.0625,-12524.650390625,-400000.0625
187.27662777900696,-400000.0625,-8190.43994140625,-11172.33984375,-400000.0625,-18874.119140625,-400000.0625,-12495.6103515625,-400000.0625
187.2831392288208,-400000.0625,-8160.58984375,-11145.2099609375,-400000.0625,-18867.44921875,-400000.0625,-12464.51953125,-400000.0625
187.28824281692505,-400000.0625,-8179.08984375,-11155.5595703125,-400000.0625,-18834.0703125,-400000.0625,-12482.0703125,-400000.0625
187.294371843338,-400000.0625,-8231.259765625,-11200.5703125,-400000.0625,-18855.5703125,-400000.0625,-12526.2802734375,-400000.0625
187.30126476287842,-400000.0625,-8249.0,-11223.650390625,-400000.0625,-18874.98046875,-400000.0625,-12546.349609375,-400000.0625
187.3075029850006,-400000.0625,-8213.330078125,-11194.3701171875,-400000.0625,-18870.259765625,-400000.0625,-12514.6904296875,-400000.0625
187.31303143501282,-400000.0625,-8192.8701171875,-11168.76953125,-400000.0625,-18831.060546875,-400000.0625,-12486.0302734375,-400000.0625
187.31859135627747,-400000.0625,-8218.76953125,-11184.8798828125,-400000.0625,-18835.58984375,-400000.0625,-12506.6298828125,-400000.0625
187.3237271308899,-400000.0625,-8262.25,-11228.419921875,-400000.0625,-18886.470703125,-400000.0625,-12551.259765625,-400000.0625
187.33071494102478,-400000.0625,-8270.3603515625,-11244.349609375,-400000.0625,-18926.150390625,-400000.0625,-12561.1796875,-400000.0625
187.337158203125,-400000.0625,-8260.2001953125,-11231.2802734375,-400000.0625,-18900.2109375,-400000.0625,-12551.3603515625,-400000.0625
187.34241271018982,-400000.0625,-8237.26953125,-11210.9697265625,-400000.0625,-18832.779296875,-400000.0625,-12529.7998046875,-400000.0625
187.34967637062073,-400000.0625,-8246.51953125,-11207.6298828125,-400000.0625,-18816.279296875,-400000.0625,-12534.9501953125,-400000.0625
187.35699772834778,-400000.0625,-8277.23046875,-11241.6298828125,-400000.0625,-18852.470703125,-400000.0625,-12578.8203125,-400000.0625
187.36948561668396,-400000.0625,-8293.5302734375,-11259.0302734375,-400000.0625,-18886.380859375,-400000.0625,-12604.1396484375,-400000.0625
187.37651562690735,-400000.0625,-8264.400390625,-11235.51953125,-400000.0625,-18877.69921875,-400000.0625,-12579.25,-400000.0625
187.38292241096497,-400000.0625,-8237.169921875,-11201.8095703125,-400000.0625,-18861.76953125,-400000.0625,-12551.3603515625,-400000.0625
187.38971710205078,-400000.0625,-8237.9404296875,-11201.4296875,-400000.0625,-18864.490234375,-400000.0625,-12561.990234375,-400000.0625
187.39643144607544,-400000.0625,-8276.419921875,-11245.58984375,-400000.0625,-18898.5390625,-400000.0625,-12606.1904296875,-400000.0625
187.40328764915466,-400000.0625,-8285.5703125,-11250.400390625,-400000.0625,-18908.5,-400000.0625,-12628.5595703125,-400000.0625
187.4102439880371,-400000.0625,-8262.1103515625,-11235.669921875,-400000.0625,-18895.490234375,-400000.0625,-12602.1396484375,-400000.0625
187.41693949699402,-400000.0625,-8248.0400390625,-11214.0703125,-400000.0625,-18855.05078125,-400000.0625,-12575.33984375,-400000.0625
187.4222013950348,-400000.0625,-8249.8095703125,-11230.1396484375,-400000.0625,-18868.5,-400000.0625,-12585.1201171875,-400000.0625
187.42833995819092,-400000.0625,-8303.259765625,-11277.9599609375,-400000.0625,-18892.33984375,-400000.0625,-12638.4296875,-400000.0625
187.43592286109924,-400000.0625,-8334.490234375,-11282.25,-400000.0625,-18907.98046875,-400000.0625,-12661.509765625,-400000.0625
187.441508769989,-400000.0625,-8309.5595703125,-11267.6201171875,-400000.0625,-18876.650390625,-400000.0625,-12633.3701171875,-400000.0625
187.44819808006287,-400000.0625,-8275.75,-11241.2900390625,-400000.0625,-18872.689453125,-400000.0625,-12604.099609375,-400000.0625
187.4553987979889,-400000.0625,-8282.1396484375,-11246.9697265625,-400000.0625,-18885.140625,-400000.0625,-12609.4404296875,-400000.0625
187.46153211593628,-400000.0625,-8328.009765625,-11288.2197265625,-400000.0625,-18895.8203125,-400000.0625,-12652.490234375,-400000.0625
187.476704120636,-400000.0625,-8343.98046875,-11299.7998046875,-400000.0625,-18907.740234375,-400000.0625,-12675.099609375,-400000.0625
187.4838101863861,-400000.0625,-8320.51953125,-11281.349609375,-400000.0625,-18875.9296875,-400000.0625,-12649.2998046875,-400000.0625
187.4897701740265,-400000.0625,-8305.0302734375,-11263.7099609375,-400000.0625,-18849.279296875,-400000.0625,-12626.1201171875,-400000.0625
187.49812293052673,-400000.0625,-8320.900390625,-11277.6298828125,-400000.0625,-18874.69921875,-400000.0625,-12639.2900390625,-400000.0625
187.5056643486023,-400000.0625,-8371.6396484375,-11327.4599609375,-400000.0625,-18919.66015625,-400000.0625,-12689.16015625,-400000.0625
187.51163458824158,-400000.0625,-8394.8095703125,-11348.33984375,-400000.0625,-18927.05078125,-400000.0625,-12713.0,-400000.0625
187.51856470108032,-400000.0625,-8370.259765625,-11325.7900390625,-400000.0625,-18892.48046875,-400000.0625,-12684.16015625,-400000.0625
187.5239293575287,-400000.0625,-8339.4501953125,-11295.83984375,-400000.0625,-18862.19921875,-400000.0625,-12651.01953125,-400000.0625
187.5292510986328,-400000.0625,-8343.98046875,-11301.51953125,-400000.0625,-18861.869140625,-400000.0625,-12659.8896484375,-400000.0625
187.53436756134033,-400000.0625,-8384.6103515625,-11341.4296875,-400000.0625,-18913.3203125,-400000.0625,-12701.419921875,-400000.0625
187.53953623771667,-400000.0625,-8415.3701171875,-11367.3701171875,-400000.0625,-18933.630859375,-400000.0625,-12726.98046875,-400000.0625
187.5505087375641,-400000.0625,-8395.099609375,-11350.25,-400000.0625,-18902.970703125,-400000.0625,-12712.8095703125,-400000.0625
187.5585160255432,-400000.0625,-8368.830078125,-11320.9697265625,-400000.0625,-18866.109375,-400000.0625,-12679.6298828125,-400000.0625
187.56696105003357,-400000.0625,-8381.8896484375,-11330.1796875,-400000.0625,-18870.55078125,-400000.0625,-12683.73046875,-400000.0625
187.5782516002655,-400000.0625,-8436.490234375,-11382.009765625,-400000.0625,-18916.849609375,-400000.0625,-12733.0302734375,-400000.0625
187.5847625732422,-400000.0625,-8461.6201171875,-11407.3798828125,-400000.0625,-18940.740234375,-400000.0625,-12762.8798828125,-400000.0625
187.5906834602356,-400000.0625,-8444.2099609375,-11384.2001953125,-400000.0625,-18912.169921875,-400000.0625,-12738.66015625,-400000.0625
187.59808039665222,-400000.0625,-8431.91015625,-11357.400390625,-400000.0625,-18875.4609375,-400000.0625,-12706.0400390625,-400000.0625
187.60418128967285,-400000.0625,-8443.9296875,-11376.4296875,-400000.0625,-18883.140625,-400000.0625,-12707.0,-400000.0625
187.6110601425171,-400000.0625,-8496.5703125,-11438.08984375,-400000.0625,-18929.099609375,-400000.0625,-12743.8095703125,-400000.0625
187.61798429489136,-400000.0625,-8532.0498046875,-11474.2802734375,-400000.0625,-18953.330078125,-400000.0625,-12759.400390625,-400000.0625
187.62373042106628,-400000.0625,-8540.25,-11481.0498046875,-400000.0625,-18939.400390625,-400000.0625,-12738.1796875,-400000.0625
187.62963843345642,-400000.0625,-8543.5400390625,-11485.3896484375,-400000.0625,-18906.880859375,-400000.0625,-12712.76953125,-400000.0625
187.63645362854004,-400000.0625,-8573.490234375,-11513.849609375,-400000.0625,-18908.220703125,-400000.0625,-12711.6201171875,-400000.0625
187.6423327922821,-400000.0625,-8646.2001953125,-11581.6103515625,-400000.0625,-18944.359375,-400000.0625,-12754.6796875,-400000.0625
187.65157866477966,-400000.0625,-8705.240234375,-11646.2197265625,-400000.0625,-18961.720703125,-400000.0625,-12790.0595703125,-400000.0625
187.65737962722778,-400000.0625,-8716.009765625,-11655.759765625,-400000.0625,-18938.73046875,-400000.0625,-12766.7001953125,-400000.0625
187.6657588481903,-400000.0625,-8699.75,-11640.0302734375,-400000.0625,-18924.94921875,-400000.0625,-12721.400390625,-400000.0625
187.6719946861267,-400000.0625,-8723.2099609375,-11668.8701171875,-400000.0625,-18933.16015625,-400000.0625,-12723.16015625,-400000.0625
187.68525505065918,-400000.0625,-8805.1796875,-11733.7197265625,-400000.0625,-18961.0,-400000.0625,-12785.48046875,-400000.0625
187.69076371192932,-400000.0625,-8845.900390625,-11768.3896484375,-400000.0625,-18987.849609375,-400000.0625,-12798.740234375,-400000.0625
187.69690418243408,-400000.0625,-8837.990234375,-11754.7001953125,-400000.0625,-18960.859375,-400000.0625,-12768.4599609375,-400000.0625
187.70248103141785,-400000.0625,-8819.150390625,-11734.580078125,-400000.0625,-18952.7109375,-400000.0625,-12740.330078125,-400000.0625
187.70966839790344,-400000.0625,-8839.8896484375,-11748.740234375,-400000.0625,-18938.310546875,-400000.0625,-12742.759765625,-400000.0625
187.71673727035522,-400000.0625,-8878.1796875,-11783.2197265625,-400000.0625,-18952.66015625,-400000.0625,-12780.4296875,-400000.0625
187.72271990776062,-400000.0625,-8902.5,-11807.8701171875,-400000.0625,-18987.1796875,-400000.0625,-12806.849609375,-400000.0625
187.72839426994324,-400000.0625,-8878.7998046875,-11790.51953125,-400000.0625,-18982.599609375,-400000.0625,-12789.919921875,-400000.0625
187.73413348197937,-400000.0625,-8839.1796875,-11751.990234375,-400000.0625,-18963.19921875,-400000.0625,-12757.7802734375,-400000.0625
187.74032640457153,-400000.0625,-8852.240234375,-11756.990234375,-400000.0625,-18944.119140625,-400000.0625,-12758.01953125,-400000.0625
187.74777388572693,-400000.0625,-8907.0302734375,-11802.5302734375,-400000.0625,-18966.390625,-400000.0625,-12803.080078125,-400000.0625
187.75490999221802,-400000.0625,-8932.5,-11821.6103515625,-400000.0625,-18980.69921875,-400000.0625,-12832.830078125,-400000.0625
187.76100134849548,-400000.0625,-8908.7001953125,-11795.8603515625,-400000.0625,-18961.150390625,-400000.0625,-12803.3203125,-400000.0625
187.7675712108612,-400000.0625,-8878.51953125,-11769.9599609375,-400000.0625,-18959.240234375,-400000.0625,-12769.080078125,-400000.0625
187.77305221557617,-400000.0625,-8890.009765625,-11780.599609375,-400000.0625,-18962.580078125,-400000.0625,-12777.51953125,-400000.0625
187.78474140167236,-400000.0625,-8927.0595703125,-11810.259765625,-400000.0625,-18989.279296875,-400000.0625,-12810.66015625,-400000.0625
187.79200315475464,-400000.0625,-8944.509765625,-11829.759765625,-400000.0625,-18989.51953125,-400000.0625,-12839.650390625,-400000.0625
187.79819917678833,-400000.0625,-8945.900390625,-11833.2900390625,-400000.0625,-18973.0703125,-400000.0625,-12837.2197265625,-400000.0625
187.80351948738098,-400000.0625,-8935.740234375,-11810.2099609375,-400000.0625,-18953.990234375,-400000.0625,-12810.419921875,-400000.0625
187.80993461608887,-400000.0625,-8936.1201171875,-11807.0595703125,-400000.0625,-18948.69921875,-400000.0625,-12816.5703125,-400000.0625
187.81782841682434,-400000.0625,-8964.1103515625,-11836.33984375,-400000.0625,-18964.720703125,-400000.0625,-12850.4296875,-400000.0625
187.8241105079651,-400000.0625,-8983.9501953125,-11855.080078125,-400000.0625,-18984.650390625,-400000.0625,-12867.740234375,-400000.0625
187.82968616485596,-400000.0625,-8974.4599609375,-11838.9599609375,-400000.0625,-18968.73046875,-400000.0625,-12858.9599609375,-400000.0625
187.83608984947205,-400000.0625,-8961.5400390625,-11828.3798828125,-400000.0625,-18959.380859375,-400000.0625,-12843.1796875,-400000.0625
187.841650724411,-400000.0625,-8972.599609375,-11838.9599609375,-400000.0625,-18967.869140625,-400000.0625,-12848.4296875,-400000.0625
187.85018396377563,-400000.0625,-8998.6298828125,-11861.9501953125,-400000.0625,-18981.509765625,-400000.0625,-12874.7001953125,-400000.0625
187.85751104354858,-400000.0625,-9018.9501953125,-11877.5400390625,-400000.0625,-19004.869140625,-400000.0625,-12890.6298828125,-400000.0625
187.86600756645203,-400000.0625,-9013.990234375,-11871.150390625,-400000.0625,-18970.400390625,-400000.0625,-12887.9599609375,-400000.0625
187.87196731567383,-400000.0625,-9008.4599609375,-11863.6103515625,-400000.0625,-18950.560546875,-400000.0625,-12879.7998046875,-400000.0625
187.88117265701294,-400000.0625,-9012.26953125,-11866.1904296875,-400000.0625,-18959.330078125,-400000.0625,-12888.9599609375,-400000.0625
187.89676213264465,-400000.0625,-9032.7802734375,-11882.3095703125,-400000.0625,-18966.390625,-400000.0625,-12901.400390625,-400000.0625
187.90454483032227,-400000.0625,-9035.8701171875,-11886.259765625,-400000.0625,-18971.73046875,-400000.0625,-12910.7001953125,-400000.0625
187.90986704826355,-400000.0625,-9030.2998046875,-11879.4501953125,-400000.0625,-18967.9609375,-400000.0625,-12905.650390625,-400000.0625
187.91752195358276,-400000.0625,-9031.580078125,-11876.8701171875,-400000.0625,-18974.640625,-400000.0625,-12898.259765625,-400000.0625
187.92377543449402,-400000.0625,-9038.58984375,-11883.58984375,-400000.0625,-18972.830078125,-400000.0625,-12910.4599609375,-400000.0625
187.93005466461182,-400000.0625,-9054.23046875,-11907.5302734375,-400000.0625,-18978.7890625,-400000.0625,-12940.1201171875,-400000.0625
187.93659090995789,-400000.0625,-9073.349609375,-11924.7001953125,-400000.0625,-18982.4609375,-400000.0625,-12940.1201171875,-400000.0625
187.9427351951599,-400000.0625,-9076.169921875,-11922.26953125,-400000.0625,-18963.76953125,-400000.0625,-12917.23046875,-400000.0625
187.94855213165283,-400000.0625,-9060.0,-11918.5,-400000.0625,-18961.150390625,-400000.0625,-12894.919921875,-400000.0625
187.95507884025574,-400000.0625,-9054.9501953125,-11936.0,-400000.0625,-18972.880859375,-400000.0625,-12889.4296875,-400000.0625
187.96063780784607,-400000.0625,-9058.099609375,-11964.849609375,-400000.0625,-18995.140625,-400000.0625,-12884.669921875,-400000.0625
187.9659309387207,-400000.0625,-9055.1904296875,-11981.5400390625,-400000.0625,-19007.2109375,-400000.0625,-12861.919921875,-400000.0625
187.9712269306183,-400000.0625,-9034.73046875,-11986.16015625,-400000.0625,-18995.669921875,-400000.0625,-12842.9404296875,-400000.0625
187.97650456428528,-400000.0625,-9014.080078125,-11994.9404296875,-400000.0625,-18983.560546875,-400000.0625,-12805.75,-400000.0625
187.9840807914734,-400000.0625,-9001.349609375,-12013.009765625,-400000.0625,-18997.150390625,-400000.0625,-12781.5703125,-400000.0625
187.99563765525818,-400000.0625,-9000.8701171875,-12036.3701171875,-400000.0625,-19019.4609375,-400000.0625,-12776.330078125,-400000.0625
188.00308346748352,-400000.0625,-8981.08984375,-12044.0498046875,-400000.0625,-19019.650390625,-400000.0625,-12750.91015625,-400000.0625
188.00846195220947,-400000.0625,-8957.3896484375,-12045.0,-400000.0625,-19013.44921875,-400000.0625,-12720.400390625,-400000.0625
188.01492357254028,-400000.0625,-8954.1396484375,-12054.6396484375,-400000.0625,-19023.7109375,-400000.0625,-12700.7001953125,-400000.0625
188.02255058288574,-400000.0625,-8963.25,-12076.1396484375,-400000.0625,-19051.83984375,-400000.0625,-12690.349609375,-400000.0625
188.02844381332397,-400000.0625,-8972.98046875,-12107.419921875,-400000.0625,-19075.869140625,-400000.0625,-12684.5400390625,-400000.0625
188.03537559509277,-400000.0625,-8977.3701171875,-12116.6201171875,-400000.0625,-19064.859375,-400000.0625,-12673.1396484375,-400000.0625
188.0406939983368,-400000.0625,-8973.3095703125,-12126.259765625,-400000.0625,-19068.91015625,-400000.0625,-12651.830078125,-400000.0625
188.04707193374634,-400000.0625,-8961.2998046875,-12131.7900390625,-400000.0625,-19067.240234375,-400000.0625,-12624.3603515625,-400000.0625
188.05466556549072,-400000.0625,-8966.9697265625,-12139.3701171875,-400000.0625,-19073.73046875,-400000.0625,-12609.669921875,-400000.0625
188.06022429466248,-400000.0625,-8990.099609375,-12163.01953125,-400000.0625,-19089.69921875,-400000.0625,-12618.2099609375,-400000.0625
188.06713914871216,-400000.0625,-8993.3896484375,-12172.1796875,-400000.0625,-19087.83984375,-400000.0625,-12611.7197265625,-400000.0625
188.07271194458008,-400000.0625,-8974.599609375,-12164.400390625,-400000.0625,-19082.41015625,-400000.0625,-12583.5,-400000.0625
188.08038139343262,-400000.0625,-8974.4599609375,-12166.0703125,-400000.0625,-19088.220703125,-400000.0625,-12572.099609375,-400000.0625
188.08779382705688,-400000.0625,-8983.1396484375,-12173.4599609375,-400000.0625,-19104.8203125,-400000.0625,-12575.76953125,-400000.0625
188.09937024116516,-400000.0625,-9008.4599609375,-12199.6904296875,-400000.0625,-19110.109375,-400000.0625,-12599.66015625,-400000.0625
188.10548949241638,-400000.0625,-9018.3701171875,-12209.66015625,-400000.0625,-19105.529296875,-400000.0625,-12600.7998046875,-400000.0625
188.11165475845337,-400000.0625,-9006.8798828125,-12197.2099609375,-400000.0625,-19093.279296875,-400000.0625,-12580.6298828125,-400000.0625
188.11956405639648,-400000.0625,-8998.6796875,-12193.490234375,-400000.0625,-19087.98046875,-400000.0625,-12576.6298828125,-400000.0625
188.12501096725464,-400000.0625,-9015.419921875,-12203.5498046875,-400000.0625,-19090.939453125,-400000.0625,-12588.9296875,-400000.0625
188.13190293312073,-400000.0625,-9031.8203125,-12216.8603515625,-400000.0625,-19100.720703125,-400000.0625,-12617.2998046875,-400000.0625
188.1379611492157,-400000.0625,-9035.2998046875,-12224.0595703125,-400000.0625,-19116.119140625,-400000.0625,-12634.7998046875,-400000.0625
188.14366936683655,-400000.0625,-9034.830078125,-12216.8603515625,-400000.0625,-19109.8203125,-400000.0625,-12630.5595703125,-400000.0625
188.1494472026825,-400000.0625,-9034.349609375,-12217.6201171875,-400000.0625,-19098.7109375,-400000.0625,-12624.98046875,-400000.0625
188.15471243858337,-400000.0625,-9031.009765625,-12210.990234375,-400000.0625,-19099.189453125,-400000.0625,-12629.9404296875,-400000.0625
188.15982270240784,-400000.0625,-9050.080078125,-12223.8203125,-400000.0625,-19124.609375,-400000.0625,-12645.3896484375,-400000.0625
188.1671929359436,-400000.0625,-9081.3203125,-12253.8603515625,-400000.0625,-19141.91015625,-400000.0625,-12681.0595703125,-400000.0625
188.17341542243958,-400000.0625,-9074.5,-12244.419921875,-400000.0625,-19123.4609375,-400000.0625,-12676.0,-400000.0625
188.17853927612305,-400000.0625,-9058.8095703125,-12227.8701171875,-400000.0625,-19104.669921875,-400000.0625,-12668.7998046875,-400000.0625
188.18414425849915,-400000.0625,-9059.2900390625,-12232.349609375,-400000.0625,-19096.189453125,-400000.0625,-12679.6298828125,-400000.0625
188.18942999839783,-400000.0625,-9082.8896484375,-12241.41015625,-400000.0625,-19108.6796875,-400000.0625,-12698.599609375,-400000.0625
188.2033565044403,-400000.0625,-9105.58984375,-12257.9599609375,-400000.0625,-19127.470703125,-400000.0625,-12716.6298828125,-400000.0625
188.20899891853333,-400000.0625,-9093.5703125,-12253.330078125,-400000.0625,-19121.509765625,-400000.0625,-12710.2900390625,-400000.0625
188.2168915271759,-400000.0625,-9088.849609375,-12248.2802734375,-400000.0625,-19110.009765625,-400000.0625,-12713.8603515625,-400000.0625
188.2231810092926,-400000.0625,-9098.48046875,-12260.009765625,-400000.0625,-19112.5390625,-400000.0625,-12727.169921875,-400000.0625
188.22950053215027,-400000.0625,-9122.330078125,-12277.83984375,-400000.0625,-19129.419921875,-400000.0625,-12747.8603515625,-400000.0625
188.2355923652649,-400000.0625,-9125.849609375,-12277.0302734375,-400000.0625,-19135.529296875,-400000.0625,-12759.6904296875,-400000.0625
188.2407398223877,-400000.0625,-9109.5498046875,-12263.58984375,-400000.0625,-19121.939453125,-400000.0625,-12756.16015625,-400000.0625
188.2465193271637,-400000.0625,-9111.01953125,-12259.150390625,-400000.0625,-19121.359375,-400000.0625,-12754.2998046875,-400000.0625
188.2547595500946,-400000.0625,-9120.509765625,-12265.25,-400000.0625,-19122.41015625,-400000.0625,-12759.9697265625,-400000.0625
188.26032948493958,-400000.0625,-9141.1103515625,-12282.08984375,-400000.0625,-19130.51953125,-400000.0625,-12780.3798828125,-400000.0625
188.26800990104675,-400000.0625,-9162.0498046875,-12295.919921875,-400000.0625,-19155.55078125,-400000.0625,-12799.6904296875,-400000.0625
188.27324986457825,-400000.0625,-9163.1396484375,-12292.580078125,-400000.0625,-19136.48046875,-400000.0625,-12804.6103515625,-400000.0625
188.27942776679993,-400000.0625,-9163.669921875,-12287.330078125,-400000.0625,-19129.470703125,-400000.0625,-12803.5595703125,-400000.0625
188.2875635623932,-400000.0625,-9174.8701171875,-12298.7802734375,-400000.0625,-19126.990234375,-400000.0625,-12826.73046875,-400000.0625
188.29282999038696,-400000.0625,-9193.990234375,-12316.849609375,-400000.0625,-19140.099609375,-400000.0625,-12848.0400390625,-400000.0625
188.30505561828613,-400000.0625,-9185.650390625,-12311.75,-400000.0625,-19129.849609375,-400000.0625,-12844.990234375,-400000.0625
188.31048703193665,-400000.0625,-9180.5498046875,-12303.9296875,-400000.0625,-19123.939453125,-400000.0625,-12837.1298828125,-400000.0625
188.31743025779724,-400000.0625,-9183.0302734375,-12300.4501953125,-400000.0625,-19135.380859375,-400000.0625,-12840.83984375,-400000.0625
188.32389974594116,-400000.0625,-9196.3798828125,-12311.0302734375,-400000.0625,-19132.5703125,-400000.0625,-12857.009765625,-400000.0625
188.33000373840332,-400000.0625,-9226.509765625,-12340.169921875,-400000.0625,-19148.16015625,-400000.0625,-12888.240234375,-400000.0625
188.33797311782837,-400000.0625,-9240.580078125,-12351.08984375,-400000.0625,-19155.890625,-400000.0625,-12903.8798828125,-400000.0625
188.34393310546875,-400000.0625,-9221.75,-12332.9697265625,-400000.0625,-19140.33984375,-400000.0625,-12899.919921875,-400000.0625
188.34971737861633,-400000.0625,-9215.58984375,-12327.3896484375,-400000.0625,-19139.19921875,-400000.0625,-12884.7099609375,-400000.0625
188.35615873336792,-400000.0625,-9228.1796875,-12338.6904296875,-400000.0625,-19146.25,-400000.0625,-12894.9697265625,-400000.0625
188.36268281936646,-400000.0625,-9246.2099609375,-12351.419921875,-400000.0625,-19149.109375,-400000.0625,-12920.0,-400000.0625
188.36906814575195,-400000.0625,-9248.8798828125,-12349.6103515625,-400000.0625,-19147.490234375,-400000.0625,-12929.9697265625,-400000.0625
188.3750822544098,-400000.0625,-9251.3603515625,-12351.1298828125,-400000.0625,-19144.390625,-400000.0625,-12924.099609375,-400000.0625
188.3815779685974,-400000.0625,-9255.7001953125,-12354.51953125,-400000.0625,-19145.349609375,-400000.0625,-12928.490234375,-400000.0625
188.38709616661072,-400000.0625,-9262.900390625,-12359.8603515625,-400000.0625,-19145.58984375,-400000.0625,-12944.41015625,-400000.0625
188.39624953269958,-400000.0625,-9292.2197265625,-12377.4501953125,-400000.0625,-19164.23046875,-400000.0625,-12967.490234375,-400000.0625
188.41127014160156,-400000.0625,-9315.2998046875,-12396.099609375,-400000.0625,-19190.029296875,-400000.0625,-12984.66015625,-400000.0625
188.41725945472717,-400000.0625,-9311.6298828125,-12399.0595703125,-400000.0625,-19180.5390625,-400000.0625,-12982.7998046875,-400000.0625
188.42251539230347,-400000.0625,-9300.0400390625,-12387.3701171875,-400000.0625,-19161.849609375,-400000.0625,-12975.5,-400000.0625
188.42786312103271,-400000.0625,-9312.009765625,-12394.8095703125,-400000.0625,-19168.330078125,-400000.0625,-12989.08984375,-400000.0625
188.43593072891235,-400000.0625,-9342.1904296875,-12424.0400390625,-400000.0625,-19191.7890625,-400000.0625,-13017.23046875,-400000.0625
188.44403839111328,-400000.0625,-9355.3603515625,-12431.8095703125,-400000.0625,-19199.849609375,-400000.0625,-13033.490234375,-400000.0625
188.4516842365265,-400000.0625,-9342.0498046875,-12417.7900390625,-400000.0625,-19195.650390625,-400000.0625,-13021.5703125,-400000.0625
188.45817589759827,-400000.0625,-9352.349609375,-12426.330078125,-400000.0625,-19190.9296875,-400000.0625,-13024.4296875,-400000.0625
188.46513986587524,-400000.0625,-9359.6904296875,-12432.9599609375,-400000.0625,-19195.130859375,-400000.0625,-13040.5,-400000.0625
188.471364736557,-400000.0625,-9395.599609375,-12466.9599609375,-400000.0625,-19232.080078125,-400000.0625,-13076.01953125,-400000.0625
188.47663402557373,-400000.0625,-9439.66015625,-12506.0595703125,-400000.0625,-19262.26953125,-400000.0625,-13125.0400390625,-400000.0625
188.4833950996399,-400000.0625,-9434.75,-12497.759765625,-400000.0625,-19247.060546875,-400000.0625,-13111.2099609375,-400000.0625
188.48903107643127,-400000.0625,-9404.51953125,-12469.7197265625,-400000.0625,-19218.970703125,-400000.0625,-13075.7802734375,-400000.0625
188.49442672729492,-400000.0625,-9401.0400390625,-12462.8603515625,-400000.0625,-19216.970703125,-400000.0625,-13078.8798828125,-400000.0625
188.50069856643677,-400000.0625,-9433.080078125,-12485.8896484375,-400000.0625,-19238.279296875,-400000.0625,-13111.6396484375,-400000.0625
188.51342391967773,-400000.0625,-9456.01953125,-12508.349609375,-400000.0625,-19263.169921875,-400000.0625,-13136.33984375,-400000.0625
188.51934814453125,-400000.0625,-9434.0302734375,-12487.3701171875,-400000.0625,-19242.33984375,-400000.0625,-13116.2197265625,-400000.0625
188.52477169036865,-400000.0625,-9391.6396484375,-12447.2197265625,-400000.0625,-19197.1796875,-400000.0625,-13080.599609375,-400000.0625
188.53251767158508,-400000.0625,-9387.1103515625,-12443.3095703125,-400000.0625,-19195.1796875,-400000.0625,-13076.6396484375,-400000.0625
188.5396490097046,-400000.0625,-9432.7900390625,-12481.2099609375,-400000.0625,-19236.900390625,-400000.0625,-13112.740234375,-400000.0625
188.54692816734314,-400000.0625,-9466.740234375,-12506.580078125,-400000.0625,-19258.9296875,-400000.0625,-13153.26953125,-400000.0625
188.55272483825684,-400000.0625,-9440.23046875,-12488.650390625,-400000.0625,-19222.44921875,-400000.0625,-13130.1396484375,-400000.0625
188.558176279068,-400000.0625,-9409.0498046875,-12454.3701171875,-400000.0625,-19186.5,-400000.0625,-13094.6201171875,-400000.0625
188.56460332870483,-400000.0625,-9410.5703125,-12452.2197265625,-400000.0625,-19185.349609375,-400000.0625,-13098.1904296875,-400000.0625
188.57187914848328,-400000.0625,-9456.73046875,-12492.3701171875,-400000.0625,-19221.779296875,-400000.0625,-13141.4404296875,-400000.0625
188.57772254943848,-400000.0625,-9489.009765625,-12522.8896484375,-400000.0625,-19254.0703125,-400000.0625,-13168.5703125,-400000.0625
188.58452320098877,-400000.0625,-9454.2998046875,-12492.1298828125,-400000.0625,-19229.509765625,-400000.0625,-13146.4501953125,-400000.0625
188.59024715423584,-400000.0625,-9401.3701171875,-12448.650390625,-400000.0625,-19179.16015625,-400000.0625,-13097.5703125,-400000.0625
188.59704995155334,-400000.0625,-9401.66015625,-12445.400390625,-400000.0625,-19163.08984375,-400000.0625,-13095.7099609375,-400000.0625
188.60497641563416,-400000.0625,-9449.7197265625,-12493.4697265625,-400000.0625,-19203.240234375,-400000.0625,-13132.240234375,-400000.0625
188.61803317070007,-400000.0625,-9485.2900390625,-12526.9404296875,-400000.0625,-19235.1796875,-400000.0625,-13164.330078125,-400000.0625
188.6238842010498,-400000.0625,-9470.509765625,-12512.73046875,-400000.0625,-19220.44921875,-400000.0625,-13140.919921875,-400000.0625
188.63049268722534,-400000.0625,-9437.1796875,-12479.259765625,-400000.0625,-19196.130859375,-400000.0625,-13101.2900390625,-400000.0625
188.6370792388916,-400000.0625,-9434.7001953125,-12483.1201171875,-400000.0625,-19203.619140625,-400000.0625,-13107.919921875,-400000.0625
188.64630603790283,-400000.0625,-9486.6796875,-12531.9501953125,-400000.0625,-19248.30078125,-400000.0625,-13157.080078125,-400000.0625
188.65369367599487,-400000.0625,-9512.9501953125,-12557.8896484375,-400000.0625,-19267.509765625,-400000.0625,-13183.9296875,-400000.0625
188.659526348114,-400000.0625,-9494.0703125,-12540.5302734375,-400000.0625,-19244.91015625,-400000.0625,-13160.900390625,-400000.0625
188.6666886806488,-400000.0625,-9450.5302734375,-12502.6201171875,-400000.0625,-19205.94921875,-400000.0625,-13122.419921875,-400000.0625
188.67202830314636,-400000.0625,-9442.4296875,-12498.8603515625,-400000.0625,-19196.4609375,-400000.0625,-13115.98046875,-400000.0625
188.67879033088684,-400000.0625,-9485.8203125,-12534.099609375,-400000.0625,-19238.7109375,-400000.0625,-13159.3203125,-400000.0625
188.68678331375122,-400000.0625,-9512.5703125,-12556.0302734375,-400000.0625,-19257.640625,-400000.0625,-13189.0302734375,-400000.0625
188.69372272491455,-400000.0625,-9502.2197265625,-12542.76953125,-400000.0625,-19234.900390625,-400000.0625,-13169.240234375,-400000.0625
188.7010145187378,-400000.0625,-9457.400390625,-12505.490234375,-400000.0625,-19200.1796875,-400000.0625,-13134.2900390625,-400000.0625
188.70655369758606,-400000.0625,-9458.7802734375,-12504.9599609375,-400000.0625,-19186.400390625,-400000.0625,-13136.4404296875,-400000.0625
188.71894645690918,-400000.0625,-9510.08984375,-12546.349609375,-400000.0625,-19213.580078125,-400000.0625,-13177.9697265625,-400000.0625
188.72439050674438,-400000.0625,-9535.7001953125,-12573.2001953125,-400000.0625,-19241.140625,-400000.0625,-13207.91015625,-400000.0625
188.73229551315308,-400000.0625,-9507.849609375,-12551.3095703125,-400000.0625,-19223.259765625,-400000.0625,-13184.9296875,-400000.0625
188.74007368087769,-400000.0625,-9464.4599609375,-12510.8701171875,-400000.0625,-19187.5,-400000.0625,-13141.2001953125,-400000.0625
188.74674224853516,-400000.0625,-9460.3095703125,-12508.4404296875,-400000.0625,-19187.259765625,-400000.0625,-13134.8603515625,-400000.0625
188.75228881835938,-400000.0625,-9509.6103515625,-12550.0703125,-400000.0625,-19218.30078125,-400000.0625,-13189.3701171875,-400000.0625
188.75804114341736,-400000.0625,-9547.5703125,-12586.5,-400000.0625,-19243.669921875,-400000.0625,-13223.3203125,-400000.0625
188.76578330993652,-400000.0625,-9525.009765625,-12564.7099609375,-400000.0625,-19219.01953125,-400000.0625,-13199.8603515625,-400000.0625
188.77210140228271,-400000.0625,-9479.759765625,-12522.599609375,-400000.0625,-19183.73046875,-400000.0625,-13154.83984375,-400000.0625
188.77924633026123,-400000.0625,-9484.8203125,-12528.23046875,-400000.0625,-19195.419921875,-400000.0625,-13158.4697265625,-400000.0625
188.7856047153473,-400000.0625,-9537.1298828125,-12571.3798828125,-400000.0625,-19230.220703125,-400000.0625,-13205.669921875,-400000.0625
188.79150700569153,-400000.0625,-9561.73046875,-12600.759765625,-400000.0625,-19248.76953125,-400000.0625,-13237.8603515625,-400000.0625
188.79930114746094,-400000.0625,-9536.83984375,-12576.4404296875,-400000.0625,-19225.9296875,-400000.0625,-13211.8203125,-400000.0625
188.80524969100952,-400000.0625,-9494.349609375,-12537.3896484375,-400000.0625,-19179.919921875,-400000.0625,-13172.009765625,-400000.0625
188.81184434890747,-400000.0625,-9499.599609375,-12538.8603515625,-400000.0625,-19183.970703125,-400000.0625,-13168.3798828125,-400000.0625
188.82577800750732,-400000.0625,-9551.2900390625,-12584.2099609375,-400000.0625,-19230.650390625,-400000.0625,-13217.7802734375,-400000.0625
188.83365559577942,-400000.0625,-9579.759765625,-12610.76953125,-400000.0625,-19251.5390625,-400000.0625,-13245.4404296875,-400000.0625
188.83985781669617,-400000.0625,-9563.8798828125,-12596.419921875,-400000.0625,-19229.509765625,-400000.0625,-13228.1298828125,-400000.0625
188.8476665019989,-400000.0625,-9527.6396484375,-12561.7998046875,-400000.0625,-19182.060546875,-400000.0625,-13188.3603515625,-400000.0625
188.85447788238525,-400000.0625,-9526.830078125,-12561.9404296875,-400000.0625,-19177.30078125,-400000.0625,-13190.8896484375,-400000.0625
188.85975885391235,-400000.0625,-9578.08984375,-12606.4296875,-400000.0625,-19223.01953125,-400000.0625,-13238.5302734375,-400000.0625
188.8688464164734,-400000.0625,-9619.0498046875,-12640.4296875,-400000.0625,-19259.169921875,-400000.0625,-13281.25,-400000.0625
188.87566661834717,-400000.0625,-9594.5400390625,-12620.16015625,-400000.0625,-19230.83984375,-400000.0625,-13254.2099609375,-400000.0625
188.88407063484192,-400000.0625,-9544.419921875,-12578.76953125,-400000.0625,-19191.26953125,-400000.0625,-13204.0498046875,-400000.0625
188.89014315605164,-400000.0625,-9542.7998046875,-12572.76953125,-400000.0625,-19194.69921875,-400000.0625,-13200.330078125,-400000.0625
188.8968551158905,-400000.0625,-9602.8798828125,-12627.7001953125,-400000.0625,-19247.869140625,-400000.0625,-13253.599609375,-400000.0625
188.90348887443542,-400000.0625,-9642.83984375,-12666.1796875,-400000.0625,-19273.0390625,-400000.0625,-13291.0302734375,-400000.0625
188.90891909599304,-400000.0625,-9617.9501953125,-12642.9599609375,-400000.0625,-19242.619140625,-400000.0625,-13270.900390625,-400000.0625
188.91729545593262,-400000.0625,-9569.7900390625,-12601.66015625,-400000.0625,-19194.220703125,-400000.0625,-13220.8798828125,-400000.0625
188.93017077445984,-400000.0625,-9555.099609375,-12586.7900390625,-400000.0625,-19188.310546875,-400000.0625,-13212.8701171875,-400000.0625
188.93660807609558,-400000.0625,-9608.7900390625,-12632.990234375,-400000.0625,-19232.369140625,-400000.0625,-13258.3203125,-400000.0625
188.94303059577942,-400000.0625,-9660.580078125,-12677.0,-400000.0625,-19265.560546875,-400000.0625,-13307.2900390625,-400000.0625
188.95095562934875,-400000.0625,-9635.9697265625,-12657.9296875,-400000.0625,-19245.25,-400000.0625,-13285.6904296875,-400000.0625
188.9567711353302,-400000.0625,-9594.6298828125,-12620.58984375,-400000.0625,-19204.2890625,-400000.0625,-13241.7197265625,-400000.0625
188.9627628326416,-400000.0625,-9587.0,-12615.7802734375,-400000.0625,-19180.400390625,-400000.0625,-13239.1904296875,-400000.0625
188.9683518409729,-400000.0625,-9646.75,-12663.650390625,-400000.0625,-19223.7890625,-400000.0625,-13289.169921875,-400000.0625
188.973468542099,-400000.0625,-9677.3603515625,-12689.7802734375,-400000.0625,-19252.400390625,-400000.0625,-13320.0703125,-400000.0625
188.98029017448425,-400000.0625,-9655.8095703125,-12673.08984375,-400000.0625,-19237.0,-400000.0625,-13297.8896484375,-400000.0625
188.98718094825745,-400000.0625,-9622.4296875,-12646.5302734375,-400000.0625,-19206.619140625,-400000.0625,-13256.6904296875,-400000.0625
188.99295496940613,-400000.0625,-9623.6201171875,-12645.580078125,-400000.0625,-19200.759765625,-400000.0625,-13256.5,-400000.0625
189.0013506412506,-400000.0625,-9666.490234375,-12678.6201171875,-400000.0625,-19234.80078125,-400000.0625,-13305.1396484375,-400000.0625
189.0074164867401,-400000.0625,-9695.91015625,-12706.5703125,-400000.0625,-19263.650390625,-400000.0625,-13330.75,-400000.0625
189.01489448547363,-400000.0625,-9677.080078125,-12687.490234375,-400000.0625,-19253.259765625,-400000.0625,-13296.4599609375,-400000.0625
189.02104258537292,-400000.0625,-9650.2802734375,-12659.98046875,-400000.0625,-19226.220703125,-400000.0625,-13264.3203125,-400000.0625
189.03432297706604,-400000.0625,-9650.5703125,-12658.0703125,-400000.0625,-19204.2890625,-400000.0625,-13273.0498046875,-400000.0625
189.0407874584198,-400000.0625,-9693.0,-12697.169921875,-400000.0625,-19241.810546875,-400000.0625,-13312.6298828125,-400000.0625
189.04748058319092,-400000.0625,-9725.1396484375,-12732.2197265625,-400000.0625,-19258.98046875,-400000.0625,-13326.740234375,-400000.0625
189.05488109588623,-400000.0625,-9718.849609375,-12731.509765625,-400000.0625,-19239.48046875,-400000.0625,-13317.2998046875,-400000.0625
189.06039381027222,-400000.0625,-9693.33984375,-12708.4296875,-400000.0625,-19208.150390625,-400000.0625,-13283.58984375,-400000.0625
189.06782150268555,-400000.0625,-9696.5302734375,-12712.8095703125,-400000.0625,-19214.439453125,-400000.0625,-13279.580078125,-400000.0625
189.0737645626068,-400000.0625,-9742.6904296875,-12752.8203125,-400000.0625,-19252.060546875,-400000.0625,-13322.9296875,-400000.0625
189.08076214790344,-400000.0625,-9773.919921875,-12781.9599609375,-400000.0625,-19273.380859375,-400000.0625,-13357.2099609375,-400000.0625
189.08789610862732,-400000.0625,-9752.509765625,-12765.3603515625,-400000.0625,-19255.44921875,-400000.0625,-13333.7001953125,-400000.0625
189.0932641029358,-400000.0625,-9715.26953125,-12733.75,-400000.0625,-19223.640625,-400000.0625,-13296.0302734375,-400000.0625
189.10155248641968,-400000.0625,-9713.509765625,-12735.1298828125,-400000.0625,-19223.01953125,-400000.0625,-13297.650390625,-400000.0625
189.1082203388214,-400000.0625,-9756.3798828125,-12773.3203125,-400000.0625,-19269.23046875,-400000.0625,-13338.419921875,-400000.0625
189.11524367332458,-400000.0625,-9785.3701171875,-12801.4599609375,-400000.0625,-19295.0703125,-400000.0625,-13366.7001953125,-400000.0625
189.1223337650299,-400000.0625,-9768.919921875,-12787.009765625,-400000.0625,-19265.650390625,-400000.0625,-13349.6298828125,-400000.0625
189.13408160209656,-400000.0625,-9750.419921875,-12762.3603515625,-400000.0625,-19232.849609375,-400000.0625,-13321.349609375,-400000.0625
189.13971304893494,-400000.0625,-9755.7998046875,-12765.169921875,-400000.0625,-19231.69921875,-400000.0625,-13321.2099609375,-400000.0625
189.1454119682312,-400000.0625,-9793.240234375,-12798.4501953125,-400000.0625,-19264.509765625,-400000.0625,-13365.3203125,-400000.0625
189.1525423526764,-400000.0625,-9817.41015625,-12823.4404296875,-400000.0625,-19288.880859375,-400000.0625,-13388.490234375,-400000.0625
189.15807127952576,-400000.0625,-9798.76953125,-12810.5703125,-400000.0625,-19267.369140625,-400000.0625,-13367.75,-400000.0625
189.1647710800171,-400000.0625,-9759.0,-12772.2802734375,-400000.0625,-19227.83984375,-400000.0625,-13329.7900390625,-400000.0625
189.1725242137909,-400000.0625,-9762.91015625,-12772.75,-400000.0625,-19232.279296875,-400000.0625,-13330.5595703125,-400000.0625
189.18000626564026,-400000.0625,-9816.3095703125,-12823.2998046875,-400000.0625,-19280.25,-400000.0625,-13384.150390625,-400000.0625
189.18678379058838,-400000.0625,-9844.259765625,-12848.6201171875,-400000.0625,-19299.369140625,-400000.0625,-13409.1904296875,-400000.0625
189.19225335121155,-400000.0625,-9821.1298828125,-12824.2998046875,-400000.0625,-19281.33984375,-400000.0625,-13379.6201171875,-400000.0625
189.19870233535767,-400000.0625,-9791.419921875,-12796.5,-400000.0625,-19251.5390625,-400000.0625,-13350.4404296875,-400000.0625
189.2042465209961,-400000.0625,-9791.759765625,-12799.98046875,-400000.0625,-19242.619140625,-400000.0625,-13350.2998046875,-400000.0625
189.21004724502563,-400000.0625,-9840.6796875,-12841.8896484375,-400000.0625,-19279.76953125,-400000.0625,-13401.509765625,-400000.0625
189.219220161438,-400000.0625,-9872.76953125,-12870.2197265625,-400000.0625,-19317.33984375,-400000.0625,-13430.169921875,-400000.0625
189.2251763343811,-400000.0625,-9851.3095703125,-12851.669921875,-400000.0625,-19285.58984375,-400000.0625,-13408.8095703125,-400000.0625
189.23742842674255,-400000.0625,-9818.169921875,-12826.1103515625,-400000.0625,-19248.76953125,-400000.0625,-13370.08984375,-400000.0625
189.2437138557434,-400000.0625,-9822.1796875,-12826.9697265625,-400000.0625,-19252.349609375,-400000.0625,-13363.98046875,-400000.0625
189.25144028663635,-400000.0625,-9868.099609375,-12863.1103515625,-400000.0625,-19286.349609375,-400000.0625,-13406.4697265625,-400000.0625
189.25728511810303,-400000.0625,-9897.66015625,-12893.490234375,-400000.0625,-19311.05078125,-400000.0625,-13440.3203125,-400000.0625
189.26488542556763,-400000.0625,-9874.919921875,-12873.509765625,-400000.0625,-19293.01953125,-400000.0625,-13416.8603515625,-400000.0625
189.2725055217743,-400000.0625,-9833.2900390625,-12837.509765625,-400000.0625,-19263.4609375,-400000.0625,-13378.759765625,-400000.0625
189.2781538963318,-400000.0625,-9836.2001953125,-12837.169921875,-400000.0625,-19260.41015625,-400000.0625,-13378.0,-400000.0625
189.28356766700745,-400000.0625,-9881.01953125,-12874.599609375,-400000.0625,-19281.76953125,-400000.0625,-13426.349609375,-400000.0625
189.28971552848816,-400000.0625,-9910.2998046875,-12909.26953125,-400000.0625,-19312.76953125,-400000.0625,-13459.01953125,-400000.0625
189.29655480384827,-400000.0625,-9903.099609375,-12898.01953125,-400000.0625,-19298.029296875,-400000.0625,-13442.4697265625,-400000.0625
189.3037393093109,-400000.0625,-9862.849609375,-12863.0703125,-400000.0625,-19272.08984375,-400000.0625,-13403.3701171875,-400000.0625
189.30923581123352,-400000.0625,-9866.2900390625,-12868.1201171875,-400000.0625,-19265.69921875,-400000.0625,-13397.169921875,-400000.0625
189.3173484802246,-400000.0625,-9911.009765625,-12905.3095703125,-400000.0625,-19290.400390625,-400000.0625,-13443.330078125,-400000.0625
189.3242268562317,-400000.0625,-9935.0498046875,-12929.2998046875,-400000.0625,-19322.349609375,-400000.0625,-13473.7998046875,-400000.0625
189.33224892616272,-400000.0625,-9932.1904296875,-12928.2998046875,-400000.0625,-19313.859375,-400000.0625,-13463.7802734375,-400000.0625
189.34880185127258,-400000.0625,-9899.669921875,-12900.16015625,-400000.0625,-19279.630859375,-400000.0625,-13430.6396484375,-400000.0625
189.3550660610199,-400000.0625,-9897.66015625,-12896.58984375,-400000.0625,-19275.140625,-400000.0625,-13422.6796875,-400000.0625
189.3643844127655,-400000.0625,-9942.0595703125,-12936.2099609375,-400000.0625,-19310.5703125,-400000.0625,-13466.5498046875,-400000.0625
189.3741364479065,-400000.0625,-9975.48046875,-12965.58984375,-400000.0625,-19335.220703125,-400000.0625,-13498.98046875,-400000.0625
189.38091921806335,-400000.0625,-9956.8896484375,-12949.66015625,-400000.0625,-19323.779296875,-400000.0625,-13476.1796875,-400000.0625
189.38630628585815,-400000.0625,-9919.3095703125,-12914.51953125,-400000.0625,-19277.189453125,-400000.0625,-13433.8896484375,-400000.0625
189.39165830612183,-400000.0625,-9923.83984375,-12919.330078125,-400000.0625,-19271.94921875,-400000.0625,-13438.66015625,-400000.0625
189.3988015651703,-400000.0625,-9970.1396484375,-12961.76953125,-400000.0625,-19317.33984375,-400000.0625,-13489.0595703125,-400000.0625
189.4067623615265,-400000.0625,-10006.669921875,-12994.240234375,-400000.0625,-19346.099609375,-400000.0625,-13526.6796875,-400000.0625
189.41579723358154,-400000.0625,-9987.1201171875,-12974.6904296875,-400000.0625,-19325.2109375,-400000.0625,-13504.509765625,-400000.0625
189.42519330978394,-400000.0625,-9947.6298828125,-12938.4501953125,-400000.0625,-19291.740234375,-400000.0625,-13458.6796875,-400000.0625
189.43091130256653,-400000.0625,-9942.490234375,-12933.6796875,-400000.0625,-19295.220703125,-400000.0625,-13454.490234375,-400000.0625
189.4371931552887,-400000.0625,-9998.6103515625,-12983.23046875,-400000.0625,-19336.3203125,-400000.0625,-13507.2197265625,-400000.0625
189.4499113559723,-400000.0625,-10048.9599609375,-13020.990234375,-400000.0625,-19361.44921875,-400000.0625,-13550.0400390625,-400000.0625
189.4573335647583,-400000.0625,-10022.4501953125,-13003.8798828125,-400000.0625,-19332.4609375,-400000.0625,-13530.1103515625,-400000.0625
189.4673273563385,-400000.0625,-9977.48046875,-12969.8798828125,-400000.0625,-19298.599609375,-400000.0625,-13488.6298828125,-400000.0625
189.47508668899536,-400000.0625,-9971.91015625,-12968.1103515625,-400000.0625,-19299.560546875,-400000.0625,-13483.8095703125,-400000.0625
189.48591017723083,-400000.0625,-10035.330078125,-13017.23046875,-400000.0625,-19344.4296875,-400000.0625,-13538.169921875,-400000.0625
189.49466705322266,-400000.0625,-10077.330078125,-13056.7099609375,-400000.0625,-19378.0390625,-400000.0625,-13577.8896484375,-400000.0625
189.50309109687805,-400000.0625,-10050.580078125,-13034.919921875,-400000.0625,-19350.439453125,-400000.0625,-13549.849609375,-400000.0625
189.50882363319397,-400000.0625,-10006.1396484375,-12999.0595703125,-400000.0625,-19312.099609375,-400000.0625,-13506.650390625,-400000.0625
189.51713514328003,-400000.0625,-10002.08984375,-12992.669921875,-400000.0625,-19308.279296875,-400000.0625,-13502.83984375,-400000.0625
189.5224847793579,-400000.0625,-10056.6904296875,-13035.8701171875,-400000.0625,-19352.9609375,-400000.0625,-13549.6201171875,-400000.0625
189.52987265586853,-400000.0625,-10084.3896484375,-13062.3798828125,-400000.0625,-19378.240234375,-400000.0625,-13583.0400390625,-400000.0625
189.5364682674408,-400000.0625,-10059.8798828125,-13041.4501953125,-400000.0625,-19350.9609375,-400000.0625,-13556.91015625,-400000.0625
189.54344511032104,-400000.0625,-10031.650390625,-13016.26953125,-400000.0625,-19319.779296875,-400000.0625,-13521.2001953125,-400000.0625
189.55634379386902,-400000.0625,-10026.5,-13016.5595703125,-400000.0625,-19318.76953125,-400000.0625,-13523.8203125,-400000.0625
189.56294059753418,-400000.0625,-10087.2099609375,-13066.099609375,-400000.0625,-19366.98046875,-400000.0625,-13573.4599609375,-400000.0625
189.57004356384277,-400000.0625,-10132.26953125,-13099.2900390625,-400000.0625,-19393.060546875,-400000.0625,-13610.41015625,-400000.0625
189.57602763175964,-400000.0625,-10108.330078125,-13081.740234375,-400000.0625,-19370.990234375,-400000.0625,-13587.08984375,-400000.0625
189.58228135108948,-400000.0625,-10059.9296875,-13035.3896484375,-400000.0625,-19325.689453125,-400000.0625,-13539.5498046875,-400000.0625
189.58763217926025,-400000.0625,-10041.91015625,-13019.849609375,-400000.0625,-19310.4296875,-400000.0625,-13530.4501953125,-400000.0625
189.59288263320923,-400000.0625,-10090.9697265625,-13067.6796875,-400000.0625,-19350.76953125,-400000.0625,-13588.3798828125,-400000.0625
189.60000920295715,-400000.0625,-10131.0703125,-13100.6298828125,-400000.0625,-19378.619140625,-400000.0625,-13627.76953125,-400000.0625
189.60704803466797,-400000.0625,-10119.73046875,-13084.1298828125,-400000.0625,-19367.83984375,-400000.0625,-13609.83984375,-400000.0625
189.61348581314087,-400000.0625,-10073.1396484375,-13043.4501953125,-400000.0625,-19333.890625,-400000.0625,-13566.400390625,-400000.0625
189.6218364238739,-400000.0625,-10059.41015625,-13032.099609375,-400000.0625,-19314.150390625,-400000.0625,-13558.9599609375,-400000.0625
189.63001608848572,-400000.0625,-10113.5703125,-13077.6904296875,-400000.0625,-19356.830078125,-400000.0625,-13607.650390625,-400000.0625
189.6361792087555,-400000.0625,-10150.8203125,-13112.9296875,-400000.0625,-19390.919921875,-400000.0625,-13645.83984375,-400000.0625
189.64192914962769,-400000.0625,-10132.3603515625,-13099.8603515625,-400000.0625,-19366.4609375,-400000.0625,-13627.5302734375,-400000.0625
189.64776229858398,-400000.0625,-10106.7099609375,-13070.73046875,-400000.0625,-19329.650390625,-400000.0625,-13589.0,-400000.0625
189.65845894813538,-400000.0625,-10101.3701171875,-13060.0498046875,-400000.0625,-19320.109375,-400000.0625,-13585.759765625,-400000.0625
189.66720962524414,-400000.0625,-10147.91015625,-13103.919921875,-400000.0625,-19356.349609375,-400000.0625,-13628.33984375,-400000.0625
189.67390060424805,-400000.0625,-10185.91015625,-13135.150390625,-400000.0625,-19388.630859375,-400000.0625,-13662.5302734375,-400000.0625
189.68098950386047,-400000.0625,-10164.4501953125,-13120.1796875,-400000.0625,-19376.23046875,-400000.0625,-13643.080078125,-400000.0625
189.6873483657837,-400000.0625,-10117.580078125,-13079.259765625,-400000.0625,-19339.369140625,-400000.0625,-13594.25,-400000.0625
189.69270825386047,-400000.0625,-10117.5302734375,-13081.1201171875,-400000.0625,-19335.509765625,-400000.0625,-13589.1904296875,-400000.0625
189.70184779167175,-400000.0625,-10178.8095703125,-13132.7197265625,-400000.0625,-19377.7109375,-400000.0625,-13646.1796875,-400000.0625
189.70877480506897,-400000.0625,-10220.150390625,-13171.2900390625,-400000.0625,-19404.599609375,-400000.0625,-13692.0,-400000.0625
189.7180778980255,-400000.0625,-10202.1201171875,-13152.7001953125,-400000.0625,-19382.4296875,-400000.0625,-13668.8203125,-400000.0625
189.7245750427246,-400000.0625,-10153.8203125,-13109.73046875,-400000.0625,-19342.51953125,-400000.0625,-13624.0,-400000.0625
189.730783700943,-400000.0625,-10148.1396484375,-13107.400390625,-400000.0625,-19336.560546875,-400000.0625,-13618.0400390625,-400000.0625
189.73635172843933,-400000.0625,-10202.41015625,-13152.41015625,-400000.0625,-19375.66015625,-400000.0625,-13676.0703125,-400000.0625
189.74145483970642,-400000.0625,-10240.8896484375,-13189.509765625,-400000.0625,-19408.990234375,-400000.0625,-13710.6904296875,-400000.0625
189.7493999004364,-400000.0625,-10217.48046875,-13174.33984375,-400000.0625,-19395.880859375,-400000.0625,-13690.8095703125,-400000.0625
189.7614288330078,-400000.0625,-10195.830078125,-13145.01953125,-400000.0625,-19365.119140625,-400000.0625,-13647.6103515625,-400000.0625
189.7674012184143,-400000.0625,-10184.580078125,-13137.2001953125,-400000.0625,-19357.970703125,-400000.0625,-13643.3095703125,-400000.0625
189.77256655693054,-400000.0625,-10235.41015625,-13181.5400390625,-400000.0625,-19401.169921875,-400000.0625,-13695.33984375,-400000.0625
189.77933502197266,-400000.0625,-10278.6103515625,-13223.0302734375,-400000.0625,-19438.029296875,-400000.0625,-13740.58984375,-400000.0625
189.78607940673828,-400000.0625,-10265.01953125,-13217.2099609375,-400000.0625,-19433.169921875,-400000.0625,-13726.6201171875,-400000.0625
189.79160833358765,-400000.0625,-10221.33984375,-13174.8701171875,-400000.0625,-19395.9296875,-400000.0625,-13678.0302734375,-400000.0625
189.7986707687378,-400000.0625,-10226.2998046875,-13174.33984375,-400000.0625,-19398.44921875,-400000.0625,-13680.5595703125,-400000.0625
189.80477023124695,-400000.0625,-10289.76953125,-13233.0400390625,-400000.0625,-19435.259765625,-400000.0625,-13733.8203125,-400000.0625
189.8107397556305,-400000.0625,-10328.8203125,-13271.2900390625,-400000.0625,-19461.19921875,-400000.0625,-13776.1103515625,-400000.0625
189.81787085533142,-400000.0625,-10315.849609375,-13263.3203125,-400000.0625,-19452.48046875,-400000.0625,-13758.419921875,-400000.0625
189.82452154159546,-400000.0625,-10280.9404296875,-13233.1396484375,-400000.0625,-19414.380859375,-400000.0625,-13726.4296875,-400000.0625
189.8304784297943,-400000.0625,-10282.419921875,-13231.849609375,-400000.0625,-19414.470703125,-400000.0625,-13726.4296875,-400000.0625
189.83575749397278,-400000.0625,-10336.58984375,-13281.6796875,-400000.0625,-19468.640625,-400000.0625,-13772.919921875,-400000.0625
189.84164953231812,-400000.0625,-10378.0302734375,-13318.490234375,-400000.0625,-19507.220703125,-400000.0625,-13811.0703125,-400000.0625
189.85129618644714,-400000.0625,-10362.099609375,-13299.08984375,-400000.0625,-19490.439453125,-400000.0625,-13794.849609375,-400000.0625
189.8663878440857,-400000.0625,-10332.16015625,-13274.150390625,-400000.0625,-19459.580078125,-400000.0625,-13767.0498046875,-400000.0625
189.87338089942932,-400000.0625,-10334.25,-13276.8603515625,-400000.0625,-19443.80078125,-400000.0625,-13766.3896484375,-400000.0625
189.88074684143066,-400000.0625,-10390.9501953125,-13328.509765625,-400000.0625,-19498.109375,-400000.0625,-13818.0703125,-400000.0625
189.88852334022522,-400000.0625,-10432.2001953125,-13368.8896484375,-400000.0625,-19539.310546875,-400000.0625,-13854.1201171875,-400000.0625
189.89417219161987,-400000.0625,-10420.75,-13357.3095703125,-400000.0625,-19518.4296875,-400000.0625,-13839.2900390625,-400000.0625
189.9009861946106,-400000.0625,-10381.83984375,-13327.98046875,-400000.0625,-19477.66015625,-400000.0625,-13801.7197265625,-400000.0625
189.90696668624878,-400000.0625,-10388.7099609375,-13333.66015625,-400000.0625,-19483.4296875,-400000.0625,-13808.58984375,-400000.0625
189.91409277915955,-400000.0625,-10432.2001953125,-13370.0400390625,-400000.0625,-19529.439453125,-400000.0625,-13848.5,-400000.0625
189.92097735404968,-400000.0625,-10483.7900390625,-13414.8603515625,-400000.0625,-19576.650390625,-400000.0625,-13893.7998046875,-400000.0625
189.92690086364746,-400000.0625,-10486.4599609375,-13415.580078125,-400000.0625,-19568.01953125,-400000.0625,-13893.6103515625,-400000.0625
189.93551015853882,-400000.0625,-10445.0703125,-13387.0595703125,-400000.0625,-19525.580078125,-400000.0625,-13860.75,-400000.0625
189.94255471229553,-400000.0625,-10444.58984375,-13387.8203125,-400000.0625,-19523.810546875,-400000.0625,-13859.7998046875,-400000.0625
189.9511284828186,-400000.0625,-10496.08984375,-13424.919921875,-400000.0625,-19574.119140625,-400000.0625,-13900.900390625,-400000.0625
189.95812439918518,-400000.0625,-10535.8603515625,-13461.9697265625,-400000.0625,-19598.150390625,-400000.0625,-13937.7099609375,-400000.0625
189.97392868995667,-400000.0625,-10532.48046875,-13459.0595703125,-400000.0625,-19585.80078125,-400000.0625,-13928.080078125,-400000.0625
189.9801459312439,-400000.0625,-10498.4296875,-13427.5498046875,-400000.0625,-19565.16015625,-400000.0625,-13891.1298828125,-400000.0625
189.98589968681335,-400000.0625,-10500.0498046875,-13433.9296875,-400000.0625,-19563.439453125,-400000.0625,-13893.080078125,-400000.0625
189.99158787727356,-400000.0625,-10552.650390625,-13485.6201171875,-400000.0625,-19600.349609375,-400000.0625,-13944.3896484375,-400000.0625
190.00086522102356,-400000.0625,-10589.83984375,-13516.9501953125,-400000.0625,-19623.0,-400000.0625,-13979.9599609375,-400000.0625
190.00804352760315,-400000.0625,-10588.4599609375,-13513.3798828125,-400000.0625,-19617.509765625,-400000.0625,-13975.099609375,-400000.0625
190.01654386520386,-400000.0625,-10570.240234375,-13493.6298828125,-400000.0625,-19598.060546875,-400000.0625,-13946.009765625,-400000.0625
190.0234775543213,-400000.0625,-10562.7099609375,-13485.8603515625,-400000.0625,-19592.619140625,-400000.0625,-13946.0595703125,-400000.0625
190.03252458572388,-400000.0625,-10605.150390625,-13532.01953125,-400000.0625,-19637.779296875,-400000.0625,-13990.01953125,-400000.0625
190.03928995132446,-400000.0625,-10642.9599609375,-13565.919921875,-400000.0625,-19669.919921875,-400000.0625,-14019.9697265625,-400000.0625
190.04532074928284,-400000.0625,-10647.8701171875,-13569.6904296875,-400000.0625,-19667.009765625,-400000.0625,-14017.5400390625,-400000.0625
190.05074954032898,-400000.0625,-10632.23046875,-13553.48046875,-400000.0625,-19643.0703125,-400000.0625,-13993.6904296875,-400000.0625
190.0568721294403,-400000.0625,-10634.7099609375,-13552.4296875,-400000.0625,-19640.880859375,-400000.0625,-13984.6796875,-400000.0625
190.06397366523743,-400000.0625,-10668.849609375,-13587.9501953125,-400000.0625,-19668.30078125,-400000.0625,-14029.1201171875,-400000.0625
190.07691550254822,-400000.0625,-10699.849609375,-13627.3896484375,-400000.0625,-19697.759765625,-400000.0625,-14071.4697265625,-400000.0625
190.0825412273407,-400000.0625,-10697.990234375,-13616.08984375,-400000.0625,-19687.990234375,-400000.0625,-14051.0595703125,-400000.0625
190.08961582183838,-400000.0625,-10673.6201171875,-13596.919921875,-400000.0625,-19667.150390625,-400000.0625,-14021.73046875,-400000.0625
190.09828519821167,-400000.0625,-10671.9501953125,-13600.6796875,-400000.0625,-19667.869140625,-400000.0625,-14025.259765625,-400000.0625
190.10534954071045,-400000.0625,-10719.1103515625,-13637.5,-400000.0625,-19707.439453125,-400000.0625,-14064.650390625,-400000.0625
190.11410355567932,-400000.0625,-10748.5302734375,-13663.9599609375,-400000.0625,-19724.1796875,-400000.0625,-14097.740234375,-400000.0625
190.12145447731018,-400000.0625,-10744.4296875,-13663.33984375,-400000.0625,-19719.4609375,-400000.0625,-14083.5302734375,-400000.0625
190.12742137908936,-400000.0625,-10709.759765625,-13630.9599609375,-400000.0625,-19692.51953125,-400000.0625,-14043.8603515625,-400000.0625
190.135826587677,-400000.0625,-10700.5595703125,-13625.2900390625,-400000.0625,-19671.919921875,-400000.0625,-14039.7998046875,-400000.0625
190.14308404922485,-400000.0625,-10745.91015625,-13665.25,-400000.0625,-19704.439453125,-400000.0625,-14083.580078125,-400000.0625
190.14992332458496,-400000.0625,-10798.3095703125,-13706.4501953125,-400000.0625,-19744.58984375,-400000.0625,-14120.5302734375,-400000.0625
190.1566731929779,-400000.0625,-10795.400390625,-13707.5,-400000.0625,-19738.30078125,-400000.0625,-14117.3896484375,-400000.0625
190.16370177268982,-400000.0625,-10769.7001953125,-13687.900390625,-400000.0625,-19717.080078125,-400000.0625,-14089.0595703125,-400000.0625
190.1706030368805,-400000.0625,-10772.2802734375,-13691.8603515625,-400000.0625,-19716.890625,-400000.0625,-14091.6796875,-400000.0625
190.18435382843018,-400000.0625,-10817.580078125,-13731.2001953125,-400000.0625,-19751.26953125,-400000.0625,-14140.4599609375,-400000.0625
190.19016242027283,-400000.0625,-10850.48046875,-13762.4296875,-400000.0625,-19777.630859375,-400000.0625,-14163.3095703125,-400000.0625
190.198340177536,-400000.0625,-10845.51953125,-13760.2802734375,-400000.0625,-19772.099609375,-400000.0625,-14150.33984375,-400000.0625
190.2051384449005,-400000.0625,-10817.8603515625,-13736.349609375,-400000.0625,-19742.779296875,-400000.0625,-14124.009765625,-400000.0625
190.2121500968933,-400000.0625,-10817.099609375,-13731.0,-400000.0625,-19732.759765625,-400000.0625,-14116.580078125,-400000.0625
190.2197790145874,-400000.0625,-10855.6298828125,-13768.3896484375,-400000.0625,-19776.970703125,-400000.0625,-14155.2900390625,-400000.0625
190.22555494308472,-400000.0625,-10888.8203125,-13799.0498046875,-400000.0625,-19808.009765625,-400000.0625,-14182.330078125,-400000.0625
190.23359441757202,-400000.0625,-10874.83984375,-13783.9296875,-400000.0625,-19778.919921875,-400000.0625,-14161.8701171875,-400000.0625
190.2391836643219,-400000.0625,-10839.990234375,-13753.5595703125,-400000.0625,-19736.390625,-400000.0625,-14119.91015625,-400000.0625
190.24539709091187,-400000.0625,-10847.0498046875,-13760.900390625,-400000.0625,-19738.30078125,-400000.0625,-14121.33984375,-400000.0625
190.25282192230225,-400000.0625,-10901.169921875,-13805.9599609375,-400000.0625,-19779.30078125,-400000.0625,-14165.3095703125,-400000.0625
190.25879788398743,-400000.0625,-10927.5400390625,-13829.0400390625,-400000.0625,-19803.4296875,-400000.0625,-14193.9697265625,-400000.0625
190.2678987979889,-400000.0625,-10906.080078125,-13811.490234375,-400000.0625,-19798.140625,-400000.0625,-14177.1298828125,-400000.0625
190.27333903312683,-400000.0625,-10866.9296875,-13778.6904296875,-400000.0625,-19763.619140625,-400000.0625,-14139.1796875,-400000.0625
190.28353667259216,-400000.0625,-10869.5498046875,-13779.830078125,-400000.0625,-19750.310546875,-400000.0625,-14134.83984375,-400000.0625
190.29107999801636,-400000.0625,-10910.66015625,-13817.5,-400000.0625,-19768.380859375,-400000.0625,-14168.2197265625,-400000.0625
190.2986195087433,-400000.0625,-10944.3701171875,-13841.1103515625,-400000.0625,-19793.69921875,-400000.0625,-14198.259765625,-400000.0625
190.30410361289978,-400000.0625,-10930.6796875,-13830.759765625,-400000.0625,-19787.98046875,-400000.0625,-14186.9599609375,-400000.0625
190.3093340396881,-400000.0625,-10893.7802734375,-13802.7197265625,-400000.0625,-19759.7109375,-400000.0625,-14146.3798828125,-400000.0625
190.31732654571533,-400000.0625,-10890.8701171875,-13801.33984375,-400000.0625,-19753.119140625,-400000.0625,-14143.5595703125,-400000.0625
190.32317876815796,-400000.0625,-10935.740234375,-13838.7197265625,-400000.0625,-19781.5390625,-400000.0625,-14183.1904296875,-400000.0625
190.3308243751526,-400000.0625,-10970.2099609375,-13867.669921875,-400000.0625,-19802.619140625,-400000.0625,-14211.1298828125,-400000.0625
190.33643984794617,-400000.0625,-10962.150390625,-13861.509765625,-400000.0625,-19800.7109375,-400000.0625,-14199.3095703125,-400000.0625
190.34178686141968,-400000.0625,-10926.2998046875,-13833.48046875,-400000.0625,-19768.05078125,-400000.0625,-14160.0595703125,-400000.0625
190.34816455841064,-400000.0625,-10919.2900390625,-13826.1298828125,-400000.0625,-19763.759765625,-400000.0625,-14150.240234375,-400000.0625
190.3551766872406,-400000.0625,-10967.73046875,-13868.6201171875,-400000.0625,-19800.279296875,-400000.0625,-14201.9296875,-400000.0625
190.36042761802673,-400000.0625,-11007.6904296875,-13904.5302734375,-400000.0625,-19828.26953125,-400000.0625,-14235.7802734375,-400000.0625
190.36573576927185,-400000.0625,-10995.33984375,-13893.8896484375,-400000.0625,-19818.58984375,-400000.0625,-14213.1298828125,-400000.0625
190.37090134620667,-400000.0625,-10966.1103515625,-13866.6201171875,-400000.0625,-19779.44921875,-400000.0625,-14184.4296875,-400000.0625
190.37635445594788,-400000.0625,-10962.2998046875,-13861.3701171875,-400000.0625,-19759.939453125,-400000.0625,-14177.75,-400000.0625
190.38893914222717,-400000.0625,-11002.5400390625,-13897.08984375,-400000.0625,-19793.939453125,-400000.0625,-14212.7099609375,-400000.0625
190.39601254463196,-400000.0625,-11032.919921875,-13925.0302734375,-400000.0625,-19821.0703125,-400000.0625,-14241.599609375,-400000.0625
190.4043686389923,-400000.0625,-11024.759765625,-13923.5,-400000.0625,-19821.689453125,-400000.0625,-14231.01953125,-400000.0625
190.41030287742615,-400000.0625,-10990.48046875,-13891.98046875,-400000.0625,-19787.9296875,-400000.0625,-14187.6201171875,-400000.0625
190.41631245613098,-400000.0625,-10984.2802734375,-13882.4501953125,-400000.0625,-19775.109375,-400000.0625,-14177.900390625,-400000.0625
190.42201042175293,-400000.0625,-11031.33984375,-13920.400390625,-400000.0625,-19816.58984375,-400000.0625,-14225.76953125,-400000.0625
190.43095207214355,-400000.0625,-11067.2001953125,-13952.919921875,-400000.0625,-19852.44921875,-400000.0625,-14251.900390625,-400000.0625
190.4392273426056,-400000.0625,-11066.0595703125,-13949.73046875,-400000.0625,-19839.33984375,-400000.0625,-14240.9296875,-400000.0625
190.44610953330994,-400000.0625,-11034.7802734375,-13923.3603515625,-400000.0625,-19791.029296875,-400000.0625,-14208.2197265625,-400000.0625
190.4543960094452,-400000.0625,-11025.5703125,-13919.58984375,-400000.0625,-19774.529296875,-400000.0625,-14199.58984375,-400000.0625
190.46031594276428,-400000.0625,-11056.66015625,-13954.9296875,-400000.0625,-19807.009765625,-400000.0625,-14237.3095703125,-400000.0625
190.46787023544312,-400000.0625,-11098.0,-13991.4501953125,-400000.0625,-19838.33984375,-400000.0625,-14271.9296875,-400000.0625
190.47352528572083,-400000.0625,-11081.3203125,-13975.2900390625,-400000.0625,-19832.51953125,-400000.0625,-14249.7998046875,-400000.0625
190.47908568382263,-400000.0625,-11039.830078125,-13943.150390625,-400000.0625,-19789.26953125,-400000.0625,-14215.1396484375,-400000.0625
190.49078512191772,-400000.0625,-11046.83984375,-13945.490234375,-400000.0625,-19782.259765625,-400000.0625,-14207.3603515625,-400000.0625
190.4985544681549,-400000.0625,-11105.4404296875,-13993.1201171875,-400000.0625,-19821.220703125,-400000.0625,-14252.51953125,-400000.0625
190.50644826889038,-400000.0625,-11145.400390625,-14025.9296875,-400000.0625,-19848.970703125,-400000.0625,-14285.1396484375,-400000.0625
190.51439094543457,-400000.0625,-11132.76953125,-14016.0595703125,-400000.0625,-19829.849609375,-400000.0625,-14277.3203125,-400000.0625
190.5211102962494,-400000.0625,-11086.8896484375,-13977.6201171875,-400000.0625,-19785.029296875,-400000.0625,-14234.16015625,-400000.0625
190.52775287628174,-400000.0625,-11072.6796875,-13963.26953125,-400000.0625,-19773.099609375,-400000.0625,-14209.83984375,-400000.0625
190.53603744506836,-400000.0625,-11122.849609375,-14009.5703125,-400000.0625,-19819.119140625,-400000.0625,-14253.3798828125,-400000.0625
190.5450530052185,-400000.0625,-11159.1396484375,-14045.91015625,-400000.0625,-19858.890625,-400000.0625,-14293.8603515625,-400000.0625
190.55157923698425,-400000.0625,-11143.830078125,-14028.8798828125,-400000.0625,-19836.380859375,-400000.0625,-14271.8798828125,-400000.0625
190.55933713912964,-400000.0625,-11102.150390625,-13995.4599609375,-400000.0625,-19792.939453125,-400000.0625,-14227.919921875,-400000.0625
190.56744480133057,-400000.0625,-11094.1396484375,-13987.349609375,-400000.0625,-19783.359375,-400000.0625,-14210.419921875,-400000.0625
190.57309007644653,-400000.0625,-11131.8603515625,-14020.7802734375,-400000.0625,-19816.349609375,-400000.0625,-14252.6201171875,-400000.0625
190.58019042015076,-400000.0625,-11169.009765625,-14052.2001953125,-400000.0625,-19847.439453125,-400000.0625,-14286.1904296875,-400000.0625
190.59668588638306,-400000.0625,-11153.41015625,-14037.5595703125,-400000.0625,-19829.0390625,-400000.0625,-14261.2001953125,-400000.0625
190.60469841957092,-400000.0625,-11115.3603515625,-14006.5703125,-400000.0625,-19793.939453125,-400000.0625,-14221.0,-400000.0625
190.61352014541626,-400000.0625,-11118.9404296875,-14009.0498046875,-400000.0625,-19795.470703125,-400000.0625,-14220.099609375,-400000.0625
190.62024784088135,-400000.0625,-11161.3798828125,-14045.6201171875,-400000.0625,-19826.75,-400000.0625,-14260.580078125,-400000.0625
190.62837958335876,-400000.0625,-11194.66015625,-14078.669921875,-400000.0625,-19849.970703125,-400000.0625,-14285.66015625,-400000.0625
190.63372015953064,-400000.0625,-11177.1103515625,-14060.169921875,-400000.0625,-19821.41015625,-400000.0625,-14264.2998046875,-400000.0625
190.63912320137024,-400000.0625,-11130.759765625,-14020.25,-400000.0625,-19788.69921875,-400000.0625,-14223.6201171875,-400000.0625
190.64642763137817,-400000.0625,-11133.2900390625,-14018.8701171875,-400000.0625,-19782.970703125,-400000.0625,-14220.099609375,-400000.0625
190.6525022983551,-400000.0625,-11178.4501953125,-14060.169921875,-400000.0625,-19812.6796875,-400000.0625,-14263.4404296875,-400000.0625
190.66035103797913,-400000.0625,-11214.7802734375,-14094.400390625,-400000.0625,-19841.76953125,-400000.0625,-14295.150390625,-400000.0625
190.6674518585205,-400000.0625,-11200.8603515625,-14080.9599609375,-400000.0625,-19833.330078125,-400000.0625,-14273.650390625,-400000.0625
190.67441034317017,-400000.0625,-11147.6396484375,-14035.8896484375,-400000.0625,-19793.3203125,-400000.0625,-14223.33984375,-400000.0625
190.6837282180786,-400000.0625,-11139.919921875,-14023.6904296875,-400000.0625,-19779.060546875,-400000.0625,-14210.650390625,-400000.0625
190.69866299629211,-400000.0625,-11188.83984375,-14064.83984375,-400000.0625,-19815.5390625,-400000.0625,-14257.0,-400000.0625
190.70509886741638,-400000.0625,-11233.0498046875,-14108.6103515625,-400000.0625,-19843.19921875,-400000.0625,-14297.580078125,-400000.0625
190.710218667984,-400000.0625,-11222.3203125,-14101.2197265625,-400000.0625,-19837.5703125,-400000.0625,-14288.8603515625,-400000.0625
190.71540880203247,-400000.0625,-11184.650390625,-14066.9404296875,-400000.0625,-19794.66015625,-400000.0625,-14242.83984375,-400000.0625
190.72136425971985,-400000.0625,-11179.7802734375,-14058.6904296875,-400000.0625,-19780.01953125,-400000.0625,-14227.490234375,-400000.0625
190.72831892967224,-400000.0625,-11213.2099609375,-14091.58984375,-400000.0625,-19817.400390625,-400000.0625,-14265.73046875,-400000.0625
190.73635864257812,-400000.0625,-11248.5400390625,-14122.8701171875,-400000.0625,-19849.640625,-400000.0625,-14298.4404296875,-400000.0625
190.7430477142334,-400000.0625,-11228.3701171875,-14106.5595703125,-400000.0625,-19830.609375,-400000.0625,-14278.9404296875,-400000.0625
190.75108361244202,-400000.0625,-11187.650390625,-14075.6103515625,-400000.0625,-19799.7109375,-400000.0625,-14234.400390625,-400000.0625
190.75759983062744,-400000.0625,-11187.3603515625,-14068.3203125,-400000.0625,-19788.3203125,-400000.0625,-14221.7197265625,-400000.0625
190.76608085632324,-400000.0625,-11223.41015625,-14098.4599609375,-400000.0625,-19816.349609375,-400000.0625,-14263.6796875,-400000.0625
190.77232933044434,-400000.0625,-11256.8896484375,-14129.01953125,-400000.0625,-19847.58984375,-400000.0625,-14297.33984375,-400000.0625
190.78001141548157,-400000.0625,-11248.2099609375,-14125.6796875,-400000.0625,-19835.900390625,-400000.0625,-14282.509765625,-400000.0625
190.78587317466736,-400000.0625,-11210.73046875,-14090.9697265625,-400000.0625,-19783.55078125,-400000.0625,-14235.98046875,-400000.0625
190.79866123199463,-400000.0625,-11195.6103515625,-14077.5703125,-400000.0625,-19765.810546875,-400000.0625,-14224.6298828125,-400000.0625
190.80457019805908,-400000.0625,-11241.4404296875,-14117.5302734375,-400000.0625,-19809.30078125,-400000.0625,-14271.3095703125,-400000.0625
190.80997252464294,-400000.0625,-11288.4501953125,-14161.0595703125,-400000.0625,-19854.259765625,-400000.0625,-14311.169921875,-400000.0625
190.81748723983765,-400000.0625,-11281.7802734375,-14154.150390625,-400000.0625,-19850.01953125,-400000.0625,-14302.73046875,-400000.0625
190.82379937171936,-400000.0625,-11237.2900390625,-14109.51953125,-400000.0625,-19795.609375,-400000.0625,-14254.0,-400000.0625
190.83063769340515,-400000.0625,-11223.83984375,-14096.2099609375,-400000.0625,-19767.099609375,-400000.0625,-14241.599609375,-400000.0625
190.83798336982727,-400000.0625,-11271.5703125,-14140.66015625,-400000.0625,-19800.810546875,-400000.0625,-14285.2802734375,-400000.0625
190.84468483924866,-400000.0625,-11317.16015625,-14177.990234375,-400000.0625,-19843.91015625,-400000.0625,-14322.2802734375,-400000.0625
190.85070037841797,-400000.0625,-11303.1396484375,-14165.6396484375,-400000.0625,-19835.330078125,-400000.0625,-14306.01953125,-400000.0625
190.85599899291992,-400000.0625,-11257.599609375,-14126.349609375,-400000.0625,-19792.650390625,-400000.0625,-14263.25,-400000.0625
190.8628191947937,-400000.0625,-11241.009765625,-14113.0498046875,-400000.0625,-19775.25,-400000.0625,-14242.98046875,-400000.0625
190.86968851089478,-400000.0625,-11291.4599609375,-14150.759765625,-400000.0625,-19823.740234375,-400000.0625,-14287.08984375,-400000.0625
190.87682962417603,-400000.0625,-11337.330078125,-14188.0498046875,-400000.0625,-19847.8203125,-400000.0625,-14329.0498046875,-400000.0625
190.88245391845703,-400000.0625,-11332.26953125,-14181.900390625,-400000.0625,-19820.740234375,-400000.0625,-14318.3701171875,-400000.0625
190.88876390457153,-400000.0625,-11288.8798828125,-14147.66015625,-400000.0625,-19788.7890625,-400000.0625,-14272.98046875,-400000.0625
190.90136194229126,-400000.0625,-11284.4501953125,-14133.740234375,-400000.0625,-19777.060546875,-400000.0625,-14249.990234375,-400000.0625
190.90809655189514,-400000.0625,-11325.5498046875,-14173.080078125,-400000.0625,-19809.33984375,-400000.0625,-14298.0595703125,-400000.0625
190.91551232337952,-400000.0625,-11366.23046875,-14201.3603515625,-400000.0625,-19844.9609375,-400000.0625,-14339.1103515625,-400000.0625
190.92109036445618,-400000.0625,-11343.33984375,-14191.0595703125,-400000.0625,-19831.470703125,-400000.0625,-14317.509765625,-400000.0625
190.92795586585999,-400000.0625,-11318.8798828125,-14161.16015625,-400000.0625,-19800.189453125,-400000.0625,-14279.1298828125,-400000.0625
190.93552350997925,-400000.0625,-11332.419921875,-14152.9599609375,-400000.0625,-19761.51953125,-400000.0625,-14268.9697265625,-400000.0625
190.94143438339233,-400000.0625,-11368.4697265625,-14195.0595703125,-400000.0625,-19784.44921875,-400000.0625,-14311.8896484375,-400000.0625
190.9479308128357,-400000.0625,-11412.759765625,-14234.740234375,-400000.0625,-19827.1796875,-400000.0625,-14362.8603515625,-400000.0625
190.95387196540833,-400000.0625,-11420.6796875,-14231.8701171875,-400000.0625,-19826.560546875,-400000.0625,-14360.51953125,-400000.0625
190.95945358276367,-400000.0625,-11384.73046875,-14193.9697265625,-400000.0625,-19780.0703125,-400000.0625,-14313.509765625,-400000.0625
190.96771025657654,-400000.0625,-11371.5703125,-14178.9501953125,-400000.0625,-19760.419921875,-400000.0625,-14298.6796875,-400000.0625
190.974839925766,-400000.0625,-11444.240234375,-14236.400390625,-400000.0625,-19799.51953125,-400000.0625,-14359.5703125,-400000.0625
190.9829728603363,-400000.0625,-11493.400390625,-14257.5302734375,-400000.0625,-19817.119140625,-400000.0625,-14383.509765625,-400000.0625
190.98876690864563,-400000.0625,-11474.3701171875,-14258.4296875,-400000.0625,-19806.009765625,-400000.0625,-14366.2001953125,-400000.0625
191.00086331367493,-400000.0625,-11454.6796875,-14226.580078125,-400000.0625,-19773.439453125,-400000.0625,-14331.0595703125,-400000.0625
191.00703263282776,-400000.0625,-11436.509765625,-14199.3095703125,-400000.0625,-19750.169921875,-400000.0625,-14316.080078125,-400000.0625
191.01323199272156,-400000.0625,-11472.5595703125,-14238.98046875,-400000.0625,-19778.25,-400000.0625,-14345.83984375,-400000.0625
191.02067971229553,-400000.0625,-11516.7197265625,-14277.1298828125,-400000.0625,-19813.640625,-400000.0625,-14397.099609375,-400000.0625
191.026695728302,-400000.0625,-11500.169921875,-14288.0498046875,-400000.0625,-19807.439453125,-400000.0625,-14401.099609375,-400000.0625
191.03485345840454,-400000.0625,-11471.9404296875,-14263.1103515625,-400000.0625,-19764.759765625,-400000.0625,-14365.150390625,-400000.0625
191.04130625724792,-400000.0625,-11489.8203125,-14258.91015625,-400000.0625,-19742.630859375,-400000.0625,-14357.2802734375,-400000.0625
191.04746294021606,-400000.0625,-11549.4296875,-14309.83984375,-400000.0625,-19772.390625,-400000.0625,-14411.740234375,-400000.0625
191.05406188964844,-400000.0625,-11641.9296875,-14369.8701171875,-400000.0625,-19804.2890625,-400000.0625,-14473.5400390625,-400000.0625
191.05979442596436,-400000.0625,-11646.8896484375,-14379.9296875,-400000.0625,-19782.16015625,-400000.0625,-14478.7802734375,-400000.0625
191.06660747528076,-400000.0625,-11633.8701171875,-14351.8896484375,-400000.0625,-19729.08984375,-400000.0625,-14451.9296875,-400000.0625
191.07283449172974,-400000.0625,-11673.6396484375,-14360.099609375,-400000.0625,-19710.259765625,-400000.0625,-14461.8095703125,-400000.0625
191.0786361694336,-400000.0625,-11751.26953125,-14410.6396484375,-400000.0625,-19726.609375,-400000.0625,-14516.58984375,-400000.0625
191.08489608764648,-400000.0625,-11801.099609375,-14446.01953125,-400000.0625,-19757.939453125,-400000.0625,-14547.9697265625,-400000.0625
191.09137439727783,-400000.0625,-11800.9599609375,-14437.6298828125,-400000.0625,-19749.830078125,-400000.0625,-14536.240234375,-400000.0625
191.10512924194336,-400000.0625,-11787.1796875,-14418.509765625,-400000.0625,-19695.669921875,-400000.0625,-14501.669921875,-400000.0625
191.11071109771729,-400000.0625,-11776.8798828125,-14410.8798828125,-400000.0625,-19678.880859375,-400000.0625,-14482.8798828125,-400000.0625
191.11854147911072,-400000.0625,-11802.5302734375,-14441.0595703125,-400000.0625,-19721.80078125,-400000.0625,-14510.8203125,-400000.0625
191.12575840950012,-400000.0625,-11813.5,-14459.990234375,-400000.0625,-19759.849609375,-400000.0625,-14529.66015625,-400000.0625
191.13151288032532,-400000.0625,-11788.080078125,-14445.9697265625,-400000.0625,-19748.55078125,-400000.0625,-14500.099609375,-400000.0625
191.1367061138153,-400000.0625,-11733.76953125,-14409.16015625,-400000.0625,-19718.55078125,-400000.0625,-14450.3603515625,-400000.0625
191.14182496070862,-400000.0625,-11704.1103515625,-14396.7197265625,-400000.0625,-19724.849609375,-400000.0625,-14428.9501953125,-400000.0625
191.14833211898804,-400000.0625,-11720.1796875,-14417.3203125,-400000.0625,-19760.419921875,-400000.0625,-14455.1796875,-400000.0625
191.15637230873108,-400000.0625,-11735.8701171875,-14437.3896484375,-400000.0625,-19798.7109375,-400000.0625,-14481.5,-400000.0625
191.1631944179535,-400000.0625,-11711.0703125,-14429.240234375,-400000.0625,-19790.4609375,-400000.0625,-14460.08984375,-400000.0625
191.16902375221252,-400000.0625,-11655.9501953125,-14393.7099609375,-400000.0625,-19753.3203125,-400000.0625,-14418.7900390625,-400000.0625
191.17476749420166,-400000.0625,-11631.0595703125,-14375.400390625,-400000.0625,-19755.1796875,-400000.0625,-14390.330078125,-400000.0625
191.18259501457214,-400000.0625,-11650.1796875,-14401.5302734375,-400000.0625,-19797.759765625,-400000.0625,-14420.080078125,-400000.0625
191.1895875930786,-400000.0625,-11666.9697265625,-14422.6103515625,-400000.0625,-19818.359375,-400000.0625,-14446.7802734375,-400000.0625
191.19824504852295,-400000.0625,-11645.650390625,-14409.259765625,-400000.0625,-19813.970703125,-400000.0625,-14421.509765625,-400000.0625
191.21155333518982,-400000.0625,-11597.2099609375,-14371.01953125,-400000.0625,-19790.26953125,-400000.0625,-14381.98046875,-400000.0625
191.21982312202454,-400000.0625,-11576.0302734375,-14357.23046875,-400000.0625,-19778.6796875,-400000.0625,-14366.490234375,-400000.0625
191.22726798057556,-400000.0625,-11603.6396484375,-14385.75,-400000.0625,-19810.439453125,-400000.0625,-14386.990234375,-400000.0625
191.23462796211243,-400000.0625,-11626.0498046875,-14409.1103515625,-400000.0625,-19844.529296875,-400000.0625,-14412.5,-400000.0625
191.2399299144745,-400000.0625,-11607.7001953125,-14394.9501953125,-400000.0625,-19832.51953125,-400000.0625,-14394.8095703125,-400000.0625
191.24862790107727,-400000.0625,-11562.2099609375,-14361.1904296875,-400000.0625,-19802.91015625,-400000.0625,-14356.8095703125,-400000.0625
191.25510120391846,-400000.0625,-11549.0498046875,-14352.080078125,-400000.0625,-19795.609375,-400000.0625,-14346.740234375,-400000.0625
191.26067185401917,-400000.0625,-11585.1904296875,-14386.849609375,-400000.0625,-19833.23046875,-400000.0625,-14380.8896484375,-400000.0625
191.2703800201416,-400000.0625,-11610.3701171875,-14409.6396484375,-400000.0625,-19863.4609375,-400000.0625,-14403.3896484375,-400000.0625
191.27575302124023,-400000.0625,-11587.8603515625,-14395.240234375,-400000.0625,-19853.01953125,-400000.0625,-14383.83984375,-400000.0625
191.28594207763672,-400000.0625,-11552.2900390625,-14364.4404296875,-400000.0625,-19825.7890625,-400000.0625,-14342.830078125,-400000.0625
191.2919054031372,-400000.0625,-11533.6904296875,-14354.849609375,-400000.0625,-19825.509765625,-400000.0625,-14327.48046875,-400000.0625
191.30038714408875,-400000.0625,-11562.1103515625,-14378.6396484375,-400000.0625,-19850.919921875,-400000.0625,-14353.5595703125,-400000.0625
191.3136444091797,-400000.0625,-11588.240234375,-14398.5302734375,-400000.0625,-19877.150390625,-400000.0625,-14381.83984375,-400000.0625
191.32150602340698,-400000.0625,-11573.26953125,-14388.6103515625,-400000.0625,-19866.80078125,-400000.0625,-14367.6298828125,-400000.0625
191.32786083221436,-400000.0625,-11536.5,-14358.1396484375,-400000.0625,-19842.669921875,-400000.0625,-14332.150390625,-400000.0625
191.33325028419495,-400000.0625,-11534.259765625,-14355.990234375,-400000.0625,-19830.23046875,-400000.0625,-14322.849609375,-400000.0625
191.33883357048035,-400000.0625,-11567.58984375,-14387.419921875,-400000.0625,-19855.689453125,-400000.0625,-14353.6103515625,-400000.0625
191.34558200836182,-400000.0625,-11591.33984375,-14407.01953125,-400000.0625,-19873.669921875,-400000.0625,-14375.16015625,-400000.0625
191.35264801979065,-400000.0625,-11581.3701171875,-14403.2001953125,-400000.0625,-19863.890625,-400000.0625,-14357.3798828125,-400000.0625
191.3595838546753,-400000.0625,-11555.8603515625,-14385.650390625,-400000.0625,-19845.19921875,-400000.0625,-14335.25,-400000.0625
191.36662554740906,-400000.0625,-11548.08984375,-14372.6396484375,-400000.0625,-19831.990234375,-400000.0625,-14324.0,-400000.0625
191.37301874160767,-400000.0625,-11577.7998046875,-14397.2900390625,-400000.0625,-19861.509765625,-400000.0625,-14350.419921875,-400000.0625
191.38086104393005,-400000.0625,-11606.41015625,-14425.5703125,-400000.0625,-19890.41015625,-400000.0625,-14376.169921875,-400000.0625
191.38780665397644,-400000.0625,-11600.6904296875,-14421.26953125,-400000.0625,-19875.76953125,-400000.0625,-14365.76953125,-400000.0625
191.3958945274353,-400000.0625,-11569.9296875,-14397.33984375,-400000.0625,-19848.919921875,-400000.0625,-14332.2001953125,-400000.0625
191.40153741836548,-400000.0625,-11556.7197265625,-14387.849609375,-400000.0625,-19842.91015625,-400000.0625,-14323.5703125,-400000.0625
191.41630482673645,-400000.0625,-11590.76953125,-14413.3095703125,-400000.0625,-19875.810546875,-400000.0625,-14345.9296875,-400000.0625
191.42303729057312,-400000.0625,-11620.51953125,-14440.8701171875,-400000.0625,-19903.0390625,-400000.0625,-14375.259765625,-400000.0625
191.4306104183197,-400000.0625,-11612.3701171875,-14433.9599609375,-400000.0625,-19880.30078125,-400000.0625,-14366.150390625,-400000.0625
191.4362828731537,-400000.0625,-11577.5595703125,-14399.150390625,-400000.0625,-19851.640625,-400000.0625,-14330.099609375,-400000.0625
191.44307589530945,-400000.0625,-11572.8896484375,-14398.8603515625,-400000.0625,-19842.48046875,-400000.0625,-14320.419921875,-400000.0625
191.45166182518005,-400000.0625,-11608.7001953125,-14429.1904296875,-400000.0625,-19859.890625,-400000.0625,-14358.1904296875,-400000.0625
191.458016872406,-400000.0625,-11636.400390625,-14453.4599609375,-400000.0625,-19883.16015625,-400000.0625,-14379.599609375,-400000.0625
191.46623921394348,-400000.0625,-11632.7802734375,-14449.3603515625,-400000.0625,-19878.529296875,-400000.0625,-14369.5400390625,-400000.0625
191.47174263000488,-400000.0625,-11606.740234375,-14425.66015625,-400000.0625,-19855.599609375,-400000.0625,-14334.2998046875,-400000.0625
191.47732400894165,-400000.0625,-11594.4404296875,-14419.1298828125,-400000.0625,-19845.490234375,-400000.0625,-14327.240234375,-400000.0625
191.48463249206543,-400000.0625,-11630.009765625,-14445.9296875,-400000.0625,-19874.150390625,-400000.0625,-14362.099609375,-400000.0625
191.49115681648254,-400000.0625,-11660.8603515625,-14471.150390625,-400000.0625,-19903.140625,-400000.0625,-14389.759765625,-400000.0625
191.49746251106262,-400000.0625,-11646.419921875,-14459.23046875,-400000.0625,-19894.220703125,-400000.0625,-14375.5498046875,-400000.0625
191.50502824783325,-400000.0625,-11623.150390625,-14433.5302734375,-400000.0625,-19858.55078125,-400000.0625,-14339.2099609375,-400000.0625
191.51728653907776,-400000.0625,-11613.8896484375,-14427.51953125,-400000.0625,-19845.19921875,-400000.0625,-14329.009765625,-400000.0625
191.5227108001709,-400000.0625,-11647.080078125,-14459.900390625,-400000.0625,-19872.240234375,-400000.0625,-14359.8095703125,-400000.0625
191.52837800979614,-400000.0625,-11678.169921875,-14489.5595703125,-400000.0625,-19901.7109375,-400000.0625,-14393.900390625,-400000.0625
191.5351107120514,-400000.0625,-11667.490234375,-14476.349609375,-400000.0625,-19884.25,-400000.0625,-14381.2197265625,-400000.0625
191.5405924320221,-400000.0625,-11631.2998046875,-14447.830078125,-400000.0625,-19858.55078125,-400000.0625,-14342.6396484375,-400000.0625
191.54820251464844,-400000.0625,-11628.2001953125,-14443.2099609375,-400000.0625,-19852.640625,-400000.0625,-14326.5703125,-400000.0625
191.57321643829346,-400000.0625,-11666.2001953125,-14477.919921875,-400000.0625,-19879.9609375,-400000.0625,-14360.1904296875,-400000.0625
191.5901563167572,-400000.0625,-11697.3896484375,-14505.009765625,-400000.0625,-19905.279296875,-400000.0625,-14389.330078125,-400000.0625
191.6050021648407,-400000.0625,-11692.48046875,-14497.330078125,-400000.0625,-19895.029296875,-400000.0625,-14381.41015625,-400000.0625
191.6146867275238,-400000.0625,-11656.8095703125,-14463.7099609375,-400000.0625,-19860.3203125,-400000.0625,-14346.7001953125,-400000.0625
191.62962293624878,-400000.0625,-11647.8896484375,-14455.83984375,-400000.0625,-19845.060546875,-400000.0625,-14332.8203125,-400000.0625
191.6535358428955,-400000.0625,-11685.66015625,-14485.1201171875,-400000.0625,-19878.060546875,-400000.0625,-14361.4296875,-400000.0625
191.66274499893188,-400000.0625,-11720.23046875,-14514.1103515625,-400000.0625,-19905.5703125,-400000.0625,-14393.1396484375,-400000.0625
191.6700084209442,-400000.0625,-11716.75,-14513.73046875,-400000.0625,-19901.1796875,-400000.0625,-14384.4599609375,-400000.0625
191.69014692306519,-400000.0625,-11685.900390625,-14487.98046875,-400000.0625,-19881.490234375,-400000.0625,-14351.080078125,-400000.0625
191.69730949401855,-400000.0625,-11673.5,-14475.6298828125,-400000.0625,-19865.990234375,-400000.0625,-14338.01953125,-400000.0625
191.71173763275146,-400000.0625,-11710.1201171875,-14506.33984375,-400000.0625,-19884.2109375,-400000.0625,-14370.2998046875,-400000.0625
191.7200276851654,-400000.0625,-11740.16015625,-14534.08984375,-400000.0625,-19903.279296875,-400000.0625,-14396.4296875,-400000.0625
191.74180626869202,-400000.0625,-11740.5,-14529.6103515625,-400000.0625,-19893.169921875,-400000.0625,-14386.7998046875,-400000.0625
191.7535526752472,-400000.0625,-11704.259765625,-14494.75,-400000.0625,-19861.609375,-400000.0625,-14357.5703125,-400000.0625
191.76112484931946,-400000.0625,-11689.0400390625,-14484.41015625,-400000.0625,-19854.640625,-400000.0625,-14343.8798828125,-400000.0625
191.78977346420288,-400000.0625,-11724.5703125,-14516.259765625,-400000.0625,-19878.009765625,-400000.0625,-14374.4501953125,-400000.0625
191.8064889907837,-400000.0625,-11760.240234375,-14547.58984375,-400000.0625,-19911.529296875,-400000.0625,-14403.150390625,-400000.0625
191.81702709197998,-400000.0625,-11751.1298828125,-14540.8603515625,-400000.0625,-19908.91015625,-400000.0625,-14394.669921875,-400000.0625
191.82262134552002,-400000.0625,-11715.7998046875,-14509.2998046875,-400000.0625,-19880.73046875,-400000.0625,-14354.7998046875,-400000.0625
191.84444665908813,-400000.0625,-11709.01953125,-14500.0,-400000.0625,-19867.23046875,-400000.0625,-14343.7900390625,-400000.0625
191.85653162002563,-400000.0625,-11747.650390625,-14534.5703125,-400000.0625,-19887.55078125,-400000.0625,-14380.169921875,-400000.0625
191.8686192035675,-400000.0625,-11791.7998046875,-14575.2900390625,-400000.0625,-19912.8203125,-400000.0625,-14418.8896484375,-400000.0625
191.87946152687073,-400000.0625,-11787.23046875,-14566.1396484375,-400000.0625,-19896.83984375,-400000.0625,-14408.16015625,-400000.0625
191.89006304740906,-400000.0625,-11752.7001953125,-14536.8095703125,-400000.0625,-19864.900390625,-400000.0625,-14369.8203125,-400000.0625
191.89893555641174,-400000.0625,-11735.8203125,-14523.8896484375,-400000.0625,-19851.5390625,-400000.0625,-14355.759765625,-400000.0625
191.9039876461029,-400000.0625,-11768.76953125,-14552.6904296875,-400000.0625,-19883.869140625,-400000.0625,-14388.66015625,-400000.0625
191.9087631702423,-400000.0625,-11800.48046875,-14580.73046875,-400000.0625,-19916.390625,-400000.0625,-14420.7998046875,-400000.0625
191.90877270698547,-400000.0625,-11799.7197265625,-14573.76953125,-400000.0625,-19912.580078125,-400000.0625,-14410.4501953125,-400000.0625
191.90877747535706,-400000.0625,-11767.669921875,-14550.0703125,-400000.0625,-19880.5390625,-400000.0625,-14371.1103515625,-400000.0625
191.90878200531006,-400000.0625,-11751.7001953125,-14536.1396484375,-400000.0625,-19859.169921875,-400000.0625,-14357.66015625,-400000.0625
191.90878629684448,-400000.0625,-11787.6103515625,-14563.1298828125,-400000.0625,-19891.83984375,-400000.0625,-14389.7998046875,-400000.0625
191.9087905883789,-400000.0625,-11828.9501953125,-14599.6103515625,-400000.0625,-19930.080078125,-400000.0625,-14425.990234375,-400000.0625
191.90879464149475,-400000.0625,-11825.6103515625,-14595.26953125,-400000.0625,-19906.619140625,-400000.0625,-14418.5595703125,-400000.0625
191.90879917144775,-400000.0625,-11790.3203125,-14566.7099609375,-400000.0625,-19871.900390625,-400000.0625,-14381.080078125,-400000.0625
191.90880346298218,-400000.0625,-11773.6396484375,-14550.5,-400000.0625,-19856.55078125,-400000.0625,-14366.580078125,-400000.0625
191.90880703926086,-400000.0625,-11812.4501953125,-14581.25,-400000.0625,-19891.029296875,-400000.0625,-14398.76953125,-400000.0625
191.90881085395813,-400000.0625,-11847.7802734375,-14612.8701171875,-400000.0625,-19927.890625,-400000.0625,-14430.8603515625,-400000.0625
191.90881490707397,-400000.0625,-11844.919921875,-14612.0595703125,-400000.0625,-19923.58984375,-400000.0625,-14427.0,-400000.0625
191.90881896018982,-400000.0625,-11810.830078125,-14580.2001953125,-400000.0625,-19874.76953125,-400000.0625,-14392.8095703125,-400000.0625
191.90882349014282,-400000.0625,-11800.240234375,-14566.51953125,-400000.0625,-19854.830078125,-400000.0625,-14376.9296875,-400000.0625
191.9088273048401,-400000.0625,-11838.009765625,-14599.3701171875,-400000.0625,-19891.880859375,-400000.0625,-14403.6796875,-400000.0625
191.90883135795593,-400000.0625,-11869.0,-14626.7900390625,-400000.0625,-19925.0703125,-400000.0625,-14433.099609375,-400000.0625
191.9088351726532,-400000.0625,-11866.759765625,-14630.41015625,-400000.0625,-19926.41015625,-400000.0625,-14431.2900390625,-400000.0625
191.90883922576904,-400000.0625,-11839.009765625,-14608.7197265625,-400000.0625,-19897.220703125,-400000.0625,-14401.150390625,-400000.0625
191.9088430404663,-400000.0625,-11831.6201171875,-14600.1796875,-400000.0625,-19865.849609375,-400000.0625,-14385.1796875,-400000.0625
191.90884685516357,-400000.0625,-11867.6201171875,-14625.0703125,-400000.0625,-19889.640625,-400000.0625,-14413.740234375,-400000.0625
191.90885066986084,-400000.0625,-11897.3701171875,-14652.58984375,-400000.0625,-19922.5390625,-400000.0625,-14443.01953125,-400000.0625
191.90885639190674,-400000.0625,-11887.169921875,-14647.490234375,-400000.0625,-19924.01953125,-400000.0625,-14430.48046875,-400000.0625
191.90886044502258,-400000.0625,-11861.419921875,-14619.01953125,-400000.0625,-19902.900390625,-400000.0625,-14400.7197265625,-400000.0625
191.90886425971985,-400000.0625,-11847.259765625,-14604.759765625,-400000.0625,-19884.5390625,-400000.0625,-14388.849609375,-400000.0625
191.90886783599854,-400000.0625,-11880.58984375,-14632.080078125,-400000.0625,-19897.080078125,-400000.0625,-14422.0400390625,-400000.0625
191.90887188911438,-400000.0625,-11923.9296875,-14668.3203125,-400000.0625,-19925.9296875,-400000.0625,-14454.4599609375,-400000.0625
191.90887594223022,-400000.0625,-11914.1103515625,-14662.1201171875,-400000.0625,-19919.73046875,-400000.0625,-14445.400390625,-400000.0625
191.9088797569275,-400000.0625,-11877.1103515625,-14633.5595703125,-400000.0625,-19891.220703125,-400000.0625,-14413.169921875,-400000.0625
191.90888357162476,-400000.0625,-11870.4296875,-14616.919921875,-400000.0625,-19878.009765625,-400000.0625,-14394.3798828125,-400000.0625
191.9088876247406,-400000.0625,-11904.76953125,-14641.8603515625,-400000.0625,-19904.0390625,-400000.0625,-14421.66015625,-400000.0625
191.90889191627502,-400000.0625,-11939.240234375,-14674.7099609375,-400000.0625,-19928.9296875,-400000.0625,-14459.1298828125,-400000.0625
191.9088957309723,-400000.0625,-11941.8203125,-14681.2900390625,-400000.0625,-19930.3203125,-400000.0625,-14452.650390625,-400000.0625
191.90889978408813,-400000.0625,-11906.0498046875,-14646.48046875,-400000.0625,-19895.509765625,-400000.0625,-14416.599609375,-400000.0625
191.90890407562256,-400000.0625,-11885.3603515625,-14623.98046875,-400000.0625,-19876.150390625,-400000.0625,-14396.0498046875,-400000.0625
191.90890789031982,-400000.0625,-11917.3095703125,-14652.73046875,-400000.0625,-19920.5390625,-400000.0625,-14424.75,-400000.0625
191.90891218185425,-400000.0625,-11959.169921875,-14692.98046875,-400000.0625,-19947.19921875,-400000.0625,-14466.240234375,-400000.0625
191.9089162349701,-400000.0625,-11957.3603515625,-14687.16015625,-400000.0625,-19923.310546875,-400000.0625,-14457.6103515625,-400000.0625
191.90892004966736,-400000.0625,-11922.6904296875,-14659.0703125,-400000.0625,-19899.849609375,-400000.0625,-14421.1796875,-400000.0625
191.90892434120178,-400000.0625,-11911.6796875,-14646.48046875,-400000.0625,-19879.009765625,-400000.0625,-14411.58984375,-400000.0625
191.90892815589905,-400000.0625,-11948.5400390625,-14673.4296875,-400000.0625,-19899.990234375,-400000.0625,-14439.490234375,-400000.0625
191.9089322090149,-400000.0625,-11982.73046875,-14704.4697265625,-400000.0625,-19926.259765625,-400000.0625,-14471.2001953125,-400000.0625
191.90893602371216,-400000.0625,-11979.919921875,-14703.3203125,-400000.0625,-19931.990234375,-400000.0625,-14469.9599609375,-400000.0625
191.90893959999084,-400000.0625,-11948.6796875,-14667.7998046875,-400000.0625,-19897.990234375,-400000.0625,-14435.7197265625,-400000.0625
191.9089436531067,-400000.0625,-11925.0302734375,-14652.490234375,-400000.0625,-19889.259765625,-400000.0625,-14417.9404296875,-400000.0625
191.90894746780396,-400000.0625,-11962.509765625,-14682.150390625,-400000.0625,-19916.349609375,-400000.0625,-14448.5,-400000.0625
191.90895128250122,-400000.0625,-11996.509765625,-14710.8603515625,-400000.0625,-19937.609375,-400000.0625,-14478.6396484375,-400000.0625
191.90895533561707,-400000.0625,-11989.3603515625,-14711.5703125,-400000.0625,-19930.41015625,-400000.0625,-14466.3798828125,-400000.0625
191.9089596271515,-400000.0625,-11954.740234375,-14683.4404296875,-400000.0625,-19899.900390625,-400000.0625,-14430.669921875,-400000.0625
191.90896368026733,-400000.0625,-11936.8603515625,-14662.650390625,-400000.0625,-19887.779296875,-400000.0625,-14415.4599609375,-400000.0625
191.9089674949646,-400000.0625,-11954.6904296875,-14679.099609375,-400000.0625,-19913.150390625,-400000.0625,-14444.58984375,-400000.0625
191.90897154808044,-400000.0625,-11991.599609375,-14714.0498046875,-400000.0625,-19948.33984375,-400000.0625,-14472.9599609375,-400000.0625
191.9089753627777,-400000.0625,-11986.919921875,-14707.849609375,-400000.0625,-19942.91015625,-400000.0625,-14465.2900390625,-400000.0625
191.90897965431213,-400000.0625,-11944.5302734375,-14673.4296875,-400000.0625,-19903.279296875,-400000.0625,-14432.6201171875,-400000.0625
191.90898370742798,-400000.0625,-11943.6298828125,-14666.0302734375,-400000.0625,-19896.890625,-400000.0625,-14418.7900390625,-400000.0625
191.90898752212524,-400000.0625,-11973.330078125,-14691.0703125,-400000.0625,-19926.599609375,-400000.0625,-14446.830078125,-400000.0625
191.9089915752411,-400000.0625,-11997.0302734375,-14713.150390625,-400000.0625,-19949.060546875,-400000.0625,-14472.2998046875,-400000.0625
191.90899562835693,-400000.0625,-11999.3203125,-14712.0498046875,-400000.0625,-19940.66015625,-400000.0625,-14466.33984375,-400000.0625
191.9179084300995,-400000.0625,-11973.7197265625,-14692.5,-400000.0625,-19915.919921875,-400000.0625,-14438.33984375,-400000.0625
191.92395091056824,-400000.0625,-11965.08984375,-14682.009765625,-400000.0625,-19908.189453125,-400000.0625,-14427.51953125,-400000.0625
191.93426752090454,-400000.0625,-11989.9296875,-14700.26953125,-400000.0625,-19914.630859375,-400000.0625,-14448.1201171875,-400000.0625
191.9394109249115,-400000.0625,-12022.58984375,-14727.9296875,-400000.0625,-19941.669921875,-400000.0625,-14473.1103515625,-400000.0625
191.94508528709412,-400000.0625,-12013.8203125,-14718.73046875,-400000.0625,-19937.94921875,-400000.0625,-14464.669921875,-400000.0625
191.9499671459198,-400000.0625,-11988.5,-14695.83984375,-400000.0625,-19915.73046875,-400000.0625,-14438.1103515625,-400000.0625
191.94997692108154,-400000.0625,-11985.4501953125,-14690.5400390625,-400000.0625,-19896.80078125,-400000.0625,-14427.330078125,-400000.0625
191.9499819278717,-400000.0625,-12011.099609375,-14712.3798828125,-400000.0625,-19912.33984375,-400000.0625,-14446.0703125,-400000.0625
191.9499864578247,-400000.0625,-12038.900390625,-14736.83984375,-400000.0625,-19939.23046875,-400000.0625,-14472.5302734375,-400000.0625
191.94999074935913,-400000.0625,-12036.5595703125,-14730.1201171875,-400000.0625,-19933.3203125,-400000.0625,-14470.91015625,-400000.0625
191.94999480247498,-400000.0625,-12003.849609375,-14702.3203125,-400000.0625,-19904.4296875,-400000.0625,-14436.4404296875,-400000.0625
191.94999885559082,-400000.0625,-11990.9296875,-14689.490234375,-400000.0625,-19888.740234375,-400000.0625,-14420.080078125,-400000.0625
191.9500026702881,-400000.0625,-12018.25,-14713.099609375,-400000.0625,-19913.490234375,-400000.0625,-14439.5400390625,-400000.0625
191.9500069618225,-400000.0625,-12048.76953125,-14738.900390625,-400000.0625,-19947.8203125,-400000.0625,-14465.3798828125,-400000.0625
191.95001101493835,-400000.0625,-12046.0498046875,-14733.98046875,-400000.0625,-19949.33984375,-400000.0625,-14456.509765625,-400000.0625
191.95001482963562,-400000.0625,-12018.830078125,-14707.900390625,-400000.0625,-19911.009765625,-400000.0625,-14426.8095703125,-400000.0625
191.95001864433289,-400000.0625,-12013.5302734375,-14700.650390625,-400000.0625,-19895.599609375,-400000.0625,-14418.7001953125,-400000.0625
191.95002269744873,-400000.0625,-12042.669921875,-14726.6904296875,-400000.0625,-19913.150390625,-400000.0625,-14448.01953125,-400000.0625
191.95002698898315,-400000.0625,-12064.8896484375,-14742.8095703125,-400000.0625,-19929.7890625,-400000.0625,-14466.7197265625,-400000.0625
191.950031042099,-400000.0625,-12063.5498046875,-14739.1796875,-400000.0625,-19925.359375,-400000.0625,-14460.6103515625,-400000.0625
191.95003509521484,-400000.0625,-12040.7099609375,-14719.2001953125,-400000.0625,-19903.279296875,-400000.0625,-14431.1904296875,-400000.0625
191.95003867149353,-400000.0625,-12034.26953125,-14708.8095703125,-400000.0625,-19893.359375,-400000.0625,-14423.990234375,-400000.0625
191.95004439353943,-400000.0625,-12060.259765625,-14729.1201171875,-400000.0625,-19913.390625,-400000.0625,-14445.6396484375,-400000.0625
191.95004844665527,-400000.0625,-12087.0595703125,-14754.3896484375,-400000.0625,-19933.66015625,-400000.0625,-14468.8095703125,-400000.0625
191.95005249977112,-400000.0625,-12091.349609375,-14754.6298828125,-400000.0625,-19934.939453125,-400000.0625,-14462.8095703125,-400000.0625
191.95005631446838,-400000.0625,-12064.1201171875,-14728.740234375,-400000.0625,-19914.33984375,-400000.0625,-14432.1904296875,-400000.0625
191.95006012916565,-400000.0625,-12054.8701171875,-14718.0595703125,-400000.0625,-19901.51953125,-400000.0625,-14422.849609375,-400000.0625
191.95006370544434,-400000.0625,-12079.1396484375,-14738.3701171875,-400000.0625,-19922.830078125,-400000.0625,-14452.8896484375,-400000.0625
191.9500675201416,-400000.0625,-12107.23046875,-14760.6396484375,-400000.0625,-19936.990234375,-400000.0625,-14478.5400390625,-400000.0625
191.95007157325745,-400000.0625,-12106.3701171875,-14759.0703125,-400000.0625,-19924.830078125,-400000.0625,-14466.669921875,-400000.0625
191.95007514953613,-400000.0625,-12080.2900390625,-14734.1298828125,-400000.0625,-19907.759765625,-400000.0625,-14438.6796875,-400000.0625
191.9500789642334,-400000.0625,-12074.2802734375,-14723.58984375,-400000.0625,-19894.359375,-400000.0625,-14426.3798828125,-400000.0625
191.95008325576782,-400000.0625,-12091.830078125,-14739.9404296875,-400000.0625,-19904.7109375,-400000.0625,-14442.830078125,-400000.0625
191.9500870704651,-400000.0625,-12117.33984375,-14761.5,-400000.0625,-19925.7890625,-400000.0625,-14468.76953125,-400000.0625
191.95009088516235,-400000.0625,-12122.73046875,-14765.3095703125,-400000.0625,-19924.0703125,-400000.0625,-14467.6201171875,-400000.0625
191.95009469985962,-400000.0625,-12098.26953125,-14747.1904296875,-400000.0625,-19903.380859375,-400000.0625,-14443.830078125,-400000.0625
191.95620894432068,-400000.0625,-12092.0703125,-14737.9404296875,-400000.0625,-19895.4609375,-400000.0625,-14431.5703125,-400000.0625
191.96128296852112,-400000.0625,-12117.009765625,-14750.099609375,-400000.0625,-19911.630859375,-400000.0625,-14445.1201171875,-400000.0625
191.96702933311462,-400000.0625,-12129.259765625,-14764.6904296875,-400000.0625,-19923.98046875,-400000.0625,-14466.9599609375,-400000.0625
191.97244095802307,-400000.0625,-12134.26953125,-14768.0302734375,-400000.0625,-19930.560546875,-400000.0625,-14462.08984375,-400000.0625
191.9775207042694,-400000.0625,-12115.099609375,-14749.8095703125,-400000.0625,-19916.349609375,-400000.0625,-14440.7802734375,-400000.0625
191.98246240615845,-400000.0625,-12102.4599609375,-14739.7099609375,-400000.0625,-19904.5703125,-400000.0625,-14427.5703125,-400000.0625
191.98247265815735,-400000.0625,-12116.3896484375,-14751.8203125,-400000.0625,-19916.25,-400000.0625,-14437.6796875,-400000.0625
191.9824779033661,-400000.0625,-12147.8603515625,-14777.51953125,-400000.0625,-19927.310546875,-400000.0625,-14464.4296875,-400000.0625
191.9824824333191,-400000.0625,-12155.8203125,-14779.759765625,-400000.0625,-19921.2109375,-400000.0625,-14466.7197265625,-400000.0625
191.9824869632721,-400000.0625,-12139.419921875,-14762.2099609375,-400000.0625,-19909.189453125,-400000.0625,-14443.259765625,-400000.0625
191.9824914932251,-400000.0625,-12126.73046875,-14753.2998046875,-400000.0625,-19903.51953125,-400000.0625,-14434.91015625,-400000.0625
191.98249626159668,-400000.0625,-12144.8095703125,-14770.8896484375,-400000.0625,-19917.009765625,-400000.0625,-14454.9404296875,-400000.0625
191.98250079154968,-400000.0625,-12176.5595703125,-14794.2998046875,-400000.0625,-19931.3203125,-400000.0625,-14478.8798828125,-400000.0625
191.98250460624695,-400000.0625,-12168.83984375,-14786.2001953125,-400000.0625,-19919.2109375,-400000.0625,-14469.7197265625,-400000.0625
191.9825086593628,-400000.0625,-12140.7998046875,-14757.830078125,-400000.0625,-19900.609375,-400000.0625,-14436.33984375,-400000.0625
191.98251271247864,-400000.0625,-12136.5595703125,-14754.0595703125,-400000.0625,-19893.98046875,-400000.0625,-14426.8095703125,-400000.0625
191.98251676559448,-400000.0625,-12160.16015625,-14776.849609375,-400000.0625,-19911.720703125,-400000.0625,-14452.26953125,-400000.0625
191.98252058029175,-400000.0625,-12182.6201171875,-14794.6904296875,-400000.0625,-19936.279296875,-400000.0625,-14474.9697265625,-400000.0625
191.982524394989,-400000.0625,-12182.51953125,-14790.73046875,-400000.0625,-19928.740234375,-400000.0625,-14471.5302734375,-400000.0625
191.98252868652344,-400000.0625,-12162.01953125,-14771.650390625,-400000.0625,-19899.560546875,-400000.0625,-14449.2197265625,-400000.0625
191.98745131492615,-400000.0625,-12154.009765625,-14762.5,-400000.0625,-19894.599609375,-400000.0625,-14434.150390625,-400000.0625
191.98746180534363,-400000.0625,-12175.1298828125,-14781.4296875,-400000.0625,-19915.869140625,-400000.0625,-14453.080078125,-400000.0625
191.98746752738953,-400000.0625,-12203.5498046875,-14805.26953125,-400000.0625,-19934.3203125,-400000.0625,-14484.3095703125,-400000.0625
191.98747181892395,-400000.0625,-12200.4501953125,-14799.9296875,-400000.0625,-19924.119140625,-400000.0625,-14475.490234375,-400000.0625
191.98747611045837,-400000.0625,-12174.1298828125,-14773.7001953125,-400000.0625,-19895.75,-400000.0625,-14446.6396484375,-400000.0625
191.98748087882996,-400000.0625,-12166.5,-14765.650390625,-400000.0625,-19886.779296875,-400000.0625,-14435.580078125,-400000.0625
191.98748588562012,-400000.0625,-12194.73046875,-14791.5400390625,-400000.0625,-19906.240234375,-400000.0625,-14454.9404296875,-400000.0625
191.98749017715454,-400000.0625,-12222.9599609375,-14815.2802734375,-400000.0625,-19930.029296875,-400000.0625,-14484.0302734375,-400000.0625
191.98749661445618,-400000.0625,-12223.91015625,-14812.419921875,-400000.0625,-19924.98046875,-400000.0625,-14482.3095703125,-400000.0625
191.98750066757202,-400000.0625,-12197.9697265625,-14790.3896484375,-400000.0625,-19902.23046875,-400000.0625,-14451.740234375,-400000.0625
191.98750472068787,-400000.0625,-12184.2900390625,-14777.7099609375,-400000.0625,-19888.259765625,-400000.0625,-14436.150390625,-400000.0625
191.9875087738037,-400000.0625,-12214.08984375,-14799.6904296875,-400000.0625,-19905.7109375,-400000.0625,-14458.2802734375,-400000.0625
191.98751258850098,-400000.0625,-12248.7099609375,-14826.73046875,-400000.0625,-19929.509765625,-400000.0625,-14485.41015625,-400000.0625
191.98751711845398,-400000.0625,-12238.3603515625,-14817.330078125,-400000.0625,-19925.5,-400000.0625,-14477.2099609375,-400000.0625
191.98752117156982,-400000.0625,-12206.9404296875,-14788.7197265625,-400000.0625,-19901.7109375,-400000.0625,-14444.6904296875,-400000.0625
191.98752522468567,-400000.0625,-12192.6796875,-14776.900390625,-400000.0625,-19887.779296875,-400000.0625,-14425.9501953125,-400000.0625
191.9875292778015,-400000.0625,-12223.580078125,-14799.259765625,-400000.0625,-19904.66015625,-400000.0625,-14454.41015625,-400000.0625
191.99235033988953,-400000.0625,-12261.6796875,-14829.58984375,-400000.0625,-19924.169921875,-400000.0625,-14493.509765625,-400000.0625
191.99236035346985,-400000.0625,-12265.9697265625,-14833.740234375,-400000.0625,-19923.16015625,-400000.0625,-14491.9404296875,-400000.0625
191.99236536026,-400000.0625,-12232.349609375,-14802.41015625,-400000.0625,-19897.890625,-400000.0625,-14449.0703125,-400000.0625
191.99236941337585,-400000.0625,-12215.330078125,-14787.8701171875,-400000.0625,-19881.869140625,-400000.0625,-14433.240234375,-400000.0625
191.99237370491028,-400000.0625,-12240.2197265625,-14809.900390625,-400000.0625,-19896.80078125,-400000.0625,-14459.419921875,-400000.0625
191.99237775802612,-400000.0625,-12277.599609375,-14838.4599609375,-400000.0625,-19929.359375,-400000.0625,-14490.7998046875,-400000.0625
