time,ch1,ch2,ch3,ch4,ch5,ch6,ch7,ch8
0.03262209892272949,9278.6796875,11845.490234375,12433.580078125,-400000.0625,-400000.0625,-400000.0625,-400000.0625,-83870.8515625
0.11815547943115234,9429.740234375,11954.4501953125,12574.33984375,-400000.0625,-400000.0625,-400000.0625,-400000.0625,-82499.9921875
0.18634033203125,9535.7001953125,12050.9599609375,12670.23046875,-400000.0625,-400000.0625,-400000.0625,-400000.0625,-82144.890625
0.21264386177062988,9633.490234375,12100.1298828125,12738.1298828125,-400000.0625,-400000.0625,-400000.0625,-400000.0625,-81200.3203125
0.23492765426635742,9703.2998046875,12181.0,12804.650390625,-400000.0625,-400000.0625,-400000.0625,-400000.0625,-80654.5390625
0.2509446144104004,9762.0,12271.9296875,12884.330078125,-400000.0625,-400000.0625,-400000.0625,-400000.0625,-81337.2734375
0.28009033203125,9820.2197265625,12306.6396484375,12946.990234375,-400000.0625,-400000.0625,-400000.0625,-400000.0625,-81159.7421875
0.3165109157562256,9918.01953125,12324.8603515625,12974.650390625,-400000.0625,-400000.0625,-400000.0625,-400000.0625,-79056.21875
0.3594634532928467,10012.33984375,12402.8701171875,13034.0595703125,-400000.0625,-400000.0625,-400000.0625,-400000.0625,-77605.6875
0.3792550563812256,10040.08984375,12472.919921875,13100.76953125,-400000.0625,-400000.0625,-400000.0625,-400000.0625,-75030.90625
0.41263699531555176,9986.4501953125,12451.9404296875,13078.830078125,-400000.0625,-400000.0625,-400000.0625,-400000.0625,-68520.6484375
0.4362351894378662,9872.6298828125,12322.0498046875,12948.08984375,-400000.0625,-400000.0625,-400000.0625,-400000.0625,-51545.62890625
0.4614071846008301,9872.6796875,12293.0498046875,12905.26953125,-400000.0625,-400000.0625,-400000.0625,-400000.0625,-34087.28125
0.4790360927581787,9904.580078125,12324.9501953125,12941.0302734375,-400000.0625,-400000.0625,-400000.0625,-400000.0625,-21065.2890625
0.49938297271728516,9980.25,12396.6201171875,13020.4697265625,-400000.0625,-400000.0625,-400000.0625,-400000.0625,-14169.41015625
0.5165421962738037,10069.990234375,12495.330078125,13103.4404296875,-400000.0625,-400000.0625,-400000.0625,-400000.0625,-11941.9599609375
0.5425753593444824,10150.3896484375,12576.2001953125,13188.7001953125,-400000.0625,-400000.0625,-400000.0625,-400000.0625,-11853.7900390625
0.5663738250732422,10250.0498046875,12615.009765625,13234.51953125,-400000.0625,-400000.0625,-400000.0625,-400000.0625,-12588.9296875
0.5834918022155762,10280.66015625,12613.2001953125,13262.4599609375,-400000.0625,-400000.0625,-400000.0625,-400000.0625,-13175.349609375
0.601815938949585,10291.76953125,12629.650390625,13298.1796875,-400000.0625,-400000.0625,-400000.0625,-400000.0625,-13116.650390625
0.6305246353149414,10351.4697265625,12689.01953125,13347.099609375,-400000.0625,-400000.0625,-400000.0625,-400000.0625,-12486.599609375
0.6648755073547363,10429.7197265625,12731.740234375,13422.009765625,-400000.0625,-400000.0625,-400000.0625,-400000.0625,-11811.830078125
0.6913917064666748,10553.650390625,12807.2802734375,13490.009765625,-400000.0625,-400000.0625,-400000.0625,-400000.0625,-11523.5302734375
0.7084472179412842,10621.98046875,12791.830078125,13505.83984375,-400000.0625,-400000.0625,-400000.0625,-400000.0625,-11440.1796875
0.7263166904449463,10644.6298828125,12825.2001953125,13516.0,-400000.0625,-400000.0625,-400000.0625,-400000.0625,-10655.1201171875
0.74617600440979,10713.8203125,12871.7001953125,13586.4296875,-400000.0625,-400000.0625,-400000.0625,-400000.0625,-10183.240234375
0.7623710632324219,10759.6396484375,12892.33984375,13614.1298828125,-400000.0625,-400000.0625,-400000.0625,-400000.0625,-10148.2900390625
0.783538818359375,10811.0400390625,12917.51953125,13620.0400390625,-400000.0625,-400000.0625,-400000.0625,-400000.0625,-10262.0595703125
0.8163912296295166,10834.83984375,12891.7197265625,13619.759765625,-400000.0625,-400000.0625,-400000.0625,-400000.0625,-10142.23046875
0.8316514492034912,10862.2099609375,12877.23046875,13612.4599609375,-400000.0625,-400000.0625,-400000.0625,-400000.0625,-9929.7099609375
0.8468420505523682,10882.240234375,12896.25,13618.9501953125,-400000.0625,-400000.0625,-400000.0625,-400000.0625,-9835.0498046875
0.8605556488037109,10871.3203125,12865.6396484375,13607.9296875,-400000.0625,-400000.0625,-400000.0625,-400000.0625,-9829.9501953125
0.8767554759979248,10861.8701171875,12829.2099609375,13545.66015625,-400000.0625,-400000.0625,-400000.0625,-400000.0625,-9837.2001953125
0.8947999477386475,10805.7001953125,12758.830078125,13472.75,-400000.0625,-400000.0625,-400000.0625,-400000.0625,-9832.7197265625
0.9065814018249512,10757.1103515625,12717.9599609375,13415.6201171875,-400000.0625,-400000.0625,-400000.0625,-400000.0625,-9829.900390625
0.9170222282409668,10707.8095703125,12655.0703125,13346.9599609375,-400000.0625,-400000.0625,-400000.0625,-400000.0625,-9760.1396484375
0.9376139640808105,10624.7900390625,12559.9404296875,13245.8203125,-400000.0625,-400000.0625,-400000.0625,-400000.0625,-9801.25
0.9520318508148193,10570.7197265625,12475.4404296875,13117.5498046875,-400000.0625,-400000.0625,-400000.0625,-400000.0625,-9907.150390625
0.9624786376953125,10484.080078125,12349.1298828125,12996.2900390625,-400000.0625,-400000.0625,-400000.0625,-400000.0625,-10007.4296875
0.9837465286254883,10407.0703125,12265.830078125,12900.2099609375,-400000.0625,-400000.0625,-400000.0625,-400000.0625,-10092.0703125
0.9978945255279541,10323.3798828125,12179.5703125,12808.4697265625,-400000.0625,-400000.0625,-400000.0625,-400000.0625,-10171.509765625
1.0145318508148193,10211.6103515625,12065.080078125,12711.240234375,-400000.0625,-400000.0625,-400000.0625,-400000.0625,-10277.2197265625
1.0324640274047852,10157.2998046875,11983.0595703125,12606.33984375,-400000.0625,-400000.0625,-400000.0625,-400000.0625,-10379.599609375
1.043626308441162,10061.26953125,11869.099609375,12485.7001953125,-400000.0625,-400000.0625,-400000.0625,-400000.0625,-10489.26953125
1.057889461517334,9952.9296875,11779.6904296875,12387.75,-400000.0625,-400000.0625,-400000.0625,-400000.0625,-10590.41015625
1.074946403503418,9839.8203125,11739.5400390625,12340.740234375,-400000.0625,-400000.0625,-400000.0625,-400000.0625,-10660.98046875
1.085568904876709,9807.25,11709.5498046875,12317.849609375,-400000.0625,-400000.0625,-400000.0625,-400000.0625,-10699.6103515625
1.0954232215881348,9895.51953125,11743.8798828125,12354.330078125,-400000.0625,-400000.0625,-400000.0625,-400000.0625,-10675.9599609375
1.1088345050811768,9986.0703125,11847.5,12455.3701171875,-400000.0625,-400000.0625,-400000.0625,-400000.0625,-10580.490234375
1.1180229187011719,10019.9697265625,11907.2900390625,12522.080078125,-400000.0625,-400000.0625,-400000.0625,-400000.0625,-10543.2001953125
1.1350317001342773,9936.330078125,11857.8896484375,12495.900390625,-400000.0625,-400000.0625,-400000.0625,-400000.0625,-10595.900390625
1.1493356227874756,9871.669921875,11789.0400390625,12428.4296875,-400000.0625,-400000.0625,-400000.0625,-400000.0625,-10682.580078125
1.1635019779205322,9846.0703125,11761.3798828125,12383.4599609375,-400000.0625,-400000.0625,-400000.0625,-400000.0625,-10747.33984375
1.176947832107544,9770.16015625,11704.400390625,12317.330078125,-400000.0625,-400000.0625,-400000.0625,-400000.0625,-10814.1396484375
1.1930882930755615,9694.240234375,11654.330078125,12259.580078125,-400000.0625,-400000.0625,-400000.0625,-400000.0625,-10879.7998046875
1.207481861114502,9586.7197265625,11591.150390625,12179.1904296875,-400000.0625,-400000.0625,-400000.0625,-400000.0625,-10946.7001953125
1.229405403137207,9524.919921875,11532.1201171875,12097.0302734375,-400000.0625,-400000.0625,-400000.0625,-400000.0625,-11029.580078125
1.244710922241211,9517.0498046875,11481.240234375,12050.580078125,-400000.0625,-400000.0625,-400000.0625,-400000.0625,-11091.1396484375
1.2644715309143066,9485.2001953125,11423.8798828125,11978.8203125,-400000.0625,-400000.0625,-400000.0625,-400000.0625,-11150.169921875
1.2840328216552734,9470.8896484375,11414.669921875,11947.58984375,-400000.0625,-400000.0625,-400000.0625,-400000.0625,-11168.33984375
1.3017475605010986,9479.240234375,11445.240234375,11954.6396484375,-400000.0625,-400000.0625,-400000.0625,-400000.0625,-11161.1396484375
1.3257548809051514,9505.6103515625,11440.7099609375,11946.9697265625,-400000.0625,-400000.0625,-400000.0625,-400000.0625,-11168.91015625
1.341524362564087,9511.66015625,11413.0498046875,11915.6396484375,-400000.0625,-400000.0625,-400000.0625,-400000.0625,-11190.26953125
1.3590259552001953,9497.830078125,11388.919921875,11883.5498046875,-400000.0625,-400000.0625,-400000.0625,-400000.0625,-11218.83984375
1.3755817413330078,9471.1298828125,11372.51953125,11866.0498046875,-400000.0625,-400000.0625,-400000.0625,-400000.0625,-11246.919921875
1.3933980464935303,9416.490234375,11344.580078125,11826.990234375,-400000.0625,-400000.0625,-400000.0625,-400000.0625,-11286.9296875
1.4100072383880615,9389.5400390625,11325.0703125,11798.5302734375,-400000.0625,-400000.0625,-400000.0625,-400000.0625,-11313.490234375
1.4332396984100342,9472.6103515625,11360.1201171875,11826.419921875,-400000.0625,-400000.0625,-400000.0625,-400000.0625,-11280.009765625
1.452033281326294,9555.76953125,11449.2900390625,11898.900390625,-400000.0625,-400000.0625,-400000.0625,-400000.0625,-11208.150390625
1.4692234992980957,9571.2197265625,11489.5400390625,11943.0595703125,-400000.0625,-400000.0625,-400000.0625,-400000.0625,-11165.4296875
1.4903552532196045,9565.5,11528.0595703125,11957.8896484375,-400000.0625,-400000.0625,-400000.0625,-400000.0625,-11153.26953125
1.5115666389465332,9576.5595703125,11558.099609375,11972.8603515625,-400000.0625,-400000.0625,-400000.0625,-400000.0625,-11145.400390625
1.5314209461212158,9612.4697265625,11575.1796875,11996.8896484375,-400000.0625,-400000.0625,-400000.0625,-400000.0625,-11145.4501953125
1.5470848083496094,9638.599609375,11602.259765625,12018.1103515625,-400000.0625,-400000.0625,-400000.0625,-400000.0625,-11130.48046875
1.5618667602539062,9641.2197265625,11629.6796875,12034.509765625,-400000.0625,-400000.0625,-400000.0625,-400000.0625,-11104.4404296875
1.5842716693878174,9649.2802734375,11660.2900390625,12038.2802734375,-400000.0625,-400000.0625,-400000.0625,-400000.0625,-11093.3798828125
1.6043751239776611,9665.6298828125,11678.080078125,12044.099609375,-400000.0625,-400000.0625,-400000.0625,-400000.0625,-11107.0595703125
1.6283442974090576,9645.5595703125,11630.2001953125,12003.7099609375,-400000.0625,-400000.0625,-400000.0625,-400000.0625,-11151.3603515625
1.6442511081695557,9626.33984375,11593.6298828125,11960.26953125,-400000.0625,-400000.0625,-400000.0625,-400000.0625,-11199.2802734375
1.6610970497131348,9549.759765625,11562.16015625,11935.8603515625,-400000.0625,-400000.0625,-400000.0625,-400000.0625,-11230.6103515625
1.6827070713043213,9496.6396484375,11577.080078125,11960.650390625,-400000.0625,-400000.0625,-400000.0625,-400000.0625,-11233.759765625
1.7024521827697754,9500.41015625,11590.6298828125,11987.5,-400000.0625,-400000.0625,-400000.0625,-400000.0625,-11236.6201171875
1.7177767753601074,9493.259765625,11587.5302734375,12011.6201171875,-400000.0625,-400000.0625,-400000.0625,-400000.0625,-11241.009765625
1.7362825870513916,9484.009765625,11614.75,12036.2802734375,-400000.0625,-400000.0625,-400000.0625,-400000.0625,-11236.6201171875
1.7504031658172607,9445.0,11649.3203125,12069.26953125,-400000.0625,-400000.0625,-400000.0625,-400000.0625,-11221.4599609375
1.764859914779663,9417.25,11671.830078125,12095.830078125,-400000.0625,-400000.0625,-400000.0625,-400000.0625,-11209.7802734375
1.793086051940918,9427.9296875,11696.8603515625,12127.830078125,-400000.0625,-400000.0625,-400000.0625,-400000.0625,-11206.490234375
1.8102095127105713,9463.599609375,11714.7001953125,12142.0400390625,-400000.0625,-400000.0625,-400000.0625,-400000.0625,-11203.4296875
1.8308641910552979,9523.2998046875,11755.3701171875,12185.33984375,-400000.0625,-400000.0625,-400000.0625,-400000.0625,-11159.419921875
1.8486897945404053,9560.919921875,11801.8603515625,12244.5595703125,-400000.0625,-400000.0625,-400000.0625,-400000.0625,-11108.830078125
1.8651692867279053,9576.990234375,11848.8798828125,12282.5595703125,-400000.0625,-400000.0625,-400000.0625,-400000.0625,-11075.0703125
1.8832347393035889,9587.7197265625,11872.7197265625,12290.6201171875,-400000.0625,-400000.0625,-400000.0625,-400000.0625,-11068.919921875
1.9019057750701904,9588.150390625,11878.0595703125,12291.6201171875,-400000.0625,-400000.0625,-400000.0625,-400000.0625,-11084.2197265625
1.925511360168457,9566.5,11859.7998046875,12280.8896484375,-400000.0625,-400000.0625,-400000.0625,-400000.0625,-11096.4296875
1.9406368732452393,9569.5498046875,11853.41015625,12278.7998046875,-400000.0625,-400000.0625,-400000.0625,-400000.0625,-11092.8095703125
1.953434705734253,9588.0498046875,11886.740234375,12314.509765625,-400000.0625,-400000.0625,-400000.0625,-400000.0625,-11060.099609375
1.9666037559509277,9626.4404296875,11922.98046875,12347.080078125,-400000.0625,-400000.0625,-400000.0625,-400000.0625,-11023.900390625
1.9808838367462158,9698.5400390625,11972.1396484375,12389.08984375,-400000.0625,-400000.0625,-400000.0625,-400000.0625,-10984.23046875
1.9984362125396729,9752.5595703125,12053.8701171875,12453.990234375,-400000.0625,-400000.0625,-400000.0625,-400000.0625,-10928.009765625
2.0178334712982178,9781.26953125,12127.349609375,12523.7998046875,-400000.0625,-400000.0625,-400000.0625,-400000.0625,-10854.0498046875
2.037937879562378,9831.0498046875,12187.48046875,12585.6904296875,-400000.0625,-400000.0625,-400000.0625,-400000.0625,-10784.9599609375
2.052431344985962,9908.3896484375,12264.58984375,12660.26953125,-400000.0625,-400000.0625,-400000.0625,-400000.0625,-10712.099609375
2.0681564807891846,9986.400390625,12339.400390625,12736.6103515625,-400000.0625,-400000.0625,-400000.0625,-400000.0625,-10633.5703125
2.0851492881774902,10092.5498046875,12430.8095703125,12824.009765625,-400000.0625,-400000.0625,-400000.0625,-400000.0625,-10539.8203125
2.0970752239227295,10158.73046875,12520.740234375,12902.400390625,-400000.0625,-400000.0625,-400000.0625,-400000.0625,-10454.990234375
2.114772081375122,10149.3798828125,12538.9599609375,12926.6796875,-400000.0625,-400000.0625,-400000.0625,-400000.0625,-10430.150390625
2.138920545578003,10130.41015625,12519.3095703125,12905.7900390625,-400000.0625,-400000.0625,-400000.0625,-400000.0625,-10451.990234375
2.1559832096099854,10130.3603515625,12518.83984375,12885.8603515625,-400000.0625,-400000.0625,-400000.0625,-400000.0625,-10471.8701171875
2.1716370582580566,10131.0302734375,12506.2998046875,12867.400390625,-400000.0625,-400000.0625,-400000.0625,-400000.0625,-10476.16015625
2.1859960556030273,10109.9501953125,12513.0703125,12854.240234375,-400000.0625,-400000.0625,-400000.0625,-400000.0625,-10479.1201171875
2.206568479537964,10095.98046875,12512.1103515625,12850.0,-400000.0625,-400000.0625,-400000.0625,-400000.0625,-10484.26953125
2.229538917541504,10075.2802734375,12504.5302734375,12836.7001953125,-400000.0625,-400000.0625,-400000.0625,-400000.0625,-10503.150390625
2.2471024990081787,10064.1298828125,12460.759765625,12798.169921875,-400000.0625,-400000.0625,-400000.0625,-400000.0625,-10542.2001953125
2.264233112335205,10025.4501953125,12412.98046875,12748.580078125,-400000.0625,-400000.0625,-400000.0625,-400000.0625,-10586.5498046875
2.2797279357910156,9987.5498046875,12385.7998046875,12712.6201171875,-400000.0625,-400000.0625,-400000.0625,-400000.0625,-10612.6796875
2.2966384887695312,9949.259765625,12368.6298828125,12680.009765625,-400000.0625,-400000.0625,-400000.0625,-400000.0625,-10631.08984375
2.315483570098877,9931.1396484375,12366.5302734375,12657.41015625,-400000.0625,-400000.0625,-400000.0625,-400000.0625,-10642.76953125
2.337057590484619,9901.48046875,12306.740234375,12600.6103515625,-400000.0625,-400000.0625,-400000.0625,-400000.0625,-10695.8896484375
2.351473093032837,9817.98046875,12177.849609375,12507.76953125,-400000.0625,-400000.0625,-400000.0625,-400000.0625,-10781.099609375
2.369999408721924,9757.23046875,12207.9404296875,12517.5,-400000.0625,-400000.0625,-400000.0625,-400000.0625,-10790.1103515625
2.3848559856414795,9756.900390625,12262.490234375,12548.6904296875,-400000.0625,-400000.0625,-400000.0625,-400000.0625,-10766.4599609375
2.3986823558807373,9743.5,12280.26953125,12552.7900390625,-400000.0625,-400000.0625,-400000.0625,-400000.0625,-10775.9501953125
2.4159538745880127,9696.6298828125,12236.41015625,12524.7998046875,-400000.0625,-400000.0625,-400000.0625,-400000.0625,-10804.7998046875
2.4424121379852295,9651.419921875,12192.5400390625,12490.509765625,-400000.0625,-400000.0625,-400000.0625,-400000.0625,-10835.740234375
2.4592432975769043,9595.4404296875,12192.9697265625,12485.169921875,-400000.0625,-400000.0625,-400000.0625,-400000.0625,-10846.330078125
2.4723851680755615,9538.4599609375,12213.5703125,12480.3603515625,-400000.0625,-400000.0625,-400000.0625,-400000.0625,-10869.1201171875
2.4827539920806885,9491.8701171875,12193.490234375,12458.9501953125,-400000.0625,-400000.0625,-400000.0625,-400000.0625,-10901.8798828125
2.501946449279785,9422.490234375,12133.7900390625,12416.8896484375,-400000.0625,-400000.0625,-400000.0625,-400000.0625,-10951.4697265625
2.5307042598724365,9386.2998046875,12142.900390625,12409.5498046875,-400000.0625,-400000.0625,-400000.0625,-400000.0625,-10973.5
2.5459468364715576,9368.23046875,12178.6103515625,12428.669921875,-400000.0625,-400000.0625,-400000.0625,-400000.0625,-10957.33984375
2.5602803230285645,9348.16015625,12196.4501953125,12460.330078125,-400000.0625,-400000.0625,-400000.0625,-400000.0625,-10929.6796875
2.5766518115997314,9373.3798828125,12240.1298828125,12499.51953125,-400000.0625,-400000.0625,-400000.0625,-400000.0625,-10905.9296875
2.593679189682007,9380.8701171875,12247.6103515625,12515.740234375,-400000.0625,-400000.0625,-400000.0625,-400000.0625,-10902.259765625
2.6076393127441406,9385.25,12261.8203125,12535.669921875,-400000.0625,-400000.0625,-400000.0625,-400000.0625,-10891.5302734375
2.631683826446533,9412.9599609375,12308.8896484375,12582.6396484375,-400000.0625,-400000.0625,-400000.0625,-400000.0625,-10847.6201171875
2.650571823120117,9465.3095703125,12374.349609375,12648.25,-400000.0625,-400000.0625,-400000.0625,-400000.0625,-10787.919921875
2.6628973484039307,9532.41015625,12418.8896484375,12689.6904296875,-400000.0625,-400000.0625,-400000.0625,-400000.0625,-10751.2001953125
2.677194118499756,9576.080078125,12456.2802734375,12712.8095703125,-400000.0625,-400000.0625,-400000.0625,-400000.0625,-10731.75
2.6911914348602295,9582.8095703125,12457.1796875,12709.5703125,-400000.0625,-400000.0625,-400000.0625,-400000.0625,-10741.66015625
2.710278272628784,9566.98046875,12451.7900390625,12701.23046875,-400000.0625,-400000.0625,-400000.0625,-400000.0625,-10746.76953125
2.7289717197418213,9574.3701171875,12452.75,12697.98046875,-400000.0625,-400000.0625,-400000.0625,-400000.0625,-10739.0400390625
2.745666265487671,9578.5595703125,12444.16015625,12697.599609375,-400000.0625,-400000.0625,-400000.0625,-400000.0625,-10750.7197265625
2.761624574661255,9554.580078125,12410.8798828125,12652.349609375,-400000.0625,-400000.0625,-400000.0625,-400000.0625,-10789.490234375
2.7783570289611816,9529.2099609375,12373.1201171875,12603.5703125,-400000.0625,-400000.0625,-400000.0625,-400000.0625,-10832.3603515625
2.7959330081939697,9498.650390625,12350.509765625,12571.76953125,-400000.0625,-400000.0625,-400000.0625,-400000.0625,-10853.9599609375
2.8138887882232666,9490.919921875,12342.98046875,12559.4599609375,-400000.0625,-400000.0625,-400000.0625,-400000.0625,-10858.8701171875
2.8353912830352783,9474.330078125,12329.8701171875,12550.830078125,-400000.0625,-400000.0625,-400000.0625,-400000.0625,-10882.7099609375
2.849543571472168,9464.6904296875,12300.6396484375,12512.1103515625,-400000.0625,-400000.0625,-400000.0625,-400000.0625,-10922.1904296875
2.865895986557007,9438.4697265625,12261.3896484375,12462.08984375,-400000.0625,-400000.0625,-400000.0625,-400000.0625,-10961.3896484375
2.881591558456421,9393.4501953125,12213.759765625,12418.4599609375,-400000.0625,-400000.0625,-400000.0625,-400000.0625,-11000.349609375
2.8989455699920654,9333.9501953125,12165.4501953125,12370.2099609375,-400000.0625,-400000.0625,-400000.0625,-400000.0625,-11047.4599609375
2.9176440238952637,9289.080078125,12129.58984375,12331.5302734375,-400000.0625,-400000.0625,-400000.0625,-400000.0625,-11095.099609375
2.937960147857666,9254.599609375,12083.009765625,12291.1904296875,-400000.0625,-400000.0625,-400000.0625,-400000.0625,-11140.7802734375
2.9519588947296143,9228.990234375,12054.25,12270.259765625,-400000.0625,-400000.0625,-400000.0625,-400000.0625,-11167.9599609375
2.9700164794921875,9209.58984375,12040.4697265625,12257.33984375,-400000.0625,-400000.0625,-400000.0625,-400000.0625,-11180.5
2.9841387271881104,9150.509765625,12039.5703125,12255.0,-400000.0625,-400000.0625,-400000.0625,-400000.0625,-11182.9296875
3.0001132488250732,9161.1904296875,12063.7001953125,12272.98046875,-400000.0625,-400000.0625,-400000.0625,-400000.0625,-11166.1396484375
3.0256433486938477,9235.6201171875,12084.8701171875,12308.5,-400000.0625,-400000.0625,-400000.0625,-400000.0625,-11140.73046875
3.042752742767334,9254.650390625,12122.580078125,12333.8203125,-400000.0625,-400000.0625,-400000.0625,-400000.0625,-11119.1796875
3.060058832168579,9251.169921875,12130.7900390625,12341.6396484375,-400000.0625,-400000.0625,-400000.0625,-400000.0625,-11098.240234375
3.0772006511688232,9244.009765625,12152.099609375,12362.669921875,-400000.0625,-400000.0625,-400000.0625,-400000.0625,-11070.919921875
3.0936496257781982,9264.51953125,12188.8203125,12394.7197265625,-400000.0625,-400000.0625,-400000.0625,-400000.0625,-11042.6396484375
3.109367609024048,9299.419921875,12215.759765625,12418.8896484375,-400000.0625,-400000.0625,-400000.0625,-400000.0625,-11017.66015625
3.135078191757202,9351.7802734375,12233.400390625,12424.3798828125,-400000.0625,-400000.0625,-400000.0625,-400000.0625,-10995.91015625
3.1511454582214355,9358.169921875,12254.759765625,12441.6796875,-400000.0625,-400000.0625,-400000.0625,-400000.0625,-10970.5498046875
3.1655189990997314,9365.1298828125,12272.169921875,12458.990234375,-400000.0625,-400000.0625,-400000.0625,-400000.0625,-10940.2197265625
3.1814966201782227,9404.759765625,12304.259765625,12481.1201171875,-400000.0625,-400000.0625,-400000.0625,-400000.0625,-10910.1298828125
3.1990952491760254,9447.0498046875,12370.9697265625,12540.48046875,-400000.0625,-400000.0625,-400000.0625,-400000.0625,-10872.26953125
3.212115526199341,9490.919921875,12400.6796875,12568.6201171875,-400000.0625,-400000.0625,-400000.0625,-400000.0625,-10835.83984375
3.2329955101013184,9510.3798828125,12417.4599609375,12574.8603515625,-400000.0625,-400000.0625,-400000.0625,-400000.0625,-10810.3798828125
3.24980092048645,9504.0302734375,12444.9296875,12604.6201171875,-400000.0625,-400000.0625,-400000.0625,-400000.0625,-10775.3798828125
3.2611331939697266,9532.5498046875,12477.6396484375,12633.51953125,-400000.0625,-400000.0625,-400000.0625,-400000.0625,-10746.8095703125
3.2762300968170166,9599.8798828125,12521.080078125,12678.5302734375,-400000.0625,-400000.0625,-400000.0625,-400000.0625,-10708.6201171875
3.295254707336426,9683.900390625,12588.6904296875,12741.0,-400000.0625,-400000.0625,-400000.0625,-400000.0625,-10642.48046875
3.309723138809204,9715.080078125,12640.2900390625,12805.3701171875,-400000.0625,-400000.0625,-400000.0625,-400000.0625,-10574.5302734375
3.327880382537842,9711.4599609375,12676.150390625,12841.66015625,-400000.0625,-400000.0625,-400000.0625,-400000.0625,-10539.099609375
3.3448452949523926,9756.849609375,12721.4404296875,12871.650390625,-400000.0625,-400000.0625,-400000.0625,-400000.0625,-10516.169921875
3.362684488296509,9807.0595703125,12789.4404296875,12907.4599609375,-400000.0625,-400000.0625,-400000.0625,-400000.0625,-10479.6396484375
3.3768210411071777,9844.73046875,12812.4296875,12936.01953125,-400000.0625,-400000.0625,-400000.0625,-400000.0625,-10439.830078125
3.3928771018981934,9865.91015625,12843.9404296875,12978.98046875,-400000.0625,-400000.0625,-400000.0625,-400000.0625,-10399.8701171875
3.4047584533691406,9880.01953125,12911.26953125,13034.3896484375,-400000.0625,-400000.0625,-400000.0625,-400000.0625,-10343.740234375
3.4258158206939697,9912.6396484375,12963.2001953125,13092.849609375,-400000.0625,-400000.0625,-400000.0625,-400000.0625,-10299.349609375
3.4409611225128174,9956.740234375,12977.8896484375,13113.98046875,-400000.0625,-400000.0625,-400000.0625,-400000.0625,-10279.75
3.4501936435699463,9975.009765625,12970.400390625,13107.4404296875,-400000.0625,-400000.0625,-400000.0625,-400000.0625,-10285.1904296875
3.4626071453094482,9955.9296875,12944.509765625,13086.509765625,-400000.0625,-400000.0625,-400000.0625,-400000.0625,-10308.3095703125
3.4787192344665527,9938.8603515625,12928.0595703125,13066.2001953125,-400000.0625,-400000.0625,-400000.0625,-400000.0625,-10322.1904296875
3.488708734512329,9886.5498046875,12868.5498046875,13004.9697265625,-400000.0625,-400000.0625,-400000.0625,-400000.0625,-10379.41015625
3.501765012741089,9793.0,12743.1396484375,12875.75,-400000.0625,-400000.0625,-400000.0625,-400000.0625,-10504.099609375
3.51670241355896,9696.48046875,12643.0,12779.7099609375,-400000.0625,-400000.0625,-400000.0625,-400000.0625,-10608.150390625
3.5355629920959473,9619.330078125,12573.009765625,12709.0498046875,-400000.0625,-400000.0625,-400000.0625,-400000.0625,-10673.48046875
3.5454154014587402,9549.240234375,12518.5498046875,12650.0595703125,-400000.0625,-400000.0625,-400000.0625,-400000.0625,-10732.509765625
3.55605411529541,9489.6298828125,12462.0,12590.83984375,-400000.0625,-400000.0625,-400000.0625,-400000.0625,-10795.5498046875
3.5670437812805176,9449.2900390625,12406.2998046875,12536.9599609375,-400000.0625,-400000.0625,-400000.0625,-400000.0625,-10850.1396484375
3.581939220428467,9410.2900390625,12348.509765625,12482.01953125,-400000.0625,-400000.0625,-400000.0625,-400000.0625,-10898.73046875
3.5927207469940186,9346.2001953125,12310.7001953125,12439.1103515625,-400000.0625,-400000.0625,-400000.0625,-400000.0625,-10931.349609375
3.604963541030884,9315.1103515625,12282.1796875,12411.259765625,-400000.0625,-400000.0625,-400000.0625,-400000.0625,-10952.0400390625
3.625833749771118,9320.9296875,12262.8203125,12395.7197265625,-400000.0625,-400000.0625,-400000.0625,-400000.0625,-10964.5400390625
3.638533115386963,9356.169921875,12297.4404296875,12419.419921875,-400000.0625,-400000.0625,-400000.0625,-400000.0625,-10938.9296875
3.653599500656128,9419.1103515625,12361.7197265625,12474.58984375,-400000.0625,-400000.0625,-400000.0625,-400000.0625,-10879.3701171875
3.6685779094696045,9475.1796875,12418.41015625,12540.3896484375,-400000.0625,-400000.0625,-400000.0625,-400000.0625,-10808.990234375
3.6814961433410645,9451.580078125,12409.830078125,12526.849609375,-400000.0625,-400000.0625,-400000.0625,-400000.0625,-10819.3896484375
3.6946489810943604,9377.5302734375,12331.1103515625,12449.1201171875,-400000.0625,-400000.0625,-400000.0625,-400000.0625,-10896.349609375
3.712379217147827,9336.1904296875,12257.33984375,12381.2197265625,-400000.0625,-400000.0625,-400000.0625,-400000.0625,-10964.73046875
3.7345259189605713,9298.990234375,12204.080078125,12321.08984375,-400000.0625,-400000.0625,-400000.0625,-400000.0625,-11013.1796875
3.7466673851013184,9248.2099609375,12165.9296875,12282.75,-400000.0625,-400000.0625,-400000.0625,-400000.0625,-11045.9296875
3.757483720779419,9193.23046875,12126.01953125,12249.7099609375,-400000.0625,-400000.0625,-400000.0625,-400000.0625,-11081.5498046875
3.769153594970703,9158.419921875,12091.6904296875,12210.1796875,-400000.0625,-400000.0625,-400000.0625,-400000.0625,-11118.990234375
3.780968189239502,9146.599609375,12059.830078125,12173.650390625,-400000.0625,-400000.0625,-400000.0625,-400000.0625,-11153.4599609375
3.794219970703125,9125.2802734375,12040.3798828125,12139.0400390625,-400000.0625,-400000.0625,-400000.0625,-400000.0625,-11177.400390625
3.807607650756836,9100.33984375,12010.0,12116.150390625,-400000.0625,-400000.0625,-400000.0625,-400000.0625,-11191.66015625
3.8289966583251953,9069.73046875,11994.650390625,12103.0302734375,-400000.0625,-400000.0625,-400000.0625,-400000.0625,-11199.1904296875
3.842261791229248,9049.23046875,11969.66015625,12088.400390625,-400000.0625,-400000.0625,-400000.0625,-400000.0625,-11214.8798828125
3.857844352722168,9050.0400390625,11947.8203125,12064.98046875,-400000.0625,-400000.0625,-400000.0625,-400000.0625,-11238.580078125
3.8703062534332275,9041.830078125,11933.1904296875,12048.2001953125,-400000.0625,-400000.0625,-400000.0625,-400000.0625,-11255.6904296875
3.883695602416992,9010.7900390625,11913.400390625,12032.83984375,-400000.0625,-400000.0625,-400000.0625,-400000.0625,-11263.0400390625
3.895106077194214,8999.8701171875,11894.66015625,12017.7802734375,-400000.0625,-400000.0625,-400000.0625,-400000.0625,-11265.7099609375
3.910818576812744,9016.3701171875,11885.6396484375,12004.51953125,-400000.0625,-400000.0625,-400000.0625,-400000.0625,-11274.580078125
3.928558349609375,9015.2802734375,11882.58984375,11993.7900390625,-400000.0625,-400000.0625,-400000.0625,-400000.0625,-11285.58984375
3.9398200511932373,9009.4599609375,11868.759765625,11983.7802734375,-400000.0625,-400000.0625,-400000.0625,-400000.0625,-11293.1298828125
3.9548168182373047,9010.8896484375,11867.0,11977.33984375,-400000.0625,-400000.0625,-400000.0625,-400000.0625,-11288.6904296875
3.9643959999084473,9006.8798828125,11859.23046875,11977.8603515625,-400000.0625,-400000.0625,-400000.0625,-400000.0625,-11278.490234375
3.9765944480895996,8994.490234375,11852.740234375,11972.0,-400000.0625,-400000.0625,-400000.0625,-400000.0625,-11286.01953125
3.9873740673065186,9009.98046875,11849.1201171875,11969.900390625,-400000.0625,-400000.0625,-400000.0625,-400000.0625,-11296.8896484375
4.009133815765381,9029.5302734375,11842.8701171875,11967.9501953125,-400000.0625,-400000.0625,-400000.0625,-400000.0625,-11287.5498046875
4.027293920516968,9046.169921875,11861.23046875,11972.8603515625,-400000.0625,-400000.0625,-400000.0625,-400000.0625,-11266.759765625
4.0409722328186035,9055.4697265625,11879.349609375,11988.5,-400000.0625,-400000.0625,-400000.0625,-400000.0625,-11248.0703125
4.052460670471191,9086.990234375,11888.4599609375,12005.0,-400000.0625,-400000.0625,-400000.0625,-400000.0625,-11235.8603515625
4.0662829875946045,9114.3603515625,11912.58984375,12019.6796875,-400000.0625,-400000.0625,-400000.0625,-400000.0625,-11227.3203125
4.078770399093628,9123.0400390625,11914.919921875,12029.83984375,-400000.0625,-400000.0625,-400000.0625,-400000.0625,-11215.3095703125
4.091632127761841,9122.75,11912.0595703125,12032.5595703125,-400000.0625,-400000.0625,-400000.0625,-400000.0625,-11203.9599609375
4.10477614402771,9116.4599609375,11919.599609375,12035.1796875,-400000.0625,-400000.0625,-400000.0625,-400000.0625,-11194.7099609375
4.1177074909210205,9105.0595703125,11916.1103515625,12028.0302734375,-400000.0625,-400000.0625,-400000.0625,-400000.0625,-11199.8095703125
4.133911371231079,9120.66015625,11917.830078125,12024.0703125,-400000.0625,-400000.0625,-400000.0625,-400000.0625,-11202.150390625
4.143442869186401,9135.3896484375,11914.0595703125,12020.73046875,-400000.0625,-400000.0625,-400000.0625,-400000.0625,-11202.0
4.160173177719116,9153.650390625,11928.3203125,12025.5498046875,-400000.0625,-400000.0625,-400000.0625,-400000.0625,-11182.5
4.17098331451416,9171.6796875,11953.16015625,12049.8701171875,-400000.0625,-400000.0625,-400000.0625,-400000.0625,-11152.5498046875
4.183650493621826,9152.080078125,11952.3095703125,12056.2998046875,-400000.0625,-400000.0625,-400000.0625,-400000.0625,-11157.419921875
4.1970884799957275,9161.0400390625,11947.1103515625,12046.3896484375,-400000.0625,-400000.0625,-400000.0625,-400000.0625,-11175.009765625
4.2079596519470215,9155.4697265625,11944.6298828125,12032.7998046875,-400000.0625,-400000.0625,-400000.0625,-400000.0625,-11187.26953125
4.217715501785278,9129.0498046875,11936.240234375,12017.5400390625,-400000.0625,-400000.0625,-400000.0625,-400000.0625,-11185.8896484375
4.234966993331909,9104.400390625,11943.76953125,12018.400390625,-400000.0625,-400000.0625,-400000.0625,-400000.0625,-11178.8798828125
4.249918460845947,9107.16015625,11944.7197265625,12023.259765625,-400000.0625,-400000.0625,-400000.0625,-400000.0625,-11181.6904296875
4.261267423629761,9121.75,11934.5703125,12013.8203125,-400000.0625,-400000.0625,-400000.0625,-400000.0625,-11197.3798828125
4.275671482086182,9110.9296875,11922.41015625,11997.83984375,-400000.0625,-400000.0625,-400000.0625,-400000.0625,-11212.5400390625
4.287970542907715,9088.1796875,11908.76953125,11990.2099609375,-400000.0625,-400000.0625,-400000.0625,-400000.0625,-11220.0302734375
4.301964998245239,9061.099609375,11900.0,11987.8798828125,-400000.0625,-400000.0625,-400000.0625,-400000.0625,-11222.41015625
4.32664942741394,9055.900390625,11900.4697265625,11980.490234375,-400000.0625,-400000.0625,-400000.0625,-400000.0625,-11237.099609375
4.339905261993408,9045.5498046875,11901.8095703125,11971.669921875,-400000.0625,-400000.0625,-400000.0625,-400000.0625,-11256.650390625
4.356704473495483,9021.8095703125,11882.740234375,11958.26953125,-400000.0625,-400000.0625,-400000.0625,-400000.0625,-11272.5302734375
4.3672637939453125,8998.919921875,11864.0,11941.099609375,-400000.0625,-400000.0625,-400000.0625,-400000.0625,-11281.830078125
4.3804144859313965,8969.6396484375,11856.2197265625,11928.75,-400000.0625,-400000.0625,-400000.0625,-400000.0625,-11292.75
4.396117448806763,8967.4501953125,11862.2802734375,11933.08984375,-400000.0625,-400000.0625,-400000.0625,-400000.0625,-11302.6201171875
4.40804648399353,8996.6298828125,11873.7197265625,11935.1396484375,-400000.0625,-400000.0625,-400000.0625,-400000.0625,-11309.240234375
4.427980184555054,9001.8798828125,11876.8701171875,11934.1396484375,-400000.0625,-400000.0625,-400000.0625,-400000.0625,-11307.6201171875
4.444204092025757,8990.48046875,11876.16015625,11936.669921875,-400000.0625,-400000.0625,-400000.0625,-400000.0625,-11302.1904296875
4.461042881011963,8956.8603515625,11872.7197265625,11939.33984375,-400000.0625,-400000.0625,-400000.0625,-400000.0625,-11308.669921875
4.480190753936768,8932.5,11862.9501953125,11923.080078125,-400000.0625,-400000.0625,-400000.0625,-400000.0625,-11326.26953125
4.493531703948975,8938.2197265625,11859.2802734375,11903.8603515625,-400000.0625,-400000.0625,-400000.0625,-400000.0625,-11346.3896484375
4.505633592605591,8948.3701171875,11842.1103515625,11890.3701171875,-400000.0625,-400000.0625,-400000.0625,-400000.0625,-11361.0302734375
4.531976938247681,8943.23046875,11827.849609375,11871.669921875,-400000.0625,-400000.0625,-400000.0625,-400000.0625,-11363.7900390625
4.550310134887695,8922.9599609375,11819.7900390625,11861.2802734375,-400000.0625,-400000.0625,-400000.0625,-400000.0625,-11366.7998046875
4.567481756210327,8896.830078125,11812.01953125,11858.0400390625,-400000.0625,-400000.0625,-400000.0625,-400000.0625,-11374.4697265625
4.587468147277832,8917.48046875,11819.509765625,11858.7001953125,-400000.0625,-400000.0625,-400000.0625,-400000.0625,-11383.009765625
4.608602046966553,8909.75,11796.6201171875,11835.240234375,-400000.0625,-400000.0625,-400000.0625,-400000.0625,-11398.98046875
4.6346516609191895,8889.6796875,11774.58984375,11816.41015625,-400000.0625,-400000.0625,-400000.0625,-400000.0625,-11410.3798828125
4.6492390632629395,8872.650390625,11768.099609375,11803.8203125,-400000.0625,-400000.0625,-400000.0625,-400000.0625,-11412.48046875
4.6629321575164795,8866.4501953125,11759.9501953125,11793.8095703125,-400000.0625,-400000.0625,-400000.0625,-400000.0625,-11420.5400390625
4.680892467498779,8870.7900390625,11750.509765625,11787.080078125,-400000.0625,-400000.0625,-400000.0625,-400000.0625,-11430.599609375
4.696821689605713,8861.1103515625,11736.7802734375,11783.2197265625,-400000.0625,-400000.0625,-400000.0625,-400000.0625,-11434.75
4.71019983291626,8847.4296875,11737.7802734375,11774.919921875,-400000.0625,-400000.0625,-400000.0625,-400000.0625,-11434.990234375
4.73382043838501,8852.76953125,11736.16015625,11767.33984375,-400000.0625,-400000.0625,-400000.0625,-400000.0625,-11433.98046875
4.7542688846588135,8853.009765625,11723.900390625,11756.2802734375,-400000.0625,-400000.0625,-400000.0625,-400000.0625,-11447.1904296875
4.767370223999023,8858.0595703125,11713.41015625,11744.01953125,-400000.0625,-400000.0625,-400000.0625,-400000.0625,-11458.259765625
4.781753301620483,8854.5302734375,11705.6904296875,11734.9599609375,-400000.0625,-400000.0625,-400000.0625,-400000.0625,-11459.349609375
4.799373149871826,8841.51953125,11699.3896484375,11729.240234375,-400000.0625,-400000.0625,-400000.0625,-400000.0625,-11452.7197265625
4.824640274047852,8844.51953125,11707.5498046875,11730.8203125,-400000.0625,-400000.0625,-400000.0625,-400000.0625,-11446.5302734375
4.843885898590088,8842.849609375,11696.009765625,11719.6103515625,-400000.0625,-400000.0625,-400000.0625,-400000.0625,-11451.099609375
4.860782146453857,8857.8701171875,11688.849609375,11708.169921875,-400000.0625,-400000.0625,-400000.0625,-400000.0625,-11460.8798828125
4.876624345779419,8849.5703125,11675.0302734375,11691.2900390625,-400000.0625,-400000.0625,-400000.0625,-400000.0625,-11469.169921875
4.895995855331421,8829.740234375,11662.2001953125,11672.6904296875,-400000.0625,-400000.0625,-400000.0625,-400000.0625,-11473.23046875
4.915410995483398,8823.58984375,11661.9599609375,11675.7900390625,-400000.0625,-400000.0625,-400000.0625,-400000.0625,-11467.41015625
4.939975023269653,8814.3798828125,11662.76953125,11681.26953125,-400000.0625,-400000.0625,-400000.0625,-400000.0625,-11464.740234375
4.958672523498535,8817.8603515625,11644.75,11663.33984375,-400000.0625,-400000.0625,-400000.0625,-400000.0625,-11480.900390625
4.971452713012695,8831.2197265625,11631.5400390625,11645.4599609375,-400000.0625,-400000.0625,-400000.0625,-400000.0625,-11493.2998046875
4.986166715621948,8814.48046875,11626.91015625,11645.83984375,-400000.0625,-400000.0625,-400000.0625,-400000.0625,-11485.4296875
5.002780437469482,8801.41015625,11637.5,11648.5595703125,-400000.0625,-400000.0625,-400000.0625,-400000.0625,-11473.5595703125
5.016042232513428,8817.2900390625,11644.98046875,11646.6103515625,-400000.0625,-400000.0625,-400000.0625,-400000.0625,-11469.8896484375
5.033623695373535,8828.5498046875,11642.2197265625,11647.75,-400000.0625,-400000.0625,-400000.0625,-400000.0625,-11474.7099609375
5.048578500747681,8830.259765625,11649.900390625,11648.23046875,-400000.0625,-400000.0625,-400000.0625,-400000.0625,-11471.080078125
5.06786322593689,8821.6298828125,11657.91015625,11658.33984375,-400000.0625,-400000.0625,-400000.0625,-400000.0625,-11459.400390625
5.083417177200317,8825.6796875,11663.9599609375,11670.349609375,-400000.0625,-400000.0625,-400000.0625,-400000.0625,-11445.8095703125
5.097366571426392,8836.8896484375,11668.01953125,11670.7802734375,-400000.0625,-400000.0625,-400000.0625,-400000.0625,-11446.669921875
5.112784385681152,8835.98046875,11655.0498046875,11660.2900390625,-400000.0625,-400000.0625,-400000.0625,-400000.0625,-11462.1201171875
5.138050556182861,8818.0595703125,11645.26953125,11647.8896484375,-400000.0625,-400000.0625,-400000.0625,-400000.0625,-11470.83984375
5.156512260437012,8828.4501953125,11633.2998046875,11640.4501953125,-400000.0625,-400000.0625,-400000.0625,-400000.0625,-11470.1796875
5.173234701156616,8815.9599609375,11643.3203125,11645.26953125,-400000.0625,-400000.0625,-400000.0625,-400000.0625,-11462.5
5.192891836166382,8825.9697265625,11648.0400390625,11642.98046875,-400000.0625,-400000.0625,-400000.0625,-400000.0625,-11466.7900390625
5.208456516265869,8835.26953125,11652.23046875,11636.8798828125,-400000.0625,-400000.0625,-400000.0625,-400000.0625,-11475.759765625
5.23192572593689,8831.650390625,11640.8798828125,11631.2001953125,-400000.0625,-400000.0625,-400000.0625,-400000.0625,-11478.4296875
5.252007484436035,8827.7802734375,11640.98046875,11637.1201171875,-400000.0625,-400000.0625,-400000.0625,-400000.0625,-11471.5595703125
5.266942739486694,8817.099609375,11650.4697265625,11644.41015625,-400000.0625,-400000.0625,-400000.0625,-400000.0625,-11465.650390625
5.284482479095459,8818.0595703125,11656.2900390625,11647.1796875,-400000.0625,-400000.0625,-400000.0625,-400000.0625,-11464.599609375
5.302643537521362,8818.5302734375,11630.919921875,11623.6201171875,-400000.0625,-400000.0625,-400000.0625,-400000.0625,-11482.9599609375
5.324355840682983,8810.330078125,11613.509765625,11598.73046875,-400000.0625,-400000.0625,-400000.0625,-400000.0625,-11499.259765625
5.352575778961182,8801.4599609375,11607.4599609375,11595.919921875,-400000.0625,-400000.0625,-400000.0625,-400000.0625,-11494.4501953125
5.3681724071502686,8787.2001953125,11611.1796875,11600.5400390625,-400000.0625,-400000.0625,-400000.0625,-400000.0625,-11487.2001953125
5.3830976486206055,8794.400390625,11611.3701171875,11587.759765625,-400000.0625,-400000.0625,-400000.0625,-400000.0625,-11504.0302734375
5.401812553405762,8789.4501953125,11611.080078125,11582.51953125,-400000.0625,-400000.0625,-400000.0625,-400000.0625,-11514.7099609375
5.426803827285767,8788.16015625,11626.9599609375,11604.1201171875,-400000.0625,-400000.0625,-400000.0625,-400000.0625,-11501.5
5.446563720703125,8787.6796875,11662.8701171875,11612.5595703125,-400000.0625,-400000.0625,-400000.0625,-400000.0625,-11485.8603515625
5.466433763504028,8784.25,11689.66015625,11626.669921875,-400000.0625,-400000.0625,-400000.0625,-400000.0625,-11480.900390625
5.485489130020142,8779.7197265625,11725.3798828125,11643.3603515625,-400000.0625,-400000.0625,-400000.0625,-400000.0625,-11481.0498046875
5.503682374954224,8792.3095703125,11754.7998046875,11655.7099609375,-400000.0625,-400000.0625,-400000.0625,-400000.0625,-11488.9599609375
5.527593612670898,8789.25,11785.1298828125,11663.9599609375,-400000.0625,-400000.0625,-400000.0625,-400000.0625,-11487.0595703125
5.547211647033691,8781.0,11813.8798828125,11675.0703125,-400000.0625,-400000.0625,-400000.0625,-400000.0625,-11483.5302734375
5.562130451202393,8772.1796875,11846.3095703125,11708.8798828125,-400000.0625,-400000.0625,-400000.0625,-400000.0625,-11475.330078125
5.577915906906128,8779.099609375,11866.2802734375,11725.2802734375,-400000.0625,-400000.0625,-400000.0625,-400000.0625,-11477.08984375
5.592977046966553,8800.41015625,11903.669921875,11743.6396484375,-400000.0625,-400000.0625,-400000.0625,-400000.0625,-11476.6103515625
5.610366582870483,8815.240234375,11916.58984375,11749.650390625,-400000.0625,-400000.0625,-400000.0625,-400000.0625,-11476.51953125
5.630719184875488,8817.3896484375,11947.349609375,11772.2998046875,-400000.0625,-400000.0625,-400000.0625,-400000.0625,-11462.830078125
5.647119760513306,8810.66015625,11970.7099609375,11790.08984375,-400000.0625,-400000.0625,-400000.0625,-400000.0625,-11445.8095703125
5.667073488235474,8813.0498046875,11987.01953125,11800.91015625,-400000.0625,-400000.0625,-400000.0625,-400000.0625,-11434.3701171875
5.6803998947143555,8853.8203125,11995.3603515625,11801.7197265625,-400000.0625,-400000.0625,-400000.0625,-400000.0625,-11434.8896484375
5.696063280105591,8857.919921875,11995.5595703125,11805.5400390625,-400000.0625,-400000.0625,-400000.0625,-400000.0625,-11432.3603515625
5.70961856842041,8867.5,12012.150390625,11803.580078125,-400000.0625,-400000.0625,-400000.0625,-400000.0625,-11416.3896484375
5.735086441040039,8889.25,12021.73046875,11809.4501953125,-400000.0625,-400000.0625,-400000.0625,-400000.0625,-11403.849609375
5.757070064544678,8900.5498046875,12026.2197265625,11811.9296875,-400000.0625,-400000.0625,-400000.0625,-400000.0625,-11401.5595703125
5.776893615722656,8903.4599609375,12016.8203125,11813.259765625,-400000.0625,-400000.0625,-400000.0625,-400000.0625,-11405.3701171875
5.795083284378052,8911.5595703125,12009.0498046875,11806.1103515625,-400000.0625,-400000.0625,-400000.0625,-400000.0625,-11408.1396484375
5.811572074890137,8895.2998046875,12013.48046875,11802.099609375,-400000.0625,-400000.0625,-400000.0625,-400000.0625,-11401.0302734375
5.831343412399292,8873.26953125,12015.25,11802.580078125,-400000.0625,-400000.0625,-400000.0625,-400000.0625,-11394.5498046875
5.847537279129028,8890.33984375,12009.4296875,11800.91015625,-400000.0625,-400000.0625,-400000.0625,-400000.0625,-11398.5595703125
5.86870002746582,8917.759765625,11999.1298828125,11788.419921875,-400000.0625,-400000.0625,-400000.0625,-400000.0625,-11413.7197265625
5.8897154331207275,8908.23046875,11983.490234375,11776.0703125,-400000.0625,-400000.0625,-400000.0625,-400000.0625,-11419.25
5.907626390457153,8900.4501953125,11972.1396484375,11771.6298828125,-400000.0625,-400000.0625,-400000.0625,-400000.0625,-11414.099609375
5.929560661315918,8885.4296875,11975.33984375,11770.150390625,-400000.0625,-400000.0625,-400000.0625,-400000.0625,-11408.6201171875
5.943462610244751,8888.5302734375,11973.7197265625,11771.0595703125,-400000.0625,-400000.0625,-400000.0625,-400000.0625,-11415.6298828125
5.959627628326416,8895.2998046875,11963.650390625,11753.080078125,-400000.0625,-400000.0625,-400000.0625,-400000.0625,-11427.7900390625
5.979063987731934,8893.400390625,11954.259765625,11743.1201171875,-400000.0625,-400000.0625,-400000.0625,-400000.0625,-11433.2197265625
5.9937827587127686,8860.5400390625,11919.98046875,11714.169921875,-400000.0625,-400000.0625,-400000.0625,-400000.0625,-11452.9599609375
6.008977890014648,8832.740234375,11898.6103515625,11691.2900390625,-400000.0625,-400000.0625,-400000.0625,-400000.0625,-11468.3203125
6.033968210220337,8827.5400390625,11902.0498046875,11687.9501953125,-400000.0625,-400000.0625,-400000.0625,-400000.0625,-11477.3798828125
6.050412178039551,8840.3203125,11892.83984375,11673.3095703125,-400000.0625,-400000.0625,-400000.0625,-400000.0625,-11491.2998046875
6.070857048034668,8843.849609375,11877.349609375,11667.6796875,-400000.0625,-400000.0625,-400000.0625,-400000.0625,-11496.830078125
6.08996057510376,8834.8896484375,11870.6201171875,11659.580078125,-400000.0625,-400000.0625,-400000.0625,-400000.0625,-11489.25
6.105218410491943,8828.740234375,11868.3798828125,11657.240234375,-400000.0625,-400000.0625,-400000.0625,-400000.0625,-11491.73046875
6.128141641616821,8835.75,11873.5302734375,11652.5703125,-400000.0625,-400000.0625,-400000.0625,-400000.0625,-11499.169921875
6.145418882369995,8847.0498046875,11869.099609375,11642.8896484375,-400000.0625,-400000.0625,-400000.0625,-400000.0625,-11505.650390625
6.1632819175720215,8834.4599609375,11858.3203125,11639.7900390625,-400000.0625,-400000.0625,-400000.0625,-400000.0625,-11507.419921875
6.175235033035278,8826.16015625,11846.6396484375,11635.9697265625,-400000.0625,-400000.0625,-400000.0625,-400000.0625,-11502.4599609375
6.190314769744873,8827.5400390625,11848.58984375,11638.599609375,-400000.0625,-400000.0625,-400000.0625,-400000.0625,-11495.400390625
6.208050489425659,8843.7099609375,11844.6796875,11631.25,-400000.0625,-400000.0625,-400000.0625,-400000.0625,-11501.7001953125
6.22700572013855,8856.2001953125,11842.2998046875,11622.099609375,-400000.0625,-400000.0625,-400000.0625,-400000.0625,-11508.66015625
6.247117519378662,8852.099609375,11838.2001953125,11615.08984375,-400000.0625,-400000.0625,-400000.0625,-400000.0625,-11508.900390625
6.262878179550171,8838.1298828125,11833.8095703125,11619.1904296875,-400000.0625,-400000.0625,-400000.0625,-400000.0625,-11497.7900390625
6.2757322788238525,8851.150390625,11832.669921875,11623.8095703125,-400000.0625,-400000.0625,-400000.0625,-400000.0625,-11492.0595703125
6.294434547424316,8844.419921875,11828.849609375,11621.1904296875,-400000.0625,-400000.0625,-400000.0625,-400000.0625,-11495.6396484375
6.31293511390686,8854.009765625,11825.3701171875,11608.2197265625,-400000.0625,-400000.0625,-400000.0625,-400000.0625,-11504.7900390625
6.335174083709717,8860.919921875,11831.6201171875,11596.8701171875,-400000.0625,-400000.0625,-400000.0625,-400000.0625,-11501.650390625
6.352637529373169,8858.490234375,11821.8896484375,11608.169921875,-400000.0625,-400000.0625,-400000.0625,-400000.0625,-11494.4501953125
6.3712241649627686,8839.9404296875,11821.9404296875,11607.0302734375,-400000.0625,-400000.0625,-400000.0625,-400000.0625,-11490.0595703125
6.390812873840332,8853.8701171875,11817.740234375,11601.740234375,-400000.0625,-400000.0625,-400000.0625,-400000.0625,-11496.7802734375
6.409250020980835,8863.830078125,11815.9296875,11597.2998046875,-400000.0625,-400000.0625,-400000.0625,-400000.0625,-11502.3603515625
6.428766489028931,8876.419921875,11808.919921875,11590.7197265625,-400000.0625,-400000.0625,-400000.0625,-400000.0625,-11503.5498046875
6.447063684463501,8847.3798828125,11805.8701171875,11585.1904296875,-400000.0625,-400000.0625,-400000.0625,-400000.0625,-11499.3603515625
6.460987567901611,8842.23046875,11800.48046875,11580.66015625,-400000.0625,-400000.0625,-400000.0625,-400000.0625,-11494.9697265625
6.48101282119751,8857.4404296875,11793.66015625,11581.08984375,-400000.0625,-400000.0625,-400000.0625,-400000.0625,-11499.0703125
6.501044511795044,8866.98046875,11792.330078125,11573.2197265625,-400000.0625,-400000.0625,-400000.0625,-400000.0625,-11508.9404296875
6.517312049865723,8866.740234375,11791.759765625,11563.4501953125,-400000.0625,-400000.0625,-400000.0625,-400000.0625,-11511.51953125
6.5384743213653564,8866.2197265625,11788.1298828125,11569.6396484375,-400000.0625,-400000.0625,-400000.0625,-400000.0625,-11498.0703125
6.556045770645142,8854.099609375,11795.0,11571.8896484375,-400000.0625,-400000.0625,-400000.0625,-400000.0625,-11492.16015625
6.572532415390015,8856.8203125,11797.4296875,11566.4501953125,-400000.0625,-400000.0625,-400000.0625,-400000.0625,-11503.5498046875
6.5882062911987305,8868.1201171875,11791.08984375,11557.0595703125,-400000.0625,-400000.0625,-400000.0625,-400000.0625,-11515.5703125
6.6057751178741455,8861.1103515625,11776.7802734375,11549.1396484375,-400000.0625,-400000.0625,-400000.0625,-400000.0625,-11515.9501953125
6.625838041305542,8865.259765625,11771.16015625,11546.900390625,-400000.0625,-400000.0625,-400000.0625,-400000.0625,-11505.2197265625
6.638992786407471,8864.1201171875,11783.169921875,11553.150390625,-400000.0625,-400000.0625,-400000.0625,-400000.0625,-11494.830078125
6.65636944770813,8852.8603515625,11787.080078125,11559.150390625,-400000.0625,-400000.0625,-400000.0625,-400000.0625,-11498.0703125
6.673434257507324,8874.1298828125,11784.080078125,11553.7197265625,-400000.0625,-400000.0625,-400000.0625,-400000.0625,-11502.9296875
6.696979761123657,8886.240234375,11786.990234375,11545.7998046875,-400000.0625,-400000.0625,-400000.0625,-400000.0625,-11498.9296875
6.710761308670044,8869.4599609375,11785.4599609375,11543.9404296875,-400000.0625,-400000.0625,-400000.0625,-400000.0625,-11487.33984375
6.730140686035156,8870.080078125,11781.2197265625,11553.5302734375,-400000.0625,-400000.0625,-400000.0625,-400000.0625,-11479.759765625
6.745845556259155,8866.1201171875,11790.3203125,11558.4404296875,-400000.0625,-400000.0625,-400000.0625,-400000.0625,-11483.3798828125
6.7615649700164795,8897.259765625,11790.1298828125,11551.330078125,-400000.0625,-400000.0625,-400000.0625,-400000.0625,-11490.349609375
6.777918815612793,8908.080078125,11778.0703125,11542.7001953125,-400000.0625,-400000.0625,-400000.0625,-400000.0625,-11492.919921875
6.793286323547363,8895.6796875,11775.4501953125,11543.990234375,-400000.0625,-400000.0625,-400000.0625,-400000.0625,-11483.8603515625
6.81096339225769,8877.7099609375,11776.16015625,11549.240234375,-400000.0625,-400000.0625,-400000.0625,-400000.0625,-11476.1396484375
6.830506801605225,8875.66015625,11774.0595703125,11551.0498046875,-400000.0625,-400000.0625,-400000.0625,-400000.0625,-11481.240234375
6.845800161361694,8888.7197265625,11772.6298828125,11544.3701171875,-400000.0625,-400000.0625,-400000.0625,-400000.0625,-11491.73046875
6.862571477890015,8894.830078125,11775.400390625,11537.2197265625,-400000.0625,-400000.0625,-400000.0625,-400000.0625,-11487.91015625
6.880632638931274,8891.3896484375,11776.9697265625,11535.5498046875,-400000.0625,-400000.0625,-400000.0625,-400000.0625,-11476.2802734375
6.897016763687134,8859.58984375,11771.7802734375,11537.3603515625,-400000.0625,-400000.0625,-400000.0625,-400000.0625,-11480.4296875
6.913824796676636,8882.0,11774.01953125,11536.169921875,-400000.0625,-400000.0625,-400000.0625,-400000.0625,-11486.8701171875
6.932702541351318,8901.41015625,11776.3095703125,11533.169921875,-400000.0625,-400000.0625,-400000.0625,-400000.0625,-11489.6796875
6.950931072235107,8903.8896484375,11776.01953125,11531.400390625,-400000.0625,-400000.0625,-400000.0625,-400000.0625,-11485.48046875
6.967033386230469,8894.400390625,11771.6298828125,11538.080078125,-400000.0625,-400000.0625,-400000.0625,-400000.0625,-11468.98046875
6.987074375152588,8890.9599609375,11778.0703125,11544.2802734375,-400000.0625,-400000.0625,-400000.0625,-400000.0625,-11459.16015625
7.00152063369751,8920.240234375,11786.83984375,11539.26953125,-400000.0625,-400000.0625,-400000.0625,-400000.0625,-11462.3095703125
7.016551971435547,8927.3896484375,11780.8798828125,11531.9697265625,-400000.0625,-400000.0625,-400000.0625,-400000.0625,-11468.83984375
7.037121295928955,8924.6298828125,11775.400390625,11525.6796875,-400000.0625,-400000.0625,-400000.0625,-400000.0625,-11465.98046875
7.050225496292114,8922.76953125,11790.66015625,11528.5400390625,-400000.0625,-400000.0625,-400000.0625,-400000.0625,-11449.91015625
7.065038442611694,8928.490234375,11791.849609375,11541.080078125,-400000.0625,-400000.0625,-400000.0625,-400000.0625,-11442.4697265625
7.082216501235962,8937.0703125,11792.759765625,11552.9599609375,-400000.0625,-400000.0625,-400000.0625,-400000.0625,-11445.240234375
7.097279787063599,8950.1396484375,11802.25,11555.7197265625,-400000.0625,-400000.0625,-400000.0625,-400000.0625,-11451.6298828125
7.115731716156006,8958.7197265625,11807.7802734375,11547.6103515625,-400000.0625,-400000.0625,-400000.0625,-400000.0625,-11448.2900390625
7.138024568557739,8938.41015625,11801.5302734375,11547.849609375,-400000.0625,-400000.0625,-400000.0625,-400000.0625,-11436.990234375
7.148050308227539,8933.6904296875,11802.8203125,11558.5302734375,-400000.0625,-400000.0625,-400000.0625,-400000.0625,-11428.41015625
7.158771514892578,8931.919921875,11808.58984375,11565.5,-400000.0625,-400000.0625,-400000.0625,-400000.0625,-11430.7900390625
7.166796922683716,8953.7197265625,11816.41015625,11555.8603515625,-400000.0625,-400000.0625,-400000.0625,-400000.0625,-11438.1298828125
7.1818530559539795,8962.580078125,11805.73046875,11550.1396484375,-400000.0625,-400000.0625,-400000.0625,-400000.0625,-11436.7001953125
7.196422100067139,8951.4697265625,11805.2001953125,11553.91015625,-400000.0625,-400000.0625,-400000.0625,-400000.0625,-11426.5
7.212137699127197,8945.080078125,11813.9296875,11552.6201171875,-400000.0625,-400000.0625,-400000.0625,-400000.0625,-11417.25
7.2314417362213135,8943.0302734375,11814.01953125,11552.9599609375,-400000.0625,-400000.0625,-400000.0625,-400000.0625,-11418.1103515625
7.244136571884155,8962.2001953125,11806.16015625,11553.9599609375,-400000.0625,-400000.0625,-400000.0625,-400000.0625,-11430.7900390625
7.26087498664856,8969.5498046875,11805.150390625,11551.099609375,-400000.0625,-400000.0625,-400000.0625,-400000.0625,-11427.8798828125
7.278698205947876,8957.9599609375,11804.919921875,11553.099609375,-400000.0625,-400000.0625,-400000.0625,-400000.0625,-11416.150390625
7.290251970291138,8942.4599609375,11807.009765625,11561.2998046875,-400000.0625,-400000.0625,-400000.0625,-400000.0625,-11409.2802734375
7.302545070648193,8939.8896484375,11819.1298828125,11557.5302734375,-400000.0625,-400000.0625,-400000.0625,-400000.0625,-11406.7099609375
7.315138101577759,8975.7900390625,11828.08984375,11559.9599609375,-400000.0625,-400000.0625,-400000.0625,-400000.0625,-11406.7099609375
7.3318188190460205,8986.3798828125,11824.080078125,11561.1103515625,-400000.0625,-400000.0625,-400000.0625,-400000.0625,-11407.3798828125
7.3473570346832275,8963.25,11807.2001953125,11557.3896484375,-400000.0625,-400000.0625,-400000.0625,-400000.0625,-11396.0302734375
7.360072374343872,8934.4501953125,11776.58984375,11551.2900390625,-400000.0625,-400000.0625,-400000.0625,-400000.0625,-11381.91015625
7.371445178985596,8941.83984375,11791.990234375,11556.25,-400000.0625,-400000.0625,-400000.0625,-400000.0625,-11382.3896484375
7.38456392288208,8989.5302734375,11802.099609375,11553.6201171875,-400000.0625,-400000.0625,-400000.0625,-400000.0625,-11394.5
7.396835088729858,9004.16015625,11794.9501953125,11537.169921875,-400000.0625,-400000.0625,-400000.0625,-400000.0625,-11389.01953125
7.4102396965026855,8987.8603515625,11775.16015625,11530.349609375,-400000.0625,-400000.0625,-400000.0625,-400000.0625,-11370.3701171875
7.431860446929932,8983.5703125,11747.650390625,11518.91015625,-400000.0625,-400000.0625,-400000.0625,-400000.0625,-11366.1298828125
7.44848895072937,9001.6904296875,11746.1201171875,11504.169921875,-400000.0625,-400000.0625,-400000.0625,-400000.0625,-11379.6201171875
7.463617563247681,9028.2001953125,11702.6796875,11482.759765625,-400000.0625,-400000.0625,-400000.0625,-400000.0625,-11385.8701171875
7.478579998016357,9026.91015625,11676.2197265625,11470.990234375,-400000.0625,-400000.0625,-400000.0625,-400000.0625,-11376.099609375
7.488164663314819,9035.58984375,11664.6796875,11456.7802734375,-400000.0625,-400000.0625,-400000.0625,-400000.0625,-11363.509765625
7.501457691192627,9025.0498046875,11639.98046875,11445.1904296875,-400000.0625,-400000.0625,-400000.0625,-400000.0625,-11358.4501953125
7.515273094177246,9029.2900390625,11621.669921875,11434.26953125,-400000.0625,-400000.0625,-400000.0625,-400000.0625,-11359.83984375
7.535967826843262,9044.080078125,11589.8095703125,11416.48046875,-400000.0625,-400000.0625,-400000.0625,-400000.0625,-11368.4697265625
7.552938461303711,9053.23046875,11559.2001953125,11407.2802734375,-400000.0625,-400000.0625,-400000.0625,-400000.0625,-11363.83984375
7.571115970611572,9046.83984375,11566.3095703125,11402.26953125,-400000.0625,-400000.0625,-400000.0625,-400000.0625,-11351.1103515625
7.5848753452301025,9043.169921875,11558.009765625,11398.9404296875,-400000.0625,-400000.0625,-400000.0625,-400000.0625,-11342.3798828125
7.600200653076172,9058.5703125,11537.740234375,11397.7900390625,-400000.0625,-400000.0625,-400000.0625,-400000.0625,-11347.3896484375
7.616071939468384,9082.26953125,11536.169921875,11387.2099609375,-400000.0625,-400000.0625,-400000.0625,-400000.0625,-11363.7900390625
7.634252309799194,9071.8798828125,11500.599609375,11369.419921875,-400000.0625,-400000.0625,-400000.0625,-400000.0625,-11371.08984375
7.646960973739624,9061.8603515625,11501.9296875,11364.3701171875,-400000.0625,-400000.0625,-400000.0625,-400000.0625,-11364.990234375
7.657084226608276,9052.900390625,11507.26953125,11374.3798828125,-400000.0625,-400000.0625,-400000.0625,-400000.0625,-11361.7001953125
7.6695592403411865,9060.91015625,11513.849609375,11371.51953125,-400000.0625,-400000.0625,-400000.0625,-400000.0625,-11370.6103515625
7.68593430519104,9088.0400390625,11528.490234375,11372.759765625,-400000.0625,-400000.0625,-400000.0625,-400000.0625,-11377.240234375
7.696640253067017,9082.599609375,11517.240234375,11372.3798828125,-400000.0625,-400000.0625,-400000.0625,-400000.0625,-11371.51953125
7.71107816696167,9071.4501953125,11517.91015625,11374.1904296875,-400000.0625,-400000.0625,-400000.0625,-400000.0625,-11362.080078125
7.729785442352295,9057.6201171875,11529.01953125,11380.5302734375,-400000.0625,-400000.0625,-400000.0625,-400000.0625,-11359.7900390625
7.742527961730957,9066.150390625,11532.3603515625,11386.5400390625,-400000.0625,-400000.0625,-400000.0625,-400000.0625,-11370.330078125
7.758026838302612,9095.9599609375,11533.5498046875,11383.4404296875,-400000.0625,-400000.0625,-400000.0625,-400000.0625,-11376.099609375
7.777000427246094,9110.740234375,11537.7900390625,11376.4296875,-400000.0625,-400000.0625,-400000.0625,-400000.0625,-11366.8896484375
7.790333986282349,9096.580078125,11538.8896484375,11374.1904296875,-400000.0625,-400000.0625,-400000.0625,-400000.0625,-11354.5
7.803276777267456,9076.7900390625,11539.75,11375.7099609375,-400000.0625,-400000.0625,-400000.0625,-400000.0625,-11353.6796875
7.824330806732178,9081.26953125,11532.3095703125,11379.4296875,-400000.0625,-400000.0625,-400000.0625,-400000.0625,-11365.4599609375
7.837296009063721,9110.5,11535.0302734375,11371.1796875,-400000.0625,-400000.0625,-400000.0625,-400000.0625,-11375.2900390625
7.8581085205078125,9118.6103515625,11527.1103515625,11368.4697265625,-400000.0625,-400000.0625,-400000.0625,-400000.0625,-11374.2802734375
7.8739001750946045,9089.900390625,11525.6298828125,11356.6396484375,-400000.0625,-400000.0625,-400000.0625,-400000.0625,-11372.849609375
7.884890556335449,9077.7900390625,11516.5703125,11351.2099609375,-400000.0625,-400000.0625,-400000.0625,-400000.0625,-11377.48046875
7.900007724761963,9080.080078125,11515.2802734375,11351.25,-400000.0625,-400000.0625,-400000.0625,-400000.0625,-11388.01953125
7.915606498718262,9077.7900390625,11518.76953125,11338.759765625,-400000.0625,-400000.0625,-400000.0625,-400000.0625,-11397.650390625
7.932071924209595,9084.75,11520.009765625,11343.6201171875,-400000.0625,-400000.0625,-400000.0625,-400000.0625,-11388.9697265625
7.9444053173065186,9101.0595703125,11522.25,11355.6904296875,-400000.0625,-400000.0625,-400000.0625,-400000.0625,-11373.9501953125
7.9582741260528564,9087.6103515625,11524.9599609375,11360.1201171875,-400000.0625,-400000.0625,-400000.0625,-400000.0625,-11367.509765625
7.975107192993164,9095.33984375,11527.6796875,11356.7802734375,-400000.0625,-400000.0625,-400000.0625,-400000.0625,-11373.1396484375
7.989804983139038,9110.8798828125,11545.1298828125,11357.5498046875,-400000.0625,-400000.0625,-400000.0625,-400000.0625,-11379.91015625
7.9974892139434814,9120.9404296875,11526.490234375,11350.25,-400000.0625,-400000.0625,-400000.0625,-400000.0625,-11375.7099609375
8.011637687683105,9102.9697265625,11517.099609375,11339.8095703125,-400000.0625,-400000.0625,-400000.0625,-400000.0625,-11367.990234375
8.027256727218628,9091.8095703125,11541.7998046875,11352.1103515625,-400000.0625,-400000.0625,-400000.0625,-400000.0625,-11361.9296875
8.042558670043945,9096.76953125,11535.2197265625,11359.3603515625,-400000.0625,-400000.0625,-400000.0625,-400000.0625,-11366.7998046875
8.055838823318481,9120.990234375,11537.26953125,11347.009765625,-400000.0625,-400000.0625,-400000.0625,-400000.0625,-11375.8095703125
8.069024562835693,9130.0,11528.6796875,11342.9599609375,-400000.0625,-400000.0625,-400000.0625,-400000.0625,-11369.1796875
8.08001160621643,9098.7197265625,11532.259765625,11351.25,-400000.0625,-400000.0625,-400000.0625,-400000.0625,-11355.1201171875
8.091703414916992,9083.3701171875,11543.080078125,11356.1201171875,-400000.0625,-400000.0625,-400000.0625,-400000.0625,-11349.2998046875
8.10938286781311,9102.009765625,11541.990234375,11362.83984375,-400000.0625,-400000.0625,-400000.0625,-400000.0625,-11354.5
8.129900217056274,9132.240234375,11562.490234375,11368.7998046875,-400000.0625,-400000.0625,-400000.0625,-400000.0625,-11355.2099609375
8.147762775421143,9142.0703125,11558.099609375,11356.16015625,-400000.0625,-400000.0625,-400000.0625,-400000.0625,-11360.1201171875
8.167055606842041,9127.1904296875,11540.4599609375,11348.76953125,-400000.0625,-400000.0625,-400000.0625,-400000.0625,-11356.8798828125
8.179686069488525,9104.5400390625,11545.419921875,11359.9296875,-400000.0625,-400000.0625,-400000.0625,-400000.0625,-11351.25
8.188603639602661,9109.58984375,11553.240234375,11362.4599609375,-400000.0625,-400000.0625,-400000.0625,-400000.0625,-11354.259765625
8.209548473358154,9116.75,11529.259765625,11343.33984375,-400000.0625,-400000.0625,-400000.0625,-400000.0625,-11363.7900390625
8.224756002426147,9109.3603515625,11479.1396484375,11321.01953125,-400000.0625,-400000.0625,-400000.0625,-400000.0625,-11368.9404296875
8.239189147949219,9117.0302734375,11511.2802734375,11333.900390625,-400000.0625,-400000.0625,-400000.0625,-400000.0625,-11362.4599609375
8.252371072769165,9120.1796875,11552.0,11348.150390625,-400000.0625,-400000.0625,-400000.0625,-400000.0625,-11344.5302734375
8.268141746520996,9106.6396484375,11536.98046875,11341.9501953125,-400000.0625,-400000.0625,-400000.0625,-400000.0625,-11346.2900390625
8.283053159713745,9111.7900390625,11504.7001953125,11328.5595703125,-400000.0625,-400000.0625,-400000.0625,-400000.0625,-11357.169921875
8.296858310699463,9106.7802734375,11501.1201171875,11315.73046875,-400000.0625,-400000.0625,-400000.0625,-400000.0625,-11353.4501953125
8.310463666915894,9089.66015625,11491.5400390625,11313.9599609375,-400000.0625,-400000.0625,-400000.0625,-400000.0625,-11340.8603515625
8.331137895584106,9075.2099609375,11487.8701171875,11317.58984375,-400000.0625,-400000.0625,-400000.0625,-400000.0625,-11334.7099609375
8.34722375869751,9103.8203125,11494.7802734375,11327.0302734375,-400000.0625,-400000.0625,-400000.0625,-400000.0625,-11335.08984375
8.361077308654785,9098.669921875,11483.7197265625,11311.0595703125,-400000.0625,-400000.0625,-400000.0625,-400000.0625,-11350.8203125
8.377853393554688,9092.2802734375,11466.169921875,11296.4599609375,-400000.0625,-400000.0625,-400000.0625,-400000.0625,-11355.349609375
8.394699573516846,9088.849609375,11458.6396484375,11282.58984375,-400000.0625,-400000.0625,-400000.0625,-400000.0625,-11347.009765625
8.410985469818115,9081.650390625,11465.8798828125,11294.990234375,-400000.0625,-400000.0625,-400000.0625,-400000.0625,-11343.240234375
8.435027122497559,9087.1796875,11479.3798828125,11313.150390625,-400000.0625,-400000.0625,-400000.0625,-400000.0625,-11349.2998046875
8.45325493812561,9104.6298828125,11480.1396484375,11307.5703125,-400000.0625,-400000.0625,-400000.0625,-400000.0625,-11357.5
8.471901178359985,9113.169921875,11470.7001953125,11300.51953125,-400000.0625,-400000.0625,-400000.0625,-400000.0625,-11354.2998046875
8.489204406738281,9098.7197265625,11475.4697265625,11305.4296875,-400000.0625,-400000.0625,-400000.0625,-400000.0625,-11342.33984375
8.507976531982422,9089.7998046875,11487.33984375,11309.0498046875,-400000.0625,-400000.0625,-400000.0625,-400000.0625,-11338.9501953125
8.527156829833984,9080.9404296875,11482.759765625,11316.4404296875,-400000.0625,-400000.0625,-400000.0625,-400000.0625,-11346.099609375
8.539971351623535,9102.1103515625,11485.7197265625,11312.150390625,-400000.0625,-400000.0625,-400000.0625,-400000.0625,-11356.5498046875
8.551832675933838,9119.7998046875,11477.3798828125,11302.6201171875,-400000.0625,-400000.0625,-400000.0625,-400000.0625,-11353.8798828125
8.564345359802246,9102.1103515625,11481.51953125,11307.0498046875,-400000.0625,-400000.0625,-400000.0625,-400000.0625,-11338.4296875
8.57801342010498,9088.9501953125,11491.2998046875,11312.3896484375,-400000.0625,-400000.0625,-400000.0625,-400000.0625,-11333.66015625
8.596485137939453,9101.4404296875,11499.5498046875,11311.48046875,-400000.0625,-400000.0625,-400000.0625,-400000.0625,-11335.23046875
8.61011290550232,9108.349609375,11499.5498046875,11314.8701171875,-400000.0625,-400000.0625,-400000.0625,-400000.0625,-11336.6103515625
8.627887725830078,9125.9501953125,11484.7197265625,11310.9599609375,-400000.0625,-400000.0625,-400000.0625,-400000.0625,-11341.5302734375
8.64418077468872,9111.98046875,11490.490234375,11302.51953125,-400000.0625,-400000.0625,-400000.0625,-400000.0625,-11339.48046875
8.65487813949585,9099.7197265625,11496.9296875,11306.0,-400000.0625,-400000.0625,-400000.0625,-400000.0625,-11334.23046875
8.664913654327393,9098.7197265625,11498.169921875,11310.6298828125,-400000.0625,-400000.0625,-400000.0625,-400000.0625,-11338.2802734375
8.67900037765503,9121.900390625,11496.9697265625,11305.51953125,-400000.0625,-400000.0625,-400000.0625,-400000.0625,-11343.5302734375
8.68994402885437,9137.76953125,11505.3203125,11308.8603515625,-400000.0625,-400000.0625,-400000.0625,-400000.0625,-11340.1904296875
8.70743441581726,9124.849609375,11500.0703125,11311.580078125,-400000.0625,-400000.0625,-400000.0625,-400000.0625,-11328.75
8.729893684387207,9109.1201171875,11500.8798828125,11311.6298828125,-400000.0625,-400000.0625,-400000.0625,-400000.0625,-11323.0703125
8.74430227279663,9109.16015625,11499.740234375,11309.0498046875,-400000.0625,-400000.0625,-400000.0625,-400000.0625,-11331.0400390625
8.759134531021118,9141.6396484375,11497.0703125,11311.0595703125,-400000.0625,-400000.0625,-400000.0625,-400000.0625,-11340.1904296875
8.778822183609009,9149.4599609375,11502.080078125,11305.5703125,-400000.0625,-400000.0625,-400000.0625,-400000.0625,-11337.1396484375
8.78842806816101,9138.8701171875,11515.1396484375,11317.25,-400000.0625,-400000.0625,-400000.0625,-400000.0625,-11315.9697265625
8.800398826599121,9113.1201171875,11511.7099609375,11312.8203125,-400000.0625,-400000.0625,-400000.0625,-400000.0625,-11316.349609375
8.817197799682617,9125.4697265625,11498.98046875,11314.580078125,-400000.0625,-400000.0625,-400000.0625,-400000.0625,-11328.41015625
8.83155107498169,9134.3896484375,11498.5,11308.33984375,-400000.0625,-400000.0625,-400000.0625,-400000.0625,-11342.33984375
8.8461594581604,9134.91015625,11495.5,11298.3701171875,-400000.0625,-400000.0625,-400000.0625,-400000.0625,-11338.6201171875
8.858164310455322,9120.849609375,11505.080078125,11308.4296875,-400000.0625,-400000.0625,-400000.0625,-400000.0625,-11323.169921875
8.867461919784546,9123.5595703125,11508.75,11309.4296875,-400000.0625,-400000.0625,-400000.0625,-400000.0625,-11314.490234375
8.883617639541626,9132.33984375,11505.0302734375,11306.1904296875,-400000.0625,-400000.0625,-400000.0625,-400000.0625,-11322.169921875
8.896415710449219,9143.6396484375,11521.5302734375,11312.7197265625,-400000.0625,-400000.0625,-400000.0625,-400000.0625,-11331.990234375
8.908142328262329,9151.4599609375,11517.8095703125,11313.0595703125,-400000.0625,-400000.0625,-400000.0625,-400000.0625,-11329.7001953125
8.930147171020508,9135.33984375,11512.66015625,11317.6396484375,-400000.0625,-400000.0625,-400000.0625,-400000.0625,-11319.2099609375
8.940938711166382,9119.1298828125,11519.33984375,11324.5498046875,-400000.0625,-400000.0625,-400000.0625,-400000.0625,-11312.33984375
8.952800750732422,9132.669921875,11533.3603515625,11328.2197265625,-400000.0625,-400000.0625,-400000.0625,-400000.0625,-11315.1103515625
8.96722936630249,9151.98046875,11535.3603515625,11328.3203125,-400000.0625,-400000.0625,-400000.0625,-400000.0625,-11320.0703125
8.977908611297607,9170.9599609375,11542.080078125,11330.75,-400000.0625,-400000.0625,-400000.0625,-400000.0625,-11310.3896484375
8.987131118774414,9147.8798828125,11536.169921875,11327.509765625,-400000.0625,-400000.0625,-400000.0625,-400000.0625,-11305.91015625
9.002751111984253,9129.5703125,11528.919921875,11321.259765625,-400000.0625,-400000.0625,-400000.0625,-400000.0625,-11309.4296875
9.019201755523682,9145.0703125,11532.5,11327.3203125,-400000.0625,-400000.0625,-400000.0625,-400000.0625,-11312.2998046875
9.039328813552856,9148.5498046875,11535.3603515625,11320.400390625,-400000.0625,-400000.0625,-400000.0625,-400000.0625,-11317.0595703125
9.060072660446167,9157.5595703125,11537.5498046875,11325.5498046875,-400000.0625,-400000.0625,-400000.0625,-400000.0625,-11312.2001953125
9.074670314788818,9158.1396484375,11537.4599609375,11331.6103515625,-400000.0625,-400000.0625,-400000.0625,-400000.0625,-11298.75
9.083425760269165,9150.080078125,11549.1396484375,11333.900390625,-400000.0625,-400000.0625,-400000.0625,-400000.0625,-11295.650390625
9.098872184753418,9160.0,11547.2802734375,11333.2802734375,-400000.0625,-400000.0625,-400000.0625,-400000.0625,-11303.7099609375
9.115098476409912,9170.5302734375,11549.900390625,11336.849609375,-400000.0625,-400000.0625,-400000.0625,-400000.0625,-11307.8603515625
9.13016676902771,9179.400390625,11539.7001953125,11327.169921875,-400000.0625,-400000.0625,-400000.0625,-400000.0625,-11302.08984375
9.141045808792114,9163.0498046875,11531.5,11322.5498046875,-400000.0625,-400000.0625,-400000.0625,-400000.0625,-11292.1298828125
9.152116298675537,9148.8798828125,11537.41015625,11329.990234375,-400000.0625,-400000.0625,-400000.0625,-400000.0625,-11282.25
9.166323184967041,9153.8896484375,11547.8095703125,11333.66015625,-400000.0625,-400000.0625,-400000.0625,-400000.0625,-11284.4501953125
9.178481340408325,9180.3095703125,11558.9599609375,11344.099609375,-400000.0625,-400000.0625,-400000.0625,-400000.0625,-11284.4501953125
9.193448781967163,9200.2900390625,11562.6796875,11350.3896484375,-400000.0625,-400000.0625,-400000.0625,-400000.0625,-11268.330078125
9.211575984954834,9194.419921875,11562.9697265625,11348.6298828125,-400000.0625,-400000.0625,-400000.0625,-400000.0625,-11258.7001953125
9.229648113250732,9189.75,11572.740234375,11360.83984375,-400000.0625,-400000.0625,-400000.0625,-400000.0625,-11256.650390625
9.24552583694458,9199.5703125,11575.83984375,11364.599609375,-400000.0625,-400000.0625,-400000.0625,-400000.0625,-11257.3603515625
9.258130311965942,9215.5498046875,11568.3095703125,11342.0,-400000.0625,-400000.0625,-400000.0625,-400000.0625,-11269.1904296875
9.274181604385376,9215.740234375,11580.900390625,11348.0595703125,-400000.0625,-400000.0625,-400000.0625,-400000.0625,-11260.080078125
9.284931898117065,9216.5,11621.8603515625,11400.080078125,-400000.0625,-400000.0625,-400000.0625,-400000.0625,-11219.98046875
9.301041841506958,9227.849609375,11667.7802734375,11432.9404296875,-400000.0625,-400000.0625,-400000.0625,-400000.0625,-11196.5703125
9.32805347442627,9236.0,11714.2197265625,11455.4404296875,-400000.0625,-400000.0625,-400000.0625,-400000.0625,-11191.8896484375
9.344175100326538,9253.740234375,11765.0498046875,11482.759765625,-400000.0625,-400000.0625,-400000.0625,-400000.0625,-11187.3603515625
9.358766555786133,9271.2900390625,11814.740234375,11510.2802734375,-400000.0625,-400000.0625,-400000.0625,-400000.0625,-11176.73046875
9.36931562423706,9268.1904296875,11867.0498046875,11537.169921875,-400000.0625,-400000.0625,-400000.0625,-400000.0625,-11161.849609375
9.385352373123169,9270.3798828125,11929.080078125,11577.509765625,-400000.0625,-400000.0625,-400000.0625,-400000.0625,-11141.16015625
9.397502422332764,9299.419921875,11998.3701171875,11620.5703125,-400000.0625,-400000.0625,-400000.0625,-400000.0625,-11128.759765625
9.409337520599365,9338.759765625,12073.66015625,11663.6796875,-400000.0625,-400000.0625,-400000.0625,-400000.0625,-11110.5
9.428569555282593,9366.509765625,12116.8603515625,11697.8203125,-400000.0625,-400000.0625,-400000.0625,-400000.0625,-11091.51953125
9.440892457962036,9383.580078125,12176.900390625,11745.599609375,-400000.0625,-400000.0625,-400000.0625,-400000.0625,-11059.48046875
9.454606056213379,9409.3798828125,12240.83984375,11795.4296875,-400000.0625,-400000.0625,-400000.0625,-400000.0625,-11025.3798828125
9.465165138244629,9448.580078125,12302.2998046875,11843.6396484375,-400000.0625,-400000.0625,-400000.0625,-400000.0625,-11000.5400390625
9.480813980102539,9494.349609375,12358.5703125,11887.41015625,-400000.0625,-400000.0625,-400000.0625,-400000.0625,-10975.509765625
9.499554872512817,9532.5,12394.9501953125,11915.400390625,-400000.0625,-400000.0625,-400000.0625,-400000.0625,-10952.0400390625
9.517056703567505,9554.009765625,12423.419921875,11933.759765625,-400000.0625,-400000.0625,-400000.0625,-400000.0625,-10926.4404296875
9.537099361419678,9562.01953125,12445.9296875,11952.3095703125,-400000.0625,-400000.0625,-400000.0625,-400000.0625,-10906.41015625
9.552131652832031,9583.900390625,12461.4296875,11969.0400390625,-400000.0625,-400000.0625,-400000.0625,-400000.0625,-10897.490234375
9.568476915359497,9598.8798828125,12467.669921875,11973.1904296875,-400000.0625,-400000.0625,-400000.0625,-400000.0625,-10898.5400390625
9.582454681396484,9620.7197265625,12473.2998046875,11977.2001953125,-400000.0625,-400000.0625,-400000.0625,-400000.0625,-10882.240234375
9.592097997665405,9629.4404296875,12482.0703125,11991.0302734375,-400000.0625,-400000.0625,-400000.0625,-400000.0625,-10856.9599609375
9.601868391036987,9621.759765625,12503.150390625,12012.669921875,-400000.0625,-400000.0625,-400000.0625,-400000.0625,-10833.7900390625
9.624187231063843,9655.2900390625,12514.7802734375,12030.9404296875,-400000.0625,-400000.0625,-400000.0625,-400000.0625,-10820.33984375
9.643117904663086,9680.7001953125,12521.509765625,12032.41015625,-400000.0625,-400000.0625,-400000.0625,-400000.0625,-10818.099609375
9.656584978103638,9690.0498046875,12519.7900390625,12027.98046875,-400000.0625,-400000.0625,-400000.0625,-400000.0625,-10808.759765625
9.671348094940186,9675.599609375,12521.41015625,12023.01953125,-400000.0625,-400000.0625,-400000.0625,-400000.0625,-10802.7001953125
9.686124563217163,9671.740234375,12519.7900390625,12028.650390625,-400000.0625,-400000.0625,-400000.0625,-400000.0625,-10798.1201171875
9.699112892150879,9688.0400390625,12525.5595703125,12037.08984375,-400000.0625,-400000.0625,-400000.0625,-400000.0625,-10796.98046875
9.711226224899292,9721.66015625,12523.0302734375,12038.1396484375,-400000.0625,-400000.0625,-400000.0625,-400000.0625,-10796.6396484375
9.730522871017456,9721.330078125,12531.66015625,12042.4296875,-400000.0625,-400000.0625,-400000.0625,-400000.0625,-10782.099609375
9.747179746627808,9732.919921875,12544.8701171875,12054.4404296875,-400000.0625,-400000.0625,-400000.0625,-400000.0625,-10755.490234375
9.758294582366943,9756.5703125,12552.599609375,12077.669921875,-400000.0625,-400000.0625,-400000.0625,-400000.0625,-10729.5
9.771437883377075,9779.9296875,12576.2001953125,12095.830078125,-400000.0625,-400000.0625,-400000.0625,-400000.0625,-10715.7197265625
9.783533334732056,9827.51953125,12601.1904296875,12114.1904296875,-400000.0625,-400000.0625,-400000.0625,-400000.0625,-10701.509765625
9.797720909118652,9850.7900390625,12605.330078125,12118.25,-400000.0625,-400000.0625,-400000.0625,-400000.0625,-10685.0595703125
9.812346696853638,9839.580078125,12614.1103515625,12127.58984375,-400000.0625,-400000.0625,-400000.0625,-400000.0625,-10657.599609375
9.831995725631714,9863.2802734375,12637.0400390625,12151.580078125,-400000.0625,-400000.0625,-400000.0625,-400000.0625,-10623.7900390625
9.846028566360474,9897.419921875,12664.2197265625,12177.419921875,-400000.0625,-400000.0625,-400000.0625,-400000.0625,-10604.33984375
9.86360478401184,9942.150390625,12673.2802734375,12199.6396484375,-400000.0625,-400000.0625,-400000.0625,-400000.0625,-10587.740234375
9.878598928451538,9958.4599609375,12695.1201171875,12212.23046875,-400000.0625,-400000.0625,-400000.0625,-400000.0625,-10563.900390625
9.89714765548706,9973.0,12709.7099609375,12224.0595703125,-400000.0625,-400000.0625,-400000.0625,-400000.0625,-10536.0498046875
9.917792558670044,9968.51953125,12717.2001953125,12242.080078125,-400000.0625,-400000.0625,-400000.0625,-400000.0625,-10522.5595703125
9.937678575515747,9997.509765625,12734.83984375,12262.9697265625,-400000.0625,-400000.0625,-400000.0625,-400000.0625,-10514.98046875
9.954454898834229,10048.5302734375,12769.41015625,12286.8603515625,-400000.0625,-400000.0625,-400000.0625,-400000.0625,-10495.759765625
9.966555118560791,10068.8896484375,12782.2900390625,12302.2099609375,-400000.0625,-400000.0625,-400000.0625,-400000.0625,-10470.73046875
9.979716300964355,10071.419921875,12795.9296875,12324.48046875,-400000.0625,-400000.0625,-400000.0625,-400000.0625,-10439.6796875
9.992370367050171,10093.169921875,12823.8203125,12346.8896484375,-400000.0625,-400000.0625,-400000.0625,-400000.0625,-10415.9404296875
10.0046067237854,10128.4501953125,12853.4296875,12371.1103515625,-400000.0625,-400000.0625,-400000.0625,-400000.0625,-10395.669921875
10.015478610992432,10156.6796875,12876.6103515625,12391.849609375,-400000.0625,-400000.0625,-400000.0625,-400000.0625,-10386.7998046875
10.036144495010376,10199.599609375,12915.849609375,12437.5400390625,-400000.0625,-400000.0625,-400000.0625,-400000.0625,-10335.6396484375
10.051235437393188,10222.8203125,12951.2802734375,12477.349609375,-400000.0625,-400000.0625,-400000.0625,-400000.0625,-10280.7998046875
10.068387985229492,10219.91015625,12959.6201171875,12480.3603515625,-400000.0625,-400000.0625,-400000.0625,-400000.0625,-10278.0400390625
10.078467845916748,10234.3603515625,12969.6396484375,12490.9404296875,-400000.0625,-400000.0625,-400000.0625,-400000.0625,-10282.6103515625
10.093633890151978,10288.0,13006.58984375,12528.419921875,-400000.0625,-400000.0625,-400000.0625,-400000.0625,-10253.9599609375
10.105889081954956,10344.650390625,13065.5302734375,12587.6396484375,-400000.0625,-400000.0625,-400000.0625,-400000.0625,-10186.3896484375
10.117235898971558,10376.5,13098.0,12614.9697265625,-400000.0625,-400000.0625,-400000.0625,-400000.0625,-10138.7001953125
10.13465404510498,10371.73046875,13137.5302734375,12645.4404296875,-400000.0625,-400000.0625,-400000.0625,-400000.0625,-10107.51953125
10.147650957107544,10417.509765625,13165.8095703125,12684.8701171875,-400000.0625,-400000.0625,-400000.0625,-400000.0625,-10088.2099609375
10.161605834960938,10469.25,13199.240234375,12722.259765625,-400000.0625,-400000.0625,-400000.0625,-400000.0625,-10062.3095703125
10.17500638961792,10495.8095703125,13222.2197265625,12747.1904296875,-400000.0625,-400000.0625,-400000.0625,-400000.0625,-10032.9404296875
10.187855243682861,10500.150390625,13246.7802734375,12761.58984375,-400000.0625,-400000.0625,-400000.0625,-400000.0625,-9996.990234375
10.208245992660522,10509.2099609375,13275.2001953125,12780.0,-400000.0625,-400000.0625,-400000.0625,-400000.0625,-9976.009765625
10.229408740997314,10521.599609375,13292.080078125,12803.3701171875,-400000.0625,-400000.0625,-400000.0625,-400000.0625,-9980.009765625
10.246696949005127,10555.0302734375,13303.08984375,12817.8095703125,-400000.0625,-400000.0625,-400000.0625,-400000.0625,-9973.4296875
10.261936664581299,10565.1904296875,13297.9404296875,12810.900390625,-400000.0625,-400000.0625,-400000.0625,-400000.0625,-9961.4599609375
10.278072834014893,10562.08984375,13306.0498046875,12813.900390625,-400000.0625,-400000.0625,-400000.0625,-400000.0625,-9939.9599609375
10.287824869155884,10589.98046875,13363.5498046875,12876.26953125,-400000.0625,-400000.0625,-400000.0625,-400000.0625,-9884.4501953125
10.300758600234985,10646.919921875,13423.9697265625,12944.1298828125,-400000.0625,-400000.0625,-400000.0625,-400000.0625,-9835.76953125
10.313963651657104,10730.4599609375,13481.1904296875,12997.150390625,-400000.0625,-400000.0625,-400000.0625,-400000.0625,-9787.7001953125
10.32888650894165,10796.1201171875,13538.98046875,13048.2197265625,-400000.0625,-400000.0625,-400000.0625,-400000.0625,-9723.7099609375
10.345671653747559,10792.0703125,13551.1904296875,13060.9501953125,-400000.0625,-400000.0625,-400000.0625,-400000.0625,-9693.099609375
10.354957818984985,10806.6103515625,13587.6201171875,13088.080078125,-400000.0625,-400000.0625,-400000.0625,-400000.0625,-9664.25
10.366049528121948,10867.6904296875,13633.73046875,13126.0400390625,-400000.0625,-400000.0625,-400000.0625,-400000.0625,-9637.400390625
10.37731146812439,10901.8798828125,13652.7998046875,13158.3701171875,-400000.0625,-400000.0625,-400000.0625,-400000.0625,-9625.8203125
10.386433601379395,10914.66015625,13673.349609375,13180.8798828125,-400000.0625,-400000.0625,-400000.0625,-400000.0625,-9590.8203125
10.404485940933228,10922.91015625,13696.4296875,13196.4697265625,-400000.0625,-400000.0625,-400000.0625,-400000.0625,-9558.25
10.423574447631836,10921.6201171875,13707.1103515625,13206.8603515625,-400000.0625,-400000.0625,-400000.0625,-400000.0625,-9551.8603515625
10.4395170211792,10947.849609375,13721.849609375,13226.4599609375,-400000.0625,-400000.0625,-400000.0625,-400000.0625,-9554.2900390625
10.452109336853027,10995.48046875,13747.0302734375,13246.73046875,-400000.0625,-400000.0625,-400000.0625,-400000.0625,-9537.650390625
10.467750787734985,11009.650390625,13752.0302734375,13252.4501953125,-400000.0625,-400000.0625,-400000.0625,-400000.0625,-9516.669921875
10.4819495677948,11001.58984375,13746.8798828125,13245.8203125,-400000.0625,-400000.0625,-400000.0625,-400000.0625,-9501.26953125
10.502320766448975,10976.2197265625,13726.6201171875,13229.509765625,-400000.0625,-400000.0625,-400000.0625,-400000.0625,-9522.2001953125
10.529046297073364,10927.8701171875,13688.6103515625,13186.5,-400000.0625,-400000.0625,-400000.0625,-400000.0625,-9580.900390625
10.541755676269531,10901.400390625,13639.1201171875,13131.9501953125,-400000.0625,-400000.0625,-400000.0625,-400000.0625,-9639.83984375
10.551321029663086,10848.240234375,13590.7197265625,13078.6904296875,-400000.0625,-400000.0625,-400000.0625,-400000.0625,-9679.509765625
10.56302809715271,10789.7802734375,13540.2197265625,13031.4404296875,-400000.0625,-400000.0625,-400000.0625,-400000.0625,-9716.3701171875
10.575534582138062,10701.7099609375,13446.759765625,12949.6103515625,-400000.0625,-400000.0625,-400000.0625,-400000.0625,-9813.3095703125
10.587772130966187,10578.490234375,13315.25,12818.5302734375,-400000.0625,-400000.0625,-400000.0625,-400000.0625,-9981.919921875
10.599730968475342,10448.98046875,13173.25,12674.1396484375,-400000.0625,-400000.0625,-400000.0625,-400000.0625,-10145.669921875
10.612449645996094,10355.8603515625,13070.6298828125,12581.8701171875,-400000.0625,-400000.0625,-400000.0625,-400000.0625,-10213.66015625
10.62850570678711,10278.419921875,13012.7900390625,12518.5498046875,-400000.0625,-400000.0625,-400000.0625,-400000.0625,-10247.51953125
10.643573760986328,10217.8095703125,12973.5,12482.9296875,-400000.0625,-400000.0625,-400000.0625,-400000.0625,-10299.0595703125
10.656503677368164,10208.23046875,12964.73046875,12468.3896484375,-400000.0625,-400000.0625,-400000.0625,-400000.0625,-10343.41015625
10.672530174255371,10190.349609375,12937.5,12443.349609375,-400000.0625,-400000.0625,-400000.0625,-400000.0625,-10385.1796875
10.694498062133789,10149.48046875,12893.1103515625,12398.0498046875,-400000.0625,-400000.0625,-400000.0625,-400000.0625,-10410.0703125
10.715539693832397,10090.16015625,12844.0400390625,12345.9404296875,-400000.0625,-400000.0625,-400000.0625,-400000.0625,-10435.580078125
10.735293626785278,10047.48046875,12816.8095703125,12321.3798828125,-400000.0625,-400000.0625,-400000.0625,-400000.0625,-10474.01953125
10.747117757797241,10034.6103515625,12806.5595703125,12304.7802734375,-400000.0625,-400000.0625,-400000.0625,-400000.0625,-10530.5703125
10.760075569152832,10022.5498046875,12787.5302734375,12285.3798828125,-400000.0625,-400000.0625,-400000.0625,-400000.0625,-10565.08984375
10.771332502365112,9982.6796875,12751.009765625,12245.3701171875,-400000.0625,-400000.0625,-400000.0625,-400000.0625,-10575.150390625
10.793184280395508,9916.6904296875,12687.919921875,12183.330078125,-400000.0625,-400000.0625,-400000.0625,-400000.0625,-10604.48046875
10.805526494979858,9858.0400390625,12628.4599609375,12139.849609375,-400000.0625,-400000.0625,-400000.0625,-400000.0625,-10672.1396484375
10.829802513122559,9838.76953125,12615.8701171875,12101.7001953125,-400000.0625,-400000.0625,-400000.0625,-400000.0625,-10740.5703125
10.844409704208374,9846.16015625,12601.4697265625,12084.76953125,-400000.0625,-400000.0625,-400000.0625,-400000.0625,-10774.330078125
10.864860773086548,9827.7099609375,12586.5498046875,12069.080078125,-400000.0625,-400000.0625,-400000.0625,-400000.0625,-10762.5498046875
10.878344058990479,9774.349609375,12557.4599609375,12059.58984375,-400000.0625,-400000.0625,-400000.0625,-400000.0625,-10756.490234375
10.892824649810791,9766.0595703125,12549.16015625,12050.919921875,-400000.0625,-400000.0625,-400000.0625,-400000.0625,-10781.8095703125
10.903242826461792,9776.0703125,12556.26953125,12052.919921875,-400000.0625,-400000.0625,-400000.0625,-400000.0625,-10819.6298828125
10.92359471321106,9813.830078125,12576.7197265625,12072.1396484375,-400000.0625,-400000.0625,-400000.0625,-400000.0625,-10815.5703125
10.935128927230835,9838.8203125,12599.419921875,12081.0,-400000.0625,-400000.0625,-400000.0625,-400000.0625,-10769.509765625
10.952342510223389,9797.5302734375,12593.7001953125,12076.5703125,-400000.0625,-400000.0625,-400000.0625,-400000.0625,-10736.990234375
10.969245910644531,9792.23046875,12593.5595703125,12081.0498046875,-400000.0625,-400000.0625,-400000.0625,-400000.0625,-10755.919921875
10.980521202087402,9783.3203125,12577.25,12065.4599609375,-400000.0625,-400000.0625,-400000.0625,-400000.0625,-10807.1796875
10.994703769683838,9766.150390625,12547.2099609375,12037.1796875,-400000.0625,-400000.0625,-400000.0625,-400000.0625,-10847.51953125
11.007601261138916,9722.419921875,12501.1904296875,11992.599609375,-400000.0625,-400000.0625,-400000.0625,-400000.0625,-10862.8798828125
11.017066717147827,9640.83984375,12430.240234375,11926.8896484375,-400000.0625,-400000.0625,-400000.0625,-400000.0625,-10895.2099609375
11.032509803771973,9574.4599609375,12371.9697265625,11871.2001953125,-400000.0625,-400000.0625,-400000.0625,-400000.0625,-10964.6298828125
11.044953346252441,9570.2197265625,12349.3701171875,11846.4501953125,-400000.0625,-400000.0625,-400000.0625,-400000.0625,-11031.9599609375
11.058761835098267,9554.4296875,12304.4501953125,11804.0595703125,-400000.0625,-400000.0625,-400000.0625,-400000.0625,-11084.650390625
11.070554971694946,9474.23046875,12249.759765625,11744.0703125,-400000.0625,-400000.0625,-400000.0625,-400000.0625,-11106.2998046875
11.090113401412964,9415.91015625,12202.98046875,11694.9599609375,-400000.0625,-400000.0625,-400000.0625,-400000.0625,-11121.3203125
11.103974103927612,9368.2802734375,12163.259765625,11653.66015625,-400000.0625,-400000.0625,-400000.0625,-400000.0625,-11164.900390625
11.129814147949219,9338.900390625,12116.5302734375,11611.6103515625,-400000.0625,-400000.0625,-400000.0625,-400000.0625,-11236.9599609375
11.14491605758667,9283.01953125,12048.8203125,11547.3798828125,-400000.0625,-400000.0625,-400000.0625,-400000.0625,-11331.26953125
11.15731692314148,9228.990234375,11983.4404296875,11484.91015625,-400000.0625,-400000.0625,-400000.0625,-400000.0625,-11359.4501953125
11.165919303894043,9175.6796875,11942.8603515625,11445.0498046875,-400000.0625,-400000.0625,-400000.0625,-400000.0625,-11351.73046875
11.17897629737854,9122.1796875,11897.990234375,11401.990234375,-400000.0625,-400000.0625,-400000.0625,-400000.0625,-11399.3203125
11.191381692886353,9124.419921875,11884.6904296875,11394.169921875,-400000.0625,-400000.0625,-400000.0625,-400000.0625,-11439.1298828125
11.202512741088867,9315.6796875,12051.3896484375,11561.2998046875,-400000.0625,-400000.0625,-400000.0625,-400000.0625,-11288.259765625
11.224421739578247,9480.5302734375,12235.599609375,11722.7099609375,-400000.0625,-400000.0625,-400000.0625,-400000.0625,-11083.8896484375
11.237701177597046,9470.23046875,12236.169921875,11732.580078125,-400000.0625,-400000.0625,-400000.0625,-400000.0625,-11031.33984375
11.250219583511353,9414.8203125,12178.1796875,11679.41015625,-400000.0625,-400000.0625,-400000.0625,-400000.0625,-11088.7998046875
11.263620615005493,9366.7998046875,12108.419921875,11609.26953125,-400000.0625,-400000.0625,-400000.0625,-400000.0625,-11190.26953125
11.278838872909546,9295.7998046875,12030.26953125,11524.4404296875,-400000.0625,-400000.0625,-400000.0625,-400000.0625,-11275.4404296875
11.289177894592285,9259.650390625,11995.509765625,11483.3798828125,-400000.0625,-400000.0625,-400000.0625,-400000.0625,-11284.73046875
11.30181360244751,9245.919921875,11993.0302734375,11489.9599609375,-400000.0625,-400000.0625,-400000.0625,-400000.0625,-11240.8203125
11.31656551361084,9247.1103515625,12026.5,11528.6396484375,-400000.0625,-400000.0625,-400000.0625,-400000.0625,-11210.58984375
11.335450410842896,9300.66015625,12048.8203125,11542.4599609375,-400000.0625,-400000.0625,-400000.0625,-400000.0625,-11230.08984375
11.348754167556763,9324.83984375,12033.1796875,11516.91015625,-400000.0625,-400000.0625,-400000.0625,-400000.0625,-11267.849609375
11.366052865982056,9369.849609375,12067.83984375,11542.419921875,-400000.0625,-400000.0625,-400000.0625,-400000.0625,-11209.73046875
11.387228012084961,9396.4599609375,12091.349609375,11563.349609375,-400000.0625,-400000.0625,-400000.0625,-400000.0625,-11158.7998046875
11.403709888458252,9364.7998046875,12089.490234375,11564.8798828125,-400000.0625,-400000.0625,-400000.0625,-400000.0625,-11173.8203125
11.425289869308472,9359.4599609375,12069.509765625,11532.259765625,-400000.0625,-400000.0625,-400000.0625,-400000.0625,-11236.240234375
11.436030864715576,9347.76953125,12048.2900390625,11495.8798828125,-400000.0625,-400000.0625,-400000.0625,-400000.0625,-11281.2099609375
11.449312448501587,9329.83984375,12010.6201171875,11457.58984375,-400000.0625,-400000.0625,-400000.0625,-400000.0625,-11286.4501953125
11.461753845214844,9282.349609375,11957.3095703125,11414.099609375,-400000.0625,-400000.0625,-400000.0625,-400000.0625,-11301.900390625
11.473737001419067,9240.580078125,11932.5703125,11391.4501953125,-400000.0625,-400000.0625,-400000.0625,-400000.0625,-11345.0498046875
11.490482330322266,9237.7197265625,11916.7802734375,11367.4697265625,-400000.0625,-400000.0625,-400000.0625,-400000.0625,-11402.7998046875
11.502068281173706,9215.830078125,11890.83984375,11342.6201171875,-400000.0625,-400000.0625,-400000.0625,-400000.0625,-11439.849609375
11.512578248977661,9225.419921875,11887.0302734375,11346.009765625,-400000.0625,-400000.0625,-400000.0625,-400000.0625,-11409.669921875
11.52842402458191,9241.73046875,11902.2900390625,11363.509765625,-400000.0625,-400000.0625,-400000.0625,-400000.0625,-11360.740234375
11.537142992019653,9280.919921875,11938.48046875,11409.330078125,-400000.0625,-400000.0625,-400000.0625,-400000.0625,-11323.9296875
11.555434465408325,9371.0400390625,12029.9404296875,11495.16015625,-400000.0625,-400000.0625,-400000.0625,-400000.0625,-11267.2802734375
11.568190097808838,9395.98046875,12054.830078125,11513.1396484375,-400000.0625,-400000.0625,-400000.0625,-400000.0625,-11263.23046875
11.583288669586182,9342.91015625,11990.740234375,11452.25,-400000.0625,-400000.0625,-400000.0625,-400000.0625,-11284.6396484375
11.596888065338135,9303.8095703125,11963.509765625,11425.6904296875,-400000.0625,-400000.0625,-400000.0625,-400000.0625,-11275.48046875
11.611740350723267,9294.3701171875,11949.0595703125,11422.830078125,-400000.0625,-400000.0625,-400000.0625,-400000.0625,-11279.009765625
11.628451347351074,9300.9501953125,11939.240234375,11418.2998046875,-400000.0625,-400000.0625,-400000.0625,-400000.0625,-11302.419921875
11.643033266067505,9301.0,11931.23046875,11395.8798828125,-400000.0625,-400000.0625,-400000.0625,-400000.0625,-11313.76953125
11.6597580909729,9283.349609375,11910.33984375,11369.849609375,-400000.0625,-400000.0625,-400000.0625,-400000.0625,-11294.650390625
11.675189733505249,9253.7900390625,11890.080078125,11359.0302734375,-400000.0625,-400000.0625,-400000.0625,-400000.0625,-11285.6396484375
11.694235801696777,9229.6103515625,11873.2900390625,11343.91015625,-400000.0625,-400000.0625,-400000.0625,-400000.0625,-11319.58984375
11.711406469345093,9218.6904296875,11858.1298828125,11323.3603515625,-400000.0625,-400000.0625,-400000.0625,-400000.0625,-11378.3798828125
11.72561764717102,9204.25,11826.7099609375,11292.83984375,-400000.0625,-400000.0625,-400000.0625,-400000.0625,-11423.8798828125
11.737669944763184,9182.599609375,11809.6796875,11272.2900390625,-400000.0625,-400000.0625,-400000.0625,-400000.0625,-11428.0703125
11.749167203903198,9165.2900390625,11813.0703125,11283.6396484375,-400000.0625,-400000.0625,-400000.0625,-400000.0625,-11399.26953125
11.762324810028076,9182.3603515625,11835.5302734375,11305.330078125,-400000.0625,-400000.0625,-400000.0625,-400000.0625,-11394.4501953125
11.77565050125122,9231.66015625,11867.8095703125,11330.650390625,-400000.0625,-400000.0625,-400000.0625,-400000.0625,-11414.7197265625
11.797542095184326,9282.2998046875,11906.5302734375,11366.1796875,-400000.0625,-400000.0625,-400000.0625,-400000.0625,-11406.1796875
11.816218852996826,9302.5703125,11944.099609375,11395.3603515625,-400000.0625,-400000.0625,-400000.0625,-400000.0625,-11345.150390625
11.840667247772217,9297.900390625,11948.2099609375,11409.9501953125,-400000.0625,-400000.0625,-400000.0625,-400000.0625,-11299.23046875
11.855770587921143,9278.349609375,11944.099609375,11406.3798828125,-400000.0625,-400000.0625,-400000.0625,-400000.0625,-11318.2998046875
11.879581928253174,9272.6201171875,11939.7197265625,11402.8896484375,-400000.0625,-400000.0625,-400000.0625,-400000.0625,-11357.400390625
11.900492668151855,9270.759765625,11937.099609375,11397.26953125,-400000.0625,-400000.0625,-400000.0625,-400000.0625,-11376.6201171875
11.926573753356934,9218.169921875,11893.5595703125,11347.33984375,-400000.0625,-400000.0625,-400000.0625,-400000.0625,-11411.48046875
11.93932843208313,9173.58984375,11859.9404296875,11313.3896484375,-400000.0625,-400000.0625,-400000.0625,-400000.0625,-11428.01953125
11.953365325927734,9200.2900390625,11899.8095703125,11354.0703125,-400000.0625,-400000.0625,-400000.0625,-400000.0625,-11412.8095703125
11.974281072616577,9229.23046875,11930.990234375,11386.4404296875,-400000.0625,-400000.0625,-400000.0625,-400000.0625,-11421.919921875
11.9895920753479,9232.9501953125,11931.51953125,11391.6396484375,-400000.0625,-400000.0625,-400000.0625,-400000.0625,-11439.5595703125
12.003308057785034,9215.5498046875,11927.26953125,11381.4404296875,-400000.0625,-400000.0625,-400000.0625,-400000.0625,-11427.2099609375
12.016542911529541,9200.0,11927.419921875,11383.9599609375,-400000.0625,-400000.0625,-400000.0625,-400000.0625,-11414.0
12.034789562225342,9201.5302734375,11934.4697265625,11396.1201171875,-400000.0625,-400000.0625,-400000.0625,-400000.0625,-11437.0400390625
12.051138639450073,9219.4599609375,11963.3701171875,11421.5400390625,-400000.0625,-400000.0625,-400000.0625,-400000.0625,-11467.8896484375
12.063928604125977,9256.7001953125,12004.0400390625,11454.009765625,-400000.0625,-400000.0625,-400000.0625,-400000.0625,-11461.6396484375
12.074947357177734,9289.3603515625,12042.240234375,11489.8701171875,-400000.0625,-400000.0625,-400000.0625,-400000.0625,-11409.08984375
12.088079929351807,9291.169921875,12074.1904296875,11525.2998046875,-400000.0625,-400000.0625,-400000.0625,-400000.0625,-11353.4501953125
12.098679542541504,9288.98046875,12104.5595703125,11549.7099609375,-400000.0625,-400000.0625,-400000.0625,-400000.0625,-11363.080078125
12.11175537109375,9308.150390625,12128.6904296875,11570.98046875,-400000.0625,-400000.0625,-400000.0625,-400000.0625,-11430.1201171875
12.130320072174072,9324.6904296875,12140.1796875,11575.8896484375,-400000.0625,-400000.0625,-400000.0625,-400000.0625,-11446.4296875
12.14132308959961,9321.1201171875,12131.6396484375,11558.6796875,-400000.0625,-400000.0625,-400000.0625,-400000.0625,-11410.669921875
12.159949779510498,9277.8701171875,12105.3701171875,11540.83984375,-400000.0625,-400000.0625,-400000.0625,-400000.0625,-11397.7900390625
12.173887729644775,9247.2099609375,12083.9599609375,11523.0595703125,-400000.0625,-400000.0625,-400000.0625,-400000.0625,-11435.7998046875
12.187856674194336,9250.0703125,12082.009765625,11511.5703125,-400000.0625,-400000.0625,-400000.0625,-400000.0625,-11518.4296875
12.20025110244751,9245.01953125,12079.3798828125,11506.1796875,-400000.0625,-400000.0625,-400000.0625,-400000.0625,-11526.4404296875
12.215407133102417,9230.8095703125,12062.1201171875,11498.400390625,-400000.0625,-400000.0625,-400000.0625,-400000.0625,-11489.4404296875
12.23194932937622,9198.91015625,12050.580078125,11480.0,-400000.0625,-400000.0625,-400000.0625,-400000.0625,-11472.990234375
12.247341632843018,9164.099609375,12045.0498046875,11470.3701171875,-400000.0625,-400000.0625,-400000.0625,-400000.0625,-11505.75
12.267513275146484,9151.650390625,12047.9599609375,11472.1298828125,-400000.0625,-400000.0625,-400000.0625,-400000.0625,-11562.830078125
12.290632486343384,9166.1904296875,12048.150390625,11475.2802734375,-400000.0625,-400000.0625,-400000.0625,-400000.0625,-11596.8701171875
12.305609226226807,9174.7802734375,12055.830078125,11485.580078125,-400000.0625,-400000.0625,-400000.0625,-400000.0625,-11553.6201171875
12.314563035964966,9165.91015625,12079.5302734375,11510.66015625,-400000.0625,-400000.0625,-400000.0625,-400000.0625,-11506.650390625
12.334159135818481,9168.669921875,12108.4697265625,11531.5498046875,-400000.0625,-400000.0625,-400000.0625,-400000.0625,-11489.009765625
12.348347187042236,9177.349609375,12130.0703125,11540.8896484375,-400000.0625,-400000.0625,-400000.0625,-400000.0625,-11489.73046875
12.361177921295166,9183.169921875,12115.91015625,11535.6904296875,-400000.0625,-400000.0625,-400000.0625,-400000.0625,-11480.8095703125
12.370174646377563,9168.150390625,12082.3896484375,11526.0595703125,-400000.0625,-400000.0625,-400000.0625,-400000.0625,-11442.759765625
12.385164260864258,9133.76953125,12097.7900390625,11529.16015625,-400000.0625,-400000.0625,-400000.0625,-400000.0625,-11391.9296875
12.397787094116211,9130.150390625,12125.16015625,11531.01953125,-400000.0625,-400000.0625,-400000.0625,-400000.0625,-11373.4697265625
12.4111909866333,9143.259765625,12139.849609375,11538.9404296875,-400000.0625,-400000.0625,-400000.0625,-400000.0625,-11372.1904296875
12.42939043045044,9139.7802734375,12105.900390625,11534.5,-400000.0625,-400000.0625,-400000.0625,-400000.0625,-11367.23046875
12.444788455963135,9143.8798828125,12107.900390625,11538.4599609375,-400000.0625,-400000.0625,-400000.0625,-400000.0625,-11334.75
12.463806867599487,9125.66015625,12102.080078125,11534.7900390625,-400000.0625,-400000.0625,-400000.0625,-400000.0625,-11302.0400390625
12.474225044250488,9109.3095703125,12111.3798828125,11541.4599609375,-400000.0625,-400000.0625,-400000.0625,-400000.0625,-11289.9296875
12.486172914505005,9112.599609375,12117.8603515625,11544.2802734375,-400000.0625,-400000.0625,-400000.0625,-400000.0625,-11301.6103515625
12.498933792114258,9127.08984375,12099.3203125,11533.9296875,-400000.0625,-400000.0625,-400000.0625,-400000.0625,-11307.76953125
12.508873224258423,9124.4697265625,12069.509765625,11506.509765625,-400000.0625,-400000.0625,-400000.0625,-400000.0625,-11284.7802734375
12.526447534561157,9107.400390625,12046.8603515625,11498.1201171875,-400000.0625,-400000.0625,-400000.0625,-400000.0625,-11252.3603515625
12.535558223724365,9102.76953125,12034.509765625,11487.5302734375,-400000.0625,-400000.0625,-400000.0625,-400000.0625,-11252.6904296875
12.551249980926514,9121.0400390625,12030.3203125,11484.0498046875,-400000.0625,-400000.0625,-400000.0625,-400000.0625,-11264.5595703125
12.572238683700562,9151.169921875,12031.9404296875,11482.240234375,-400000.0625,-400000.0625,-400000.0625,-400000.0625,-11259.509765625
12.586778163909912,9165.8095703125,12035.5595703125,11484.5302734375,-400000.0625,-400000.0625,-400000.0625,-400000.0625,-11223.1298828125
12.600927829742432,9163.4296875,12030.4599609375,11482.240234375,-400000.0625,-400000.0625,-400000.0625,-400000.0625,-11187.509765625
12.613327980041504,9177.73046875,12031.3701171875,11497.5,-400000.0625,-400000.0625,-400000.0625,-400000.0625,-11180.6904296875
12.627787828445435,9207.6796875,12056.259765625,11515.330078125,-400000.0625,-400000.0625,-400000.0625,-400000.0625,-11196.1904296875
12.637969017028809,9247.919921875,12077.330078125,11530.400390625,-400000.0625,-400000.0625,-400000.0625,-400000.0625,-11191.4599609375
12.652340412139893,9268.2802734375,12084.5302734375,11542.419921875,-400000.0625,-400000.0625,-400000.0625,-400000.0625,-11152.5498046875
12.666740655899048,9249.9697265625,12106.66015625,11561.8701171875,-400000.0625,-400000.0625,-400000.0625,-400000.0625,-11114.169921875
12.68074631690979,9253.9296875,12124.490234375,11578.419921875,-400000.0625,-400000.0625,-400000.0625,-400000.0625,-11118.41015625
12.694071292877197,9277.490234375,12141.7099609375,11590.6298828125,-400000.0625,-400000.0625,-400000.0625,-400000.0625,-11150.740234375
12.702608108520508,9300.08984375,12153.0498046875,11608.41015625,-400000.0625,-400000.0625,-400000.0625,-400000.0625,-11159.990234375
12.715951204299927,9304.099609375,12156.150390625,11618.0400390625,-400000.0625,-400000.0625,-400000.0625,-400000.0625,-11126.7099609375
12.730026483535767,9305.2900390625,12170.26953125,11626.009765625,-400000.0625,-400000.0625,-400000.0625,-400000.0625,-11098.9599609375
12.74731183052063,9310.76953125,12173.509765625,11644.4599609375,-400000.0625,-400000.0625,-400000.0625,-400000.0625,-11121.75
12.756836891174316,9322.2197265625,12205.3203125,11660.2001953125,-400000.0625,-400000.0625,-400000.0625,-400000.0625,-11173.580078125
12.768568754196167,9350.2998046875,12225.919921875,11671.5400390625,-400000.0625,-400000.0625,-400000.0625,-400000.0625,-11193.4697265625
12.782630205154419,9368.7998046875,12231.2998046875,11676.599609375,-400000.0625,-400000.0625,-400000.0625,-400000.0625,-11155.9404296875
12.794890642166138,9337.5703125,12226.8701171875,11671.9296875,-400000.0625,-400000.0625,-400000.0625,-400000.0625,-11136.009765625
12.811674356460571,9327.599609375,12234.5,11671.740234375,-400000.0625,-400000.0625,-400000.0625,-400000.0625,-11165.0
12.83537745475769,9341.150390625,12244.6103515625,11685.330078125,-400000.0625,-400000.0625,-400000.0625,-400000.0625,-11213.1103515625
12.846003770828247,9364.990234375,12267.9697265625,11695.580078125,-400000.0625,-400000.0625,-400000.0625,-400000.0625,-11225.9404296875
12.865490913391113,9357.3603515625,12280.849609375,11701.2998046875,-400000.0625,-400000.0625,-400000.0625,-400000.0625,-11192.7998046875
12.884862899780273,9341.8095703125,12279.23046875,11701.8701171875,-400000.0625,-400000.0625,-400000.0625,-400000.0625,-11177.2099609375
12.893440008163452,9333.66015625,12285.900390625,11709.98046875,-400000.0625,-400000.0625,-400000.0625,-400000.0625,-11208.33984375
12.906367540359497,9342.0498046875,12293.2001953125,11707.259765625,-400000.0625,-400000.0625,-400000.0625,-400000.0625,-11259.9404296875
12.925814628601074,9356.830078125,12297.2001953125,11708.0703125,-400000.0625,-400000.0625,-400000.0625,-400000.0625,-11273.5302734375
12.938337564468384,9342.1904296875,12302.5400390625,11709.6396484375,-400000.0625,-400000.0625,-400000.0625,-400000.0625,-11243.2998046875
12.95260500907898,9306.8095703125,12274.169921875,11700.919921875,-400000.0625,-400000.0625,-400000.0625,-400000.0625,-11212.5400390625
12.966803550720215,9284.0703125,12239.3603515625,11697.150390625,-400000.0625,-400000.0625,-400000.0625,-400000.0625,-11221.98046875
12.978142976760864,9299.7099609375,12260.580078125,11692.48046875,-400000.0625,-400000.0625,-400000.0625,-400000.0625,-11238.8603515625
12.991773843765259,9328.509765625,12267.7802734375,11681.509765625,-400000.0625,-400000.0625,-400000.0625,-400000.0625,-11230.5703125
13.003021001815796,9331.0400390625,12234.3603515625,11665.73046875,-400000.0625,-400000.0625,-400000.0625,-400000.0625,-11194.08984375
13.023599624633789,9296.66015625,12165.5,11638.400390625,-400000.0625,-400000.0625,-400000.0625,-400000.0625,-11161.23046875
13.03357195854187,9279.009765625,12134.509765625,11619.08984375,-400000.0625,-400000.0625,-400000.0625,-400000.0625,-11160.66015625
13.047323226928711,9286.3603515625,12089.16015625,11596.16015625,-400000.0625,-400000.0625,-400000.0625,-400000.0625,-11192.75
13.059378385543823,9296.1298828125,12060.5,11580.3701171875,-400000.0625,-400000.0625,-400000.0625,-400000.0625,-11193.1298828125
13.076155662536621,9277.25,11984.1103515625,11546.330078125,-400000.0625,-400000.0625,-400000.0625,-400000.0625,-11165.0
13.088294506072998,9247.2998046875,11926.1298828125,11510.5595703125,-400000.0625,-400000.0625,-400000.0625,-400000.0625,-11146.98046875
13.10153865814209,9242.490234375,11877.6796875,11481.91015625,-400000.0625,-400000.0625,-400000.0625,-400000.0625,-11158.5595703125
13.116482257843018,9239.9599609375,11813.2099609375,11461.2099609375,-400000.0625,-400000.0625,-400000.0625,-400000.0625,-11180.1201171875
13.13575792312622,9243.919921875,11803.6796875,11449.0,-400000.0625,-400000.0625,-400000.0625,-400000.0625,-11180.6904296875
13.156666040420532,9240.91015625,11735.25,11405.9501953125,-400000.0625,-400000.0625,-400000.0625,-400000.0625,-11150.83984375
13.174704790115356,9226.4697265625,11700.8203125,11384.2001953125,-400000.0625,-400000.0625,-400000.0625,-400000.0625,-11136.8701171875
13.185506105422974,9201.33984375,11647.650390625,11350.919921875,-400000.0625,-400000.0625,-400000.0625,-400000.0625,-11164.8603515625
13.20146656036377,9187.0302734375,11588.9599609375,11323.01953125,-400000.0625,-400000.0625,-400000.0625,-400000.0625,-11203.150390625
13.2152099609375,9210.25,11578.1298828125,11305.8603515625,-400000.0625,-400000.0625,-400000.0625,-400000.0625,-11223.509765625
13.234228372573853,9220.169921875,11524.25,11280.490234375,-400000.0625,-400000.0625,-400000.0625,-400000.0625,-11216.98046875
13.251027345657349,9214.9296875,11531.5,11280.2001953125,-400000.0625,-400000.0625,-400000.0625,-400000.0625,-11223.169921875
13.265817880630493,9224.0302734375,11493.7802734375,11257.2197265625,-400000.0625,-400000.0625,-400000.0625,-400000.0625,-11247.9697265625
13.279710292816162,9232.08984375,11484.0498046875,11252.6904296875,-400000.0625,-400000.0625,-400000.0625,-400000.0625,-11285.830078125
13.291272640228271,9254.080078125,11485.76953125,11244.349609375,-400000.0625,-400000.0625,-400000.0625,-400000.0625,-11297.1298828125
13.307260513305664,9240.2001953125,11458.2099609375,11232.759765625,-400000.0625,-400000.0625,-400000.0625,-400000.0625,-11283.4501953125
13.328171730041504,9246.6396484375,11455.73046875,11222.509765625,-400000.0625,-400000.0625,-400000.0625,-400000.0625,-11278.9599609375
13.34172797203064,9227.08984375,11442.3798828125,11204.8203125,-400000.0625,-400000.0625,-400000.0625,-400000.0625,-11299.7099609375
13.357404470443726,9219.41015625,11440.9501953125,11195.5703125,-400000.0625,-400000.0625,-400000.0625,-400000.0625,-11341.8603515625
13.370111465454102,9223.8896484375,11427.6904296875,11182.5,-400000.0625,-400000.0625,-400000.0625,-400000.0625,-11380.6298828125
13.387080430984497,9218.83984375,11421.490234375,11169.240234375,-400000.0625,-400000.0625,-400000.0625,-400000.0625,-11395.98046875
13.400357246398926,9205.490234375,11409.3798828125,11151.4599609375,-400000.0625,-400000.0625,-400000.0625,-400000.0625,-11405.51953125
13.41577672958374,9193.5595703125,11414.240234375,11148.1201171875,-400000.0625,-400000.0625,-400000.0625,-400000.0625,-11440.330078125
13.442312240600586,9205.76953125,11428.5498046875,11155.990234375,-400000.0625,-400000.0625,-400000.0625,-400000.0625,-11477.0400390625
13.463468074798584,9200.6201171875,11409.08984375,11135.7197265625,-400000.0625,-400000.0625,-400000.0625,-400000.0625,-11490.349609375
13.480266332626343,9170.8701171875,11377.9599609375,11107.1103515625,-400000.0625,-400000.0625,-400000.0625,-400000.0625,-11506.990234375
13.489749193191528,9137.919921875,11366.990234375,11086.509765625,-400000.0625,-400000.0625,-400000.0625,-400000.0625,-11550.759765625
13.499976396560669,9113.9296875,11360.2197265625,11076.259765625,-400000.0625,-400000.0625,-400000.0625,-400000.0625,-11637.9296875
13.515252828598022,9116.7001953125,11351.490234375,11066.9599609375,-400000.0625,-400000.0625,-400000.0625,-400000.0625,-11705.259765625
13.531566381454468,9133.9599609375,11352.2099609375,11061.4296875,-400000.0625,-400000.0625,-400000.0625,-400000.0625,-11680.8896484375
13.54689621925354,9129.4296875,11350.2998046875,11061.240234375,-400000.0625,-400000.0625,-400000.0625,-400000.0625,-11634.490234375
13.558458089828491,9108.400390625,11351.73046875,11059.330078125,-400000.0625,-400000.0625,-400000.0625,-400000.0625,-11589.580078125
13.569724798202515,9087.1298828125,11359.98046875,11059.8603515625,-400000.0625,-400000.0625,-400000.0625,-400000.0625,-11600.5400390625
13.582783699035645,9103.4404296875,11363.9404296875,11053.51953125,-400000.0625,-400000.0625,-400000.0625,-400000.0625,-11715.5595703125
13.596570253372192,9131.48046875,11365.3701171875,11050.1298828125,-400000.0625,-400000.0625,-400000.0625,-400000.0625,-11803.4404296875
13.614520072937012,9132.580078125,11350.73046875,11045.3603515625,-400000.0625,-400000.0625,-400000.0625,-400000.0625,-11743.58984375
13.631277084350586,9116.650390625,11360.3095703125,11049.080078125,-400000.0625,-400000.0625,-400000.0625,-400000.0625,-11652.0400390625
13.648635149002075,9119.990234375,11369.75,11048.8896484375,-400000.0625,-400000.0625,-400000.0625,-400000.0625,-11641.7900390625
13.66177248954773,9125.4697265625,11378.7197265625,11046.7900390625,-400000.0625,-400000.0625,-400000.0625,-400000.0625,-11652.330078125
13.67499327659607,9135.2001953125,11381.48046875,11043.98046875,-400000.0625,-400000.0625,-400000.0625,-400000.0625,-11683.8896484375
13.692301511764526,9132.4296875,11370.51953125,11036.2998046875,-400000.0625,-400000.0625,-400000.0625,-400000.0625,-11711.650390625
13.702360153198242,9101.150390625,11361.98046875,11022.0400390625,-400000.0625,-400000.0625,-400000.0625,-400000.0625,-11651.6103515625
13.714249849319458,9105.4501953125,11360.83984375,11023.240234375,-400000.0625,-400000.0625,-400000.0625,-400000.0625,-11628.009765625
13.733567714691162,9131.33984375,11375.48046875,11034.0595703125,-400000.0625,-400000.0625,-400000.0625,-400000.0625,-11608.599609375
13.748926162719727,9158.7099609375,11387.0595703125,11043.0302734375,-400000.0625,-400000.0625,-400000.0625,-400000.0625,-11571.6904296875
13.766746997833252,9163.240234375,11402.0400390625,11054.990234375,-400000.0625,-400000.0625,-400000.0625,-400000.0625,-11515.7099609375
13.783543586730957,9163.51953125,11411.1904296875,11071.01953125,-400000.0625,-400000.0625,-400000.0625,-400000.0625,-11462.6396484375
13.794452667236328,9162.330078125,11433.509765625,11088.4697265625,-400000.0625,-400000.0625,-400000.0625,-400000.0625,-11440.3701171875
13.813614845275879,9181.3603515625,11437.1298828125,11104.0595703125,-400000.0625,-400000.0625,-400000.0625,-400000.0625,-11453.9599609375
13.832501649856567,9194.419921875,11440.1796875,11106.4404296875,-400000.0625,-400000.0625,-400000.0625,-400000.0625,-11441.330078125
13.846141815185547,9212.58984375,11448.669921875,11112.599609375,-400000.0625,-400000.0625,-400000.0625,-400000.0625,-11397.41015625
13.860534191131592,9206.580078125,11464.740234375,11118.3203125,-400000.0625,-400000.0625,-400000.0625,-400000.0625,-11366.75
13.879250049591064,9209.7802734375,11483.3798828125,11131.1396484375,-400000.0625,-400000.0625,-400000.0625,-400000.0625,-11380.2900390625
13.892216205596924,9237.2001953125,11493.0595703125,11147.98046875,-400000.0625,-400000.0625,-400000.0625,-400000.0625,-11400.1796875
13.903564691543579,9256.9404296875,11507.7001953125,11159.0400390625,-400000.0625,-400000.0625,-400000.0625,-400000.0625,-11381.3896484375
13.923391819000244,9269.91015625,11526.16015625,11174.2998046875,-400000.0625,-400000.0625,-400000.0625,-400000.0625,-11353.349609375
13.939515113830566,9254.3603515625,11533.169921875,11194.51953125,-400000.0625,-400000.0625,-400000.0625,-400000.0625,-11338.8095703125
13.952490091323853,9255.9296875,11547.6103515625,11206.009765625,-400000.0625,-400000.0625,-400000.0625,-400000.0625,-11336.66015625
13.970606803894043,9280.349609375,11554.0498046875,11209.1103515625,-400000.0625,-400000.0625,-400000.0625,-400000.0625,-11340.8603515625
13.984450578689575,9307.580078125,11552.7197265625,11206.150390625,-400000.0625,-400000.0625,-400000.0625,-400000.0625,-11339.3798828125
13.999109268188477,9304.8603515625,11553.9599609375,11199.1904296875,-400000.0625,-400000.0625,-400000.0625,-400000.0625,-11329.1298828125
14.015353441238403,9275.099609375,11545.1298828125,11201.759765625,-400000.0625,-400000.0625,-400000.0625,-400000.0625,-11323.6904296875
14.035299062728882,9277.5400390625,11538.5498046875,11210.919921875,-400000.0625,-400000.0625,-400000.0625,-400000.0625,-11329.650390625
14.054068803787231,9290.0302734375,11564.2099609375,11229.7099609375,-400000.0625,-400000.0625,-400000.0625,-400000.0625,-11337.23046875
14.075824499130249,9304.330078125,11571.169921875,11231.1904296875,-400000.0625,-400000.0625,-400000.0625,-400000.0625,-11341.8095703125
14.091553688049316,9327.26953125,11580.330078125,11233.6201171875,-400000.0625,-400000.0625,-400000.0625,-400000.0625,-11336.3798828125
14.103122234344482,9321.599609375,11580.7998046875,11248.9697265625,-400000.0625,-400000.0625,-400000.0625,-400000.0625,-11311.91015625
14.126542806625366,9318.5400390625,11596.25,11261.3701171875,-400000.0625,-400000.0625,-400000.0625,-400000.0625,-11294.3203125
14.138251304626465,9341.91015625,11619.1904296875,11281.8701171875,-400000.0625,-400000.0625,-400000.0625,-400000.0625,-11291.5498046875
14.152714729309082,9378.3896484375,11618.8095703125,11291.509765625,-400000.0625,-400000.0625,-400000.0625,-400000.0625,-11282.5400390625
14.166588544845581,9382.25,11633.349609375,11300.7998046875,-400000.0625,-400000.0625,-400000.0625,-400000.0625,-11253.6396484375
14.182163953781128,9370.66015625,11648.7998046875,11313.580078125,-400000.0625,-400000.0625,-400000.0625,-400000.0625,-11222.509765625
14.196436882019043,9381.9599609375,11652.1396484375,11322.01953125,-400000.0625,-400000.0625,-400000.0625,-400000.0625,-11215.16015625
14.212020874023438,9398.8896484375,11653.9501953125,11328.8896484375,-400000.0625,-400000.0625,-400000.0625,-400000.0625,-11228.4697265625
14.230480670928955,9416.6298828125,11669.73046875,11348.1103515625,-400000.0625,-400000.0625,-400000.0625,-400000.0625,-11225.7998046875
14.24490761756897,9440.5703125,11684.4697265625,11361.98046875,-400000.0625,-400000.0625,-400000.0625,-400000.0625,-11200.099609375
14.258716344833374,9441.3798828125,11704.400390625,11379.76953125,-400000.0625,-400000.0625,-400000.0625,-400000.0625,-11178.830078125
14.27165412902832,9451.8203125,11728.5703125,11408.759765625,-400000.0625,-400000.0625,-400000.0625,-400000.0625,-11158.0400390625
14.283025979995728,9504.6103515625,11767.2900390625,11439.6103515625,-400000.0625,-400000.0625,-400000.0625,-400000.0625,-11133.150390625
14.296575784683228,9562.1103515625,11807.490234375,11484.8603515625,-400000.0625,-400000.0625,-400000.0625,-400000.0625,-11085.6103515625
14.308653831481934,9601.98046875,11840.76953125,11522.6298828125,-400000.0625,-400000.0625,-400000.0625,-400000.0625,-11030.7197265625
14.335708856582642,9595.349609375,11858.1298828125,11542.23046875,-400000.0625,-400000.0625,-400000.0625,-400000.0625,-10993.5302734375
14.345846891403198,9597.919921875,11863.9501953125,11554.099609375,-400000.0625,-400000.0625,-400000.0625,-400000.0625,-10979.7001953125
14.360934734344482,9620.0,11870.150390625,11551.0,-400000.0625,-400000.0625,-400000.0625,-400000.0625,-10976.5498046875
14.37279462814331,9638.41015625,11874.150390625,11558.8203125,-400000.0625,-400000.0625,-400000.0625,-400000.0625,-10977.5595703125
14.388534545898438,9648.990234375,11870.5302734375,11560.580078125,-400000.0625,-400000.0625,-400000.0625,-400000.0625,-10974.0302734375
14.400953531265259,9628.3896484375,11868.669921875,11554.3896484375,-400000.0625,-400000.0625,-400000.0625,-400000.0625,-10972.169921875
14.414619207382202,9607.3603515625,11861.75,11547.1904296875,-400000.0625,-400000.0625,-400000.0625,-400000.0625,-10981.8896484375
14.43284797668457,9596.8701171875,11832.669921875,11530.259765625,-400000.0625,-400000.0625,-400000.0625,-400000.0625,-11007.169921875
14.448359251022339,9559.8701171875,11809.73046875,11480.7099609375,-400000.0625,-400000.0625,-400000.0625,-400000.0625,-11049.4599609375
14.464783906936646,9519.240234375,11756.08984375,11429.2197265625,-400000.0625,-400000.0625,-400000.0625,-400000.0625,-11092.51953125
14.474427223205566,9461.7900390625,11713.41015625,11406.3798828125,-400000.0625,-400000.0625,-400000.0625,-400000.0625,-11118.83984375
14.486972570419312,9428.0302734375,11685.7099609375,11380.8603515625,-400000.0625,-400000.0625,-400000.0625,-400000.0625,-11147.7900390625
