time,ch1,ch2,ch3,ch4,ch5,ch6,ch7,ch8
194.73595905303955,-400000.0625,6772.7099609375,724.510009765625,-400000.0625,-2114.72998046875,-400000.0625,5357.64990234375,-400000.0625
194.77876591682434,-400000.0625,6749.6298828125,699.4199829101562,-400000.0625,-2125.639892578125,-400000.0625,5331.330078125,-400000.0625
194.80455875396729,-400000.0625,6736.52001953125,685.1199951171875,-400000.0625,-2099.090087890625,-400000.0625,5313.25,-400000.0625
194.82709312438965,-400000.0625,6752.8701171875,700.0399780273438,-400000.0625,-2089.260009765625,-400000.0625,5326.56005859375,-400000.0625
194.8470380306244,-400000.0625,6771.47021484375,723.4099731445312,-400000.0625,-2089.739990234375,-400000.0625,5347.68017578125,-400000.0625
194.88313484191895,-400000.0625,6771.08984375,724.5999755859375,-400000.0625,-2099.090087890625,-400000.0625,5352.2099609375,-400000.0625
194.91087293624878,-400000.0625,6753.77978515625,705.0,-400000.0625,-2116.5400390625,-400000.0625,5334.18994140625,-400000.0625
194.9360330104828,-400000.0625,6735.66015625,688.1199951171875,-400000.0625,-2122.929931640625,-400000.0625,5319.5498046875,-400000.0625
194.95863795280457,-400000.0625,6748.33984375,697.6599731445312,-400000.0625,-2108.669921875,-400000.0625,5328.7001953125,-400000.0625
195.0004608631134,-400000.0625,6769.93994140625,719.1699829101562,-400000.0625,-2092.64990234375,-400000.0625,5351.72998046875,-400000.0625
195.02100372314453,-400000.0625,6775.14013671875,724.8400268554688,-400000.0625,-2106.050048828125,-400000.0625,5355.06982421875,-400000.0625
195.03952026367188,-400000.0625,6752.5400390625,704.47998046875,-400000.0625,-2125.1201171875,-400000.0625,5334.330078125,-400000.0625
195.0565218925476,-400000.0625,6733.3701171875,684.9299926757812,-400000.0625,-2116.25,-400000.0625,5320.60009765625,-400000.0625
195.07340621948242,-400000.0625,6744.2900390625,696.0900268554688,-400000.0625,-2117.06005859375,-400000.0625,5332.759765625,-400000.0625
195.1045958995819,-400000.0625,6767.31982421875,719.260009765625,-400000.0625,-2091.409912109375,-400000.0625,5347.77978515625,-400000.0625
195.13221216201782,-400000.0625,6769.47021484375,723.7899780273438,-400000.0625,-2072.47998046875,-400000.0625,5349.4501953125,-400000.0625
195.15533781051636,-400000.0625,6750.009765625,702.760009765625,-400000.0625,-2096.219970703125,-400000.0625,5332.7099609375,-400000.0625
195.17486238479614,-400000.0625,6737.52001953125,688.8400268554688,-400000.0625,-2121.68994140625,-400000.0625,5317.5,-400000.0625
195.22149229049683,-400000.0625,6748.33984375,701.0,-400000.0625,-2116.8701171875,-400000.0625,5329.22998046875,-400000.0625
195.24648070335388,-400000.0625,6770.89990234375,723.510009765625,-400000.0625,-2103.330078125,-400000.0625,5350.39990234375,-400000.0625
195.26434135437012,-400000.0625,6774.85986328125,730.6099853515625,-400000.0625,-2097.22998046875,-400000.0625,5355.8798828125,-400000.0625
195.28693675994873,-400000.0625,6754.830078125,710.3400268554688,-400000.0625,-2104.659912109375,-400000.0625,5334.14013671875,-400000.0625
195.33206391334534,-400000.0625,6735.1298828125,690.9400024414062,-400000.0625,-2115.820068359375,-400000.0625,5323.169921875,-400000.0625
195.35780239105225,-400000.0625,6748.33984375,704.8599853515625,-400000.0625,-2102.22998046875,-400000.0625,5333.60986328125,-400000.0625
195.3903250694275,-400000.0625,6772.9501953125,727.9400024414062,-400000.0625,-2100.280029296875,-400000.0625,5350.64013671875,-400000.0625
195.43628811836243,-400000.0625,6771.419921875,727.7999877929688,-400000.0625,-2098.56005859375,-400000.0625,5350.5,-400000.0625
195.4592444896698,-400000.0625,6748.72021484375,704.47998046875,-400000.0625,-2099.610107421875,-400000.0625,5330.990234375,-400000.0625
195.47315859794617,-400000.0625,6736.60986328125,692.3699951171875,-400000.0625,-2102.760009765625,-400000.0625,5319.169921875,-400000.0625
195.4911653995514,-400000.0625,6748.919921875,707.3400268554688,-400000.0625,-2093.64990234375,-400000.0625,5331.330078125,-400000.0625
195.52240085601807,-400000.0625,6767.22998046875,728.0399780273438,-400000.0625,-2082.2099609375,-400000.0625,5353.2099609375,-400000.0625
195.54484868049622,-400000.0625,6774.18994140625,734.3800048828125,-400000.0625,-2074.2900390625,-400000.0625,5360.02978515625,-400000.0625
195.55893683433533,-400000.0625,6756.58984375,712.8699951171875,-400000.0625,-2093.219970703125,-400000.0625,5338.2900390625,-400000.0625
195.59267807006836,-400000.0625,6741.47998046875,698.280029296875,-400000.0625,-2116.159912109375,-400000.0625,5322.41015625,-400000.0625
195.63686656951904,-400000.0625,6751.43994140625,710.0599975585938,-400000.0625,-2125.449951171875,-400000.0625,5329.990234375,-400000.0625
195.65621948242188,-400000.0625,6773.81005859375,729.5599975585938,-400000.0625,-2105.280029296875,-400000.0625,5350.919921875,-400000.0625
195.67061352729797,-400000.0625,6776.18994140625,733.22998046875,-400000.0625,-2089.7900390625,-400000.0625,5352.39990234375,-400000.0625
195.6887583732605,-400000.0625,6755.68994140625,710.489990234375,-400000.0625,-2096.219970703125,-400000.0625,5333.0400390625,-400000.0625
195.70584917068481,-400000.0625,6736.08984375,691.6500244140625,-400000.0625,-2119.110107421875,-400000.0625,5322.35986328125,-400000.0625
195.7367172241211,-400000.0625,6744.81005859375,702.2899780273438,-400000.0625,-2106.909912109375,-400000.0625,5332.419921875,-400000.0625
195.7543182373047,-400000.0625,6767.93994140625,725.7000122070312,-400000.0625,-2084.5400390625,-400000.0625,5351.35009765625,-400000.0625
195.77684354782104,-400000.0625,6774.47021484375,730.0399780273438,-400000.0625,-2077.6298828125,-400000.0625,5352.4501953125,-400000.0625
195.79912519454956,-400000.0625,6750.16015625,708.0599975585938,-400000.0625,-2097.889892578125,-400000.0625,5335.0,-400000.0625
195.81635856628418,-400000.0625,6735.52001953125,691.8900146484375,-400000.0625,-2133.93994140625,-400000.0625,5322.5498046875,-400000.0625
195.85186004638672,-400000.0625,6746.009765625,704.530029296875,-400000.0625,-2124.60009765625,-400000.0625,5330.56005859375,-400000.0625
195.8692352771759,-400000.0625,6765.7001953125,726.5999755859375,-400000.0625,-2091.4599609375,-400000.0625,5349.35009765625,-400000.0625
195.90497398376465,-400000.0625,6767.93994140625,729.8499755859375,-400000.0625,-2085.780029296875,-400000.0625,5355.7900390625,-400000.0625
195.93308210372925,-400000.0625,6749.10986328125,711.72998046875,-400000.0625,-2101.610107421875,-400000.0625,5336.18994140625,-400000.0625
195.9639949798584,-400000.0625,6731.3701171875,694.0800170898438,-400000.0625,-2109.47998046875,-400000.0625,5321.31005859375,-400000.0625
195.989994764328,-400000.0625,6745.81982421875,704.4299926757812,-400000.0625,-2111.719970703125,-400000.0625,5330.08984375,-400000.0625
196.0083146095276,-400000.0625,6771.14013671875,728.75,-400000.0625,-2101.52001953125,-400000.0625,5351.259765625,-400000.0625
196.0250952243805,-400000.0625,6772.27978515625,728.1300048828125,-400000.0625,-2103.0400390625,-400000.0625,5354.1201171875,-400000.0625
196.0397298336029,-400000.0625,6749.77001953125,706.3400268554688,-400000.0625,-2100.3701171875,-400000.0625,5333.27978515625,-400000.0625
196.08292722702026,-400000.0625,6734.66015625,691.989990234375,-400000.0625,-2099.800048828125,-400000.0625,5319.259765625,-400000.0625
196.10117292404175,-400000.0625,6742.2900390625,704.2899780273438,-400000.0625,-2097.080078125,-400000.0625,5332.47021484375,-400000.0625
196.12083315849304,-400000.0625,6765.93994140625,727.8400268554688,-400000.0625,-2100.090087890625,-400000.0625,5353.740234375,-400000.0625
196.1389229297638,-400000.0625,6769.7099609375,731.989990234375,-400000.0625,-2098.419921875,-400000.0625,5358.64990234375,-400000.0625
196.1614954471588,-400000.0625,6750.2998046875,712.3499755859375,-400000.0625,-2110.14990234375,-400000.0625,5340.52978515625,-400000.0625
196.19538259506226,-400000.0625,6738.18994140625,699.6599731445312,-400000.0625,-2116.5400390625,-400000.0625,5328.93994140625,-400000.0625
196.21728897094727,-400000.0625,6749.33984375,710.1500244140625,-400000.0625,-2104.659912109375,-400000.0625,5337.91015625,-400000.0625
196.23977780342102,-400000.0625,6769.1298828125,731.0399780273438,-400000.0625,-2088.8798828125,-400000.0625,5357.64990234375,-400000.0625
196.25717759132385,-400000.0625,6772.56982421875,735.469970703125,-400000.0625,-2087.31005859375,-400000.0625,5361.75,-400000.0625
196.28341507911682,-400000.0625,6748.25,714.6799926757812,-400000.0625,-2108.909912109375,-400000.0625,5337.759765625,-400000.0625
196.32137441635132,-400000.0625,6728.64990234375,694.9400024414062,-400000.0625,-2116.300048828125,-400000.0625,5323.509765625,-400000.0625
196.3427357673645,-400000.0625,6742.18994140625,706.9099731445312,-400000.0625,-2105.52001953125,-400000.0625,5328.47021484375,-400000.0625
196.36377620697021,-400000.0625,6766.02978515625,731.0399780273438,-400000.0625,-2109.429931640625,-400000.0625,5347.5400390625,-400000.0625
196.3856565952301,-400000.0625,6764.4599609375,734.0399780273438,-400000.0625,-2102.0400390625,-400000.0625,5353.740234375,-400000.0625
196.428528547287,-400000.0625,6743.9599609375,714.02001953125,-400000.0625,-2107.669921875,-400000.0625,5334.66015625,-400000.0625
196.45229291915894,-400000.0625,6728.7001953125,698.1400146484375,-400000.0625,-2102.7099609375,-400000.0625,5322.740234375,-400000.0625
196.4740550518036,-400000.0625,6738.47021484375,708.25,-400000.0625,-2098.800048828125,-400000.0625,5334.6201171875,-400000.0625
196.49351739883423,-400000.0625,6760.169921875,729.9400024414062,-400000.0625,-2083.35009765625,-400000.0625,5352.64013671875,-400000.0625
196.52717971801758,-400000.0625,6766.22021484375,735.3300170898438,-400000.0625,-2091.929931640625,-400000.0625,5355.5498046875,-400000.0625
196.54061198234558,-400000.0625,6745.39013671875,714.72998046875,-400000.0625,-2122.830078125,-400000.0625,5338.81005859375,-400000.0625
196.55785131454468,-400000.0625,6728.35986328125,697.52001953125,-400000.0625,-2128.60009765625,-400000.0625,5323.740234375,-400000.0625
196.57928252220154,-400000.0625,6739.27978515625,705.8599853515625,-400000.0625,-2105.760009765625,-400000.0625,5329.3701171875,-400000.0625
196.60743188858032,-400000.0625,6762.41015625,730.22998046875,-400000.0625,-2084.830078125,-400000.0625,5347.10986328125,-400000.0625
196.64970302581787,-400000.0625,6761.83984375,732.9500122070312,-400000.0625,-2090.030029296875,-400000.0625,5350.4501953125,-400000.0625
196.67867588996887,-400000.0625,6738.22998046875,711.0599975585938,-400000.0625,-2102.570068359375,-400000.0625,5334.9501953125,-400000.0625
196.697585105896,-400000.0625,6727.83984375,697.4199829101562,-400000.0625,-2109.340087890625,-400000.0625,5321.31005859375,-400000.0625
196.72688174247742,-400000.0625,6741.669921875,711.2999877929688,-400000.0625,-2101.3701171875,-400000.0625,5334.85009765625,-400000.0625
196.7609920501709,-400000.0625,6766.56005859375,737.239990234375,-400000.0625,-2092.27001953125,-400000.0625,5357.22021484375,-400000.0625
196.78335070610046,-400000.0625,6764.93994140625,736.6699829101562,-400000.0625,-2096.840087890625,-400000.0625,5356.83984375,-400000.0625
196.80893921852112,-400000.0625,6741.43017578125,714.02001953125,-400000.0625,-2102.22998046875,-400000.0625,5336.7099609375,-400000.0625
196.82247042655945,-400000.0625,6728.5498046875,698.280029296875,-400000.0625,-2113.2900390625,-400000.0625,5321.5,-400000.0625
196.8399043083191,-400000.0625,6736.52001953125,707.0999755859375,-400000.0625,-2104.429931640625,-400000.0625,5330.31982421875,-400000.0625
196.8775281906128,-400000.0625,6762.93017578125,735.1400146484375,-400000.0625,-2086.780029296875,-400000.0625,5351.830078125,-400000.0625
196.8981111049652,-400000.0625,6768.85009765625,738.1900024414062,-400000.0625,-2076.239990234375,-400000.0625,5355.5,-400000.0625
196.91842079162598,-400000.0625,6744.18994140625,713.2100219726562,-400000.0625,-2103.760009765625,-400000.0625,5336.7099609375,-400000.0625
196.93621945381165,-400000.0625,6730.4599609375,698.9500122070312,-400000.0625,-2115.489990234375,-400000.0625,5321.93017578125,-400000.0625
196.94980025291443,-400000.0625,6744.580078125,715.2100219726562,-400000.0625,-2091.97998046875,-400000.0625,5332.14013671875,-400000.0625
196.98859572410583,-400000.0625,6765.080078125,737.6199951171875,-400000.0625,-2074.0,-400000.0625,5351.259765625,-400000.0625
197.00232529640198,-400000.0625,6766.60986328125,742.010009765625,-400000.0625,-2072.760009765625,-400000.0625,5354.259765625,-400000.0625
197.02117323875427,-400000.0625,6748.77001953125,723.8900146484375,-400000.0625,-2093.320068359375,-400000.0625,5339.72021484375,-400000.0625
197.03585290908813,-400000.0625,6733.0400390625,706.4299926757812,-400000.0625,-2104.570068359375,-400000.0625,5327.509765625,-400000.0625
197.05285811424255,-400000.0625,6740.18994140625,712.9199829101562,-400000.0625,-2100.56005859375,-400000.0625,5334.08984375,-400000.0625
197.08741998672485,-400000.0625,6761.97998046875,736.1400146484375,-400000.0625,-2085.02001953125,-400000.0625,5350.8798828125,-400000.0625
197.10445928573608,-400000.0625,6766.3701171875,743.530029296875,-400000.0625,-2084.780029296875,-400000.0625,5356.740234375,-400000.0625
197.12189030647278,-400000.0625,6749.2001953125,724.9400024414062,-400000.0625,-2097.800048828125,-400000.0625,5346.81982421875,-400000.0625
197.1362338066101,-400000.0625,6734.22998046875,706.239990234375,-400000.0625,-2118.159912109375,-400000.0625,5333.27978515625,-400000.0625
197.16195678710938,-400000.0625,6738.0,712.3499755859375,-400000.0625,-2114.110107421875,-400000.0625,5336.669921875,-400000.0625
197.19557452201843,-400000.0625,6754.10986328125,730.4199829101562,-400000.0625,-2080.6298828125,-400000.0625,5353.35986328125,-400000.0625
197.2151575088501,-400000.0625,6763.22021484375,736.4299926757812,-400000.0625,-2080.14990234375,-400000.0625,5359.93994140625,-400000.0625
197.2305827140808,-400000.0625,6747.10009765625,718.0700073242188,-400000.0625,-2106.52001953125,-400000.0625,5342.06005859375,-400000.0625
197.2540783882141,-400000.0625,6730.1298828125,704.6199951171875,-400000.0625,-2109.860107421875,-400000.0625,5327.85009765625,-400000.0625
197.2763695716858,-400000.0625,6737.08984375,714.02001953125,-400000.0625,-2103.7099609375,-400000.0625,5341.43994140625,-400000.0625
197.30912327766418,-400000.0625,6757.1201171875,733.7999877929688,-400000.0625,-2079.530029296875,-400000.0625,5358.41015625,-400000.0625
197.32202911376953,-400000.0625,6759.68994140625,738.0499877929688,-400000.0625,-2077.909912109375,-400000.0625,5360.3701171875,-400000.0625
197.33427906036377,-400000.0625,6744.18994140625,719.8300170898438,-400000.0625,-2102.3798828125,-400000.0625,5340.47998046875,-400000.0625
197.34742975234985,-400000.0625,6727.41015625,702.47998046875,-400000.0625,-2108.14990234375,-400000.0625,5325.509765625,-400000.0625
197.3643500804901,-400000.0625,6739.56982421875,711.1099853515625,-400000.0625,-2107.909912109375,-400000.0625,5332.759765625,-400000.0625
197.37980318069458,-400000.0625,6766.75,736.8099975585938,-400000.0625,-2093.1201171875,-400000.0625,5356.5,-400000.0625
197.41621446609497,-400000.0625,6766.75,743.2000122070312,-400000.0625,-2081.8701171875,-400000.0625,5363.1298828125,-400000.0625
197.4326570034027,-400000.0625,6748.39013671875,725.1699829101562,-400000.0625,-2107.3798828125,-400000.0625,5346.81982421875,-400000.0625
197.45611476898193,-400000.0625,6732.75,709.5800170898438,-400000.0625,-2113.25,-400000.0625,5331.85009765625,-400000.0625
197.4724624156952,-400000.0625,6738.85009765625,719.0700073242188,-400000.0625,-2097.419921875,-400000.0625,5337.759765625,-400000.0625
197.49606227874756,-400000.0625,6760.35986328125,740.9600219726562,-400000.0625,-2083.8701171875,-400000.0625,5358.1201171875,-400000.0625
197.53672552108765,-400000.0625,6764.7900390625,744.530029296875,-400000.0625,-2072.18994140625,-400000.0625,5359.31982421875,-400000.0625
197.55967020988464,-400000.0625,6748.10009765625,724.1699829101562,-400000.0625,-2086.39990234375,-400000.0625,5343.10009765625,-400000.0625
197.58738040924072,-400000.0625,6731.4599609375,705.9600219726562,-400000.0625,-2105.7099609375,-400000.0625,5328.27001953125,-400000.0625
197.61309456825256,-400000.0625,6740.14013671875,718.5499877929688,-400000.0625,-2097.3701171875,-400000.0625,5341.52978515625,-400000.0625
197.64889454841614,-400000.0625,6758.830078125,738.719970703125,-400000.0625,-2092.31005859375,-400000.0625,5361.1298828125,-400000.0625
197.67737579345703,-400000.0625,6762.64990234375,741.9099731445312,-400000.0625,-2090.1201171875,-400000.0625,5362.64990234375,-400000.0625
197.69426465034485,-400000.0625,6743.43017578125,722.739990234375,-400000.0625,-2102.419921875,-400000.0625,5344.490234375,-400000.0625
197.71376538276672,-400000.0625,6729.89013671875,706.0999755859375,-400000.0625,-2120.260009765625,-400000.0625,5327.990234375,-400000.0625
197.74401092529297,-400000.0625,6737.0400390625,713.1599731445312,-400000.0625,-2115.8701171875,-400000.0625,5337.3798828125,-400000.0625
197.7601351737976,-400000.0625,6755.39990234375,734.280029296875,-400000.0625,-2076.199951171875,-400000.0625,5357.89013671875,-400000.0625
197.77712059020996,-400000.0625,6760.8798828125,737.8599853515625,-400000.0625,-2061.699951171875,-400000.0625,5357.4599609375,-400000.0625
197.7996346950531,-400000.0625,6738.7099609375,717.5399780273438,-400000.0625,-2094.360107421875,-400000.0625,5341.33984375,-400000.0625
197.82131838798523,-400000.0625,6724.35986328125,701.9000244140625,-400000.0625,-2118.8701171875,-400000.0625,5326.7001953125,-400000.0625
197.85502123832703,-400000.0625,6736.7998046875,713.5399780273438,-400000.0625,-2099.320068359375,-400000.0625,5332.7099609375,-400000.0625
197.87251210212708,-400000.0625,6753.35009765625,733.6099853515625,-400000.0625,-2065.89990234375,-400000.0625,5350.259765625,-400000.0625
197.8895390033722,-400000.0625,6759.68994140625,743.1500244140625,-400000.0625,-2072.18994140625,-400000.0625,5363.990234375,-400000.0625
197.90755438804626,-400000.0625,6747.68017578125,726.3699951171875,-400000.0625,-2098.510009765625,-400000.0625,5351.35009765625,-400000.0625
197.92511582374573,-400000.0625,6732.1298828125,706.719970703125,-400000.0625,-2110.77001953125,-400000.0625,5334.43017578125,-400000.0625
197.96119570732117,-400000.0625,6734.7099609375,710.77001953125,-400000.0625,-2096.3701171875,-400000.0625,5336.0,-400000.0625
197.9766664505005,-400000.0625,6749.6298828125,731.8499755859375,-400000.0625,-2085.5400390625,-400000.0625,5357.64990234375,-400000.0625
197.99647736549377,-400000.0625,6761.93017578125,740.0,-400000.0625,-2091.360107421875,-400000.0625,5363.080078125,-400000.0625
198.0105698108673,-400000.0625,6742.6201171875,723.1199951171875,-400000.0625,-2103.330078125,-400000.0625,5348.2099609375,-400000.0625
198.0262689590454,-400000.0625,6726.89013671875,706.3900146484375,-400000.0625,-2114.110107421875,-400000.0625,5333.52001953125,-400000.0625
198.05310678482056,-400000.0625,6737.66015625,715.2999877929688,-400000.0625,-2092.929931640625,-400000.0625,5342.2001953125,-400000.0625
198.07334876060486,-400000.0625,6759.4501953125,741.2000122070312,-400000.0625,-2068.81005859375,-400000.0625,5364.1298828125,-400000.0625
198.08878707885742,-400000.0625,6763.1298828125,747.8699951171875,-400000.0625,-2071.7099609375,-400000.0625,5364.22998046875,-400000.0625
198.10611486434937,-400000.0625,6743.14990234375,724.4600219726562,-400000.0625,-2079.9599609375,-400000.0625,5346.68017578125,-400000.0625
198.12251591682434,-400000.0625,6730.83984375,708.77001953125,-400000.0625,-2102.570068359375,-400000.0625,5331.22998046875,-400000.0625
198.13999438285828,-400000.0625,6737.52001953125,717.02001953125,-400000.0625,-2098.27001953125,-400000.0625,5335.330078125,-400000.0625
198.17985606193542,-400000.0625,6756.1201171875,738.760009765625,-400000.0625,-2080.489990234375,-400000.0625,5355.7900390625,-400000.0625
198.19844269752502,-400000.0625,6766.31982421875,748.969970703125,-400000.0625,-2089.739990234375,-400000.0625,5367.7099609375,-400000.0625
198.2142298221588,-400000.0625,6744.9599609375,728.1300048828125,-400000.0625,-2105.669921875,-400000.0625,5352.06982421875,-400000.0625
198.22831511497498,-400000.0625,6727.41015625,709.6799926757812,-400000.0625,-2098.080078125,-400000.0625,5335.27978515625,-400000.0625
198.24204564094543,-400000.0625,6741.669921875,720.9299926757812,-400000.0625,-2089.97998046875,-400000.0625,5343.33984375,-400000.0625
198.27677965164185,-400000.0625,6759.97998046875,741.2899780273438,-400000.0625,-2091.4599609375,-400000.0625,5363.1298828125,-400000.0625
198.2915484905243,-400000.0625,6763.89013671875,747.1599731445312,-400000.0625,-2085.02001953125,-400000.0625,5367.0400390625,-400000.0625
198.307843208313,-400000.0625,6745.240234375,726.75,-400000.0625,-2092.889892578125,-400000.0625,5347.8701171875,-400000.0625
198.32568073272705,-400000.0625,6729.22021484375,708.4400024414062,-400000.0625,-2110.530029296875,-400000.0625,5335.0,-400000.0625
198.33909583091736,-400000.0625,6734.27978515625,717.6900024414062,-400000.0625,-2100.320068359375,-400000.0625,5344.490234375,-400000.0625
198.35720443725586,-400000.0625,6757.58984375,743.3400268554688,-400000.0625,-2083.8701171875,-400000.0625,5365.52001953125,-400000.0625
198.38103437423706,-400000.0625,6767.990234375,749.72998046875,-400000.0625,-2076.909912109375,-400000.0625,5372.2900390625,-400000.0625
198.39937329292297,-400000.0625,6743.47998046875,727.3699951171875,-400000.0625,-2085.8798828125,-400000.0625,5354.7900390625,-400000.0625
198.41461849212646,-400000.0625,6727.27001953125,709.4400024414062,-400000.0625,-2101.280029296875,-400000.0625,5335.6201171875,-400000.0625
198.43950271606445,-400000.0625,6741.240234375,720.4099731445312,-400000.0625,-2094.4599609375,-400000.0625,5340.240234375,-400000.0625
198.45809721946716,-400000.0625,6759.35986328125,745.9600219726562,-400000.0625,-2091.4599609375,-400000.0625,5365.08984375,-400000.0625
198.49515891075134,-400000.0625,6762.93017578125,750.9199829101562,-400000.0625,-2104.22998046875,-400000.0625,5371.47998046875,-400000.0625
198.5092577934265,-400000.0625,6745.6298828125,730.280029296875,-400000.0625,-2113.25,-400000.0625,5354.1201171875,-400000.0625
198.5305790901184,-400000.0625,6725.5,710.5399780273438,-400000.0625,-2109.340087890625,-400000.0625,5334.52001953125,-400000.0625
198.55050253868103,-400000.0625,6735.3701171875,720.5499877929688,-400000.0625,-2095.080078125,-400000.0625,5335.85986328125,-400000.0625
198.5775454044342,-400000.0625,6756.02001953125,740.0,-400000.0625,-2078.14990234375,-400000.0625,5355.740234375,-400000.0625
198.62261843681335,-400000.0625,6760.31005859375,745.8200073242188,-400000.0625,-2077.10009765625,-400000.0625,5359.75,-400000.0625
198.63697338104248,-400000.0625,6740.669921875,730.22998046875,-400000.0625,-2098.85009765625,-400000.0625,5347.58984375,-400000.0625
198.6561155319214,-400000.0625,6728.4599609375,713.72998046875,-400000.0625,-2125.550048828125,-400000.0625,5331.3701171875,-400000.0625
198.67248630523682,-400000.0625,6738.14013671875,723.4600219726562,-400000.0625,-2107.47998046875,-400000.0625,5334.6201171875,-400000.0625
198.69058513641357,-400000.0625,6757.58984375,747.3499755859375,-400000.0625,-2078.489990234375,-400000.0625,5358.509765625,-400000.0625
198.72766304016113,-400000.0625,6761.35986328125,749.6799926757812,-400000.0625,-2089.2099609375,-400000.0625,5364.080078125,-400000.0625
198.74897980690002,-400000.0625,6742.0498046875,730.510009765625,-400000.0625,-2116.72998046875,-400000.0625,5345.72998046875,-400000.0625
198.7704634666443,-400000.0625,6728.75,714.3499755859375,-400000.0625,-2138.18994140625,-400000.0625,5331.7099609375,-400000.0625
198.7894151210785,-400000.0625,6734.56005859375,719.7899780273438,-400000.0625,-2113.77001953125,-400000.0625,5337.9501953125,-400000.0625
198.80369424819946,-400000.0625,6753.830078125,741.2899780273438,-400000.0625,-2079.489990234375,-400000.0625,5361.4599609375,-400000.0625
198.83448839187622,-400000.0625,6758.35986328125,746.1500244140625,-400000.0625,-2078.679931640625,-400000.0625,5365.18017578125,-400000.0625
198.84995532035828,-400000.0625,6740.759765625,725.7899780273438,-400000.0625,-2096.800048828125,-400000.0625,5348.25,-400000.0625
198.87487196922302,-400000.0625,6725.41015625,707.530029296875,-400000.0625,-2110.77001953125,-400000.0625,5332.89990234375,-400000.0625
198.8889946937561,-400000.0625,6732.75,717.1199951171875,-400000.0625,-2104.85009765625,-400000.0625,5342.77001953125,-400000.0625
198.9031252861023,-400000.0625,6756.16015625,742.77001953125,-400000.0625,-2095.219970703125,-400000.0625,5362.22998046875,-400000.0625
198.92323470115662,-400000.0625,6761.64990234375,746.3499755859375,-400000.0625,-2095.7900390625,-400000.0625,5367.47021484375,-400000.0625
198.95100927352905,-400000.0625,6740.14013671875,724.97998046875,-400000.0625,-2114.6298828125,-400000.0625,5351.830078125,-400000.0625
198.9726927280426,-400000.0625,6722.77978515625,708.8699951171875,-400000.0625,-2119.06005859375,-400000.0625,5335.0498046875,-400000.0625
198.98967695236206,-400000.0625,6734.0400390625,719.4500122070312,-400000.0625,-2101.7099609375,-400000.0625,5339.3798828125,-400000.0625
199.007390499115,-400000.0625,6756.830078125,743.4400024414062,-400000.0625,-2077.010009765625,-400000.0625,5360.75,-400000.0625
199.02039051055908,-400000.0625,6763.02978515625,751.2100219726562,-400000.0625,-2069.18994140625,-400000.0625,5366.60986328125,-400000.0625
199.0348608493805,-400000.0625,6746.25,733.7100219726562,-400000.0625,-2090.8798828125,-400000.0625,5350.64013671875,-400000.0625
199.06394696235657,-400000.0625,6731.56005859375,716.2100219726562,-400000.0625,-2113.9599609375,-400000.0625,5334.43017578125,-400000.0625
199.0832085609436,-400000.0625,6736.330078125,720.6400146484375,-400000.0625,-2121.72998046875,-400000.0625,5339.91015625,-400000.0625
199.10622477531433,-400000.0625,6756.830078125,740.8099975585938,-400000.0625,-2104.89990234375,-400000.0625,5357.64990234375,-400000.0625
199.11963558197021,-400000.0625,6763.509765625,747.25,-400000.0625,-2094.219970703125,-400000.0625,5360.56005859375,-400000.0625
199.13937139511108,-400000.0625,6740.47998046875,726.1799926757812,-400000.0625,-2105.89990234375,-400000.0625,5346.97021484375,-400000.0625
199.16801190376282,-400000.0625,6721.58984375,703.8599853515625,-400000.0625,-2118.2099609375,-400000.0625,5334.18994140625,-400000.0625
199.18531703948975,-400000.0625,6730.3701171875,714.9199829101562,-400000.0625,-2095.60009765625,-400000.0625,5337.6201171875,-400000.0625
199.20040369033813,-400000.0625,6752.72998046875,741.2899780273438,-400000.0625,-2080.8701171875,-400000.0625,5357.35986328125,-400000.0625
199.21681094169617,-400000.0625,6758.2099609375,747.6300048828125,-400000.0625,-2086.68994140625,-400000.0625,5365.419921875,-400000.0625
199.2363257408142,-400000.0625,6736.89990234375,726.5999755859375,-400000.0625,-2115.35009765625,-400000.0625,5346.10986328125,-400000.0625
199.2552740573883,-400000.0625,6715.919921875,704.8099975585938,-400000.0625,-2118.5400390625,-400000.0625,5323.27001953125,-400000.0625
199.28880405426025,-400000.0625,6724.64013671875,711.1099853515625,-400000.0625,-2101.89990234375,-400000.0625,5332.419921875,-400000.0625
199.30623292922974,-400000.0625,6747.14990234375,731.0900268554688,-400000.0625,-2099.93994140625,-400000.0625,5352.06982421875,-400000.0625
199.3206398487091,-400000.0625,6748.33984375,734.6199951171875,-400000.0625,-2095.64990234375,-400000.0625,5355.7900390625,-400000.0625
199.33513879776,-400000.0625,6729.080078125,716.8800048828125,-400000.0625,-2093.030029296875,-400000.0625,5337.85986328125,-400000.0625
199.35708594322205,-400000.0625,6711.52978515625,700.6199951171875,-400000.0625,-2110.530029296875,-400000.0625,5320.740234375,-400000.0625
199.38502049446106,-400000.0625,6719.5400390625,711.25,-400000.0625,-2111.2900390625,-400000.0625,5327.27001953125,-400000.0625
199.39984941482544,-400000.0625,6745.669921875,734.8099975585938,-400000.0625,-2088.550048828125,-400000.0625,5348.10986328125,-400000.0625
199.41430401802063,-400000.0625,6753.16015625,740.530029296875,-400000.0625,-2087.68994140625,-400000.0625,5359.7900390625,-400000.0625
199.42719984054565,-400000.0625,6735.89990234375,720.2100219726562,-400000.0625,-2114.25,-400000.0625,5342.669921875,-400000.0625
199.44067859649658,-400000.0625,6719.490234375,702.5700073242188,-400000.0625,-2119.590087890625,-400000.0625,5326.64990234375,-400000.0625
199.4568531513214,-400000.0625,6725.740234375,709.8699951171875,-400000.0625,-2125.60009765625,-400000.0625,5334.14013671875,-400000.0625
199.4718520641327,-400000.0625,6741.43017578125,727.8900146484375,-400000.0625,-2116.590087890625,-400000.0625,5349.490234375,-400000.0625
199.50037169456482,-400000.0625,6744.33984375,732.9500122070312,-400000.0625,-2088.590087890625,-400000.0625,5352.2099609375,-400000.0625
199.51482462882996,-400000.0625,6725.68994140625,715.6799926757812,-400000.0625,-2082.489990234375,-400000.0625,5336.81005859375,-400000.0625
199.53155732154846,-400000.0625,6708.240234375,695.7100219726562,-400000.0625,-2107.3798828125,-400000.0625,5321.64990234375,-400000.0625
199.54791474342346,-400000.0625,6713.81982421875,701.6199951171875,-400000.0625,-2111.9599609375,-400000.0625,5329.0400390625,-400000.0625
199.56457352638245,-400000.0625,6736.66015625,723.5499877929688,-400000.0625,-2101.7099609375,-400000.0625,5349.2998046875,-400000.0625
199.5934178829193,-400000.0625,6742.669921875,732.4199829101562,-400000.0625,-2100.179931640625,-400000.0625,5355.68994140625,-400000.0625
199.6401505470276,-400000.0625,6726.02978515625,718.5499877929688,-400000.0625,-2124.97998046875,-400000.0625,5338.240234375,-400000.0625
199.65608978271484,-400000.0625,6709.39013671875,697.7999877929688,-400000.0625,-2147.8701171875,-400000.0625,5320.97998046875,-400000.0625
199.67290711402893,-400000.0625,6716.43994140625,705.47998046875,-400000.0625,-2112.77001953125,-400000.0625,5322.93017578125,-400000.0625
199.69170928001404,-400000.0625,6734.47021484375,727.9400024414062,-400000.0625,-2076.719970703125,-400000.0625,5344.919921875,-400000.0625
199.71355319023132,-400000.0625,6741.330078125,736.0499877929688,-400000.0625,-2076.010009765625,-400000.0625,5353.5498046875,-400000.0625
199.75639033317566,-400000.0625,6713.2998046875,685.9299926757812,-400000.0625,-2123.639892578125,-400000.0625,5298.81005859375,-400000.0625
199.75653958320618,-400000.0625,6693.64990234375,664.8499755859375,-400000.0625,-2148.43994140625,-400000.0625,5279.72998046875,-400000.0625
199.75655817985535,-400000.0625,6679.43994140625,649.02001953125,-400000.0625,-2173.52001953125,-400000.0625,5266.0,-400000.0625
199.75656843185425,-400000.0625,6691.64990234375,662.52001953125,-400000.0625,-2166.64990234375,-400000.0625,5277.06005859375,-400000.0625
199.75657773017883,-400000.0625,6710.10009765625,684.1699829101562,-400000.0625,-2136.280029296875,-400000.0625,5295.7099609375,-400000.0625
199.756587266922,-400000.0625,6712.39013671875,686.3599853515625,-400000.0625,-2117.25,-400000.0625,5293.7998046875,-400000.0625
199.75659680366516,-400000.0625,6691.60009765625,664.3800048828125,-400000.0625,-2133.080078125,-400000.0625,5274.2998046875,-400000.0625
199.75660634040833,-400000.0625,6681.009765625,649.97998046875,-400000.0625,-2156.830078125,-400000.0625,5264.0,-400000.0625
199.7566158771515,-400000.0625,6697.4599609375,667.239990234375,-400000.0625,-2140.090087890625,-400000.0625,5274.919921875,-400000.0625
199.75662469863892,-400000.0625,6711.669921875,686.5,-400000.0625,-2121.590087890625,-400000.0625,5294.1298828125,-400000.0625
199.75663375854492,-400000.0625,6712.25,685.5999755859375,-400000.0625,-2129.1298828125,-400000.0625,5294.75,-400000.0625
199.75664234161377,-400000.0625,6693.5498046875,666.3300170898438,-400000.0625,-2148.679931640625,-400000.0625,5276.97021484375,-400000.0625
199.75665402412415,-400000.0625,6677.91015625,649.1699829101562,-400000.0625,-2167.610107421875,-400000.0625,5264.7099609375,-400000.0625
199.756662607193,-400000.0625,6686.97021484375,659.3200073242188,-400000.0625,-2152.6298828125,-400000.0625,5276.77978515625,-400000.0625
199.75667142868042,-400000.0625,6709.0498046875,683.1199951171875,-400000.0625,-2134.280029296875,-400000.0625,5295.31982421875,-400000.0625
199.7566797733307,-400000.0625,6714.39013671875,687.3099975585938,-400000.0625,-2131.800048828125,-400000.0625,5295.7998046875,-400000.0625
199.75668859481812,-400000.0625,6698.18017578125,667.9500122070312,-400000.0625,-2142.429931640625,-400000.0625,5277.58984375,-400000.0625
199.75669836997986,-400000.0625,6685.31005859375,654.7899780273438,-400000.0625,-2151.199951171875,-400000.0625,5267.56982421875,-400000.0625
199.75670790672302,-400000.0625,6695.080078125,668.9099731445312,-400000.0625,-2143.719970703125,-400000.0625,5283.97998046875,-400000.0625
199.75671672821045,-400000.0625,6718.2099609375,694.22998046875,-400000.0625,-2130.219970703125,-400000.0625,5302.72021484375,-400000.0625
199.75672507286072,-400000.0625,6718.919921875,692.75,-400000.0625,-2126.8798828125,-400000.0625,5300.330078125,-400000.0625
199.7567343711853,-400000.0625,6693.60009765625,669.8599853515625,-400000.0625,-2152.780029296875,-400000.0625,5281.8798828125,-400000.0625
199.75674319267273,-400000.0625,6681.81982421875,655.7000122070312,-400000.0625,-2158.590087890625,-400000.0625,5270.52978515625,-400000.0625
199.75675177574158,-400000.0625,6691.27001953125,664.5700073242188,-400000.0625,-2140.139892578125,-400000.0625,5282.740234375,-400000.0625
199.75676035881042,-400000.0625,6714.77001953125,686.5,-400000.0625,-2119.72998046875,-400000.0625,5299.14013671875,-400000.0625
199.75676918029785,-400000.0625,6715.919921875,688.219970703125,-400000.0625,-2123.550048828125,-400000.0625,5301.47998046875,-400000.0625
199.7567777633667,-400000.0625,6695.509765625,666.6699829101562,-400000.0625,-2157.780029296875,-400000.0625,5281.97021484375,-400000.0625
199.75678658485413,-400000.0625,6683.919921875,652.5499877929688,-400000.0625,-2162.27001953125,-400000.0625,5269.47998046875,-400000.0625
199.75679516792297,-400000.0625,6693.1298828125,665.3800048828125,-400000.0625,-2133.800048828125,-400000.0625,5280.2998046875,-400000.0625
199.75680375099182,-400000.0625,6717.39990234375,689.3599853515625,-400000.0625,-2116.300048828125,-400000.0625,5299.66015625,-400000.0625
199.75681257247925,-400000.0625,6717.2998046875,689.030029296875,-400000.0625,-2127.550048828125,-400000.0625,5299.85009765625,-400000.0625
199.75682258605957,-400000.0625,6692.080078125,664.7100219726562,-400000.0625,-2151.35009765625,-400000.0625,5282.259765625,-400000.0625
199.75683164596558,-400000.0625,6681.97021484375,654.3200073242188,-400000.0625,-2158.830078125,-400000.0625,5270.669921875,-400000.0625
199.75684237480164,-400000.0625,6697.4599609375,668.719970703125,-400000.0625,-2141.18994140625,-400000.0625,5280.64013671875,-400000.0625
199.75685214996338,-400000.0625,6715.97021484375,688.030029296875,-400000.0625,-2123.5,-400000.0625,5300.56982421875,-400000.0625
199.75686168670654,-400000.0625,6715.5400390625,688.739990234375,-400000.0625,-2126.7900390625,-400000.0625,5302.47998046875,-400000.0625
199.7568714618683,-400000.0625,6695.3701171875,670.1500244140625,-400000.0625,-2153.590087890625,-400000.0625,5284.02001953125,-400000.0625
199.75688076019287,-400000.0625,6681.2998046875,657.5599975585938,-400000.0625,-2171.3701171875,-400000.0625,5275.43994140625,-400000.0625
199.7568895816803,-400000.0625,6697.7998046875,673.010009765625,-400000.0625,-2140.139892578125,-400000.0625,5285.64990234375,-400000.0625
199.7568986415863,-400000.0625,6717.77978515625,693.6599731445312,-400000.0625,-2118.679931640625,-400000.0625,5303.759765625,-400000.0625
199.756911277771,-400000.0625,6717.16015625,693.22998046875,-400000.0625,-2120.830078125,-400000.0625,5301.85986328125,-400000.0625
199.75692081451416,-400000.0625,6696.31982421875,671.4299926757812,-400000.0625,-2138.7099609375,-400000.0625,5282.2099609375,-400000.0625
199.75693106651306,-400000.0625,6682.43994140625,657.030029296875,-400000.0625,-2148.909912109375,-400000.0625,5271.9599609375,-400000.0625
199.7569408416748,-400000.0625,6689.93017578125,668.9099731445312,-400000.0625,-2141.050048828125,-400000.0625,5279.58984375,-400000.0625
199.7569501399994,-400000.0625,6713.39013671875,690.8900146484375,-400000.0625,-2123.169921875,-400000.0625,5296.52001953125,-400000.0625
199.75695943832397,-400000.0625,6711.8701171875,689.8900146484375,-400000.0625,-2122.929931640625,-400000.0625,5293.3701171875,-400000.0625
199.75696897506714,-400000.0625,6686.35009765625,665.7100219726562,-400000.0625,-2148.909912109375,-400000.0625,5274.580078125,-400000.0625
199.75697922706604,-400000.0625,6679.14990234375,655.3699951171875,-400000.0625,-2157.639892578125,-400000.0625,5264.0,-400000.0625
199.7569944858551,-400000.0625,6692.5498046875,669.0499877929688,-400000.0625,-2159.449951171875,-400000.0625,5276.39013671875,-400000.0625
199.75700402259827,-400000.0625,6706.3798828125,684.5499877929688,-400000.0625,-2147.050048828125,-400000.0625,5290.89013671875,-400000.0625
199.75701355934143,-400000.0625,6709.39013671875,683.97998046875,-400000.0625,-2132.22998046875,-400000.0625,5287.93017578125,-400000.0625
199.75702285766602,-400000.0625,6689.97998046875,662.9000244140625,-400000.0625,-2136.7099609375,-400000.0625,5269.91015625,-400000.0625
199.75703263282776,-400000.0625,6675.43017578125,646.4000244140625,-400000.0625,-2154.489990234375,-400000.0625,5260.22998046875,-400000.0625
199.75704312324524,-400000.0625,6685.64013671875,658.8900146484375,-400000.0625,-2155.260009765625,-400000.0625,5270.43017578125,-400000.0625
199.75705361366272,-400000.0625,6706.3798828125,682.780029296875,-400000.0625,-2135.090087890625,-400000.0625,5288.740234375,-400000.0625
199.7570652961731,-400000.0625,6704.47021484375,681.5,-400000.0625,-2126.5,-400000.0625,5290.31982421875,-400000.0625
199.75707459449768,-400000.0625,6685.31005859375,661.7999877929688,-400000.0625,-2140.860107421875,-400000.0625,5268.240234375,-400000.0625
199.75708556175232,-400000.0625,6673.33984375,649.1199951171875,-400000.0625,-2156.449951171875,-400000.0625,5259.7099609375,-400000.0625
199.75709533691406,-400000.0625,6684.68994140625,658.6099853515625,-400000.0625,-2154.72998046875,-400000.0625,5271.39013671875,-400000.0625
199.7571041584015,-400000.0625,6704.9501953125,677.72998046875,-400000.0625,-2141.669921875,-400000.0625,5292.4599609375,-400000.0625
199.75711369514465,-400000.0625,6700.56005859375,679.8699951171875,-400000.0625,-2133.610107421875,-400000.0625,5295.0400390625,-400000.0625
199.75712513923645,-400000.0625,6681.39990234375,657.989990234375,-400000.0625,-2152.35009765625,-400000.0625,5275.06005859375,-400000.0625
199.75713562965393,-400000.0625,6673.3798828125,648.0700073242188,-400000.0625,-2165.3701171875,-400000.0625,5261.759765625,-400000.0625
199.75714683532715,-400000.0625,6683.64013671875,658.8900146484375,-400000.0625,-2151.199951171875,-400000.0625,5271.10009765625,-400000.0625
199.7571575641632,-400000.0625,6700.7998046875,679.2999877929688,-400000.0625,-2137.760009765625,-400000.0625,5289.60009765625,-400000.0625
199.7571678161621,-400000.0625,6704.669921875,679.489990234375,-400000.0625,-2140.6201171875,-400000.0625,5291.89013671875,-400000.0625
199.75717759132385,-400000.0625,6686.97021484375,659.1300048828125,-400000.0625,-2147.530029296875,-400000.0625,5274.490234375,-400000.0625
199.75718712806702,-400000.0625,6673.52978515625,645.4500122070312,-400000.0625,-2152.72998046875,-400000.0625,5260.18017578125,-400000.0625
199.75719690322876,-400000.0625,6684.97021484375,659.7999877929688,-400000.0625,-2140.6201171875,-400000.0625,5273.490234375,-400000.0625
199.75720834732056,-400000.0625,6707.81005859375,683.2100219726562,-400000.0625,-2130.56005859375,-400000.0625,5291.75,-400000.0625
199.75721907615662,-400000.0625,6710.39013671875,684.4000244140625,-400000.0625,-2132.889892578125,-400000.0625,5293.56005859375,-400000.0625
199.75722885131836,-400000.0625,6690.41015625,664.52001953125,-400000.0625,-2142.760009765625,-400000.0625,5277.35009765625,-400000.0625
199.7572386264801,-400000.0625,6684.4501953125,656.4099731445312,-400000.0625,-2147.14990234375,-400000.0625,5263.85009765625,-400000.0625
199.75724983215332,-400000.0625,6698.0400390625,668.1400146484375,-400000.0625,-2145.77001953125,-400000.0625,5272.10009765625,-400000.0625
199.75726008415222,-400000.0625,6715.490234375,687.97998046875,-400000.0625,-2131.409912109375,-400000.0625,5290.080078125,-400000.0625
199.75727105140686,-400000.0625,6709.72021484375,687.5999755859375,-400000.0625,-2122.1201171875,-400000.0625,5293.18017578125,-400000.0625
199.75728058815002,-400000.0625,6693.89013671875,667.8599853515625,-400000.0625,-2139.0,-400000.0625,5275.2001953125,-400000.0625
199.75728940963745,-400000.0625,6682.5400390625,655.3200073242188,-400000.0625,-2159.31005859375,-400000.0625,5264.08984375,-400000.0625
199.7572979927063,-400000.0625,6692.1201171875,664.760009765625,-400000.0625,-2162.169921875,-400000.0625,5274.8701171875,-400000.0625
199.75730752944946,-400000.0625,6712.81982421875,683.0700073242188,-400000.0625,-2135.469970703125,-400000.0625,5290.56005859375,-400000.0625
199.7573173046112,-400000.0625,6711.43994140625,686.0700073242188,-400000.0625,-2131.64990234375,-400000.0625,5293.31982421875,-400000.0625
199.75732588768005,-400000.0625,6695.60986328125,667.3300170898438,-400000.0625,-2147.909912109375,-400000.0625,5276.35009765625,-400000.0625
199.75733470916748,-400000.0625,6678.490234375,651.030029296875,-400000.0625,-2154.590087890625,-400000.0625,5265.3798828125,-400000.0625
199.75734496116638,-400000.0625,6685.35009765625,660.3200073242188,-400000.0625,-2155.449951171875,-400000.0625,5273.52978515625,-400000.0625
199.75735569000244,-400000.0625,6706.2900390625,680.4500122070312,-400000.0625,-2130.320068359375,-400000.0625,5289.509765625,-400000.0625
199.75736498832703,-400000.0625,6713.009765625,685.7899780273438,-400000.0625,-2126.070068359375,-400000.0625,5290.93994140625,-400000.0625
199.75737380981445,-400000.0625,6688.97998046875,660.510009765625,-400000.0625,-2148.199951171875,-400000.0625,5275.490234375,-400000.0625
199.75738382339478,-400000.0625,6678.52978515625,649.1199951171875,-400000.0625,-2155.35009765625,-400000.0625,5261.08984375,-400000.0625
199.7573962211609,-400000.0625,6693.27001953125,661.9000244140625,-400000.0625,-2142.47998046875,-400000.0625,5273.77001953125,-400000.0625
199.75740551948547,-400000.0625,6706.72021484375,677.8200073242188,-400000.0625,-2132.3701171875,-400000.0625,5294.93994140625,-400000.0625
199.75741505622864,-400000.0625,6707.33984375,678.9199829101562,-400000.0625,-2133.320068359375,-400000.0625,5294.31982421875,-400000.0625
199.75742506980896,-400000.0625,6692.93017578125,662.989990234375,-400000.0625,-2150.010009765625,-400000.0625,5275.2001953125,-400000.0625
199.75743436813354,-400000.0625,6678.25,647.260009765625,-400000.0625,-2174.0,-400000.0625,5262.85009765625,-400000.0625
199.75744462013245,-400000.0625,6688.2099609375,658.22998046875,-400000.0625,-2164.93994140625,-400000.0625,5275.25,-400000.0625
199.75745463371277,-400000.0625,6709.10009765625,682.5399780273438,-400000.0625,-2145.6201171875,-400000.0625,5293.60986328125,-400000.0625
199.75746488571167,-400000.0625,6711.2001953125,682.969970703125,-400000.0625,-2134.89990234375,-400000.0625,5292.02978515625,-400000.0625
199.75747537612915,-400000.0625,6687.5498046875,658.7000122070312,-400000.0625,-2140.3798828125,-400000.0625,5274.43994140625,-400000.0625
199.75748491287231,-400000.0625,6671.47998046875,642.489990234375,-400000.0625,-2149.6298828125,-400000.0625,5263.27978515625,-400000.0625
199.7574942111969,-400000.0625,6683.97021484375,654.5999755859375,-400000.0625,-2142.760009765625,-400000.0625,5275.6298828125,-400000.0625
199.75750350952148,-400000.0625,6712.490234375,680.02001953125,-400000.0625,-2120.590087890625,-400000.0625,5290.990234375,-400000.0625
199.75751328468323,-400000.0625,6709.0498046875,680.5399780273438,-400000.0625,-2121.260009765625,-400000.0625,5289.41015625,-400000.0625
199.7575228214264,-400000.0625,6686.2099609375,658.7999877929688,-400000.0625,-2146.580078125,-400000.0625,5273.2998046875,-400000.0625
199.7575318813324,-400000.0625,6671.240234375,643.2999877929688,-400000.0625,-2169.320068359375,-400000.0625,5261.47021484375,-400000.0625
199.75754165649414,-400000.0625,6684.830078125,655.97998046875,-400000.0625,-2159.550048828125,-400000.0625,5268.77001953125,-400000.0625
199.75755071640015,-400000.0625,6703.52001953125,674.0599975585938,-400000.0625,-2136.949951171875,-400000.0625,5285.7900390625,-400000.0625
199.7575604915619,-400000.0625,6702.60986328125,674.8699951171875,-400000.0625,-2133.1298828125,-400000.0625,5289.080078125,-400000.0625
199.75756978988647,-400000.0625,6687.31005859375,655.3200073242188,-400000.0625,-2147.9599609375,-400000.0625,5270.9599609375,-400000.0625
199.75757956504822,-400000.0625,6671.669921875,639.9600219726562,-400000.0625,-2156.35009765625,-400000.0625,5258.7998046875,-400000.0625
199.75758910179138,-400000.0625,6685.8798828125,652.0700073242188,-400000.0625,-2146.860107421875,-400000.0625,5269.47998046875,-400000.0625
199.75759863853455,-400000.0625,6710.669921875,675.1099853515625,-400000.0625,-2128.030029296875,-400000.0625,5291.990234375,-400000.0625
199.75760769844055,-400000.0625,6711.52978515625,678.6799926757812,-400000.0625,-2136.179931640625,-400000.0625,5295.47021484375,-400000.0625
199.75761675834656,-400000.0625,6692.169921875,660.280029296875,-400000.0625,-2162.27001953125,-400000.0625,5278.77978515625,-400000.0625
199.7576253414154,-400000.0625,6682.2099609375,646.0700073242188,-400000.0625,-2182.530029296875,-400000.0625,5267.9501953125,-400000.0625
199.75763416290283,-400000.0625,6687.2099609375,649.8800048828125,-400000.0625,-2160.8798828125,-400000.0625,5275.009765625,-400000.0625
199.75764322280884,-400000.0625,6706.0,668.719970703125,-400000.0625,-2127.4599609375,-400000.0625,5291.3701171875,-400000.0625
199.75765180587769,-400000.0625,6711.0498046875,674.0999755859375,-400000.0625,-2124.8798828125,-400000.0625,5293.75,-400000.0625
199.7576606273651,-400000.0625,6689.06982421875,653.9299926757812,-400000.0625,-2143.050048828125,-400000.0625,5275.39013671875,-400000.0625
199.75766921043396,-400000.0625,6674.91015625,640.2999877929688,-400000.0625,-2156.830078125,-400000.0625,5261.52001953125,-400000.0625
199.75767827033997,-400000.0625,6685.68994140625,652.5,-400000.0625,-2145.239990234375,-400000.0625,5270.77001953125,-400000.0625
199.7576870918274,-400000.0625,6704.85986328125,676.0599975585938,-400000.0625,-2126.31005859375,-400000.0625,5289.080078125,-400000.0625
199.7576961517334,-400000.0625,6704.89990234375,677.8200073242188,-400000.0625,-2135.090087890625,-400000.0625,5292.93994140625,-400000.0625
199.75770473480225,-400000.0625,6686.31005859375,657.1799926757812,-400000.0625,-2167.179931640625,-400000.0625,5276.009765625,-400000.0625
199.75771403312683,-400000.0625,6677.2001953125,643.1599731445312,-400000.0625,-2167.889892578125,-400000.0625,5262.759765625,-400000.0625
199.75772333145142,-400000.0625,6686.830078125,654.7899780273438,-400000.0625,-2141.0,-400000.0625,5271.580078125,-400000.0625
199.75773215293884,-400000.0625,6701.7998046875,675.72998046875,-400000.0625,-2121.590087890625,-400000.0625,5287.27001953125,-400000.0625
199.75774145126343,-400000.0625,6705.3798828125,678.4400024414062,-400000.0625,-2135.7099609375,-400000.0625,5295.08984375,-400000.0625
199.7577521800995,-400000.0625,6685.31005859375,657.219970703125,-400000.0625,-2173.85009765625,-400000.0625,5276.919921875,-400000.0625
199.7577624320984,-400000.0625,6669.9501953125,641.2999877929688,-400000.0625,-2174.659912109375,-400000.0625,5261.22998046875,-400000.0625
199.7577726840973,-400000.0625,6687.35986328125,655.219970703125,-400000.0625,-2142.6201171875,-400000.0625,5271.2900390625,-400000.0625
199.75778245925903,-400000.0625,6709.2900390625,677.969970703125,-400000.0625,-2125.840087890625,-400000.0625,5293.509765625,-400000.0625
199.7577919960022,-400000.0625,6709.85986328125,679.8300170898438,-400000.0625,-2124.60009765625,-400000.0625,5295.31982421875,-400000.0625
199.75780153274536,-400000.0625,6690.5,659.75,-400000.0625,-2146.389892578125,-400000.0625,5278.25,-400000.0625
199.75781273841858,-400000.0625,6671.72021484375,641.25,-400000.0625,-2163.219970703125,-400000.0625,5263.22998046875,-400000.0625
199.75782299041748,-400000.0625,6683.16015625,652.5999755859375,-400000.0625,-2151.06005859375,-400000.0625,5268.85986328125,-400000.0625
199.7578318119049,-400000.0625,6706.0,677.0599975585938,-400000.0625,-2138.3798828125,-400000.0625,5289.97998046875,-400000.0625
199.75784039497375,-400000.0625,6709.0,679.25,-400000.0625,-2154.489990234375,-400000.0625,5292.93994140625,-400000.0625
199.75784969329834,-400000.0625,6691.5,657.3699951171875,-400000.0625,-2157.39990234375,-400000.0625,5271.9599609375,-400000.0625
199.75785970687866,-400000.0625,6677.2001953125,642.1599731445312,-400000.0625,-2138.52001953125,-400000.0625,5261.56005859375,-400000.0625
199.75786924362183,-400000.0625,6683.2998046875,652.5,-400000.0625,-2134.89990234375,-400000.0625,5273.490234375,-400000.0625
199.757878780365,-400000.0625,6703.66015625,675.9600219726562,-400000.0625,-2123.929931640625,-400000.0625,5288.5498046875,-400000.0625
199.7578890323639,-400000.0625,6704.0,676.489990234375,-400000.0625,-2134.3701171875,-400000.0625,5287.27001953125,-400000.0625
199.75789856910706,-400000.0625,6685.5400390625,654.9400024414062,-400000.0625,-2148.9599609375,-400000.0625,5271.669921875,-400000.0625
199.7579083442688,-400000.0625,6668.0,636.719970703125,-400000.0625,-2156.929931640625,-400000.0625,5256.60986328125,-400000.0625
199.75791692733765,-400000.0625,6679.72998046875,647.3099975585938,-400000.0625,-2148.2900390625,-400000.0625,5269.580078125,-400000.0625
199.75792598724365,-400000.0625,6703.56982421875,674.0999755859375,-400000.0625,-2137.090087890625,-400000.0625,5289.509765625,-400000.0625
199.7579402923584,-400000.0625,6710.2001953125,678.9199829101562,-400000.0625,-2131.989990234375,-400000.0625,5292.22998046875,-400000.0625
199.75795078277588,-400000.0625,6689.169921875,658.75,-400000.0625,-2157.739990234375,-400000.0625,5275.5400390625,-400000.0625
199.75796103477478,-400000.0625,6675.81982421875,644.489990234375,-400000.0625,-2170.090087890625,-400000.0625,5261.60986328125,-400000.0625
199.7579700946808,-400000.0625,6683.919921875,653.4600219726562,-400000.0625,-2153.919921875,-400000.0625,5270.2001953125,-400000.0625
199.75797939300537,-400000.0625,6706.43017578125,674.6300048828125,-400000.0625,-2137.659912109375,-400000.0625,5293.990234375,-400000.0625
199.7579882144928,-400000.0625,6709.0498046875,677.1599731445312,-400000.0625,-2136.56005859375,-400000.0625,5294.7099609375,-400000.0625
199.75799798965454,-400000.0625,6683.39990234375,651.8800048828125,-400000.0625,-2156.2099609375,-400000.0625,5269.580078125,-400000.0625
199.75800800323486,-400000.0625,6667.27978515625,637.010009765625,-400000.0625,-2165.080078125,-400000.0625,5256.990234375,-400000.0625
199.75801753997803,-400000.0625,6679.39013671875,647.5399780273438,-400000.0625,-2144.860107421875,-400000.0625,5266.669921875,-400000.0625
199.75802659988403,-400000.0625,6704.08984375,669.4299926757812,-400000.0625,-2122.590087890625,-400000.0625,5288.7900390625,-400000.0625
199.75803565979004,-400000.0625,6709.6201171875,674.3400268554688,-400000.0625,-2122.159912109375,-400000.0625,5296.330078125,-400000.0625
199.75804471969604,-400000.0625,6688.7900390625,652.4600219726562,-400000.0625,-2143.340087890625,-400000.0625,5283.259765625,-400000.0625
199.75805377960205,-400000.0625,6672.47998046875,637.6699829101562,-400000.0625,-2171.0400390625,-400000.0625,5267.91015625,-400000.0625
199.7580623626709,-400000.0625,6681.81982421875,651.1199951171875,-400000.0625,-2163.360107421875,-400000.0625,5276.58984375,-400000.0625
199.7580714225769,-400000.0625,6701.3701171875,672.010009765625,-400000.0625,-2137.949951171875,-400000.0625,5294.60986328125,-400000.0625
199.75807976722717,-400000.0625,6709.14990234375,673.9099731445312,-400000.0625,-2141.429931640625,-400000.0625,5292.02978515625,-400000.0625
199.75808882713318,-400000.0625,6691.740234375,653.9299926757812,-400000.0625,-2163.550048828125,-400000.0625,5271.009765625,-400000.0625
199.75809812545776,-400000.0625,6672.33984375,636.0999755859375,-400000.0625,-2170.85009765625,-400000.0625,5256.83984375,-400000.0625
199.7581067085266,-400000.0625,6684.830078125,648.02001953125,-400000.0625,-2150.8701171875,-400000.0625,5269.6201171875,-400000.0625
199.7581160068512,-400000.0625,6703.52001953125,667.9500122070312,-400000.0625,-2129.409912109375,-400000.0625,5291.3701171875,-400000.0625
199.75812482833862,-400000.0625,6706.0498046875,674.6300048828125,-400000.0625,-2127.739990234375,-400000.0625,5297.330078125,-400000.0625
199.75813364982605,-400000.0625,6690.8798828125,658.8900146484375,-400000.0625,-2140.81005859375,-400000.0625,5283.5,-400000.0625
199.75814199447632,-400000.0625,6679.39013671875,643.2999877929688,-400000.0625,-2163.219970703125,-400000.0625,5266.14013671875,-400000.0625
199.7581512928009,-400000.0625,6686.39990234375,652.3099975585938,-400000.0625,-2161.4599609375,-400000.0625,5275.2001953125,-400000.0625
199.7581605911255,-400000.0625,6709.240234375,674.0599975585938,-400000.0625,-2130.840087890625,-400000.0625,5293.85009765625,-400000.0625
199.75816941261292,-400000.0625,6712.10009765625,678.8300170898438,-400000.0625,-2131.989990234375,-400000.0625,5296.14013671875,-400000.0625
199.7581787109375,-400000.0625,6692.31005859375,656.5999755859375,-400000.0625,-2153.159912109375,-400000.0625,5276.919921875,-400000.0625
199.75818753242493,-400000.0625,6678.580078125,641.2999877929688,-400000.0625,-2157.31005859375,-400000.0625,5264.18994140625,-400000.0625
199.7581970691681,-400000.0625,6686.97021484375,653.7899780273438,-400000.0625,-2146.199951171875,-400000.0625,5270.85986328125,-400000.0625
199.75820636749268,-400000.0625,6705.27978515625,674.8699951171875,-400000.0625,-2127.929931640625,-400000.0625,5287.60009765625,-400000.0625
199.7582151889801,-400000.0625,6714.6298828125,682.5900268554688,-400000.0625,-2124.360107421875,-400000.0625,5298.6201171875,-400000.0625
199.75822401046753,-400000.0625,6694.509765625,660.1799926757812,-400000.0625,-2151.110107421875,-400000.0625,5281.4501953125,-400000.0625
199.75823307037354,-400000.0625,6680.72998046875,642.8200073242188,-400000.0625,-2175.89990234375,-400000.0625,5267.91015625,-400000.0625
199.75824165344238,-400000.0625,6691.89013671875,653.1699829101562,-400000.0625,-2177.330078125,-400000.0625,5276.35009765625,-400000.0625
199.75825023651123,-400000.0625,6705.330078125,672.8599853515625,-400000.0625,-2139.139892578125,-400000.0625,5288.080078125,-400000.0625
199.75826120376587,-400000.0625,6707.0,677.2999877929688,-400000.0625,-2123.97998046875,-400000.0625,5290.93994140625,-400000.0625
199.7582700252533,-400000.0625,6688.740234375,656.0800170898438,-400000.0625,-2131.75,-400000.0625,5275.490234375,-400000.0625
199.75827860832214,-400000.0625,6672.2900390625,638.3900146484375,-400000.0625,-2146.77001953125,-400000.0625,5259.27978515625,-400000.0625
199.75828766822815,-400000.0625,6685.72998046875,651.030029296875,-400000.0625,-2141.429931640625,-400000.0625,5271.240234375,-400000.0625
199.758296251297,-400000.0625,6705.27978515625,671.0999755859375,-400000.0625,-2130.60009765625,-400000.0625,5293.509765625,-400000.0625
199.75830459594727,-400000.0625,6706.10009765625,673.1500244140625,-400000.0625,-2134.659912109375,-400000.0625,5294.1298828125,-400000.0625
199.7583134174347,-400000.0625,6687.35986328125,657.7000122070312,-400000.0625,-2156.639892578125,-400000.0625,5277.06005859375,-400000.0625
199.75832200050354,-400000.0625,6675.77001953125,642.4400024414062,-400000.0625,-2174.81005859375,-400000.0625,5263.22998046875,-400000.0625
199.7583305835724,-400000.0625,6683.97021484375,648.780029296875,-400000.0625,-2159.8798828125,-400000.0625,5271.580078125,-400000.0625
199.75833916664124,-400000.0625,6700.56005859375,667.47998046875,-400000.0625,-2138.89990234375,-400000.0625,5286.740234375,-400000.0625
199.7583475112915,-400000.0625,6700.75,669.239990234375,-400000.0625,-2128.080078125,-400000.0625,5288.22021484375,-400000.0625
199.75835633277893,-400000.0625,6681.81982421875,647.4500122070312,-400000.0625,-2139.0400390625,-400000.0625,5271.33984375,-400000.0625
199.75836491584778,-400000.0625,6672.85986328125,634.9099731445312,-400000.0625,-2153.72998046875,-400000.0625,5258.509765625,-400000.0625
199.7583737373352,-400000.0625,6682.2099609375,649.5999755859375,-400000.0625,-2142.429931640625,-400000.0625,5269.18994140625,-400000.0625
199.7583827972412,-400000.0625,6699.85009765625,671.2000122070312,-400000.0625,-2132.800048828125,-400000.0625,5290.22021484375,-400000.0625
199.75839114189148,-400000.0625,6710.39013671875,678.2100219726562,-400000.0625,-2143.0,-400000.0625,5297.18017578125,-400000.0625
199.75839948654175,-400000.0625,6692.7900390625,656.7000122070312,-400000.0625,-2152.919921875,-400000.0625,5280.68994140625,-400000.0625
199.75840854644775,-400000.0625,6677.10009765625,642.6799926757812,-400000.0625,-2159.449951171875,-400000.0625,5265.85986328125,-400000.0625
199.7584171295166,-400000.0625,6684.830078125,653.8400268554688,-400000.0625,-2144.77001953125,-400000.0625,5271.33984375,-400000.0625
199.7584261894226,-400000.0625,6704.6201171875,672.8599853515625,-400000.0625,-2123.449951171875,-400000.0625,5291.4599609375,-400000.0625
199.7584352493286,-400000.0625,6711.0498046875,679.5399780273438,-400000.0625,-2125.31005859375,-400000.0625,5295.75,-400000.0625
199.75844430923462,-400000.0625,6691.1201171875,658.7999877929688,-400000.0625,-2146.10009765625,-400000.0625,5276.39013671875,-400000.0625
199.75845456123352,-400000.0625,6673.77001953125,643.4000244140625,-400000.0625,-2161.409912109375,-400000.0625,5261.89990234375,-400000.0625
199.7584638595581,-400000.0625,6683.68017578125,653.9299926757812,-400000.0625,-2145.0,-400000.0625,5270.77001953125,-400000.0625
199.7584729194641,-400000.0625,6706.14013671875,676.010009765625,-400000.0625,-2125.1201171875,-400000.0625,5287.5,-400000.0625
199.75848150253296,-400000.0625,6713.009765625,682.260009765625,-400000.0625,-2127.840087890625,-400000.0625,5292.1298828125,-400000.0625
199.75849080085754,-400000.0625,6693.97998046875,662.52001953125,-400000.0625,-2154.110107421875,-400000.0625,5277.6298828125,-400000.0625
199.7584993839264,-400000.0625,6673.85986328125,644.489990234375,-400000.0625,-2166.27001953125,-400000.0625,5262.759765625,-400000.0625
199.75850796699524,-400000.0625,6682.68017578125,652.97998046875,-400000.0625,-2144.18994140625,-400000.0625,5270.77001953125,-400000.0625
199.75851774215698,-400000.0625,6703.3798828125,672.6300048828125,-400000.0625,-2129.219970703125,-400000.0625,5289.509765625,-400000.0625
199.758526802063,-400000.0625,6709.0,678.010009765625,-400000.0625,-2130.219970703125,-400000.0625,5291.1298828125,-400000.0625
199.75853562355042,-400000.0625,6690.5498046875,657.219970703125,-400000.0625,-2144.10009765625,-400000.0625,5271.47998046875,-400000.0625
199.75854444503784,-400000.0625,6676.25,639.3400268554688,-400000.0625,-2166.179931640625,-400000.0625,5257.18017578125,-400000.0625
199.75855326652527,-400000.0625,6679.72998046875,646.72998046875,-400000.0625,-2157.260009765625,-400000.0625,5263.27978515625,-400000.0625
199.7585620880127,-400000.0625,6700.0400390625,668.239990234375,-400000.0625,-2129.889892578125,-400000.0625,5283.830078125,-400000.0625
199.75857090950012,-400000.0625,6702.330078125,672.2899780273438,-400000.0625,-2128.219970703125,-400000.0625,5292.7001953125,-400000.0625
199.75857949256897,-400000.0625,6681.58984375,653.8900146484375,-400000.0625,-2144.2900390625,-400000.0625,5276.2001953125,-400000.0625
199.75858783721924,-400000.0625,6668.14013671875,634.8099975585938,-400000.0625,-2163.27001953125,-400000.0625,5260.330078125,-400000.0625
199.7585961818695,-400000.0625,6678.14990234375,645.4500122070312,-400000.0625,-2153.590087890625,-400000.0625,5267.47998046875,-400000.0625
199.7586054801941,-400000.0625,6699.18017578125,667.4299926757812,-400000.0625,-2138.85009765625,-400000.0625,5287.83984375,-400000.0625
199.7586145401001,-400000.0625,6701.7099609375,674.77001953125,-400000.0625,-2143.9599609375,-400000.0625,5293.990234375,-400000.0625
199.75862383842468,-400000.0625,6684.16015625,656.75,-400000.0625,-2140.81005859375,-400000.0625,5274.10986328125,-400000.0625
199.7586328983307,-400000.0625,6668.7099609375,641.5399780273438,-400000.0625,-2145.719970703125,-400000.0625,5261.56005859375,-400000.0625
199.75864148139954,-400000.0625,6680.68017578125,652.8900146484375,-400000.0625,-2146.580078125,-400000.0625,5270.85986328125,-400000.0625
199.75865054130554,-400000.0625,6704.0,676.0599975585938,-400000.0625,-2128.93994140625,-400000.0625,5286.83984375,-400000.0625
199.75865936279297,-400000.0625,6706.9501953125,680.489990234375,-400000.0625,-2135.610107421875,-400000.0625,5292.7998046875,-400000.0625
199.7586681842804,-400000.0625,6689.60009765625,660.9400024414062,-400000.0625,-2147.43994140625,-400000.0625,5275.009765625,-400000.0625
199.7586772441864,-400000.0625,6676.009765625,644.5900268554688,-400000.0625,-2162.080078125,-400000.0625,5257.56005859375,-400000.0625
199.7586863040924,-400000.0625,6683.5400390625,652.8400268554688,-400000.0625,-2158.360107421875,-400000.0625,5265.669921875,-400000.0625
199.7586944103241,-400000.0625,6703.18994140625,672.4400024414062,-400000.0625,-2137.52001953125,-400000.0625,5286.22021484375,-400000.0625
199.75870323181152,-400000.0625,6704.9501953125,676.5800170898438,-400000.0625,-2129.56005859375,-400000.0625,5288.169921875,-400000.0625
199.7587113380432,-400000.0625,6686.1201171875,657.75,-400000.0625,-2139.949951171875,-400000.0625,5269.240234375,-400000.0625
199.75872015953064,-400000.0625,6671.3798828125,641.969970703125,-400000.0625,-2164.219970703125,-400000.0625,5258.509765625,-400000.0625
199.7587285041809,-400000.0625,6684.2998046875,652.5499877929688,-400000.0625,-2150.679931640625,-400000.0625,5269.72021484375,-400000.0625
199.75873708724976,-400000.0625,6703.7099609375,673.8200073242188,-400000.0625,-2125.97998046875,-400000.0625,5286.7900390625,-400000.0625
199.75874590873718,-400000.0625,6704.759765625,677.1099853515625,-400000.0625,-2132.419921875,-400000.0625,5291.18017578125,-400000.0625
199.75875663757324,-400000.0625,6686.740234375,657.030029296875,-400000.0625,-2158.360107421875,-400000.0625,5272.8701171875,-400000.0625
199.7587649822235,-400000.0625,6671.6201171875,637.6699829101562,-400000.0625,-2172.570068359375,-400000.0625,5254.7900390625,-400000.0625
199.75877332687378,-400000.0625,6677.25,648.8300170898438,-400000.0625,-2142.760009765625,-400000.0625,5261.419921875,-400000.0625
199.75878238677979,-400000.0625,6698.75,675.9600219726562,-400000.0625,-2122.780029296875,-400000.0625,5282.1201171875,-400000.0625
199.75879096984863,-400000.0625,6703.89990234375,678.5399780273438,-400000.0625,-2129.56005859375,-400000.0625,5288.080078125,-400000.0625
199.7587993144989,-400000.0625,6691.1201171875,660.989990234375,-400000.0625,-2137.800048828125,-400000.0625,5271.009765625,-400000.0625
199.75880789756775,-400000.0625,6678.490234375,645.4000244140625,-400000.0625,-2151.580078125,-400000.0625,5258.60986328125,-400000.0625
199.75881671905518,-400000.0625,6682.830078125,652.6900024414062,-400000.0625,-2138.3798828125,-400000.0625,5264.240234375,-400000.0625
199.75882506370544,-400000.0625,6705.81005859375,676.6300048828125,-400000.0625,-2122.969970703125,-400000.0625,5281.02001953125,-400000.0625
199.75883316993713,-400000.0625,6711.77001953125,680.72998046875,-400000.0625,-2124.639892578125,-400000.0625,5286.83984375,-400000.0625
199.75884199142456,-400000.0625,6688.64013671875,658.8900146484375,-400000.0625,-2135.56005859375,-400000.0625,5271.6298828125,-400000.0625
199.75885033607483,-400000.0625,6671.0,641.2000122070312,-400000.0625,-2142.429931640625,-400000.0625,5256.31982421875,-400000.0625
199.7588586807251,-400000.0625,6681.16015625,651.260009765625,-400000.0625,-2132.419921875,-400000.0625,5260.66015625,-400000.0625
199.75886726379395,-400000.0625,6701.27978515625,672.47998046875,-400000.0625,-2132.75,-400000.0625,5283.259765625,-400000.0625
199.7588758468628,-400000.0625,6708.81005859375,675.6300048828125,-400000.0625,-2138.52001953125,-400000.0625,5290.60009765625,-400000.0625
199.75888466835022,-400000.0625,6691.31005859375,656.5599975585938,-400000.0625,-2141.6201171875,-400000.0625,5274.919921875,-400000.0625
199.75889348983765,-400000.0625,6673.47998046875,639.5800170898438,-400000.0625,-2156.929931640625,-400000.0625,5262.18017578125,-400000.0625
199.75890159606934,-400000.0625,6681.58984375,650.5999755859375,-400000.0625,-2143.18994140625,-400000.0625,5270.77001953125,-400000.0625
199.75891041755676,-400000.0625,6707.47998046875,677.1599731445312,-400000.0625,-2125.7900390625,-400000.0625,5290.18017578125,-400000.0625
199.75891876220703,-400000.0625,6712.580078125,679.8699951171875,-400000.0625,-2123.2099609375,-400000.0625,5296.89990234375,-400000.0625
199.75893020629883,-400000.0625,6690.7900390625,658.0399780273438,-400000.0625,-2121.449951171875,-400000.0625,5278.919921875,-400000.0625
199.75893926620483,-400000.0625,6675.39013671875,641.489990234375,-400000.0625,-2136.760009765625,-400000.0625,5257.75,-400000.0625
199.75894784927368,-400000.0625,6684.77978515625,650.02001953125,-400000.0625,-2142.0,-400000.0625,5263.52001953125,-400000.0625
199.75895714759827,-400000.0625,6704.47021484375,672.0999755859375,-400000.0625,-2135.179931640625,-400000.0625,5288.509765625,-400000.0625
199.75896644592285,-400000.0625,6707.81005859375,676.2000122070312,-400000.0625,-2133.659912109375,-400000.0625,5292.60986328125,-400000.0625
199.75897526741028,-400000.0625,6690.35986328125,658.1799926757812,-400000.0625,-2141.090087890625,-400000.0625,5275.10986328125,-400000.0625
199.75898456573486,-400000.0625,6678.43994140625,646.5,-400000.0625,-2148.010009765625,-400000.0625,5263.22998046875,-400000.0625
199.7589931488037,-400000.0625,6686.64013671875,655.97998046875,-400000.0625,-2141.81005859375,-400000.0625,5271.33984375,-400000.0625
199.75900173187256,-400000.0625,6707.14013671875,676.8200073242188,-400000.0625,-2115.679931640625,-400000.0625,5289.1298828125,-400000.0625
199.7590103149414,-400000.0625,6714.9599609375,683.1199951171875,-400000.0625,-2120.02001953125,-400000.0625,5294.66015625,-400000.0625
199.75901913642883,-400000.0625,6694.990234375,663.5700073242188,-400000.0625,-2136.7099609375,-400000.0625,5277.2099609375,-400000.0625
199.75902795791626,-400000.0625,6679.9599609375,647.1199951171875,-400000.0625,-2157.739990234375,-400000.0625,5259.66015625,-400000.0625
199.7590367794037,-400000.0625,6691.27001953125,655.27001953125,-400000.0625,-2155.449951171875,-400000.0625,5268.2900390625,-400000.0625
199.75904512405396,-400000.0625,6709.39013671875,675.5800170898438,-400000.0625,-2134.419921875,-400000.0625,5286.64990234375,-400000.0625
199.7590537071228,-400000.0625,6709.2900390625,680.8300170898438,-400000.0625,-2111.909912109375,-400000.0625,5289.1298828125,-400000.0625
199.75906205177307,-400000.0625,6689.740234375,662.4199829101562,-400000.0625,-2123.39990234375,-400000.0625,5274.81982421875,-400000.0625
199.7590708732605,-400000.0625,6673.14990234375,645.3499755859375,-400000.0625,-2141.860107421875,-400000.0625,5264.7099609375,-400000.0625
199.75907921791077,-400000.0625,6682.58984375,654.510009765625,-400000.0625,-2140.3798828125,-400000.0625,5270.43017578125,-400000.0625
199.75908780097961,-400000.0625,6705.9501953125,678.1099853515625,-400000.0625,-2133.56005859375,-400000.0625,5291.18017578125,-400000.0625
199.75909614562988,-400000.0625,6712.39013671875,683.0700073242188,-400000.0625,-2119.260009765625,-400000.0625,5295.27978515625,-400000.0625
199.75910449028015,-400000.0625,6692.080078125,660.7999877929688,-400000.0625,-2139.18994140625,-400000.0625,5276.009765625,-400000.0625
199.759113073349,-400000.0625,6677.81982421875,644.5900268554688,-400000.0625,-2162.27001953125,-400000.0625,5261.3701171875,-400000.0625
199.75912165641785,-400000.0625,6685.259765625,654.0800170898438,-400000.0625,-2144.530029296875,-400000.0625,5274.9599609375,-400000.0625
199.75913000106812,-400000.0625,6708.3798828125,677.8200073242188,-400000.0625,-2121.929931640625,-400000.0625,5293.419921875,-400000.0625
199.75913906097412,-400000.0625,6712.25,680.8800048828125,-400000.0625,-2120.35009765625,-400000.0625,5299.0400390625,-400000.0625
199.75914812088013,-400000.0625,6691.169921875,658.8900146484375,-400000.0625,-2132.320068359375,-400000.0625,5282.830078125,-400000.0625
199.75915694236755,-400000.0625,6673.81005859375,638.5800170898438,-400000.0625,-2160.97998046875,-400000.0625,5277.72998046875,-400000.0625
199.7591655254364,-400000.0625,6681.72998046875,645.4000244140625,-400000.0625,-2157.449951171875,-400000.0625,5297.0400390625,-400000.0625
199.7591745853424,-400000.0625,6699.08984375,667.0499877929688,-400000.0625,-2130.989990234375,-400000.0625,5322.169921875,-400000.0625
199.75918316841125,-400000.0625,6704.7099609375,674.77001953125,-400000.0625,-2130.030029296875,-400000.0625,5324.89013671875,-400000.0625
199.75919198989868,-400000.0625,6688.5498046875,657.27001953125,-400000.0625,-2138.81005859375,-400000.0625,5309.8701171875,-400000.0625
199.75920057296753,-400000.0625,6672.52978515625,638.4400024414062,-400000.0625,-2145.47998046875,-400000.0625,5296.27978515625,-400000.0625
199.75920963287354,-400000.0625,6679.5400390625,644.72998046875,-400000.0625,-2132.510009765625,-400000.0625,5299.52001953125,-400000.0625
199.75921869277954,-400000.0625,6701.3701171875,666.280029296875,-400000.0625,-2113.909912109375,-400000.0625,5321.64990234375,-400000.0625
199.75922751426697,-400000.0625,6705.0,671.77001953125,-400000.0625,-2111.530029296875,-400000.0625,5327.89013671875,-400000.0625
199.75923609733582,-400000.0625,6685.02001953125,653.030029296875,-400000.0625,-2136.3701171875,-400000.0625,5312.35009765625,-400000.0625
199.75924444198608,-400000.0625,6668.7099609375,633.9600219726562,-400000.0625,-2163.929931640625,-400000.0625,5295.31982421875,-400000.0625
199.75925278663635,-400000.0625,6678.8701171875,645.489990234375,-400000.0625,-2148.580078125,-400000.0625,5304.14990234375,-400000.0625
199.75926160812378,-400000.0625,6701.22998046875,668.1900024414062,-400000.0625,-2134.699951171875,-400000.0625,5326.7998046875,-400000.0625
199.75926971435547,-400000.0625,6707.85986328125,674.77001953125,-400000.0625,-2143.18994140625,-400000.0625,5334.08984375,-400000.0625
199.7592785358429,-400000.0625,6691.35986328125,658.1799926757812,-400000.0625,-2142.949951171875,-400000.0625,5314.72998046875,-400000.0625
199.75928711891174,-400000.0625,6675.669921875,640.2999877929688,-400000.0625,-2153.639892578125,-400000.0625,5297.56982421875,-400000.0625
199.7592957019806,-400000.0625,6686.1201171875,650.219970703125,-400000.0625,-2153.679931640625,-400000.0625,5300.47021484375,-400000.0625
199.75930452346802,-400000.0625,6706.18994140625,674.3900146484375,-400000.0625,-2116.72998046875,-400000.0625,5320.68994140625,-400000.0625
199.75931525230408,-400000.0625,6710.43017578125,681.4500122070312,-400000.0625,-2102.419921875,-400000.0625,5327.85009765625,-400000.0625
199.7593240737915,-400000.0625,6694.990234375,662.1799926757812,-400000.0625,-2129.4599609375,-400000.0625,5312.16015625,-400000.0625
199.75933241844177,-400000.0625,6682.919921875,646.6400146484375,-400000.0625,-2152.969970703125,-400000.0625,5294.85009765625,-400000.0625
199.7593412399292,-400000.0625,6686.5,649.1699829101562,-400000.0625,-2148.340087890625,-400000.0625,5303.759765625,-400000.0625
199.7593493461609,-400000.0625,6705.85986328125,668.3400268554688,-400000.0625,-2125.1201171875,-400000.0625,5322.35986328125,-400000.0625
199.75935769081116,-400000.0625,6713.2001953125,675.9600219726562,-400000.0625,-2131.889892578125,-400000.0625,5327.64990234375,-400000.0625
199.75936651229858,-400000.0625,6690.97998046875,654.3599853515625,-400000.0625,-2141.669921875,-400000.0625,5310.5400390625,-400000.0625
199.75937461853027,-400000.0625,6674.72021484375,637.47998046875,-400000.0625,-2145.389892578125,-400000.0625,5295.31982421875,-400000.0625
199.75938320159912,-400000.0625,6682.16015625,647.8300170898438,-400000.0625,-2148.9599609375,-400000.0625,5300.18994140625,-400000.0625
199.7593915462494,-400000.0625,6702.419921875,668.9500122070312,-400000.0625,-2130.7900390625,-400000.0625,5314.06005859375,-400000.0625
199.75940036773682,-400000.0625,6707.0,674.9199829101562,-400000.0625,-2130.64990234375,-400000.0625,5317.58984375,-400000.0625
199.75940895080566,-400000.0625,6689.64013671875,656.4600219726562,-400000.0625,-2154.110107421875,-400000.0625,5294.60986328125,-400000.0625
199.7594175338745,-400000.0625,6672.2900390625,637.3400268554688,-400000.0625,-2160.5,-400000.0625,5266.14013671875,-400000.0625
199.75942611694336,-400000.0625,6678.8701171875,642.2999877929688,-400000.0625,-2146.77001953125,-400000.0625,5267.669921875,-400000.0625
199.7594347000122,-400000.0625,6703.81005859375,665.0,-400000.0625,-2130.1298828125,-400000.0625,5288.02978515625,-400000.0625
199.75944328308105,-400000.0625,6708.91015625,671.010009765625,-400000.0625,-2131.179931640625,-400000.0625,5293.0400390625,-400000.0625
199.75945234298706,-400000.0625,6689.5498046875,650.219970703125,-400000.0625,-2142.909912109375,-400000.0625,5274.81982421875,-400000.0625
199.7594609260559,-400000.0625,6674.47998046875,633.3800048828125,-400000.0625,-2142.6201171875,-400000.0625,5258.66015625,-400000.0625
199.75946974754333,-400000.0625,6683.97021484375,646.1599731445312,-400000.0625,-2136.760009765625,-400000.0625,5265.7099609375,-400000.0625
199.7594780921936,-400000.0625,6705.81005859375,668.0499877929688,-400000.0625,-2125.030029296875,-400000.0625,5288.89013671875,-400000.0625
199.75948691368103,-400000.0625,6715.16015625,677.969970703125,-400000.0625,-2127.030029296875,-400000.0625,5298.27978515625,-400000.0625
199.75949549674988,-400000.0625,6695.41015625,660.0900268554688,-400000.0625,-2151.679931640625,-400000.0625,5280.68994140625,-400000.0625
199.75950407981873,-400000.0625,6681.009765625,638.4400024414062,-400000.0625,-2169.659912109375,-400000.0625,5260.990234375,-400000.0625
199.759512424469,-400000.0625,6686.1201171875,645.02001953125,-400000.0625,-2150.35009765625,-400000.0625,5268.14990234375,-400000.0625
199.75952076911926,-400000.0625,6702.60986328125,665.3800048828125,-400000.0625,-2118.8701171875,-400000.0625,5284.31005859375,-400000.0625
199.7595293521881,-400000.0625,6710.85986328125,672.9099731445312,-400000.0625,-2108.570068359375,-400000.0625,5290.7998046875,-400000.0625
199.75953769683838,-400000.0625,6693.97998046875,650.9299926757812,-400000.0625,-2139.18994140625,-400000.0625,5273.77001953125,-400000.0625
199.75954627990723,-400000.0625,6678.9599609375,638.0599975585938,-400000.0625,-2154.780029296875,-400000.0625,5259.31982421875,-400000.0625
199.7595546245575,-400000.0625,6682.5400390625,645.9199829101562,-400000.0625,-2148.820068359375,-400000.0625,5266.08984375,-400000.0625
199.75956344604492,-400000.0625,6703.18994140625,665.52001953125,-400000.0625,-2129.75,-400000.0625,5289.41015625,-400000.0625
199.7595717906952,-400000.0625,6714.06005859375,677.1599731445312,-400000.0625,-2124.360107421875,-400000.0625,5295.1298828125,-400000.0625
199.75957989692688,-400000.0625,6699.56005859375,659.75,-400000.0625,-2140.0,-400000.0625,5278.06005859375,-400000.0625
199.75958895683289,-400000.0625,6675.52978515625,639.1500244140625,-400000.0625,-2150.389892578125,-400000.0625,5262.60986328125,-400000.0625
199.75959730148315,-400000.0625,6682.8701171875,647.3499755859375,-400000.0625,-2153.02001953125,-400000.0625,5268.72021484375,-400000.0625
199.75960564613342,-400000.0625,6710.0498046875,670.6699829101562,-400000.0625,-2136.7099609375,-400000.0625,5286.22021484375,-400000.0625
199.7596139907837,-400000.0625,6714.5400390625,676.1099853515625,-400000.0625,-2127.5,-400000.0625,5292.7998046875,-400000.0625
199.75962257385254,-400000.0625,6696.93994140625,655.4600219726562,-400000.0625,-2141.429931640625,-400000.0625,5276.8701171875,-400000.0625
199.7596309185028,-400000.0625,6681.72998046875,642.5900268554688,-400000.0625,-2147.580078125,-400000.0625,5263.14013671875,-400000.0625
199.75963950157166,-400000.0625,6687.8798828125,651.3099975585938,-400000.0625,-2134.659912109375,-400000.0625,5268.77001953125,-400000.0625
199.7596480846405,-400000.0625,6710.2001953125,669.719970703125,-400000.0625,-2124.8798828125,-400000.0625,5285.4501953125,-400000.0625
199.7596561908722,-400000.0625,6712.52978515625,674.1500244140625,-400000.0625,-2124.8798828125,-400000.0625,5292.4599609375,-400000.0625
199.75966453552246,-400000.0625,6693.75,659.6599731445312,-400000.0625,-2130.169921875,-400000.0625,5277.830078125,-400000.0625
199.75967288017273,-400000.0625,6678.52978515625,642.3499755859375,-400000.0625,-2148.10009765625,-400000.0625,5261.9501953125,-400000.0625
199.75968146324158,-400000.0625,6685.64013671875,649.2100219726562,-400000.0625,-2150.43994140625,-400000.0625,5269.39013671875,-400000.0625
199.75969004631042,-400000.0625,6712.81982421875,676.010009765625,-400000.0625,-2134.800048828125,-400000.0625,5291.990234375,-400000.0625
199.75969886779785,-400000.0625,6720.2099609375,683.4500122070312,-400000.0625,-2124.830078125,-400000.0625,5294.7998046875,-400000.0625
199.7597074508667,-400000.0625,6700.60986328125,664.0399780273438,-400000.0625,-2128.699951171875,-400000.0625,5276.97021484375,-400000.0625
199.75971698760986,-400000.0625,6687.740234375,645.2100219726562,-400000.0625,-2138.22998046875,-400000.0625,5259.7998046875,-400000.0625
199.75972652435303,-400000.0625,6695.41015625,648.780029296875,-400000.0625,-2128.93994140625,-400000.0625,5263.759765625,-400000.0625
199.75973510742188,-400000.0625,6707.9599609375,670.6199951171875,-400000.0625,-2124.8798828125,-400000.0625,5281.97021484375,-400000.0625
199.7597439289093,-400000.0625,6714.14990234375,679.8300170898438,-400000.0625,-2121.8798828125,-400000.0625,5289.31982421875,-400000.0625
199.75975227355957,-400000.0625,6700.85009765625,662.0399780273438,-400000.0625,-2138.22998046875,-400000.0625,5276.39013671875,-400000.0625
199.75976061820984,-400000.0625,6682.68017578125,644.969970703125,-400000.0625,-2150.580078125,-400000.0625,5263.22998046875,-400000.0625
199.75976943969727,-400000.0625,6686.39990234375,650.4500122070312,-400000.0625,-2142.239990234375,-400000.0625,5267.81005859375,-400000.0625
199.75977778434753,-400000.0625,6702.7099609375,668.5700073242188,-400000.0625,-2132.1298828125,-400000.0625,5285.31005859375,-400000.0625
199.75978636741638,-400000.0625,6714.5400390625,677.3900146484375,-400000.0625,-2129.409912109375,-400000.0625,5292.85009765625,-400000.0625
199.75979471206665,-400000.0625,6701.18017578125,659.9400024414062,-400000.0625,-2134.3701171875,-400000.0625,5276.490234375,-400000.0625
199.75980353355408,-400000.0625,6684.4501953125,643.0599975585938,-400000.0625,-2135.89990234375,-400000.0625,5259.56005859375,-400000.0625
199.75981163978577,-400000.0625,6690.06982421875,647.3499755859375,-400000.0625,-2136.89990234375,-400000.0625,5263.85009765625,-400000.0625
199.75982022285461,-400000.0625,6709.0,669.3800048828125,-400000.0625,-2128.080078125,-400000.0625,5284.02001953125,-400000.0625
199.7598283290863,-400000.0625,6715.25,678.9199829101562,-400000.0625,-2117.820068359375,-400000.0625,5292.31982421875,-400000.0625
199.75983667373657,-400000.0625,6697.0400390625,659.8499755859375,-400000.0625,-2139.330078125,-400000.0625,5276.2001953125,-400000.0625
199.75984525680542,-400000.0625,6677.33984375,638.8699951171875,-400000.0625,-2157.260009765625,-400000.0625,5263.22998046875,-400000.0625
199.75985383987427,-400000.0625,6685.4501953125,646.4000244140625,-400000.0625,-2143.860107421875,-400000.0625,5267.10009765625,-400000.0625
199.75986218452454,-400000.0625,6706.91015625,668.4299926757812,-400000.0625,-2135.85009765625,-400000.0625,5284.5498046875,-400000.0625
199.75987029075623,-400000.0625,6713.52978515625,675.1099853515625,-400000.0625,-2124.739990234375,-400000.0625,5290.7001953125,-400000.0625
199.7598786354065,-400000.0625,6696.27001953125,655.7899780273438,-400000.0625,-2135.52001953125,-400000.0625,5275.2001953125,-400000.0625
199.75988721847534,-400000.0625,6680.2998046875,637.6699829101562,-400000.0625,-2159.2099609375,-400000.0625,5257.56005859375,-400000.0625
199.75989532470703,-400000.0625,6687.35986328125,644.72998046875,-400000.0625,-2144.429931640625,-400000.0625,5263.47021484375,-400000.0625
199.75990390777588,-400000.0625,6706.669921875,665.9000244140625,-400000.0625,-2123.02001953125,-400000.0625,5284.740234375,-400000.0625
199.75991249084473,-400000.0625,6712.009765625,672.47998046875,-400000.0625,-2124.8798828125,-400000.0625,5290.56005859375,-400000.0625
199.75992131233215,-400000.0625,6694.89013671875,657.6500244140625,-400000.0625,-2130.93994140625,-400000.0625,5273.81982421875,-400000.0625
199.75993537902832,-400000.0625,6677.77001953125,641.3900146484375,-400000.0625,-2147.389892578125,-400000.0625,5253.02978515625,-400000.0625
199.7599437236786,-400000.0625,6684.490234375,645.9199829101562,-400000.0625,-2149.919921875,-400000.0625,5258.7001953125,-400000.0625
199.75995254516602,-400000.0625,6708.9599609375,671.47998046875,-400000.0625,-2137.570068359375,-400000.0625,5281.58984375,-400000.0625
199.75996088981628,-400000.0625,6716.919921875,680.780029296875,-400000.0625,-2113.6298828125,-400000.0625,5291.60986328125,-400000.0625
199.75996947288513,-400000.0625,6700.7998046875,660.7999877929688,-400000.0625,-2116.919921875,-400000.0625,5274.43994140625,-400000.0625
199.7599778175354,-400000.0625,6683.2998046875,642.5900268554688,-400000.0625,-2138.7099609375,-400000.0625,5254.7900390625,-400000.0625
199.7599868774414,-400000.0625,6682.2099609375,644.969970703125,-400000.0625,-2140.89990234375,-400000.0625,5261.0400390625,-400000.0625
199.7610378265381,-400000.0625,6704.759765625,669.239990234375,-400000.0625,-2124.02001953125,-400000.0625,5282.93017578125,-400000.0625
199.76109647750854,-400000.0625,6722.97998046875,651.1199951171875,-400000.0625,-2127.219970703125,-400000.0625,5289.93994140625,-400000.0625
199.7611231803894,-400000.0625,6714.25,643.0599975585938,-400000.0625,-2145.340087890625,-400000.0625,5277.10986328125,-400000.0625
199.7611472606659,-400000.0625,6695.56005859375,624.9000244140625,-400000.0625,-2171.469970703125,-400000.0625,5258.85009765625,-400000.0625
199.7611699104309,-400000.0625,6695.64990234375,626.989990234375,-400000.0625,-2180.2900390625,-400000.0625,5262.60986328125,-400000.0625
199.76119232177734,-400000.0625,6719.490234375,651.1199951171875,-400000.0625,-2152.679931640625,-400000.0625,5281.35009765625,-400000.0625
199.76121473312378,-400000.0625,6730.89013671875,660.9400024414062,-400000.0625,-2129.409912109375,-400000.0625,5291.1298828125,-400000.0625
199.76123809814453,-400000.0625,6716.68017578125,646.02001953125,-400000.0625,-2133.56005859375,-400000.0625,5276.35009765625,-400000.0625
199.76126098632812,-400000.0625,6693.64990234375,624.1799926757812,-400000.0625,-2138.89990234375,-400000.0625,5256.56005859375,-400000.0625
199.76128268241882,-400000.0625,6690.8798828125,622.8900146484375,-400000.0625,-2149.77001953125,-400000.0625,5258.3701171875,-400000.0625
199.76130485534668,-400000.0625,6715.10986328125,646.3099975585938,-400000.0625,-2136.56005859375,-400000.0625,5277.10986328125,-400000.0625
199.76132726669312,-400000.0625,6731.27001953125,661.9500122070312,-400000.0625,-2125.31005859375,-400000.0625,5289.509765625,-400000.0625
199.76134967803955,-400000.0625,6716.6298828125,647.5900268554688,-400000.0625,-2144.530029296875,-400000.0625,5279.5400390625,-400000.0625
199.761372089386,-400000.0625,6693.7001953125,626.989990234375,-400000.0625,-2176.570068359375,-400000.0625,5262.3798828125,-400000.0625
199.76139497756958,-400000.0625,6695.93994140625,628.7100219726562,-400000.0625,-2172.469970703125,-400000.0625,5262.56982421875,-400000.0625
199.7614185810089,-400000.0625,6717.64013671875,647.2100219726562,-400000.0625,-2128.889892578125,-400000.0625,5275.6298828125,-400000.0625
199.79074811935425,-400000.0625,6618.68994140625,600.719970703125,-400000.0625,-2061.800048828125,-400000.0625,5212.5,-400000.0625
199.8183081150055,-400000.0625,6611.8701171875,583.1699829101562,-400000.0625,-2105.050048828125,-400000.0625,5237.77001953125,-400000.0625
199.9279980659485,-400000.0625,6897.4501953125,623.1799926757812,-400000.0625,-2074.580078125,-400000.0625,5368.85009765625,-400000.0625
200.02374863624573,-400000.0625,6885.580078125,627.0399780273438,-400000.0625,-2091.260009765625,-400000.0625,5357.740234375,-400000.0625
200.04258561134338,-400000.0625,6805.75,519.1799926757812,-400000.0625,-2130.989990234375,-400000.0625,5407.2900390625,-400000.0625
200.10654401779175,-400000.0625,6789.259765625,507.2099914550781,-400000.0625,-2135.22998046875,-400000.0625,5390.5,-400000.0625
200.17776584625244,-400000.0625,6793.5498046875,519.9400024414062,-400000.0625,-2141.330078125,-400000.0625,5394.080078125,-400000.0625
200.24503636360168,-400000.0625,6805.60986328125,545.4099731445312,-400000.0625,-2113.25,-400000.0625,5408.56982421875,-400000.0625
200.30262970924377,-400000.0625,6853.919921875,616.030029296875,-400000.0625,-2089.68994140625,-400000.0625,5331.759765625,-400000.0625
200.40379452705383,-400000.0625,6821.6298828125,590.75,-400000.0625,-2113.43994140625,-400000.0625,5317.16015625,-400000.0625
200.49365329742432,-400000.0625,6798.5498046875,584.510009765625,-400000.0625,-2105.330078125,-400000.0625,5303.56982421875,-400000.0625
200.55835342407227,-400000.0625,6803.93994140625,576.4000244140625,-400000.0625,-2095.1298828125,-400000.0625,5353.2099609375,-400000.0625
200.73280954360962,-400000.0625,6769.31982421875,560.239990234375,-400000.0625,-2116.25,-400000.0625,5332.7099609375,-400000.0625
200.81209754943848,-400000.0625,6701.89990234375,492.95001220703125,-400000.0625,-2132.030029296875,-400000.0625,5356.740234375,-400000.0625
200.87671542167664,-400000.0625,6571.77001953125,428.7200012207031,-400000.0625,-2094.93994140625,-400000.0625,5305.9599609375,-400000.0625
200.95539379119873,-400000.0625,6495.52001953125,430.7300109863281,-400000.0625,-2078.909912109375,-400000.0625,5252.41015625,-400000.0625
201.01963090896606,-400000.0625,6639.77001953125,490.3800048828125,-400000.0625,-2103.570068359375,-400000.0625,5305.6201171875,-400000.0625
201.20117092132568,-400000.0625,6745.47998046875,566.2000122070312,-400000.0625,-2123.39990234375,-400000.0625,5333.47021484375,-400000.0625
201.2579047679901,-400000.0625,6741.6201171875,576.72998046875,-400000.0625,-2085.68994140625,-400000.0625,5316.4501953125,-400000.0625
201.3224174976349,-400000.0625,6719.64013671875,559.1400146484375,-400000.0625,-2103.52001953125,-400000.0625,5288.97998046875,-400000.0625
201.3999469280243,-400000.0625,6711.2001953125,545.4500122070312,-400000.0625,-2141.909912109375,-400000.0625,5278.77978515625,-400000.0625
201.50182223320007,-400000.0625,6713.68017578125,552.0800170898438,-400000.0625,-2125.360107421875,-400000.0625,5277.77978515625,-400000.0625
201.58010864257812,-400000.0625,6738.85009765625,588.0399780273438,-400000.0625,-2107.3798828125,-400000.0625,5291.18017578125,-400000.0625
201.65166664123535,-400000.0625,6713.77001953125,565.3400268554688,-400000.0625,-2106.3798828125,-400000.0625,5264.759765625,-400000.0625
201.71500754356384,-400000.0625,6690.169921875,546.0700073242188,-400000.0625,-2104.7099609375,-400000.0625,5236.10009765625,-400000.0625
201.77311611175537,-400000.0625,6709.669921875,592.4199829101562,-400000.0625,-2101.0400390625,-400000.0625,5198.18994140625,-400000.0625
201.86269426345825,-400000.0625,6716.68017578125,624.6099853515625,-400000.0625,-2078.8701171875,-400000.0625,5202.47998046875,-400000.0625
201.90169858932495,-400000.0625,6703.330078125,612.02001953125,-400000.0625,-2090.030029296875,-400000.0625,5180.7900390625,-400000.0625
201.96305298805237,-400000.0625,6692.64990234375,561.9500122070312,-400000.0625,-2116.300048828125,-400000.0625,5249.06982421875,-400000.0625
202.02662897109985,-400000.0625,6669.0,542.2100219726562,-400000.0625,-2113.489990234375,-400000.0625,5230.7099609375,-400000.0625
202.098135471344,-400000.0625,6668.43017578125,543.1199951171875,-400000.0625,-2140.0,-400000.0625,5226.990234375,-400000.0625
202.15519523620605,-400000.0625,6683.5400390625,563.719970703125,-400000.0625,-2104.6201171875,-400000.0625,5246.4501953125,-400000.0625
202.29581141471863,-400000.0625,6664.52001953125,562.8099975585938,-400000.0625,-2108.340087890625,-400000.0625,5225.89990234375,-400000.0625
202.3343803882599,-400000.0625,6644.25,541.72998046875,-400000.0625,-2116.300048828125,-400000.0625,5206.58984375,-400000.0625
202.35649371147156,-400000.0625,6651.830078125,545.260009765625,-400000.0625,-2123.929931640625,-400000.0625,5214.5,-400000.0625
202.37525629997253,-400000.0625,6676.14990234375,569.6300048828125,-400000.0625,-2123.68994140625,-400000.0625,5234.14990234375,-400000.0625
202.39544939994812,-400000.0625,6679.580078125,578.2100219726562,-400000.0625,-2091.1201171875,-400000.0625,5243.830078125,-400000.0625
202.41204738616943,-400000.0625,6666.9501953125,564.6199951171875,-400000.0625,-2087.830078125,-400000.0625,5231.14013671875,-400000.0625
202.4474904537201,-400000.0625,6651.58984375,542.6400146484375,-400000.0625,-2127.5,-400000.0625,5212.740234375,-400000.0625
202.46509313583374,-400000.0625,6652.7900390625,547.3599853515625,-400000.0625,-2129.7900390625,-400000.0625,5215.1201171875,-400000.0625
202.4821639060974,-400000.0625,6675.72021484375,573.1099853515625,-400000.0625,-2099.699951171875,-400000.0625,5237.77001953125,-400000.0625
202.50313210487366,-400000.0625,6684.68994140625,580.3599853515625,-400000.0625,-2093.97998046875,-400000.0625,5246.06982421875,-400000.0625
202.51662421226501,-400000.0625,6666.47021484375,564.6199951171875,-400000.0625,-2102.419921875,-400000.0625,5230.3798828125,-400000.0625
202.54844689369202,-400000.0625,6652.5498046875,547.4600219726562,-400000.0625,-2114.679931640625,-400000.0625,5209.64013671875,-400000.0625
202.56555938720703,-400000.0625,6655.41015625,549.030029296875,-400000.0625,-2111.340087890625,-400000.0625,5211.4501953125,-400000.0625
202.57992386817932,-400000.0625,6673.85986328125,568.010009765625,-400000.0625,-2078.199951171875,-400000.0625,5227.759765625,-400000.0625
202.60255217552185,-400000.0625,6678.2001953125,575.9199829101562,-400000.0625,-2076.909912109375,-400000.0625,5240.580078125,-400000.0625
202.62138319015503,-400000.0625,6665.0400390625,560.6699829101562,-400000.0625,-2103.7099609375,-400000.0625,5227.3798828125,-400000.0625
202.66737818717957,-400000.0625,6645.72998046875,540.02001953125,-400000.0625,-2135.3701171875,-400000.0625,5206.8701171875,-400000.0625
202.69944071769714,-400000.0625,6647.02001953125,542.4500122070312,-400000.0625,-2128.699951171875,-400000.0625,5209.72998046875,-400000.0625
202.72124314308167,-400000.0625,6671.14013671875,567.530029296875,-400000.0625,-2100.85009765625,-400000.0625,5230.6201171875,-400000.0625
202.73984265327454,-400000.0625,6676.52978515625,574.489990234375,-400000.0625,-2098.179931640625,-400000.0625,5240.10986328125,-400000.0625
202.86194777488708,-400000.0625,6644.25,554.22998046875,-400000.0625,-2111.340087890625,-400000.0625,5210.2998046875,-400000.0625
202.97275257110596,-400000.0625,6631.85009765625,542.8300170898438,-400000.0625,-2158.97998046875,-400000.0625,5199.6201171875,-400000.0625
203.37291812896729,-400000.0625,6578.39990234375,498.1000061035156,-400000.0625,-2157.830078125,-400000.0625,5168.14990234375,-400000.0625
203.56644129753113,-400000.0625,6559.56005859375,492.5299987792969,-400000.0625,-2140.949951171875,-400000.0625,5166.2900390625,-400000.0625
203.6294674873352,-400000.0625,6570.240234375,499.05999755859375,-400000.0625,-2146.43994140625,-400000.0625,5159.56982421875,-400000.0625
203.70308423042297,-400000.0625,6606.25,527.6199951171875,-400000.0625,-2119.590087890625,-400000.0625,5169.6298828125,-400000.0625
203.89628219604492,-400000.0625,6568.10009765625,515.9400024414062,-400000.0625,-2154.06005859375,-400000.0625,5170.10986328125,-400000.0625
203.9555299282074,-400000.0625,6541.919921875,484.4200134277344,-400000.0625,-2164.080078125,-400000.0625,5145.35986328125,-400000.0625
204.0594503879547,-400000.0625,6532.85986328125,480.1300048828125,-400000.0625,-2179.050048828125,-400000.0625,5137.490234375,-400000.0625
204.14507627487183,-400000.0625,6566.240234375,513.7000122070312,-400000.0625,-2139.22998046875,-400000.0625,5166.81982421875,-400000.0625
204.20547819137573,-400000.0625,6556.419921875,506.5400085449219,-400000.0625,-2137.419921875,-400000.0625,5151.89013671875,-400000.0625
204.2686858177185,-400000.0625,6536.6298828125,482.8900146484375,-400000.0625,-2162.360107421875,-400000.0625,5125.330078125,-400000.0625
204.3763575553894,-400000.0625,6524.85009765625,479.6000061035156,-400000.0625,-2158.590087890625,-400000.0625,5122.81005859375,-400000.0625
204.44224190711975,-400000.0625,6540.43994140625,497.20001220703125,-400000.0625,-2168.0400390625,-400000.0625,5139.64013671875,-400000.0625
204.460857629776,-400000.0625,6550.22021484375,511.1199951171875,-400000.0625,-2126.8798828125,-400000.0625,5149.509765625,-400000.0625
204.6004936695099,-400000.0625,6531.52978515625,492.5299987792969,-400000.0625,-2140.949951171875,-400000.0625,5127.9599609375,-400000.0625
204.6589708328247,-400000.0625,6519.64990234375,484.75,-400000.0625,-2157.739990234375,-400000.0625,5120.56005859375,-400000.0625
204.715811252594,-400000.0625,6542.68017578125,502.7300109863281,-400000.0625,-2122.260009765625,-400000.0625,5129.14990234375,-400000.0625
204.81632161140442,-400000.0625,6558.22998046875,521.5599975585938,-400000.0625,-2147.719970703125,-400000.0625,5145.31005859375,-400000.0625
204.85754132270813,-400000.0625,6547.2099609375,512.6500244140625,-400000.0625,-2129.510009765625,-400000.0625,5135.8701171875,-400000.0625
204.87108898162842,-400000.0625,6527.14013671875,488.0,-400000.0625,-2144.860107421875,-400000.0625,5116.60986328125,-400000.0625
204.886949300766,-400000.0625,6521.4599609375,481.4100036621094,-400000.0625,-2147.9599609375,-400000.0625,5109.02001953125,-400000.0625
204.90711450576782,-400000.0625,6541.009765625,502.44000244140625,-400000.0625,-2124.409912109375,-400000.0625,5127.0,-400000.0625
204.92311763763428,-400000.0625,6557.3701171875,521.1400146484375,-400000.0625,-2114.6298828125,-400000.0625,5143.35986328125,-400000.0625
204.95737528800964,-400000.0625,6553.7001953125,514.7000122070312,-400000.0625,-2146.820068359375,-400000.0625,5135.35009765625,-400000.0625
204.97759413719177,-400000.0625,6526.3798828125,489.19000244140625,-400000.0625,-2168.659912109375,-400000.0625,5110.31005859375,-400000.0625
204.9965376853943,-400000.0625,6520.7998046875,482.75,-400000.0625,-2158.39990234375,-400000.0625,5110.31005859375,-400000.0625
205.02331233024597,-400000.0625,6544.5400390625,504.05999755859375,-400000.0625,-2134.659912109375,-400000.0625,5127.9599609375,-400000.0625
205.07071590423584,-400000.0625,6559.66015625,520.9000244140625,-400000.0625,-2124.60009765625,-400000.0625,5144.06982421875,-400000.0625
205.10627484321594,-400000.0625,6552.41015625,514.219970703125,-400000.0625,-2137.280029296875,-400000.0625,5134.919921875,-400000.0625
205.14749574661255,-400000.0625,6530.56982421875,490.239990234375,-400000.0625,-2155.590087890625,-400000.0625,5113.7001953125,-400000.0625
205.22178506851196,-400000.0625,6522.18017578125,482.70001220703125,-400000.0625,-2148.909912109375,-400000.0625,5104.72998046875,-400000.0625
205.24445629119873,-400000.0625,6545.02001953125,503.8299865722656,-400000.0625,-2133.75,-400000.0625,5123.0400390625,-400000.0625
205.30054187774658,-400000.0625,6521.75,478.7900085449219,-400000.0625,-2147.010009765625,-400000.0625,5108.740234375,-400000.0625
205.3546495437622,-400000.0625,6537.06005859375,491.239990234375,-400000.0625,-2144.6201171875,-400000.0625,5122.7099609375,-400000.0625
205.4217665195465,-400000.0625,6565.47998046875,519.22998046875,-400000.0625,-2142.570068359375,-400000.0625,5141.740234375,-400000.0625
205.52879643440247,-400000.0625,6547.02001953125,509.1700134277344,-400000.0625,-2126.7900390625,-400000.0625,5134.77001953125,-400000.0625
205.56260132789612,-400000.0625,6514.06982421875,478.4599914550781,-400000.0625,-2156.68994140625,-400000.0625,5102.10986328125,-400000.0625
205.61318469047546,-400000.0625,6544.64013671875,509.2099914550781,-400000.0625,-2147.25,-400000.0625,5121.66015625,-400000.0625
205.6752142906189,-400000.0625,6548.5498046875,504.9200134277344,-400000.0625,-2162.169921875,-400000.0625,5115.27001953125,-400000.0625
205.7474799156189,-400000.0625,6553.7001953125,515.1699829101562,-400000.0625,-2131.840087890625,-400000.0625,5131.2001953125,-400000.0625
205.82349371910095,-400000.0625,6535.009765625,493.9599914550781,-400000.0625,-2155.489990234375,-400000.0625,5113.080078125,-400000.0625
205.91339945793152,-400000.0625,6528.0400390625,493.6700134277344,-400000.0625,-2146.820068359375,-400000.0625,5101.06005859375,-400000.0625
205.9338574409485,-400000.0625,6518.02978515625,483.2699890136719,-400000.0625,-2144.9599609375,-400000.0625,5092.85986328125,-400000.0625
205.99755787849426,-400000.0625,6529.85986328125,495.5799865722656,-400000.0625,-2143.18994140625,-400000.0625,5105.64013671875,-400000.0625
206.05906701087952,-400000.0625,6549.7900390625,519.5599975585938,-400000.0625,-2133.469970703125,-400000.0625,5116.4599609375,-400000.0625
206.12198185920715,-400000.0625,6543.72998046875,516.8400268554688,-400000.0625,-2120.639892578125,-400000.0625,5117.7001953125,-400000.0625
206.19806289672852,-400000.0625,6515.41015625,483.75,-400000.0625,-2138.89990234375,-400000.0625,5091.47998046875,-400000.0625
206.26405715942383,-400000.0625,6505.77978515625,475.1199951171875,-400000.0625,-2161.840087890625,-400000.0625,5082.7998046875,-400000.0625
206.33312153816223,-400000.0625,6522.31982421875,496.2900085449219,-400000.0625,-2136.659912109375,-400000.0625,5096.580078125,-400000.0625
206.3959038257599,-400000.0625,6543.02001953125,520.9400024414062,-400000.0625,-2140.139892578125,-400000.0625,5121.419921875,-400000.0625
206.45234489440918,-400000.0625,6547.7900390625,522.3300170898438,-400000.0625,-2143.669921875,-400000.0625,5112.4599609375,-400000.0625
206.50804233551025,-400000.0625,6524.7998046875,496.9100036621094,-400000.0625,-2166.610107421875,-400000.0625,5097.81982421875,-400000.0625
206.57221817970276,-400000.0625,6511.39990234375,482.0299987792969,-400000.0625,-2160.360107421875,-400000.0625,5079.3701171875,-400000.0625
206.66092443466187,-400000.0625,6527.22998046875,492.7200012207031,-400000.0625,-2176.7099609375,-400000.0625,5089.669921875,-400000.0625
206.76853013038635,-400000.0625,6549.31005859375,518.75,-400000.0625,-2161.929931640625,-400000.0625,5120.52001953125,-400000.0625
206.82732009887695,-400000.0625,6529.0498046875,499.6300048828125,-400000.0625,-2173.139892578125,-400000.0625,5100.77978515625,-400000.0625
206.89763236045837,-400000.0625,6516.35986328125,482.3699951171875,-400000.0625,-2167.56005859375,-400000.0625,5087.14013671875,-400000.0625
207.00904154777527,-400000.0625,6529.240234375,503.5400085449219,-400000.0625,-2169.280029296875,-400000.0625,5094.77001953125,-400000.0625
207.10003662109375,-400000.0625,6541.35009765625,519.22998046875,-400000.0625,-2152.969970703125,-400000.0625,5107.5498046875,-400000.0625
207.1575162410736,-400000.0625,6505.6298828125,483.70001220703125,-400000.0625,-2181.719970703125,-400000.0625,5068.58984375,-400000.0625
207.21634817123413,-400000.0625,6505.77978515625,488.80999755859375,-400000.0625,-2157.070068359375,-400000.0625,5070.02001953125,-400000.0625
207.27464771270752,-400000.0625,6511.93017578125,497.3900146484375,-400000.0625,-2162.739990234375,-400000.0625,5078.080078125,-400000.0625
207.30453276634216,-400000.0625,6529.7099609375,518.7999877929688,-400000.0625,-2135.610107421875,-400000.0625,5101.490234375,-400000.0625
207.31728410720825,-400000.0625,6540.97021484375,524.6599731445312,-400000.0625,-2142.860107421875,-400000.0625,5103.72998046875,-400000.0625
207.32809901237488,-400000.0625,6515.22021484375,499.8699951171875,-400000.0625,-2183.06005859375,-400000.0625,5083.0400390625,-400000.0625
207.34019780158997,-400000.0625,6496.81005859375,484.75,-400000.0625,-2181.820068359375,-400000.0625,5067.5400390625,-400000.0625
207.35248494148254,-400000.0625,6506.72998046875,495.1000061035156,-400000.0625,-2156.35009765625,-400000.0625,5080.75,-400000.0625
207.36736226081848,-400000.0625,6531.0498046875,517.8900146484375,-400000.0625,-2153.489990234375,-400000.0625,5099.2998046875,-400000.0625
207.3841896057129,-400000.0625,6534.47998046875,522.280029296875,-400000.0625,-2156.68994140625,-400000.0625,5097.43994140625,-400000.0625
207.41242051124573,-400000.0625,6516.35986328125,504.05999755859375,-400000.0625,-2171.800048828125,-400000.0625,5081.83984375,-400000.0625
207.42727303504944,-400000.0625,6504.14990234375,489.19000244140625,-400000.0625,-2173.949951171875,-400000.0625,5070.8798828125,-400000.0625
207.44793605804443,-400000.0625,6514.35986328125,501.489990234375,-400000.0625,-2153.72998046875,-400000.0625,5082.0400390625,-400000.0625
207.4616687297821,-400000.0625,6541.39990234375,528.719970703125,-400000.0625,-2130.7900390625,-400000.0625,5100.2998046875,-400000.0625
207.4741189479828,-400000.0625,6541.35009765625,526.6699829101562,-400000.0625,-2147.389892578125,-400000.0625,5102.8701171875,-400000.0625
207.4926254749298,-400000.0625,6516.509765625,506.9700012207031,-400000.0625,-2174.949951171875,-400000.0625,5084.66015625,-400000.0625
207.52724432945251,-400000.0625,6502.580078125,493.8599853515625,-400000.0625,-2180.050048828125,-400000.0625,5071.2099609375,-400000.0625
207.53912091255188,-400000.0625,6514.1201171875,500.1099853515625,-400000.0625,-2173.3798828125,-400000.0625,5083.22998046875,-400000.0625
207.55909943580627,-400000.0625,6532.85986328125,522.1400146484375,-400000.0625,-2139.469970703125,-400000.0625,5098.10986328125,-400000.0625
207.57497763633728,-400000.0625,6538.10986328125,527.760009765625,-400000.0625,-2140.81005859375,-400000.0625,5099.9599609375,-400000.0625
207.59853219985962,-400000.0625,6515.5498046875,503.44000244140625,-400000.0625,-2163.360107421875,-400000.0625,5082.75,-400000.0625
207.63261222839355,-400000.0625,6498.85986328125,485.79998779296875,-400000.0625,-2168.800048828125,-400000.0625,5066.77978515625,-400000.0625
207.64764046669006,-400000.0625,6513.7900390625,499.3900146484375,-400000.0625,-2161.840087890625,-400000.0625,5081.080078125,-400000.0625
207.66297268867493,-400000.0625,6532.81005859375,521.7999877929688,-400000.0625,-2151.780029296875,-400000.0625,5100.580078125,-400000.0625
207.67907404899597,-400000.0625,6536.77001953125,524.22998046875,-400000.0625,-2159.7900390625,-400000.0625,5101.39990234375,-400000.0625
207.6981179714203,-400000.0625,6518.64990234375,504.7799987792969,-400000.0625,-2165.840087890625,-400000.0625,5083.85009765625,-400000.0625
207.7211663722992,-400000.0625,6500.77001953125,487.95001220703125,-400000.0625,-2169.419921875,-400000.0625,5069.39990234375,-400000.0625
207.7535481452942,-400000.0625,6513.64013671875,501.29998779296875,-400000.0625,-2162.080078125,-400000.0625,5081.509765625,-400000.0625
207.80606412887573,-400000.0625,6512.4501953125,508.0199890136719,-400000.0625,-2182.909912109375,-400000.0625,5091.330078125,-400000.0625
207.91735005378723,-400000.0625,6492.66015625,489.42999267578125,-400000.0625,-2178.570068359375,-400000.0625,5076.64990234375,-400000.0625
207.99707293510437,-400000.0625,6511.740234375,511.4100036621094,-400000.0625,-2145.719970703125,-400000.0625,5083.56005859375,-400000.0625
208.05038166046143,-400000.0625,6521.27001953125,524.0,-400000.0625,-2168.75,-400000.0625,5094.72021484375,-400000.0625
208.12380957603455,-400000.0625,6489.66015625,494.2900085449219,-400000.0625,-2176.090087890625,-400000.0625,5070.830078125,-400000.0625
208.1743757724762,-400000.0625,6501.580078125,514.4099731445312,-400000.0625,-2159.7900390625,-400000.0625,5076.4599609375,-400000.0625
208.29782485961914,-400000.0625,6499.85986328125,507.7799987792969,-400000.0625,-2165.60009765625,-400000.0625,5075.35986328125,-400000.0625
208.36415767669678,-400000.0625,6499.33984375,507.92999267578125,-400000.0625,-2161.5,-400000.0625,5072.259765625,-400000.0625
208.47335290908813,-400000.0625,6484.64990234375,486.4200134277344,-400000.0625,-2181.580078125,-400000.0625,5055.759765625,-400000.0625
208.5560417175293,-400000.0625,6466.2001953125,476.4100036621094,-400000.0625,-2188.8701171875,-400000.0625,5041.93017578125,-400000.0625
208.62651181221008,-400000.0625,6490.18017578125,504.45001220703125,-400000.0625,-2184.25,-400000.0625,5056.3798828125,-400000.0625
208.6827495098114,-400000.0625,6500.72021484375,515.5999755859375,-400000.0625,-2165.27001953125,-400000.0625,5063.14990234375,-400000.0625
208.75418519973755,-400000.0625,6492.419921875,513.1199951171875,-400000.0625,-2186.580078125,-400000.0625,5050.9501953125,-400000.0625
208.86686491966248,-400000.0625,6469.39013671875,487.2799987792969,-400000.0625,-2185.679931640625,-400000.0625,5023.91015625,-400000.0625
208.95031809806824,-400000.0625,6490.3701171875,514.030029296875,-400000.0625,-2202.840087890625,-400000.0625,5049.93994140625,-400000.0625
209.01555371284485,-400000.0625,6487.89013671875,518.6099853515625,-400000.0625,-2159.550048828125,-400000.0625,5049.3701171875,-400000.0625
209.06684684753418,-400000.0625,6473.919921875,503.1600036621094,-400000.0625,-2182.820068359375,-400000.0625,5046.7998046875,-400000.0625
209.14967799186707,-400000.0625,6443.64013671875,478.7900085449219,-400000.0625,-2205.800048828125,-400000.0625,5028.2001953125,-400000.0625
209.22170448303223,-400000.0625,6443.97998046875,482.8500061035156,-400000.0625,-2199.699951171875,-400000.0625,5027.39013671875,-400000.0625
209.25777888298035,-400000.0625,6426.10009765625,503.1099853515625,-400000.0625,-2169.280029296875,-400000.0625,5045.31982421875,-400000.0625
209.32523894309998,-400000.0625,6200.35986328125,409.8900146484375,-400000.0625,-2117.969970703125,-400000.0625,4959.009765625,-400000.0625
209.40357661247253,-400000.0625,6386.18994140625,463.25,-400000.0625,-2174.949951171875,-400000.0625,5024.85986328125,-400000.0625
209.59171557426453,-400000.0625,6486.18017578125,513.5499877929688,-400000.0625,-2204.080078125,-400000.0625,5067.64013671875,-400000.0625
209.65027594566345,-400000.0625,6508.72998046875,535.1500244140625,-400000.0625,-2182.820068359375,-400000.0625,5079.4599609375,-400000.0625
209.70783758163452,-400000.0625,6495.52001953125,524.5700073242188,-400000.0625,-2202.3701171875,-400000.0625,5056.10009765625,-400000.0625
209.78297114372253,-400000.0625,6471.77978515625,505.1600036621094,-400000.0625,-2216.530029296875,-400000.0625,5034.35009765625,-400000.0625
209.8219437599182,-400000.0625,6474.77978515625,504.8800048828125,-400000.0625,-2212.139892578125,-400000.0625,5034.39990234375,-400000.0625
209.880277633667,-400000.0625,6493.9501953125,525.0499877929688,-400000.0625,-2203.419921875,-400000.0625,5052.759765625,-400000.0625
209.8981809616089,-400000.0625,6509.02001953125,542.780029296875,-400000.0625,-2204.469970703125,-400000.0625,5066.72998046875,-400000.0625
209.92062878608704,-400000.0625,6493.330078125,526.7100219726562,-400000.0625,-2208.18994140625,-400000.0625,5057.3798828125,-400000.0625
209.94103813171387,-400000.0625,6470.6298828125,501.489990234375,-400000.0625,-2211.81005859375,-400000.0625,5035.39990234375,-400000.0625
209.99212503433228,-400000.0625,6468.580078125,502.9700012207031,-400000.0625,-2213.530029296875,-400000.0625,5033.77978515625,-400000.0625
210.01951026916504,-400000.0625,6485.509765625,524.0900268554688,-400000.0625,-2191.5,-400000.0625,5049.56005859375,-400000.0625
210.04207682609558,-400000.0625,6495.669921875,534.8200073242188,-400000.0625,-2176.81005859375,-400000.0625,5059.52978515625,-400000.0625
210.08354568481445,-400000.0625,6487.0400390625,520.52001953125,-400000.0625,-2200.219970703125,-400000.0625,5048.509765625,-400000.0625
210.09849166870117,-400000.0625,6461.2900390625,496.3900146484375,-400000.0625,-2226.72998046875,-400000.0625,5031.16015625,-400000.0625
210.11831974983215,-400000.0625,6463.10009765625,500.7300109863281,-400000.0625,-2230.5,-400000.0625,5029.81982421875,-400000.0625
210.1410629749298,-400000.0625,6490.990234375,525.280029296875,-400000.0625,-2223.830078125,-400000.0625,5050.7099609375,-400000.0625
210.1580295562744,-400000.0625,6502.10009765625,538.02001953125,-400000.0625,-2208.85009765625,-400000.0625,5065.16015625,-400000.0625
210.21573138237,-400000.0625,6483.7001953125,521.1400146484375,-400000.0625,-2198.31005859375,-400000.0625,5051.18017578125,-400000.0625
210.23626470565796,-400000.0625,6466.2900390625,498.82000732421875,-400000.0625,-2216.77001953125,-400000.0625,5030.6298828125,-400000.0625
210.25323963165283,-400000.0625,6464.52978515625,498.489990234375,-400000.0625,-2214.669921875,-400000.0625,5029.5400390625,-400000.0625
210.3240261077881,-400000.0625,6472.4501953125,522.3800048828125,-400000.0625,-2195.929931640625,-400000.0625,5051.18017578125,-400000.0625
210.47869968414307,-400000.0625,6443.06982421875,498.7699890136719,-400000.0625,-2220.25,-400000.0625,5027.6298828125,-400000.0625
210.5728018283844,-400000.0625,6455.60986328125,520.280029296875,-400000.0625,-2199.75,-400000.0625,5041.89013671875,-400000.0625
210.60245966911316,-400000.0625,6473.16015625,538.72998046875,-400000.0625,-2186.820068359375,-400000.0625,5059.14990234375,-400000.0625
210.69776940345764,-400000.0625,6460.52001953125,530.5800170898438,-400000.0625,-2196.31005859375,-400000.0625,5051.990234375,-400000.0625
210.7301778793335,-400000.0625,6439.830078125,507.7799987792969,-400000.0625,-2216.10009765625,-400000.0625,5031.10986328125,-400000.0625
210.80004715919495,-400000.0625,6425.9501953125,497.010009765625,-400000.0625,-2199.889892578125,-400000.0625,5024.39013671875,-400000.0625
210.85788369178772,-400000.0625,6452.990234375,521.3300170898438,-400000.0625,-2212.909912109375,-400000.0625,5041.93017578125,-400000.0625
210.9287691116333,-400000.0625,6471.2998046875,545.6400146484375,-400000.0625,-2167.320068359375,-400000.0625,5059.669921875,-400000.0625
211.02128720283508,-400000.0625,6445.22021484375,511.3599853515625,-400000.0625,-2178.429931640625,-400000.0625,5030.68017578125,-400000.0625
211.07614994049072,-400000.0625,6435.25,503.67999267578125,-400000.0625,-2230.219970703125,-400000.0625,5028.9599609375,-400000.0625
211.1162257194519,-400000.0625,6431.14990234375,508.8800048828125,-400000.0625,-2214.580078125,-400000.0625,5028.81982421875,-400000.0625
211.19779109954834,-400000.0625,6449.60009765625,526.9500122070312,-400000.0625,-2191.260009765625,-400000.0625,5058.18994140625,-400000.0625
211.24870562553406,-400000.0625,6468.10986328125,544.02001953125,-400000.0625,-2185.340087890625,-400000.0625,5100.490234375,-400000.0625
211.30765223503113,-400000.0625,6453.22998046875,535.4400024414062,-400000.0625,-2182.25,-400000.0625,5102.5400390625,-400000.0625
211.4138560295105,-400000.0625,6435.97021484375,510.739990234375,-400000.0625,-2203.0400390625,-400000.0625,5089.18994140625,-400000.0625
211.46574187278748,-400000.0625,6425.240234375,502.5400085449219,-400000.0625,-2218.489990234375,-400000.0625,5089.330078125,-400000.0625
211.50008749961853,-400000.0625,6436.16015625,509.7900085449219,-400000.0625,-2196.7900390625,-400000.0625,5126.52001953125,-400000.0625
211.56262683868408,-400000.0625,6448.7001953125,526.1900024414062,-400000.0625,-2190.449951171875,-400000.0625,5146.97998046875,-400000.0625
211.6948926448822,-400000.0625,6414.7001953125,484.0400085449219,-400000.0625,-2221.5400390625,-400000.0625,5120.990234375,-400000.0625
211.79861187934875,-400000.0625,6418.18017578125,488.2799987792969,-400000.0625,-2204.3701171875,-400000.0625,5118.509765625,-400000.0625
211.89378786087036,-400000.0625,6450.7998046875,526.6699829101562,-400000.0625,-2169.1298828125,-400000.0625,5165.240234375,-400000.0625
211.95619583129883,-400000.0625,6455.14013671875,529.0999755859375,-400000.0625,-2176.0,-400000.0625,5164.39013671875,-400000.0625
212.01306581497192,-400000.0625,6428.669921875,497.7699890136719,-400000.0625,-2184.9599609375,-400000.0625,5140.97021484375,-400000.0625
212.08365178108215,-400000.0625,6414.27001953125,489.6199951171875,-400000.0625,-2187.72998046875,-400000.0625,5135.10986328125,-400000.0625
212.17351365089417,-400000.0625,6433.580078125,503.29998779296875,-400000.0625,-2193.830078125,-400000.0625,5159.0400390625,-400000.0625
212.20902347564697,-400000.0625,6445.31005859375,519.7000122070312,-400000.0625,-2176.570068359375,-400000.0625,5171.35009765625,-400000.0625
212.34361147880554,-400000.0625,6418.990234375,489.5199890136719,-400000.0625,-2181.389892578125,-400000.0625,5140.39990234375,-400000.0625
212.36817526817322,-400000.0625,6413.02978515625,481.2699890136719,-400000.0625,-2184.340087890625,-400000.0625,5129.669921875,-400000.0625
212.3828055858612,-400000.0625,6429.6298828125,499.44000244140625,-400000.0625,-2165.169921875,-400000.0625,5147.169921875,-400000.0625
212.3930218219757,-400000.0625,6450.7998046875,521.469970703125,-400000.0625,-2163.840087890625,-400000.0625,5171.10986328125,-400000.0625
212.41024541854858,-400000.0625,6447.02978515625,513.739990234375,-400000.0625,-2189.110107421875,-400000.0625,5168.33984375,-400000.0625
212.42255854606628,-400000.0625,6422.85009765625,490.6199951171875,-400000.0625,-2211.18994140625,-400000.0625,5146.31005859375,-400000.0625
212.4366843700409,-400000.0625,6410.60009765625,479.1700134277344,-400000.0625,-2202.800048828125,-400000.0625,5130.91015625,-400000.0625
212.44889521598816,-400000.0625,6426.52978515625,497.5299987792969,-400000.0625,-2191.02001953125,-400000.0625,5150.02978515625,-400000.0625
212.47718000411987,-400000.0625,6448.56005859375,521.52001953125,-400000.0625,-2177.570068359375,-400000.0625,5169.25,-400000.0625
212.49130368232727,-400000.0625,6443.7900390625,519.5599975585938,-400000.0625,-2163.360107421875,-400000.0625,5166.9599609375,-400000.0625
212.5072681903839,-400000.0625,6420.89990234375,496.9100036621094,-400000.0625,-2183.679931640625,-400000.0625,5145.97998046875,-400000.0625
212.52678656578064,-400000.0625,6411.83984375,482.6099853515625,-400000.0625,-2195.550048828125,-400000.0625,5133.2001953125,-400000.0625
212.54061555862427,-400000.0625,6428.2900390625,496.3900146484375,-400000.0625,-2181.820068359375,-400000.0625,5148.1298828125,-400000.0625
212.55924606323242,-400000.0625,6450.02978515625,515.510009765625,-400000.0625,-2181.050048828125,-400000.0625,5164.43017578125,-400000.0625
212.58670735359192,-400000.0625,6445.22021484375,514.510009765625,-400000.0625,-2189.489990234375,-400000.0625,5163.81005859375,-400000.0625
212.6025629043579,-400000.0625,6422.08984375,490.6199951171875,-400000.0625,-2190.830078125,-400000.0625,5142.830078125,-400000.0625
212.61980271339417,-400000.0625,6407.2099609375,477.1199951171875,-400000.0625,-2200.4599609375,-400000.0625,5131.10009765625,-400000.0625
212.63471388816833,-400000.0625,6424.14013671875,496.010009765625,-400000.0625,-2196.929931640625,-400000.0625,5149.56005859375,-400000.0625
212.65357947349548,-400000.0625,6447.1298828125,515.5999755859375,-400000.0625,-2172.659912109375,-400000.0625,5169.580078125,-400000.0625
212.67044401168823,-400000.0625,6443.93017578125,513.7000122070312,-400000.0625,-2170.89990234375,-400000.0625,5165.47998046875,-400000.0625
212.70010471343994,-400000.0625,6421.52001953125,491.2900085449219,-400000.0625,-2198.7900390625,-400000.0625,5146.31005859375,-400000.0625
212.71640062332153,-400000.0625,6413.990234375,479.3599853515625,-400000.0625,-2201.219970703125,-400000.0625,5138.06005859375,-400000.0625
212.7280101776123,-400000.0625,6428.0,496.1499938964844,-400000.0625,-2195.360107421875,-400000.0625,5150.18017578125,-400000.0625
212.7413969039917,-400000.0625,6441.35986328125,513.4600219726562,-400000.0625,-2179.860107421875,-400000.0625,5167.8701171875,-400000.0625
212.75876712799072,-400000.0625,6440.4501953125,509.8800048828125,-400000.0625,-2168.22998046875,-400000.0625,5163.9599609375,-400000.0625
212.77373886108398,-400000.0625,6422.0400390625,489.8999938964844,-400000.0625,-2190.919921875,-400000.0625,5145.1201171875,-400000.0625
212.8773763179779,-400000.0625,6446.080078125,519.75,-400000.0625,-2169.179931640625,-400000.0625,5174.10986328125,-400000.0625
212.97425413131714,-400000.0625,6414.83984375,490.0899963378906,-400000.0625,-2181.860107421875,-400000.0625,5134.9599609375,-400000.0625
213.04397296905518,-400000.0625,6404.31005859375,478.9800109863281,-400000.0625,-2197.97998046875,-400000.0625,5117.7998046875,-400000.0625
213.09979629516602,-400000.0625,6413.4599609375,486.0400085449219,-400000.0625,-2178.239990234375,-400000.0625,5128.85986328125,-400000.0625
213.16387176513672,-400000.0625,6432.580078125,508.260009765625,-400000.0625,-2176.81005859375,-400000.0625,5147.02978515625,-400000.0625
213.2686800956726,-400000.0625,6437.35009765625,511.2200012207031,-400000.0625,-2166.840087890625,-400000.0625,5152.66015625,-400000.0625
213.3557584285736,-400000.0625,6402.77978515625,466.1099853515625,-400000.0625,-2203.27001953125,-400000.0625,5126.3798828125,-400000.0625
213.42182445526123,-400000.0625,6433.43994140625,500.1499938964844,-400000.0625,-2166.219970703125,-400000.0625,5162.759765625,-400000.0625
213.49929022789001,-400000.0625,6438.35009765625,499.44000244140625,-400000.0625,-2185.14990234375,-400000.0625,5162.669921875,-400000.0625
213.55139088630676,-400000.0625,6450.27001953125,511.4599914550781,-400000.0625,-2166.840087890625,-400000.0625,5157.22998046875,-400000.0625
213.6399645805359,-400000.0625,6432.2001953125,486.0400085449219,-400000.0625,-2183.679931640625,-400000.0625,5139.97021484375,-400000.0625
213.67813062667847,-400000.0625,6422.66015625,472.2099914550781,-400000.0625,-2199.080078125,-400000.0625,5130.2001953125,-400000.0625
213.74507427215576,-400000.0625,6430.2900390625,487.95001220703125,-400000.0625,-2182.10009765625,-400000.0625,5130.72021484375,-400000.0625
213.8101646900177,-400000.0625,6447.41015625,502.82000732421875,-400000.0625,-2162.080078125,-400000.0625,5157.27978515625,-400000.0625
213.86740684509277,-400000.0625,6460.85986328125,512.5,-400000.0625,-2179.669921875,-400000.0625,5159.18994140625,-400000.0625
214.06790041923523,-400000.0625,6453.85009765625,510.7900085449219,-400000.0625,-2172.090087890625,-400000.0625,5151.080078125,-400000.0625
214.1244776248932,-400000.0625,6449.75,508.739990234375,-400000.0625,-2188.5400390625,-400000.0625,5147.27001953125,-400000.0625
214.20474648475647,-400000.0625,6456.60986328125,517.510009765625,-400000.0625,-2177.10009765625,-400000.0625,5158.56982421875,-400000.0625
214.2736620903015,-400000.0625,6439.259765625,499.6300048828125,-400000.0625,-2206.280029296875,-400000.0625,5125.330078125,-400000.0625
214.35125541687012,-400000.0625,6425.18994140625,481.70001220703125,-400000.0625,-2220.580078125,-400000.0625,5121.52001953125,-400000.0625
214.3941991329193,-400000.0625,6437.97021484375,494.19000244140625,-400000.0625,-2193.31005859375,-400000.0625,5131.77001953125,-400000.0625
214.45396876335144,-400000.0625,6454.08984375,510.69000244140625,-400000.0625,-2198.7900390625,-400000.0625,5147.02978515625,-400000.0625
