time,ch1,ch2,ch3,ch4,ch5
timestamp,ch7,ch2,ch3,ch5,is_pause
timestamp,ch7,ch2,ch3,ch5,is_pause
timestamp,ch7,ch2,ch3,ch5,is_pause
timestamp,ch7,ch2,ch3,ch5,is_pause
timestamp,ch7,ch2,ch3,ch5,is_pause
0.08481407165527344,-400000.0625,7425.39990234375,1441.1500244140625,-400000.0625,-1287.56005859375,-400000.0625,6704.7099609375,-400000.0625
0.08513569831848145,-400000.0625,7352.8798828125,1365.760009765625,-400000.0625,-1353.0699462890625,-400000.0625,6624.509765625,-400000.0625
0.08519387245178223,-400000.0625,7347.8701171875,1359.800048828125,-400000.0625,-1359.75,-400000.0625,6617.7900390625,-400000.0625
0.08522820472717285,-400000.0625,7415.14990234375,1429.27001953125,-400000.0625,-1302.719970703125,-400000.0625,6691.4599609375,-400000.0625
0.08525800704956055,-400000.0625,7466.7900390625,1480.2900390625,-400000.0625,-1267.6700439453125,-400000.0625,6741.91015625,-400000.0625
0.08541321754455566,-400000.0625,7426.5498046875,1439.949951171875,-400000.0625,-1301.530029296875,-400000.0625,6701.990234375,-400000.0625
0.08548140525817871,-400000.0625,7348.009765625,1362.7099609375,-400000.0625,-1358.699951171875,-400000.0625,6627.47021484375,-400000.0625
0.08551263809204102,-400000.0625,7342.0498046875,1352.5,-400000.0625,-1373.9599609375,-400000.0625,6619.35986328125,-400000.0625
0.0855402946472168,-400000.0625,7415.580078125,1429.1800537109375,-400000.0625,-1312.300048828125,-400000.0625,6693.31982421875,-400000.0625
0.08556675910949707,-400000.0625,7468.02978515625,1483.8699951171875,-400000.0625,-1264.2900390625,-400000.0625,6745.14990234375,-400000.0625
0.08559608459472656,-400000.0625,7427.8798828125,1439.52001953125,-400000.0625,-1301.47998046875,-400000.0625,6706.0498046875,-400000.0625
0.08562159538269043,-400000.0625,7344.25,1356.7900390625,-400000.0625,-1382.06005859375,-400000.0625,6627.22998046875,-400000.0625
0.08564925193786621,-400000.0625,7338.9501953125,1351.260009765625,-400000.0625,-1369.18994140625,-400000.0625,6619.740234375,-400000.0625
0.08567571640014648,-400000.0625,7413.25,1431.6099853515625,-400000.0625,-1289.27001953125,-400000.0625,6690.169921875,-400000.0625
0.08570170402526855,-400000.0625,7462.169921875,1484.8699951171875,-400000.0625,-1243.4000244140625,-400000.0625,6746.72021484375,-400000.0625
0.08573508262634277,-400000.0625,7423.35009765625,1440.9100341796875,-400000.0625,-1291.4200439453125,-400000.0625,6703.27978515625,-400000.0625
timestamp,ch7,ch2,ch3,ch5,is_pause
timestamp,ch7,ch2,ch3,ch5,is_pause
timestamp,ch7,ch2,ch3,ch5,is_pause
timestamp,ch7,ch2,ch3,ch5,is_pause
0.1507711410522461,-400000.0625,7343.669921875,1358.1800537109375,-400000.0625,-1370.949951171875,-400000.0625,6621.93017578125,-400000.0625
0.1510472297668457,-400000.0625,7323.31005859375,1343.300048828125,-400000.0625,-1373.6199951171875,-400000.0625,6612.97021484375,-400000.0625
0.1511073112487793,-400000.0625,7393.64990234375,1420.6400146484375,-400000.0625,-1305.010009765625,-400000.0625,6686.02001953125,-400000.0625
0.15114283561706543,-400000.0625,7470.419921875,1488.02001953125,-400000.0625,-1253.1800537109375,-400000.0625,6732.509765625,-400000.0625
0.15117454528808594,-400000.0625,7443.72021484375,1450.72998046875,-400000.0625,-1296.22998046875,-400000.0625,6684.830078125,-400000.0625
timestamp,ch7,ch2,ch3,ch5,is_pause
0.16953277587890625,-400000.0625,7377.009765625,1378.43994140625,-400000.0625,-1368.81005859375,-400000.0625,6599.52001953125,-400000.0625
0.1697251796722412,-400000.0625,7377.77001953125,1376.300048828125,-400000.0625,-1350.1199951171875,-400000.0625,6578.490234375,-400000.0625
0.16978049278259277,-400000.0625,7453.10986328125,1464.75,-400000.0625,-1284.1700439453125,-400000.0625,6643.10986328125,-400000.0625
0.16981768608093262,-400000.0625,7519.8701171875,1533.1700439453125,-400000.0625,-1236.6300048828125,-400000.0625,6685.58984375,-400000.0625
0.16985106468200684,-400000.0625,7506.3701171875,1504.469970703125,-400000.0625,-1272.3900146484375,-400000.0625,6636.43017578125,-400000.0625
0.16988301277160645,-400000.0625,7436.7998046875,1431.3699951171875,-400000.0625,-1337.1500244140625,-400000.0625,6547.5498046875,-400000.0625
0.16991519927978516,-400000.0625,7423.58984375,1428.699951171875,-400000.0625,-1327.3699951171875,-400000.0625,6527.9501953125,-400000.0625
0.16994571685791016,-400000.0625,7500.35986328125,1515.47998046875,-400000.0625,-1259.1800537109375,-400000.0625,6591.89013671875,-400000.0625
0.16998720169067383,-400000.0625,7561.8798828125,1575.280029296875,-400000.0625,-1214.0799560546875,-400000.0625,6631.330078125,-400000.0625
0.17002010345458984,-400000.0625,7525.8701171875,1539.760009765625,-400000.0625,-1251.0799560546875,-400000.0625,6587.7900390625,-400000.0625
0.17005085945129395,-400000.0625,7445.33984375,1466.4200439453125,-400000.0625,-1321.1300048828125,-400000.0625,6508.72998046875,-400000.0625
0.17620396614074707,-400000.0625,7441.43017578125,1465.27001953125,-400000.0625,-1327.8499755859375,-400000.0625,6498.52978515625,-400000.0625
0.1764228343963623,-400000.0625,7517.0498046875,1542.22998046875,-400000.0625,-1255.699951171875,-400000.0625,6572.52978515625,-400000.0625
0.17645573616027832,-400000.0625,7567.22021484375,1596.1600341796875,-400000.0625,-1208.1600341796875,-400000.0625,6625.3701171875,-400000.0625
0.1764848232269287,-400000.0625,7527.259765625,1557.1600341796875,-400000.0625,-1253.8900146484375,-400000.0625,6586.1201171875,-400000.0625
0.17651987075805664,-400000.0625,7444.3798828125,1473.81005859375,-400000.0625,-1334.239990234375,-400000.0625,6506.39990234375,-400000.0625
0.17654848098754883,-400000.0625,7432.080078125,1463.8900146484375,-400000.0625,-1339.8599853515625,-400000.0625,6496.72021484375,-400000.0625
0.1766345500946045,-400000.0625,7506.990234375,1543.1400146484375,-400000.0625,-1265.530029296875,-400000.0625,6569.9599609375,-400000.0625
0.1766982078552246,-400000.0625,7559.97021484375,1599.219970703125,-400000.0625,-1210.9300537109375,-400000.0625,6621.97998046875,-400000.0625
0.1767120361328125,-400000.0625,7515.9599609375,1556.1600341796875,-400000.0625,-1247.8399658203125,-400000.0625,6582.2099609375,-400000.0625
0.17672252655029297,-400000.0625,7435.22998046875,1472.3299560546875,-400000.0625,-1329.0400390625,-400000.0625,6503.06005859375,-400000.0625
0.17673301696777344,-400000.0625,7423.68994140625,1461.97998046875,-400000.0625,-1340.719970703125,-400000.0625,6494.9501953125,-400000.0625
0.1767559051513672,-400000.0625,7499.02978515625,1542.6199951171875,-400000.0625,-1261.3800048828125,-400000.0625,6566.330078125,-400000.0625
0.17676615715026855,-400000.0625,7556.490234375,1595.4000244140625,-400000.0625,-1215.4599609375,-400000.0625,6621.5,-400000.0625
0.17677664756774902,-400000.0625,7518.39013671875,1556.9200439453125,-400000.0625,-1251.510009765625,-400000.0625,6581.740234375,-400000.0625
0.1767864227294922,-400000.0625,7438.330078125,1476.0999755859375,-400000.0625,-1320.1700439453125,-400000.0625,6503.6298828125,-400000.0625
0.17679643630981445,-400000.0625,7425.60009765625,1467.469970703125,-400000.0625,-1332.0400390625,-400000.0625,6491.18994140625,-400000.0625
timestamp,ch7,ch2,ch3,ch5,is_pause
timestamp,ch7,ch2,ch3,ch5,is_pause
timestamp,ch7,ch2,ch3,ch5,is_pause
timestamp,ch7,ch2,ch3,ch5,is_pause
timestamp,ch7,ch2,ch3,ch5,is_pause
0.24411511421203613,-400000.0625,7498.31005859375,1540.3299560546875,-400000.0625,-1263.239990234375,-400000.0625,6563.81005859375,-400000.0625
0.24438905715942383,-400000.0625,7557.5400390625,1597.9300537109375,-400000.0625,-1209.780029296875,-400000.0625,6622.31982421875,-400000.0625
0.24442744255065918,-400000.0625,7515.3798828125,1557.1099853515625,-400000.0625,-1254.800048828125,-400000.0625,6588.60009765625,-400000.0625
0.24445819854736328,-400000.0625,7440.7099609375,1479.239990234375,-400000.0625,-1326.8900146484375,-400000.0625,6510.64013671875,-400000.0625
0.24448752403259277,-400000.0625,7431.31982421875,1472.8499755859375,-400000.0625,-1330.4200439453125,-400000.0625,6500.39013671875,-400000.0625
0.24451589584350586,-400000.0625,7508.85009765625,1550.719970703125,-400000.0625,-1270.010009765625,-400000.0625,6576.58984375,-400000.0625
0.24454617500305176,-400000.0625,7563.16015625,1606.8900146484375,-400000.0625,-1220.6600341796875,-400000.0625,6630.60986328125,-400000.0625
0.24457430839538574,-400000.0625,7520.8701171875,1566.9300537109375,-400000.0625,-1254.8399658203125,-400000.0625,6595.89990234375,-400000.0625
0.24460124969482422,-400000.0625,7438.7099609375,1483.72998046875,-400000.0625,-1331.3800048828125,-400000.0625,6514.02978515625,-400000.0625
0.24468660354614258,-400000.0625,7427.60009765625,1474.5699462890625,-400000.0625,-1338.8199462890625,-400000.0625,6501.9599609375,-400000.0625
0.24474883079528809,-400000.0625,7499.4599609375,1547.3800048828125,-400000.0625,-1257.1800537109375,-400000.0625,6569.77001953125,-400000.0625
0.24476194381713867,-400000.0625,7554.81982421875,1601.5999755859375,-400000.0625,-1206.06005859375,-400000.0625,6623.41015625,-400000.0625
0.24477195739746094,-400000.0625,7509.52001953125,1556.3499755859375,-400000.0625,-1249.68994140625,-400000.0625,6584.60009765625,-400000.0625
0.244781494140625,-400000.0625,7420.919921875,1481.9100341796875,-400000.0625,-1326.6600341796875,-400000.0625,6503.77001953125,-400000.0625
0.2447950839996338,-400000.0625,7397.3701171875,1472.0400390625,-400000.0625,-1334.760009765625,-400000.0625,6491.85009765625,-400000.0625
0.2448873519897461,-400000.0625,7476.08984375,1544.9000244140625,-400000.0625,-1261.4300537109375,-400000.0625,6565.7099609375,-400000.0625
timestamp,ch7,ch2,ch3,ch5,is_pause
timestamp,ch7,ch2,ch3,ch5,is_pause
timestamp,ch7,ch2,ch3,ch5,is_pause
timestamp,ch7,ch2,ch3,ch5,is_pause
0.3073110580444336,-400000.0625,7540.0400390625,1594.3499755859375,-400000.0625,-1210.0699462890625,-400000.0625,6624.83984375,-400000.0625
timestamp,ch7,ch2,ch3,ch5,is_pause
timestamp,ch7,ch2,ch3,ch5,is_pause
0.35506534576416016,-400000.0625,7483.240234375,1545.5699462890625,-400000.0625,-1252.510009765625,-400000.0625,6585.41015625,-400000.0625
timestamp,ch7,ch2,ch3,ch5,is_pause
timestamp,ch7,ch2,ch3,ch5,is_pause
0.38544225692749023,-400000.0625,7399.509765625,1461.739990234375,-400000.0625,-1334.1400146484375,-400000.0625,6511.5498046875,-400000.0625
timestamp,ch7,ch2,ch3,ch5,is_pause
0.4067413806915283,-400000.0625,7369.81005859375,1439.760009765625,-400000.0625,-1345.2099609375,-400000.0625,6490.47021484375,-400000.0625
timestamp,ch7,ch2,ch3,ch5,is_pause
0.42789363861083984,-400000.0625,7414.68017578125,1498.27001953125,-400000.0625,-1278.02001953125,-400000.0625,6550.740234375,-400000.0625
timestamp,ch7,ch2,ch3,ch5,is_pause
timestamp,ch7,ch2,ch3,ch5,is_pause
timestamp,ch7,ch2,ch3,ch5,is_pause
0.4711761474609375,-400000.0625,7463.740234375,1545.3299560546875,-400000.0625,-1223.760009765625,-400000.0625,6605.0498046875,-400000.0625
timestamp,ch7,ch2,ch3,ch5,is_pause
0.4898676872253418,-400000.0625,7405.3798828125,1491.739990234375,-400000.0625,-1258.800048828125,-400000.0625,6561.18017578125,-400000.0625
timestamp,ch7,ch2,ch3,ch5,is_pause
0.510061502456665,-400000.0625,7312.35009765625,1407.530029296875,-400000.0625,-1317.0699462890625,-400000.0625,6481.509765625,-400000.0625
timestamp,ch7,ch2,ch3,ch5,is_pause
0.5286245346069336,-400000.0625,7285.64013671875,1390.31005859375,-400000.0625,-1333.280029296875,-400000.0625,6471.39990234375,-400000.0625
timestamp,ch7,ch2,ch3,ch5,is_pause
timestamp,ch7,ch2,ch3,ch5,is_pause
timestamp,ch7,ch2,ch3,ch5,is_pause
0.571962833404541,-400000.0625,7348.8701171875,1456.8299560546875,-400000.0625,-1276.5899658203125,-400000.0625,6536.52978515625,-400000.0625
timestamp,ch7,ch2,ch3,ch5,is_pause
timestamp,ch7,ch2,ch3,ch5,is_pause
0.5960719585418701,-400000.0625,7395.4599609375,1510.2900390625,-400000.0625,-1224.800048828125,-400000.0625,6595.18017578125,-400000.0625
timestamp,ch7,ch2,ch3,ch5,is_pause
0.6137733459472656,-400000.0625,7345.25,1462.3599853515625,-400000.0625,-1256.510009765625,-400000.0625,6560.27978515625,-400000.0625
timestamp,ch7,ch2,ch3,ch5,is_pause
0.6466166973114014,-400000.0625,7247.72998046875,1364.5699462890625,-400000.0625,-1332.0400390625,-400000.0625,6472.58984375,-400000.0625
timestamp,ch7,ch2,ch3,ch5,is_pause
timestamp,ch7,ch2,ch3,ch5,is_pause
timestamp,ch7,ch2,ch3,ch5,is_pause
0.6917610168457031,-400000.0625,7232.18994140625,1350.02001953125,-400000.0625,-1348.8299560546875,-400000.0625,6457.6201171875,-400000.0625
timestamp,ch7,ch2,ch3,ch5,is_pause
0.7120695114135742,-400000.0625,7295.60986328125,1423.6500244140625,-400000.0625,-1286.1300048828125,-400000.0625,6529.330078125,-400000.0625
timestamp,ch7,ch2,ch3,ch5,is_pause
timestamp,ch7,ch2,ch3,ch5,is_pause
0.7338736057281494,-400000.0625,7341.9599609375,1472.760009765625,-400000.0625,-1234.199951171875,-400000.0625,6587.41015625,-400000.0625
timestamp,ch7,ch2,ch3,ch5,is_pause
0.7590117454528809,-400000.0625,7309.2001953125,1437.949951171875,-400000.0625,-1267.9599609375,-400000.0625,6552.22021484375,-400000.0625
timestamp,ch7,ch2,ch3,ch5,is_pause
timestamp,ch7,ch2,ch3,ch5,is_pause
timestamp,ch7,ch2,ch3,ch5,is_pause
0.8034744262695312,-400000.0625,7226.3701171875,1355.510009765625,-400000.0625,-1327.93994140625,-400000.0625,6469.68017578125,-400000.0625
timestamp,ch7,ch2,ch3,ch5,is_pause
timestamp,ch7,ch2,ch3,ch5,is_pause
0.8316824436187744,-400000.0625,7211.02001953125,1349.969970703125,-400000.0625,-1330.7099609375,-400000.0625,6462.240234375,-400000.0625
0.8455374240875244,-400000.0625,7278.97021484375,1420.449951171875,-400000.0625,-1274.1600341796875,-400000.0625,6532.9599609375,-400000.0625
timestamp,ch7,ch2,ch3,ch5,is_pause
0.8618564605712891,-400000.0625,7335.6201171875,1476.0,-400000.0625,-1228.8599853515625,-400000.0625,6588.35986328125,-400000.0625
timestamp,ch7,ch2,ch3,ch5,is_pause
0.8970150947570801,-400000.0625,7304.56982421875,1442.4300537109375,-400000.0625,-1267.239990234375,-400000.0625,6552.7900390625,-400000.0625
timestamp,ch7,ch2,ch3,ch5,is_pause
0.9189713001251221,-400000.0625,7225.3701171875,1361.989990234375,-400000.0625,-1335.1400146484375,-400000.0625,6472.25,-400000.0625
timestamp,ch7,ch2,ch3,ch5,is_pause
timestamp,ch7,ch2,ch3,ch5,is_pause
0.9500434398651123,-400000.0625,7212.68994140625,1348.6400146484375,-400000.0625,-1337.2900390625,-400000.0625,6457.759765625,-400000.0625
timestamp,ch7,ch2,ch3,ch5,is_pause
timestamp,ch7,ch2,ch3,ch5,is_pause
0.9808213710784912,-400000.0625,7281.68994140625,1419.449951171875,-400000.0625,-1273.6800537109375,-400000.0625,6533.0498046875,-400000.0625
timestamp,ch7,ch2,ch3,ch5,is_pause
timestamp,ch7,ch2,ch3,ch5,is_pause
1.0168530941009521,-400000.0625,7346.81982421875,1482.9599609375,-400000.0625,-1238.199951171875,-400000.0625,6596.7998046875,-400000.0625
timestamp,ch7,ch2,ch3,ch5,is_pause
timestamp,ch7,ch2,ch3,ch5,is_pause
1.0398025512695312,-400000.0625,7312.81982421875,1450.1099853515625,-400000.0625,-1270.1500244140625,-400000.0625,6560.0400390625,-400000.0625
timestamp,ch7,ch2,ch3,ch5,is_pause
1.0565240383148193,-400000.0625,7234.9599609375,1369.3800048828125,-400000.0625,-1330.469970703125,-400000.0625,6484.7001953125,-400000.0625
timestamp,ch7,ch2,ch3,ch5,is_pause
1.0734317302703857,-400000.0625,7220.27001953125,1352.739990234375,-400000.0625,-1340.47998046875,-400000.0625,6475.68994140625,-400000.0625
timestamp,ch7,ch2,ch3,ch5,is_pause
1.0908191204071045,-400000.0625,7290.97998046875,1423.5,-400000.0625,-1271.1500244140625,-400000.0625,6541.68017578125,-400000.0625
timestamp,ch7,ch2,ch3,ch5,is_pause
timestamp,ch7,ch2,ch3,ch5,is_pause
1.1284816265106201,-400000.0625,7346.14990234375,1482.199951171875,-400000.0625,-1221.510009765625,-400000.0625,6594.3701171875,-400000.0625
timestamp,ch7,ch2,ch3,ch5,is_pause
1.1412785053253174,-400000.0625,7307.85986328125,1446.8699951171875,-400000.0625,-1259.6600341796875,-400000.0625,6560.22998046875,-400000.0625
timestamp,ch7,ch2,ch3,ch5,is_pause
1.1611626148223877,-400000.0625,7232.3798828125,1366.0400390625,-400000.0625,-1341.43994140625,-400000.0625,6483.27001953125,-400000.0625
timestamp,ch7,ch2,ch3,ch5,is_pause
1.1803135871887207,-400000.0625,7214.169921875,1349.969970703125,-400000.0625,-1349.6400146484375,-400000.0625,6466.10009765625,-400000.0625
timestamp,ch7,ch2,ch3,ch5,is_pause
1.1979591846466064,-400000.0625,7284.1201171875,1424.3599853515625,-400000.0625,-1273.9200439453125,-400000.0625,6535.14990234375,-400000.0625
timestamp,ch7,ch2,ch3,ch5,is_pause
timestamp,ch7,ch2,ch3,ch5,is_pause
timestamp,ch7,ch2,ch3,ch5,is_pause
1.2429208755493164,-400000.0625,7339.56982421875,1482.300048828125,-400000.0625,-1226.280029296875,-400000.0625,6594.75,-400000.0625
timestamp,ch7,ch2,ch3,ch5,is_pause
1.2652697563171387,-400000.0625,7304.33984375,1445.3900146484375,-400000.0625,-1270.0999755859375,-400000.0625,6560.27978515625,-400000.0625
timestamp,ch7,ch2,ch3,ch5,is_pause
timestamp,ch7,ch2,ch3,ch5,is_pause
1.2934625148773193,-400000.0625,7225.3701171875,1367.239990234375,-400000.0625,-1341.5799560546875,-400000.0625,6483.75,-400000.0625
timestamp,ch7,ch2,ch3,ch5,is_pause
1.3137798309326172,-400000.0625,7211.64013671875,1353.9300537109375,-400000.0625,-1340.43994140625,-400000.0625,6474.68994140625,-400000.0625
timestamp,ch7,ch2,ch3,ch5,is_pause
timestamp,ch7,ch2,ch3,ch5,is_pause
1.3491098880767822,-400000.0625,7285.169921875,1426.739990234375,-400000.0625,-1270.489990234375,-400000.0625,6544.10986328125,-400000.0625
timestamp,ch7,ch2,ch3,ch5,is_pause
timestamp,ch7,ch2,ch3,ch5,is_pause
1.3785817623138428,-400000.0625,7341.669921875,1483.969970703125,-400000.0625,-1229.1400146484375,-400000.0625,6595.0400390625,-400000.0625
1.3990788459777832,-400000.0625,7302.330078125,1444.6300048828125,-400000.0625,-1262.949951171875,-400000.0625,6557.85009765625,-400000.0625
timestamp,ch7,ch2,ch3,ch5,is_pause
1.4156479835510254,-400000.0625,7221.080078125,1360.93994140625,-400000.0625,-1330.22998046875,-400000.0625,6483.169921875,-400000.0625
timestamp,ch7,ch2,ch3,ch5,is_pause
timestamp,ch7,ch2,ch3,ch5,is_pause
timestamp,ch7,ch2,ch3,ch5,is_pause
1.4631118774414062,-400000.0625,7213.740234375,1351.02001953125,-400000.0625,-1345.2099609375,-400000.0625,6467.52978515625,-400000.0625
timestamp,ch7,ch2,ch3,ch5,is_pause
1.4855809211730957,-400000.0625,7280.97021484375,1419.5899658203125,-400000.0625,-1293.6099853515625,-400000.0625,6540.25,-400000.0625
timestamp,ch7,ch2,ch3,ch5,is_pause
1.5053863525390625,-400000.0625,7335.89990234375,1479.9599609375,-400000.0625,-1239.8699951171875,-400000.0625,6596.89990234375,-400000.0625
timestamp,ch7,ch2,ch3,ch5,is_pause
1.5204477310180664,-400000.0625,7307.580078125,1444.9599609375,-400000.0625,-1257.3699951171875,-400000.0625,6561.330078125,-400000.0625
timestamp,ch7,ch2,ch3,ch5,is_pause
timestamp,ch7,ch2,ch3,ch5,is_pause
1.5530362129211426,-400000.0625,7222.64990234375,1367.1400146484375,-400000.0625,-1319.5,-400000.0625,6484.93994140625,-400000.0625
timestamp,ch7,ch2,ch3,ch5,is_pause
1.5682101249694824,-400000.0625,7211.5,1355.31005859375,-400000.0625,-1334.81005859375,-400000.0625,6473.16015625,-400000.0625
timestamp,ch7,ch2,ch3,ch5,is_pause
1.5854017734527588,-400000.0625,7282.06982421875,1426.219970703125,-400000.0625,-1274.4000244140625,-400000.0625,6541.830078125,-400000.0625
timestamp,ch7,ch2,ch3,ch5,is_pause
timestamp,ch7,ch2,ch3,ch5,is_pause
1.604602575302124,-400000.0625,7330.31982421875,1480.06005859375,-400000.0625,-1221.6099853515625,-400000.0625,6594.7099609375,-400000.0625
1.6168088912963867,-400000.0625,7278.58984375,1442.1500244140625,-400000.0625,-1256.989990234375,-400000.0625,6554.18017578125,-400000.0625
timestamp,ch7,ch2,ch3,ch5,is_pause
1.6330537796020508,-400000.0625,7208.490234375,1363.0400390625,-400000.0625,-1336.6700439453125,-400000.0625,6481.4599609375,-400000.0625
timestamp,ch7,ch2,ch3,ch5,is_pause
timestamp,ch7,ch2,ch3,ch5,is_pause
1.6679017543792725,-400000.0625,7212.1201171875,1348.5400390625,-400000.0625,-1353.6500244140625,-400000.0625,6470.81982421875,-400000.0625
timestamp,ch7,ch2,ch3,ch5,is_pause
1.6834256649017334,-400000.0625,7271.10009765625,1413.010009765625,-400000.0625,-1286.5999755859375,-400000.0625,6532.669921875,-400000.0625
timestamp,ch7,ch2,ch3,ch5,is_pause
1.697829008102417,-400000.0625,7319.58984375,1472.52001953125,-400000.0625,-1223.469970703125,-400000.0625,6588.64990234375,-400000.0625
timestamp,ch7,ch2,ch3,ch5,is_pause
1.7114777565002441,-400000.0625,7287.169921875,1436.760009765625,-400000.0625,-1258.22998046875,-400000.0625,6557.93994140625,-400000.0625
timestamp,ch7,ch2,ch3,ch5,is_pause
timestamp,ch7,ch2,ch3,ch5,is_pause
1.7307789325714111,-400000.0625,7206.77001953125,1355.8399658203125,-400000.0625,-1329.949951171875,-400000.0625,6482.1298828125,-400000.0625
timestamp,ch7,ch2,ch3,ch5,is_pause
1.7515935897827148,-400000.0625,7191.56005859375,1342.43994140625,-400000.0625,-1336.9100341796875,-400000.0625,6465.0498046875,-400000.0625
timestamp,ch7,ch2,ch3,ch5,is_pause
timestamp,ch7,ch2,ch3,ch5,is_pause
1.7904036045074463,-400000.0625,7256.31982421875,1410.3900146484375,-400000.0625,-1262.8599853515625,-400000.0625,6532.2900390625,-400000.0625
timestamp,ch7,ch2,ch3,ch5,is_pause
timestamp,ch7,ch2,ch3,ch5,is_pause
1.8111639022827148,-400000.0625,7309.490234375,1467.56005859375,-400000.0625,-1205.969970703125,-400000.0625,6584.31005859375,-400000.0625
timestamp,ch7,ch2,ch3,ch5,is_pause
1.8265352249145508,-400000.0625,7275.72998046875,1433.1800537109375,-400000.0625,-1246.97998046875,-400000.0625,6553.1298828125,-400000.0625
timestamp,ch7,ch2,ch3,ch5,is_pause
1.843221664428711,-400000.0625,7194.6201171875,1349.449951171875,-400000.0625,-1325.6600341796875,-400000.0625,6472.97021484375,-400000.0625
timestamp,ch7,ch2,ch3,ch5,is_pause
1.8618643283843994,-400000.0625,7183.7900390625,1337.0999755859375,-400000.0625,-1346.5400390625,-400000.0625,6458.0400390625,-400000.0625
timestamp,ch7,ch2,ch3,ch5,is_pause
1.8871912956237793,-400000.0625,7257.41015625,1410.77001953125,-400000.0625,-1284.5999755859375,-400000.0625,6533.33984375,-400000.0625
timestamp,ch7,ch2,ch3,ch5,is_pause
1.9016358852386475,-400000.0625,7315.8701171875,1468.6600341796875,-400000.0625,-1225.52001953125,-400000.0625,6586.93017578125,-400000.0625
timestamp,ch7,ch2,ch3,ch5,is_pause
1.9161756038665771,-400000.0625,7278.25,1430.1800537109375,-400000.0625,-1258.22998046875,-400000.0625,6553.080078125,-400000.0625
timestamp,ch7,ch2,ch3,ch5,is_pause
1.9305567741394043,-400000.0625,7198.3798828125,1352.7900390625,-400000.0625,-1329.0400390625,-400000.0625,6479.5,-400000.0625
timestamp,ch7,ch2,ch3,ch5,is_pause
1.9478201866149902,-400000.0625,7193.08984375,1343.25,-400000.0625,-1339.8599853515625,-400000.0625,6465.25,-400000.0625
timestamp,ch7,ch2,ch3,ch5,is_pause
1.9606032371520996,-400000.0625,7259.56005859375,1412.5799560546875,-400000.0625,-1278.9300537109375,-400000.0625,6530.240234375,-400000.0625
timestamp,ch7,ch2,ch3,ch5,is_pause
1.975820779800415,-400000.0625,7317.830078125,1472.7099609375,-400000.0625,-1227.9000244140625,-400000.0625,6581.5498046875,-400000.0625
timestamp,ch7,ch2,ch3,ch5,is_pause
timestamp,ch7,ch2,ch3,ch5,is_pause
2.006101608276367,-400000.0625,7284.5498046875,1435.1800537109375,-400000.0625,-1257.75,-400000.0625,6548.4501953125,-400000.0625
2.017002582550049,-400000.0625,7205.009765625,1355.8399658203125,-400000.0625,-1329.3699951171875,-400000.0625,6474.5400390625,-400000.0625
timestamp,ch7,ch2,ch3,ch5,is_pause
2.032641649246216,-400000.0625,7195.66015625,1346.969970703125,-400000.0625,-1341.489990234375,-400000.0625,6462.0498046875,-400000.0625
timestamp,ch7,ch2,ch3,ch5,is_pause
2.0454752445220947,-400000.0625,7265.14013671875,1419.5,-400000.0625,-1280.8800048828125,-400000.0625,6530.2900390625,-400000.0625
timestamp,ch7,ch2,ch3,ch5,is_pause
2.061556100845337,-400000.0625,7321.93017578125,1473.3800048828125,-400000.0625,-1222.1800537109375,-400000.0625,6583.60009765625,-400000.0625
timestamp,ch7,ch2,ch3,ch5,is_pause
2.0739586353302,-400000.0625,7283.31005859375,1437.9000244140625,-400000.0625,-1243.02001953125,-400000.0625,6549.60009765625,-400000.0625
timestamp,ch7,ch2,ch3,ch5,is_pause
2.0919699668884277,-400000.0625,7208.25,1359.3699951171875,-400000.0625,-1326.1800537109375,-400000.0625,6479.169921875,-400000.0625
timestamp,ch7,ch2,ch3,ch5,is_pause
timestamp,ch7,ch2,ch3,ch5,is_pause
2.1172475814819336,-400000.0625,7197.0,1346.969970703125,-400000.0625,-1348.6400146484375,-400000.0625,6460.14013671875,-400000.0625
timestamp,ch7,ch2,ch3,ch5,is_pause
2.1305065155029297,-400000.0625,7263.759765625,1416.6400146484375,-400000.0625,-1285.8900146484375,-400000.0625,6529.240234375,-400000.0625
timestamp,ch7,ch2,ch3,ch5,is_pause
2.149244785308838,-400000.0625,7319.64013671875,1475.719970703125,-400000.0625,-1238.010009765625,-400000.0625,6589.1298828125,-400000.0625
timestamp,ch7,ch2,ch3,ch5,is_pause
2.162323236465454,-400000.0625,7287.35986328125,1436.7099609375,-400000.0625,-1264.949951171875,-400000.0625,6553.1298828125,-400000.0625
timestamp,ch7,ch2,ch3,ch5,is_pause
2.1789398193359375,-400000.0625,7208.43994140625,1355.219970703125,-400000.0625,-1333.5699462890625,-400000.0625,6475.830078125,-400000.0625
timestamp,ch7,ch2,ch3,ch5,is_pause
2.191476583480835,-400000.0625,7187.64990234375,1337.81005859375,-400000.0625,-1346.2099609375,-400000.0625,6461.669921875,-400000.0625
timestamp,ch7,ch2,ch3,ch5,is_pause
2.209409236907959,-400000.0625,7247.97021484375,1407.9599609375,-400000.0625,-1286.4599609375,-400000.0625,6523.419921875,-400000.0625
timestamp,ch7,ch2,ch3,ch5,is_pause
timestamp,ch7,ch2,ch3,ch5,is_pause
2.2375051975250244,-400000.0625,7308.81982421875,1469.6600341796875,-400000.0625,-1230.0999755859375,-400000.0625,6581.8798828125,-400000.0625
timestamp,ch7,ch2,ch3,ch5,is_pause
2.2574315071105957,-400000.0625,7278.81982421875,1434.56005859375,-400000.0625,-1249.27001953125,-400000.0625,6552.5498046875,-400000.0625
timestamp,ch7,ch2,ch3,ch5,is_pause
2.2705166339874268,-400000.0625,7203.47998046875,1353.68994140625,-400000.0625,-1321.8399658203125,-400000.0625,6472.64013671875,-400000.0625
timestamp,ch7,ch2,ch3,ch5,is_pause
2.291303873062134,-400000.0625,7187.02978515625,1337.77001953125,-400000.0625,-1341.0999755859375,-400000.0625,6457.759765625,-400000.0625
timestamp,ch7,ch2,ch3,ch5,is_pause
2.3041651248931885,-400000.0625,7251.22021484375,1408.77001953125,-400000.0625,-1284.0699462890625,-400000.0625,6527.0400390625,-400000.0625
timestamp,ch7,ch2,ch3,ch5,is_pause
2.3266520500183105,-400000.0625,7306.72021484375,1474.0,-400000.0625,-1242.72998046875,-400000.0625,6584.60009765625,-400000.0625
timestamp,ch7,ch2,ch3,ch5,is_pause
2.3521718978881836,-400000.0625,7280.35009765625,1441.47998046875,-400000.0625,-1272.010009765625,-400000.0625,6556.419921875,-400000.0625
timestamp,ch7,ch2,ch3,ch5,is_pause
2.3665611743927,-400000.0625,7194.419921875,1358.56005859375,-400000.0625,-1327.0400390625,-400000.0625,6472.2998046875,-400000.0625
timestamp,ch7,ch2,ch3,ch5,is_pause
2.3831679821014404,-400000.0625,7169.9599609375,1338.530029296875,-400000.0625,-1332.3800048828125,-400000.0625,6456.52001953125,-400000.0625
timestamp,ch7,ch2,ch3,ch5,is_pause
2.4005253314971924,-400000.0625,7238.43994140625,1409.050048828125,-400000.0625,-1262.1400146484375,-400000.0625,6519.18017578125,-400000.0625
timestamp,ch7,ch2,ch3,ch5,is_pause
2.414560079574585,-400000.0625,7295.990234375,1464.989990234375,-400000.0625,-1217.8900146484375,-400000.0625,6576.81982421875,-400000.0625
timestamp,ch7,ch2,ch3,ch5,is_pause
2.4306466579437256,-400000.0625,7263.08984375,1426.97998046875,-400000.0625,-1255.4200439453125,-400000.0625,6543.68017578125,-400000.0625
timestamp,ch7,ch2,ch3,ch5,is_pause
timestamp,ch7,ch2,ch3,ch5,is_pause
2.4572432041168213,-400000.0625,7183.7001953125,1350.449951171875,-400000.0625,-1325.22998046875,-400000.0625,6468.06005859375,-400000.0625
2.4676692485809326,-400000.0625,7169.68017578125,1332.52001953125,-400000.0625,-1351.4000244140625,-400000.0625,6454.52001953125,-400000.0625
timestamp,ch7,ch2,ch3,ch5,is_pause
2.485574245452881,-400000.0625,7240.10986328125,1404.0,-400000.0625,-1287.27001953125,-400000.0625,6521.64990234375,-400000.0625
timestamp,ch7,ch2,ch3,ch5,is_pause
2.499068021774292,-400000.0625,7294.4599609375,1460.4100341796875,-400000.0625,-1234.25,-400000.0625,6575.58984375,-400000.0625
2.513291597366333,-400000.0625,7261.7998046875,1426.3599853515625,-400000.0625,-1268.3399658203125,-400000.0625,6542.8701171875,-400000.0625
timestamp,ch7,ch2,ch3,ch5,is_pause
timestamp,ch7,ch2,ch3,ch5,is_pause
2.532860517501831,-400000.0625,7180.60009765625,1344.489990234375,-400000.0625,-1338.010009765625,-400000.0625,6465.10009765625,-400000.0625
timestamp,ch7,ch2,ch3,ch5,is_pause
timestamp,ch7,ch2,ch3,ch5,is_pause
2.5674166679382324,-400000.0625,7165.77001953125,1332.6600341796875,-400000.0625,-1347.8800048828125,-400000.0625,6453.22998046875,-400000.0625
timestamp,ch7,ch2,ch3,ch5,is_pause
2.5859920978546143,-400000.0625,7234.0498046875,1401.3299560546875,-400000.0625,-1288.6500244140625,-400000.0625,6522.31982421875,-400000.0625
timestamp,ch7,ch2,ch3,ch5,is_pause
2.6024625301361084,-400000.0625,7298.27978515625,1463.5999755859375,-400000.0625,-1226.3800048828125,-400000.0625,6577.77978515625,-400000.0625
timestamp,ch7,ch2,ch3,ch5,is_pause
2.6194887161254883,-400000.0625,7268.10009765625,1433.4200439453125,-400000.0625,-1252.3199462890625,-400000.0625,6546.77978515625,-400000.0625
timestamp,ch7,ch2,ch3,ch5,is_pause
timestamp,ch7,ch2,ch3,ch5,is_pause
2.6470017433166504,-400000.0625,7186.31982421875,1352.260009765625,-400000.0625,-1340.9100341796875,-400000.0625,6473.259765625,-400000.0625
timestamp,ch7,ch2,ch3,ch5,is_pause
timestamp,ch7,ch2,ch3,ch5,is_pause
2.6751370429992676,-400000.0625,7171.009765625,1334.3299560546875,-400000.0625,-1358.030029296875,-400000.0625,6453.27978515625,-400000.0625
timestamp,ch7,ch2,ch3,ch5,is_pause
2.692155599594116,-400000.0625,7240.580078125,1401.4200439453125,-400000.0625,-1287.1300048828125,-400000.0625,6520.60986328125,-400000.0625
timestamp,ch7,ch2,ch3,ch5,is_pause
2.710193395614624,-400000.0625,7299.9501953125,1463.5999755859375,-400000.0625,-1241.8699951171875,-400000.0625,6582.4501953125,-400000.0625
timestamp,ch7,ch2,ch3,ch5,is_pause
2.7310755252838135,-400000.0625,7268.14013671875,1431.93994140625,-400000.0625,-1272.010009765625,-400000.0625,6550.35986328125,-400000.0625
timestamp,ch7,ch2,ch3,ch5,is_pause
2.747790575027466,-400000.0625,7183.60009765625,1348.969970703125,-400000.0625,-1331.0899658203125,-400000.0625,6472.72998046875,-400000.0625
timestamp,ch7,ch2,ch3,ch5,is_pause
timestamp,ch7,ch2,ch3,ch5,is_pause
timestamp,ch7,ch2,ch3,ch5,is_pause
2.8006575107574463,-400000.0625,7172.97021484375,1338.1500244140625,-400000.0625,-1333.47998046875,-400000.0625,6452.27978515625,-400000.0625
timestamp,ch7,ch2,ch3,ch5,is_pause
2.8162553310394287,-400000.0625,7246.16015625,1407.3399658203125,-400000.0625,-1264.0999755859375,-400000.0625,6526.08984375,-400000.0625
timestamp,ch7,ch2,ch3,ch5,is_pause
2.837702989578247,-400000.0625,7302.330078125,1465.699951171875,-400000.0625,-1218.030029296875,-400000.0625,6589.22021484375,-400000.0625
timestamp,ch7,ch2,ch3,ch5,is_pause
timestamp,ch7,ch2,ch3,ch5,is_pause
2.8637616634368896,-400000.0625,7272.0498046875,1434.6099853515625,-400000.0625,-1254.56005859375,-400000.0625,6555.27001953125,-400000.0625
timestamp,ch7,ch2,ch3,ch5,is_pause
timestamp,ch7,ch2,ch3,ch5,is_pause
2.9031424522399902,-400000.0625,7192.08984375,1354.030029296875,-400000.0625,-1341.25,-400000.0625,6475.39990234375,-400000.0625
timestamp,ch7,ch2,ch3,ch5,is_pause
2.91947078704834,-400000.0625,7176.919921875,1336.6199951171875,-400000.0625,-1363.6099853515625,-400000.0625,6456.60986328125,-400000.0625
timestamp,ch7,ch2,ch3,ch5,is_pause
2.937364339828491,-400000.0625,7250.2099609375,1408.530029296875,-400000.0625,-1294.7099609375,-400000.0625,6529.47998046875,-400000.0625
timestamp,ch7,ch2,ch3,ch5,is_pause
2.9533209800720215,-400000.0625,7308.2900390625,1471.0,-400000.0625,-1241.969970703125,-400000.0625,6586.740234375,-400000.0625
timestamp,ch7,ch2,ch3,ch5,is_pause
timestamp,ch7,ch2,ch3,ch5,is_pause
2.9703457355499268,-400000.0625,7268.3798828125,1434.989990234375,-400000.0625,-1261.5699462890625,-400000.0625,6552.64990234375,-400000.0625
timestamp,ch7,ch2,ch3,ch5,is_pause
3.001594066619873,-400000.0625,7194.6201171875,1355.219970703125,-400000.0625,-1328.1300048828125,-400000.0625,6475.5,-400000.0625
timestamp,ch7,ch2,ch3,ch5,is_pause
3.0180516242980957,-400000.0625,7183.740234375,1339.010009765625,-400000.0625,-1351.449951171875,-400000.0625,6458.6201171875,-400000.0625
timestamp,ch7,ch2,ch3,ch5,is_pause
3.031214952468872,-400000.0625,7256.080078125,1413.06005859375,-400000.0625,-1285.3599853515625,-400000.0625,6526.56982421875,-400000.0625
timestamp,ch7,ch2,ch3,ch5,is_pause
3.046499013900757,-400000.0625,7314.10986328125,1473.469970703125,-400000.0625,-1233.6700439453125,-400000.0625,6586.02978515625,-400000.0625
timestamp,ch7,ch2,ch3,ch5,is_pause
3.0591447353363037,-400000.0625,7284.68994140625,1443.199951171875,-400000.0625,-1274.4000244140625,-400000.0625,6559.18017578125,-400000.0625
timestamp,ch7,ch2,ch3,ch5,is_pause
3.074275493621826,-400000.0625,7202.14990234375,1357.030029296875,-400000.0625,-1342.3900146484375,-400000.0625,6477.31005859375,-400000.0625
timestamp,ch7,ch2,ch3,ch5,is_pause
timestamp,ch7,ch2,ch3,ch5,is_pause
3.104332447052002,-400000.0625,7178.02001953125,1335.5699462890625,-400000.0625,-1332.239990234375,-400000.0625,6454.66015625,-400000.0625
timestamp,ch7,ch2,ch3,ch5,is_pause
3.1213059425354004,-400000.0625,7246.77978515625,1407.81005859375,-400000.0625,-1269.6700439453125,-400000.0625,6522.7998046875,-400000.0625
timestamp,ch7,ch2,ch3,ch5,is_pause
3.1333725452423096,-400000.0625,7312.06005859375,1473.9000244140625,-400000.0625,-1221.8499755859375,-400000.0625,6583.8798828125,-400000.0625
timestamp,ch7,ch2,ch3,ch5,is_pause
3.1517083644866943,-400000.0625,7281.97021484375,1442.050048828125,-400000.0625,-1260.280029296875,-400000.0625,6558.1298828125,-400000.0625
timestamp,ch7,ch2,ch3,ch5,is_pause
3.1665334701538086,-400000.0625,7202.6298828125,1357.510009765625,-400000.0625,-1339.2900390625,-400000.0625,6482.4599609375,-400000.0625
timestamp,ch7,ch2,ch3,ch5,is_pause
3.1816940307617188,-400000.0625,7182.89013671875,1338.5799560546875,-400000.0625,-1343.72998046875,-400000.0625,6459.52001953125,-400000.0625
timestamp,ch7,ch2,ch3,ch5,is_pause
timestamp,ch7,ch2,ch3,ch5,is_pause
3.2100510597229004,-400000.0625,7254.22021484375,1410.2900390625,-400000.0625,-1285.6500244140625,-400000.0625,6527.52001953125,-400000.0625
timestamp,ch7,ch2,ch3,ch5,is_pause
3.2237956523895264,-400000.0625,7314.97021484375,1471.4200439453125,-400000.0625,-1242.969970703125,-400000.0625,6592.47021484375,-400000.0625
3.239157199859619,-400000.0625,7284.68994140625,1441.8599853515625,-400000.0625,-1275.9200439453125,-400000.0625,6565.330078125,-400000.0625
timestamp,ch7,ch2,ch3,ch5,is_pause
3.251176357269287,-400000.0625,7204.10009765625,1361.800048828125,-400000.0625,-1341.5799560546875,-400000.0625,6485.64990234375,-400000.0625
timestamp,ch7,ch2,ch3,ch5,is_pause
3.2673022747039795,-400000.0625,7188.02978515625,1344.489990234375,-400000.0625,-1342.25,-400000.0625,6466.10009765625,-400000.0625
timestamp,ch7,ch2,ch3,ch5,is_pause
3.282893419265747,-400000.0625,7257.4599609375,1412.300048828125,-400000.0625,-1279.0699462890625,-400000.0625,6528.89990234375,-400000.0625
timestamp,ch7,ch2,ch3,ch5,is_pause
timestamp,ch7,ch2,ch3,ch5,is_pause
3.3153185844421387,-400000.0625,7310.68017578125,1474.5699462890625,-400000.0625,-1228.8599853515625,-400000.0625,6583.8798828125,-400000.0625
timestamp,ch7,ch2,ch3,ch5,is_pause
3.329719066619873,-400000.0625,7275.490234375,1443.3399658203125,-400000.0625,-1255.989990234375,-400000.0625,6558.1298828125,-400000.0625
timestamp,ch7,ch2,ch3,ch5,is_pause
3.346893548965454,-400000.0625,7198.10009765625,1351.550048828125,-400000.0625,-1338.47998046875,-400000.0625,6494.0,-400000.0625
timestamp,ch7,ch2,ch3,ch5,is_pause
3.3611857891082764,-400000.0625,7172.490234375,1322.93994140625,-400000.0625,-1371.3399658203125,-400000.0625,6482.4599609375,-400000.0625
timestamp,ch7,ch2,ch3,ch5,is_pause
3.3814034461975098,-400000.0625,7235.669921875,1388.219970703125,-400000.0625,-1313.4000244140625,-400000.0625,6555.31982421875,-400000.0625
timestamp,ch7,ch2,ch3,ch5,is_pause
3.3980109691619873,-400000.0625,7283.5,1436.280029296875,-400000.0625,-1240.25,-400000.0625,6617.1201171875,-400000.0625
timestamp,ch7,ch2,ch3,ch5,is_pause
timestamp,ch7,ch2,ch3,ch5,is_pause
3.4280126094818115,-400000.0625,7246.35009765625,1393.4599609375,-400000.0625,-1264.2900390625,-400000.0625,6594.1298828125,-400000.0625
timestamp,ch7,ch2,ch3,ch5,is_pause
3.4448325634002686,-400000.0625,7168.68017578125,1307.9200439453125,-400000.0625,-1343.489990234375,-400000.0625,6525.14013671875,-400000.0625
timestamp,ch7,ch2,ch3,ch5,is_pause
3.4610865116119385,-400000.0625,7148.60009765625,1284.550048828125,-400000.0625,-1367.4300537109375,-400000.0625,6515.93017578125,-400000.0625
timestamp,ch7,ch2,ch3,ch5,is_pause
3.4746432304382324,-400000.0625,7212.5,1348.969970703125,-400000.0625,-1318.4100341796875,-400000.0625,6592.56005859375,-400000.0625
timestamp,ch7,ch2,ch3,ch5,is_pause
3.489708662033081,-400000.0625,7270.14990234375,1402.6600341796875,-400000.0625,-1258.1800537109375,-400000.0625,6660.02978515625,-400000.0625
timestamp,ch7,ch2,ch3,ch5,is_pause
3.5051653385162354,-400000.0625,7232.91015625,1362.8499755859375,-400000.0625,-1279.0699462890625,-400000.0625,6630.22998046875,-400000.0625
timestamp,ch7,ch2,ch3,ch5,is_pause
timestamp,ch7,ch2,ch3,ch5,is_pause
3.532465934753418,-400000.0625,7143.68994140625,1277.489990234375,-400000.0625,-1352.31005859375,-400000.0625,6554.31982421875,-400000.0625
timestamp,ch7,ch2,ch3,ch5,is_pause
3.5501139163970947,-400000.0625,7126.7099609375,1258.469970703125,-400000.0625,-1381.780029296875,-400000.0625,6536.43994140625,-400000.0625
timestamp,ch7,ch2,ch3,ch5,is_pause
3.5626232624053955,-400000.0625,7200.43017578125,1329.469970703125,-400000.0625,-1323.4599609375,-400000.0625,6603.91015625,-400000.0625
timestamp,ch7,ch2,ch3,ch5,is_pause
3.5781753063201904,-400000.0625,7258.85009765625,1388.449951171875,-400000.0625,-1260.22998046875,-400000.0625,6663.7001953125,-400000.0625
timestamp,ch7,ch2,ch3,ch5,is_pause
3.599520206451416,-400000.0625,7234.6201171875,1361.27001953125,-400000.0625,-1273.6800537109375,-400000.0625,6631.66015625,-400000.0625
timestamp,ch7,ch2,ch3,ch5,is_pause
3.611625909805298,-400000.0625,7156.56005859375,1277.68994140625,-400000.0625,-1360.989990234375,-400000.0625,6550.5,-400000.0625
timestamp,ch7,ch2,ch3,ch5,is_pause
timestamp,ch7,ch2,ch3,ch5,is_pause
3.6420836448669434,-400000.0625,7133.39013671875,1255.6600341796875,-400000.0625,-1395.030029296875,-400000.0625,6528.6201171875,-400000.0625
3.654309034347534,-400000.0625,7205.2001953125,1328.3699951171875,-400000.0625,-1326.1800537109375,-400000.0625,6600.85986328125,-400000.0625
timestamp,ch7,ch2,ch3,ch5,is_pause
3.669677734375,-400000.0625,7266.43017578125,1392.7900390625,-400000.0625,-1262.0,-400000.0625,6665.85009765625,-400000.0625
timestamp,ch7,ch2,ch3,ch5,is_pause
3.6846327781677246,-400000.0625,7238.72021484375,1364.22998046875,-400000.0625,-1287.510009765625,-400000.0625,6636.52001953125,-400000.0625
timestamp,ch7,ch2,ch3,ch5,is_pause
3.6993906497955322,-400000.0625,7154.75,1279.0699462890625,-400000.0625,-1365.949951171875,-400000.0625,6557.990234375,-400000.0625
timestamp,ch7,ch2,ch3,ch5,is_pause
3.715176582336426,-400000.0625,7137.35009765625,1259.5699462890625,-400000.0625,-1382.72998046875,-400000.0625,6540.35009765625,-400000.0625
timestamp,ch7,ch2,ch3,ch5,is_pause
timestamp,ch7,ch2,ch3,ch5,is_pause
3.7455484867095947,-400000.0625,7209.58984375,1330.4200439453125,-400000.0625,-1321.5999755859375,-400000.0625,6609.35009765625,-400000.0625
timestamp,ch7,ch2,ch3,ch5,is_pause
3.763543128967285,-400000.0625,7267.85986328125,1393.3699951171875,-400000.0625,-1256.0799560546875,-400000.0625,6665.27978515625,-400000.0625
timestamp,ch7,ch2,ch3,ch5,is_pause
3.7752327919006348,-400000.0625,7233.2900390625,1360.800048828125,-400000.0625,-1282.9300537109375,-400000.0625,6635.85986328125,-400000.0625
timestamp,ch7,ch2,ch3,ch5,is_pause
3.7930915355682373,-400000.0625,7153.89013671875,1277.1099853515625,-400000.0625,-1365.8499755859375,-400000.0625,6555.41015625,-400000.0625
timestamp,ch7,ch2,ch3,ch5,is_pause
3.808190107345581,-400000.0625,7136.009765625,1258.0400390625,-400000.0625,-1389.1700439453125,-400000.0625,6539.2998046875,-400000.0625
3.8204691410064697,-400000.0625,7202.580078125,1325.1300048828125,-400000.0625,-1338.199951171875,-400000.0625,6606.91015625,-400000.0625
timestamp,ch7,ch2,ch3,ch5,is_pause
timestamp,ch7,ch2,ch3,ch5,is_pause
timestamp,ch7,ch2,ch3,ch5,is_pause
3.859703302383423,-400000.0625,7263.3798828125,1385.3599853515625,-400000.0625,-1262.949951171875,-400000.0625,6663.1298828125,-400000.0625
timestamp,ch7,ch2,ch3,ch5,is_pause
3.875551223754883,-400000.0625,7236.0498046875,1355.5999755859375,-400000.0625,-1284.030029296875,-400000.0625,6632.0,-400000.0625
timestamp,ch7,ch2,ch3,ch5,is_pause
3.892258882522583,-400000.0625,7157.85009765625,1275.4000244140625,-400000.0625,-1363.6099853515625,-400000.0625,6555.7001953125,-400000.0625
timestamp,ch7,ch2,ch3,ch5,is_pause
3.9143576622009277,-400000.0625,7137.10986328125,1259.280029296875,-400000.0625,-1392.699951171875,-400000.0625,6542.16015625,-400000.0625
timestamp,ch7,ch2,ch3,ch5,is_pause
3.9335508346557617,-400000.0625,7197.330078125,1323.800048828125,-400000.0625,-1337.3399658203125,-400000.0625,6606.009765625,-400000.0625
timestamp,ch7,ch2,ch3,ch5,is_pause
timestamp,ch7,ch2,ch3,ch5,is_pause
3.9636456966400146,-400000.0625,7260.18017578125,1381.8699951171875,-400000.0625,-1280.68994140625,-400000.0625,6665.14013671875,-400000.0625
timestamp,ch7,ch2,ch3,ch5,is_pause
3.983978271484375,-400000.0625,7237.580078125,1355.8399658203125,-400000.0625,-1300.9100341796875,-400000.0625,6641.0498046875,-400000.0625
timestamp,ch7,ch2,ch3,ch5,is_pause
4.002597332000732,-400000.0625,7156.1298828125,1272.010009765625,-400000.0625,-1380.489990234375,-400000.0625,6560.14013671875,-400000.0625
timestamp,ch7,ch2,ch3,ch5,is_pause
4.016998767852783,-400000.0625,7125.330078125,1247.4100341796875,-400000.0625,-1394.93994140625,-400000.0625,6533.580078125,-400000.0625
4.029923439025879,-400000.0625,7193.759765625,1320.9300537109375,-400000.0625,-1310.43994140625,-400000.0625,6602.18994140625,-400000.0625
timestamp,ch7,ch2,ch3,ch5,is_pause
4.047367811203003,-400000.0625,7259.990234375,1389.8900146484375,-400000.0625,-1252.3199462890625,-400000.0625,6670.759765625,-400000.0625
timestamp,ch7,ch2,ch3,ch5,is_pause
timestamp,ch7,ch2,ch3,ch5,is_pause
4.077704191207886,-400000.0625,7225.93994140625,1361.989990234375,-400000.0625,-1294.9000244140625,-400000.0625,6643.43994140625,-400000.0625
timestamp,ch7,ch2,ch3,ch5,is_pause
4.0950822830200195,-400000.0625,7129.56982421875,1281.449951171875,-400000.0625,-1367.280029296875,-400000.0625,6570.240234375,-400000.0625
timestamp,ch7,ch2,ch3,ch5,is_pause
4.109070777893066,-400000.0625,7110.169921875,1267.47998046875,-400000.0625,-1372.3399658203125,-400000.0625,6540.16015625,-400000.0625
timestamp,ch7,ch2,ch3,ch5,is_pause
4.124189376831055,-400000.0625,7156.89990234375,1342.9200439453125,-400000.0625,-1305.5799560546875,-400000.0625,6593.509765625,-400000.0625
timestamp,ch7,ch2,ch3,ch5,is_pause
4.142509460449219,-400000.0625,7207.10986328125,1390.7900390625,-400000.0625,-1257.1300048828125,-400000.0625,6681.10986328125,-400000.0625
timestamp,ch7,ch2,ch3,ch5,is_pause
4.155216217041016,-400000.0625,7178.5498046875,1343.1600341796875,-400000.0625,-1295.81005859375,-400000.0625,6638.33984375,-400000.0625
timestamp,ch7,ch2,ch3,ch5,is_pause
timestamp,ch7,ch2,ch3,ch5,is_pause
4.185676574707031,-400000.0625,7107.68994140625,1258.9000244140625,-400000.0625,-1361.8499755859375,-400000.0625,6504.009765625,-400000.0625
timestamp,ch7,ch2,ch3,ch5,is_pause
4.20187783241272,-400000.0625,7087.85009765625,1228.0,-400000.0625,-1371.9100341796875,-400000.0625,6450.83984375,-400000.0625
timestamp,ch7,ch2,ch3,ch5,is_pause
4.217370271682739,-400000.0625,7122.3701171875,1204.6800537109375,-400000.0625,-1302.8599853515625,-400000.0625,6534.77001953125,-400000.0625
timestamp,ch7,ch2,ch3,ch5,is_pause
4.232781171798706,-400000.0625,7201.33984375,1248.260009765625,-400000.0625,-1232.8599853515625,-400000.0625,6695.080078125,-400000.0625
timestamp,ch7,ch2,ch3,ch5,is_pause
4.248793601989746,-400000.0625,7107.77978515625,1293.3299560546875,-400000.0625,-1279.6400146484375,-400000.0625,6645.2998046875,-400000.0625
timestamp,ch7,ch2,ch3,ch5,is_pause
4.26220178604126,-400000.0625,6975.93994140625,1182.030029296875,-400000.0625,-1364.989990234375,-400000.0625,6537.68017578125,-400000.0625
timestamp,ch7,ch2,ch3,ch5,is_pause
timestamp,ch7,ch2,ch3,ch5,is_pause
4.296279668807983,-400000.0625,6897.16015625,1143.1199951171875,-400000.0625,-1362.0400390625,-400000.0625,6527.3798828125,-400000.0625
timestamp,ch7,ch2,ch3,ch5,is_pause
4.310061454772949,-400000.0625,6918.0498046875,1192.1400146484375,-400000.0625,-1280.260009765625,-400000.0625,6566.3798828125,-400000.0625
timestamp,ch7,ch2,ch3,ch5,is_pause
4.327037334442139,-400000.0625,6972.83984375,1241.8299560546875,-400000.0625,-1217.699951171875,-400000.0625,6683.5400390625,-400000.0625
timestamp,ch7,ch2,ch3,ch5,is_pause
4.340674877166748,-400000.0625,6940.56005859375,1190.7099609375,-400000.0625,-1240.1099853515625,-400000.0625,6735.60986328125,-400000.0625
timestamp,ch7,ch2,ch3,ch5,is_pause
4.356289863586426,-400000.0625,6864.68994140625,1115.75,-400000.0625,-1303.47998046875,-400000.0625,6711.2001953125,-400000.0625
timestamp,ch7,ch2,ch3,ch5,is_pause
timestamp,ch7,ch2,ch3,ch5,is_pause
4.38203501701355,-400000.0625,6826.06982421875,1096.1099853515625,-400000.0625,-1331.7099609375,-400000.0625,6751.43994140625,-400000.0625
timestamp,ch7,ch2,ch3,ch5,is_pause
timestamp,ch7,ch2,ch3,ch5,is_pause
4.4211602210998535,-400000.0625,6856.919921875,1160.4300537109375,-400000.0625,-1263.6700439453125,-400000.0625,6884.47998046875,-400000.0625
timestamp,ch7,ch2,ch3,ch5,is_pause
4.4372498989105225,-400000.0625,6937.64990234375,1222.4200439453125,-400000.0625,-1195.81005859375,-400000.0625,7019.18994140625,-400000.0625
timestamp,ch7,ch2,ch3,ch5,is_pause
4.4497904777526855,-400000.0625,6953.669921875,1187.56005859375,-400000.0625,-1216.1300048828125,-400000.0625,7042.740234375,-400000.0625
timestamp,ch7,ch2,ch3,ch5,is_pause
4.466647148132324,-400000.0625,6831.64990234375,1097.5799560546875,-400000.0625,-1282.550048828125,-400000.0625,7003.97998046875,-400000.0625
timestamp,ch7,ch2,ch3,ch5,is_pause
4.481605291366577,-400000.0625,6821.35009765625,1074.8900146484375,-400000.0625,-1300.6700439453125,-400000.0625,7045.93994140625,-400000.0625
timestamp,ch7,ch2,ch3,ch5,is_pause
4.493142604827881,-400000.0625,6895.2998046875,1142.4100341796875,-400000.0625,-1241.780029296875,-400000.0625,7172.2001953125,-400000.0625
timestamp,ch7,ch2,ch3,ch5,is_pause
timestamp,ch7,ch2,ch3,ch5,is_pause
4.526103973388672,-400000.0625,6950.330078125,1209.780029296875,-400000.0625,-1185.699951171875,-400000.0625,7286.60009765625,-400000.0625
timestamp,ch7,ch2,ch3,ch5,is_pause
timestamp,ch7,ch2,ch3,ch5,is_pause
4.545793056488037,-400000.0625,6921.52978515625,1184.27001953125,-400000.0625,-1197.6199951171875,-400000.0625,7295.66015625,-400000.0625
timestamp,ch7,ch2,ch3,ch5,is_pause
4.564377546310425,-400000.0625,6852.68017578125,1110.030029296875,-400000.0625,-1270.8199462890625,-400000.0625,7244.8701171875,-400000.0625
timestamp,ch7,ch2,ch3,ch5,is_pause
4.576897859573364,-400000.0625,6845.85986328125,1098.1099853515625,-400000.0625,-1302.47998046875,-400000.0625,7202.85986328125,-400000.0625
timestamp,ch7,ch2,ch3,ch5,is_pause
4.596301317214966,-400000.0625,6914.47021484375,1176.2099609375,-400000.0625,-1220.699951171875,-400000.0625,7219.22021484375,-400000.0625
timestamp,ch7,ch2,ch3,ch5,is_pause
timestamp,ch7,ch2,ch3,ch5,is_pause
4.633494138717651,-400000.0625,6977.4599609375,1249.31005859375,-400000.0625,-1108.5,-400000.0625,7219.1201171875,-400000.0625
timestamp,ch7,ch2,ch3,ch5,is_pause
4.651034832000732,-400000.0625,6974.02978515625,1244.68994140625,-400000.0625,-1125.2900390625,-400000.0625,7135.6298828125,-400000.0625
timestamp,ch7,ch2,ch3,ch5,is_pause
4.667629241943359,-400000.0625,6915.3798828125,1180.219970703125,-400000.0625,-1232.3399658203125,-400000.0625,6989.52978515625,-400000.0625
timestamp,ch7,ch2,ch3,ch5,is_pause
4.6821510791778564,-400000.0625,6907.64990234375,1167.969970703125,-400000.0625,-1287.219970703125,-400000.0625,6901.7900390625,-400000.0625
timestamp,ch7,ch2,ch3,ch5,is_pause
4.7032551765441895,-400000.0625,6989.3798828125,1252.27001953125,-400000.0625,-1233.2900390625,-400000.0625,6918.43017578125,-400000.0625
timestamp,ch7,ch2,ch3,ch5,is_pause
timestamp,ch7,ch2,ch3,ch5,is_pause
timestamp,ch7,ch2,ch3,ch5,is_pause
4.750171422958374,-400000.0625,7071.5400390625,1336.1500244140625,-400000.0625,-1132.8699951171875,-400000.0625,6941.18017578125,-400000.0625
timestamp,ch7,ch2,ch3,ch5,is_pause
4.768030881881714,-400000.0625,7076.7900390625,1325.0799560546875,-400000.0625,-1131.489990234375,-400000.0625,6878.89990234375,-400000.0625
timestamp,ch7,ch2,ch3,ch5,is_pause
4.786055088043213,-400000.0625,7006.4599609375,1244.969970703125,-400000.0625,-1203.5799560546875,-400000.0625,6773.0400390625,-400000.0625
timestamp,ch7,ch2,ch3,ch5,is_pause
4.803531885147095,-400000.0625,6999.16015625,1240.6800537109375,-400000.0625,-1249.7900390625,-400000.0625,6737.89990234375,-400000.0625
timestamp,ch7,ch2,ch3,ch5,is_pause
timestamp,ch7,ch2,ch3,ch5,is_pause
4.83690071105957,-400000.0625,7096.47998046875,1323.1800537109375,-400000.0625,-1204.1099853515625,-400000.0625,6790.2099609375,-400000.0625
timestamp,ch7,ch2,ch3,ch5,is_pause
timestamp,ch7,ch2,ch3,ch5,is_pause
4.859422206878662,-400000.0625,7181.1201171875,1396.0799560546875,-400000.0625,-1125.719970703125,-400000.0625,6834.93994140625,-400000.0625
timestamp,ch7,ch2,ch3,ch5,is_pause
4.876378059387207,-400000.0625,7169.39013671875,1377.9599609375,-400000.0625,-1152.75,-400000.0625,6797.64990234375,-400000.0625
timestamp,ch7,ch2,ch3,ch5,is_pause
4.8911168575286865,-400000.0625,7106.58984375,1308.06005859375,-400000.0625,-1236.300048828125,-400000.0625,6713.68017578125,-400000.0625
timestamp,ch7,ch2,ch3,ch5,is_pause
4.9105846881866455,-400000.0625,7108.93017578125,1295.8499755859375,-400000.0625,-1271.489990234375,-400000.0625,6685.5400390625,-400000.0625
timestamp,ch7,ch2,ch3,ch5,is_pause
timestamp,ch7,ch2,ch3,ch5,is_pause
4.938422679901123,-400000.0625,7186.31982421875,1365.1400146484375,-400000.0625,-1213.1199951171875,-400000.0625,6740.330078125,-400000.0625
timestamp,ch7,ch2,ch3,ch5,is_pause
4.960470914840698,-400000.0625,7259.3701171875,1437.4300537109375,-400000.0625,-1150.469970703125,-400000.0625,6797.89013671875,-400000.0625
timestamp,ch7,ch2,ch3,ch5,is_pause
4.974622488021851,-400000.0625,7254.31982421875,1419.02001953125,-400000.0625,-1170.72998046875,-400000.0625,6769.7998046875,-400000.0625
4.986416578292847,-400000.0625,7187.3701171875,1344.8199462890625,-400000.0625,-1257.52001953125,-400000.0625,6687.740234375,-400000.0625
timestamp,ch7,ch2,ch3,ch5,is_pause
5.002893924713135,-400000.0625,7181.60009765625,1330.0400390625,-400000.0625,-1305.199951171875,-400000.0625,6664.56005859375,-400000.0625
timestamp,ch7,ch2,ch3,ch5,is_pause
5.016724348068237,-400000.0625,7253.22021484375,1396.699951171875,-400000.0625,-1246.550048828125,-400000.0625,6733.1298828125,-400000.0625
timestamp,ch7,ch2,ch3,ch5,is_pause
timestamp,ch7,ch2,ch3,ch5,is_pause
5.046806812286377,-400000.0625,7331.89990234375,1469.800048828125,-400000.0625,-1184.4200439453125,-400000.0625,6798.97998046875,-400000.0625
timestamp,ch7,ch2,ch3,ch5,is_pause
5.063312292098999,-400000.0625,7322.22021484375,1449.8699951171875,-400000.0625,-1237.199951171875,-400000.0625,6781.0498046875,-400000.0625
timestamp,ch7,ch2,ch3,ch5,is_pause
5.0762810707092285,-400000.0625,7247.64013671875,1370.9100341796875,-400000.0625,-1305.530029296875,-400000.0625,6704.08984375,-400000.0625
timestamp,ch7,ch2,ch3,ch5,is_pause
5.090352773666382,-400000.0625,7235.43017578125,1354.8399658203125,-400000.0625,-1299.4300537109375,-400000.0625,6677.490234375,-400000.0625
5.100908279418945,-400000.0625,7314.2099609375,1427.7900390625,-400000.0625,-1251.27001953125,-400000.0625,6749.5400390625,-400000.0625
timestamp,ch7,ch2,ch3,ch5,is_pause
5.116008043289185,-400000.0625,7386.830078125,1494.8399658203125,-400000.0625,-1207.1600341796875,-400000.0625,6817.06005859375,-400000.0625
timestamp,ch7,ch2,ch3,ch5,is_pause
5.128316164016724,-400000.0625,7369.08984375,1470.3800048828125,-400000.0625,-1233.5799560546875,-400000.0625,6793.35986328125,-400000.0625
timestamp,ch7,ch2,ch3,ch5,is_pause
timestamp,ch7,ch2,ch3,ch5,is_pause
5.164384603500366,-400000.0625,7296.60986328125,1391.27001953125,-400000.0625,-1301.5699462890625,-400000.0625,6718.830078125,-400000.0625
timestamp,ch7,ch2,ch3,ch5,is_pause
5.178321361541748,-400000.0625,7285.5498046875,1373.0999755859375,-400000.0625,-1326.8900146484375,-400000.0625,6697.89013671875,-400000.0625
timestamp,ch7,ch2,ch3,ch5,is_pause
timestamp,ch7,ch2,ch3,ch5,is_pause
5.196552753448486,-400000.0625,7356.5498046875,1442.81005859375,-400000.0625,-1278.2099609375,-400000.0625,6766.02978515625,-400000.0625
timestamp,ch7,ch2,ch3,ch5,is_pause
5.2118144035339355,-400000.0625,7425.259765625,1509.949951171875,-400000.0625,-1216.1300048828125,-400000.0625,6831.89013671875,-400000.0625
timestamp,ch7,ch2,ch3,ch5,is_pause
5.228607892990112,-400000.0625,7400.7001953125,1486.6800537109375,-400000.0625,-1233.9100341796875,-400000.0625,6806.66015625,-400000.0625
timestamp,ch7,ch2,ch3,ch5,is_pause
timestamp,ch7,ch2,ch3,ch5,is_pause
5.266336917877197,-400000.0625,7324.97998046875,1408.6199951171875,-400000.0625,-1308.1600341796875,-400000.0625,6730.89013671875,-400000.0625
timestamp,ch7,ch2,ch3,ch5,is_pause
5.2868733406066895,-400000.0625,7317.02001953125,1390.27001953125,-400000.0625,-1341.9200439453125,-400000.0625,6705.669921875,-400000.0625
timestamp,ch7,ch2,ch3,ch5,is_pause
timestamp,ch7,ch2,ch3,ch5,is_pause
5.313711643218994,-400000.0625,7386.16015625,1458.030029296875,-400000.0625,-1295.1400146484375,-400000.0625,6760.60009765625,-400000.0625
timestamp,ch7,ch2,ch3,ch5,is_pause
5.333404064178467,-400000.0625,7444.47998046875,1517.5799560546875,-400000.0625,-1240.8299560546875,-400000.0625,6825.97021484375,-400000.0625
timestamp,ch7,ch2,ch3,ch5,is_pause
timestamp,ch7,ch2,ch3,ch5,is_pause
5.370072603225708,-400000.0625,7421.490234375,1501.0799560546875,-400000.0625,-1244.260009765625,-400000.0625,6807.08984375,-400000.0625
timestamp,ch7,ch2,ch3,ch5,is_pause
timestamp,ch7,ch2,ch3,ch5,is_pause
5.395928859710693,-400000.0625,7312.72998046875,1419.5400390625,-400000.0625,-1305.1500244140625,-400000.0625,6717.919921875,-400000.0625
timestamp,ch7,ch2,ch3,ch5,is_pause
5.408332586288452,-400000.0625,7308.52978515625,1410.8699951171875,-400000.0625,-1321.4100341796875,-400000.0625,6716.2998046875,-400000.0625
timestamp,ch7,ch2,ch3,ch5,is_pause
5.427699089050293,-400000.0625,7382.5400390625,1485.4000244140625,-400000.0625,-1257.280029296875,-400000.0625,6780.33984375,-400000.0625
timestamp,ch7,ch2,ch3,ch5,is_pause
5.444227695465088,-400000.0625,7412.240234375,1528.68994140625,-400000.0625,-1213.68994140625,-400000.0625,6823.35009765625,-400000.0625
timestamp,ch7,ch2,ch3,ch5,is_pause
timestamp,ch7,ch2,ch3,ch5,is_pause
5.475110292434692,-400000.0625,7378.39013671875,1496.5999755859375,-400000.0625,-1237.25,-400000.0625,6798.080078125,-400000.0625
timestamp,ch7,ch2,ch3,ch5,is_pause
5.492774963378906,-400000.0625,7263.85009765625,1415.1099853515625,-400000.0625,-1311.8699951171875,-400000.0625,6677.9599609375,-400000.0625
timestamp,ch7,ch2,ch3,ch5,is_pause
5.50610613822937,-400000.0625,7240.14990234375,1378.1099853515625,-400000.0625,-1320.31005859375,-400000.0625,6651.58984375,-400000.0625
timestamp,ch7,ch2,ch3,ch5,is_pause
5.52160382270813,-400000.0625,7262.85009765625,1427.5999755859375,-400000.0625,-1257.6099853515625,-400000.0625,6739.81005859375,-400000.0625
5.5332911014556885,-400000.0625,7361.169921875,1482.25,-400000.0625,-1195.0999755859375,-400000.0625,6837.31982421875,-400000.0625
timestamp,ch7,ch2,ch3,ch5,is_pause
5.551527976989746,-400000.0625,7298.14013671875,1394.3199462890625,-400000.0625,-1219.800048828125,-400000.0625,6842.18017578125,-400000.0625
timestamp,ch7,ch2,ch3,ch5,is_pause
timestamp,ch7,ch2,ch3,ch5,is_pause
timestamp,ch7,ch2,ch3,ch5,is_pause
5.583805561065674,-400000.0625,7136.39013671875,1321.1300048828125,-400000.0625,-1275.489990234375,-400000.0625,6780.669921875,-400000.0625
timestamp,ch7,ch2,ch3,ch5,is_pause
5.604197978973389,-400000.0625,7031.009765625,1299.1400146484375,-400000.0625,-1281.8299560546875,-400000.0625,6745.009765625,-400000.0625
timestamp,ch7,ch2,ch3,ch5,is_pause
5.618625640869141,-400000.0625,7062.14990234375,1344.3900146484375,-400000.0625,-1203.1600341796875,-400000.0625,6869.83984375,-400000.0625
timestamp,ch7,ch2,ch3,ch5,is_pause
5.6355578899383545,-400000.0625,7131.39013671875,1326.989990234375,-400000.0625,-1134.5899658203125,-400000.0625,7175.68017578125,-400000.0625
timestamp,ch7,ch2,ch3,ch5,is_pause
5.654436349868774,-400000.0625,7127.56982421875,1318.1700439453125,-400000.0625,-1149.75,-400000.0625,7270.81005859375,-400000.0625
timestamp,ch7,ch2,ch3,ch5,is_pause
timestamp,ch7,ch2,ch3,ch5,is_pause
5.68380069732666,-400000.0625,6997.97021484375,1295.949951171875,-400000.0625,-1239.6300048828125,-400000.0625,7311.2998046875,-400000.0625
timestamp,ch7,ch2,ch3,ch5,is_pause
5.696171760559082,-400000.0625,6988.14013671875,1269.050048828125,-400000.0625,-1254.1800537109375,-400000.0625,7459.5498046875,-400000.0625
timestamp,ch7,ch2,ch3,ch5,is_pause
5.710827589035034,-400000.0625,7062.81982421875,1336.18994140625,-400000.0625,-1181.6500244140625,-400000.0625,7680.509765625,-400000.0625
timestamp,ch7,ch2,ch3,ch5,is_pause
5.726082801818848,-400000.0625,7151.56005859375,1412.06005859375,-400000.0625,-1118.989990234375,-400000.0625,7860.9501953125,-400000.0625
timestamp,ch7,ch2,ch3,ch5,is_pause
5.743685722351074,-400000.0625,7157.47021484375,1391.219970703125,-400000.0625,-1145.3199462890625,-400000.0625,7904.47998046875,-400000.0625
timestamp,ch7,ch2,ch3,ch5,is_pause
5.756613492965698,-400000.0625,7077.89013671875,1308.010009765625,-400000.0625,-1204.3499755859375,-400000.0625,7813.1201171875,-400000.0625
timestamp,ch7,ch2,ch3,ch5,is_pause
timestamp,ch7,ch2,ch3,ch5,is_pause
timestamp,ch7,ch2,ch3,ch5,is_pause
5.79323673248291,-400000.0625,7088.66015625,1288.56005859375,-400000.0625,-1220.56005859375,-400000.0625,7729.91015625,-400000.0625
timestamp,ch7,ch2,ch3,ch5,is_pause
5.822598695755005,-400000.0625,9626.5302734375,1934.47998046875,-400000.0625,-992.1599731445312,-400000.0625,14368.580078125,-400000.0625
6.054919242858887,-400000.0625,10640.6201171875,2165.030029296875,-400000.0625,-556.52001953125,-400000.0625,15685.6103515625,-400000.0625
6.123715400695801,-400000.0625,12847.1396484375,2986.81005859375,-400000.0625,740.47998046875,-400000.0625,17430.259765625,-400000.0625
6.205694675445557,-400000.0625,11387.01953125,2472.31005859375,-400000.0625,-19.030000686645508,-400000.0625,16210.7001953125,-400000.0625
6.369608640670776,-400000.0625,10648.2001953125,2328.43994140625,-400000.0625,-590.8499755859375,-400000.0625,15639.6904296875,-400000.0625
6.449820518493652,-400000.0625,10365.490234375,2311.659912109375,-400000.0625,-670.47998046875,-400000.0625,15332.83984375,-400000.0625
6.638320207595825,-400000.0625,9986.1201171875,2178.340087890625,-400000.0625,-794.219970703125,-400000.0625,14957.9501953125,-400000.0625
6.727277994155884,-400000.0625,9920.169921875,2180.14990234375,-400000.0625,-782.9199829101562,-400000.0625,14864.6396484375,-400000.0625
6.765798807144165,-400000.0625,9789.51953125,2110.530029296875,-400000.0625,-840.6199951171875,-400000.0625,14715.33984375,-400000.0625
6.844479084014893,-400000.0625,9742.4501953125,2110.389892578125,-400000.0625,-810.6699829101562,-400000.0625,14662.3603515625,-400000.0625
6.959650039672852,-400000.0625,9547.0400390625,2006.43994140625,-400000.0625,-888.72998046875,-400000.0625,14451.7001953125,-400000.0625
7.019827365875244,-400000.0625,9511.23046875,2019.2099609375,-400000.0625,-847.530029296875,-400000.0625,14396.91015625,-400000.0625
7.09456729888916,-400000.0625,9454.919921875,1998.3299560546875,-400000.0625,-852.2999877929688,-400000.0625,14308.599609375,-400000.0625
7.151027202606201,-400000.0625,9372.759765625,1958.280029296875,-400000.0625,-864.7899780273438,-400000.0625,14225.9599609375,-400000.0625
7.213396310806274,-400000.0625,9289.0302734375,1910.3499755859375,-400000.0625,-903.3200073242188,-400000.0625,14112.900390625,-400000.0625
7.275780200958252,-400000.0625,9242.2001953125,1889.1800537109375,-400000.0625,-911.0900268554688,-400000.0625,14036.3203125,-400000.0625
7.459453105926514,-400000.0625,9170.580078125,1871.489990234375,-400000.0625,-942.52001953125,-400000.0625,13902.2802734375,-400000.0625
7.533439874649048,-400000.0625,9063.8603515625,1813.6500244140625,-400000.0625,-963.3099975585938,-400000.0625,13737.349609375,-400000.0625
7.597356796264648,-400000.0625,9029.4404296875,1802.4000244140625,-400000.0625,-984.239990234375,-400000.0625,13666.2998046875,-400000.0625
7.6611199378967285,-400000.0625,8990.240234375,1788.5699462890625,-400000.0625,-977.989990234375,-400000.0625,13595.33984375,-400000.0625
7.724893093109131,-400000.0625,8968.01953125,1785.9000244140625,-400000.0625,-965.1199951171875,-400000.0625,13543.75,-400000.0625
7.809475421905518,-400000.0625,8931.919921875,1770.68994140625,-400000.0625,-982.3800048828125,-400000.0625,13469.8896484375,-400000.0625
7.854551553726196,-400000.0625,8877.23046875,1741.550048828125,-400000.0625,-1007.1300048828125,-400000.0625,13391.58984375,-400000.0625
7.915949821472168,-400000.0625,8836.1796875,1726.06005859375,-400000.0625,-979.3800048828125,-400000.0625,13323.740234375,-400000.0625
7.980802059173584,-400000.0625,8814.240234375,1714.7099609375,-400000.0625,-996.8800048828125,-400000.0625,13284.2998046875,-400000.0625
8.109645366668701,-400000.0625,8761.599609375,1696.969970703125,-400000.0625,-996.3499755859375,-400000.0625,13168.2900390625,-400000.0625
8.246830463409424,-400000.0625,8616.16015625,1492.2099609375,-400000.0625,-1066.9200439453125,-400000.0625,13236.7099609375,-400000.0625
8.3026602268219,-400000.0625,8591.7001953125,1495.5,-400000.0625,-1078.8900146484375,-400000.0625,13203.0,-400000.0625
8.366687059402466,-400000.0625,8567.9501953125,1492.7900390625,-400000.0625,-1062.9200439453125,-400000.0625,13150.8798828125,-400000.0625
8.522229194641113,-400000.0625,8506.490234375,1467.4200439453125,-400000.0625,-1081.1300048828125,-400000.0625,13034.25,-400000.0625
8.612422943115234,-400000.0625,8491.0400390625,1466.3699951171875,-400000.0625,-1076.56005859375,-400000.0625,12987.900390625,-400000.0625
8.696892976760864,-400000.0625,8453.7001953125,1431.3699951171875,-400000.0625,-1090.050048828125,-400000.0625,12920.2900390625,-400000.0625
8.75419306755066,-400000.0625,8427.1904296875,1416.1099853515625,-400000.0625,-1100.1600341796875,-400000.0625,12867.01953125,-400000.0625
8.812428712844849,-400000.0625,8409.8798828125,1417.449951171875,-400000.0625,-1081.6600341796875,-400000.0625,12805.3203125,-400000.0625
8.919122219085693,-400000.0625,8397.580078125,1409.5799560546875,-400000.0625,-1106.1700439453125,-400000.0625,12766.4599609375,-400000.0625
9.14809799194336,-400000.0625,8337.3095703125,1406.530029296875,-400000.0625,-1087.760009765625,-400000.0625,12545.6298828125,-400000.0625
9.292502403259277,-400000.0625,8296.6298828125,1394.699951171875,-400000.0625,-1125.0,-400000.0625,12453.4599609375,-400000.0625
9.402349472045898,-400000.0625,8267.6396484375,1383.1099853515625,-400000.0625,-1106.31005859375,-400000.0625,12364.580078125,-400000.0625
9.458200931549072,-400000.0625,8247.0,1378.8199462890625,-400000.0625,-1125.050048828125,-400000.0625,12293.240234375,-400000.0625
9.517310619354248,-400000.0625,8238.3203125,1372.0999755859375,-400000.0625,-1120.4200439453125,-400000.0625,12266.1103515625,-400000.0625
9.597018957138062,-400000.0625,8227.0595703125,1366.8499755859375,-400000.0625,-1101.02001953125,-400000.0625,12223.2900390625,-400000.0625
9.720142126083374,-400000.0625,8199.3095703125,1355.699951171875,-400000.0625,-1100.969970703125,-400000.0625,12145.0,-400000.0625
9.781639099121094,-400000.0625,8185.14990234375,1346.4000244140625,-400000.0625,-1123.18994140625,-400000.0625,12087.0595703125,-400000.0625
9.838989496231079,-400000.0625,8167.64990234375,1336.0999755859375,-400000.0625,-1139.1600341796875,-400000.0625,12029.41015625,-400000.0625
10.100711822509766,-400000.0625,8130.31005859375,1335.0,-400000.0625,-1132.77001953125,-400000.0625,11880.7802734375,-400000.0625
10.301347255706787,-400000.0625,8253.5302734375,1499.030029296875,-400000.0625,-1043.8399658203125,-400000.0625,11554.150390625,-400000.0625
10.382578134536743,-400000.0625,8234.7900390625,1505.280029296875,-400000.0625,-1056.0,-400000.0625,11507.8896484375,-400000.0625
10.413576602935791,-400000.0625,8212.23046875,1495.6500244140625,-400000.0625,-1080.0799560546875,-400000.0625,11457.73046875,-400000.0625
10.479581832885742,-400000.0625,8211.7998046875,1507.760009765625,-400000.0625,-1069.97998046875,-400000.0625,11433.98046875,-400000.0625
10.556374549865723,-400000.0625,8191.6298828125,1491.97998046875,-400000.0625,-1033.4000244140625,-400000.0625,11378.580078125,-400000.0625
10.672338247299194,-400000.0625,8177.0,1489.3499755859375,-400000.0625,-1071.9300537109375,-400000.0625,11297.75,-400000.0625
10.759669065475464,-400000.0625,8164.35986328125,1481.199951171875,-400000.0625,-1057.3399658203125,-400000.0625,11250.8798828125,-400000.0625
10.796236753463745,-400000.0625,8167.4599609375,1490.68994140625,-400000.0625,-1077.030029296875,-400000.0625,11218.83984375,-400000.0625
10.860140323638916,-400000.0625,8143.0,1471.469970703125,-400000.0625,-1075.3199462890625,-400000.0625,11168.2001953125,-400000.0625
10.99937105178833,-400000.0625,8130.89013671875,1475.050048828125,-400000.0625,-1054.81005859375,-400000.0625,11098.5302734375,-400000.0625
11.05215072631836,-400000.0625,8114.009765625,1472.18994140625,-400000.0625,-1049.949951171875,-400000.0625,11059.3798828125,-400000.0625
11.169253826141357,-400000.0625,8107.6201171875,1473.5699462890625,-400000.0625,-1061.8199462890625,-400000.0625,11013.1796875,-400000.0625
11.2562894821167,-400000.0625,8087.16015625,1465.6099853515625,-400000.0625,-1071.8800048828125,-400000.0625,10944.9404296875,-400000.0625
11.31113886833191,-400000.0625,8087.77978515625,1458.9300537109375,-400000.0625,-1076.27001953125,-400000.0625,10910.9404296875,-400000.0625
11.37739109992981,-400000.0625,8085.43994140625,1460.5,-400000.0625,-1079.4200439453125,-400000.0625,10873.3203125,-400000.0625
11.521498441696167,-400000.0625,8059.31005859375,1450.06005859375,-400000.0625,-1072.449951171875,-400000.0625,10789.0595703125,-400000.0625
11.564836025238037,-400000.0625,8075.14013671875,1462.75,-400000.0625,-1073.31005859375,-400000.0625,10728.41015625,-400000.0625
11.628960609436035,-400000.0625,8074.43017578125,1464.93994140625,-400000.0625,-1085.6199951171875,-400000.0625,10717.76953125,-400000.0625
11.69614839553833,-400000.0625,8065.1298828125,1460.0799560546875,-400000.0625,-1075.97998046875,-400000.0625,10676.48046875,-400000.0625
11.755958795547485,-400000.0625,8056.2099609375,1453.5899658203125,-400000.0625,-1102.02001953125,-400000.0625,10642.2001953125,-400000.0625
11.884046077728271,-400000.0625,8048.68017578125,1448.06005859375,-400000.0625,-1067.260009765625,-400000.0625,10569.7197265625,-400000.0625
11.958408832550049,-400000.0625,8043.91015625,1445.530029296875,-400000.0625,-1116.6099853515625,-400000.0625,10545.2099609375,-400000.0625
12.014906644821167,-400000.0625,8038.6201171875,1445.530029296875,-400000.0625,-1090.0999755859375,-400000.0625,10509.25,-400000.0625
12.077998638153076,-400000.0625,8031.18017578125,1437.6199951171875,-400000.0625,-1110.1700439453125,-400000.0625,10470.33984375,-400000.0625
12.15307092666626,-400000.0625,8026.740234375,1440.9100341796875,-400000.0625,-1110.550048828125,-400000.0625,10441.16015625,-400000.0625
12.271952390670776,-400000.0625,8153.14990234375,1624.489990234375,-400000.0625,-1053.4300537109375,-400000.0625,10223.91015625,-400000.0625
12.370675325393677,-400000.0625,8150.81982421875,1659.3900146484375,-400000.0625,-1059.530029296875,-400000.0625,10183.6201171875,-400000.0625
12.397009134292603,-400000.0625,8139.27978515625,1658.3399658203125,-400000.0625,-1054.3299560546875,-400000.0625,10160.73046875,-400000.0625
12.460814952850342,-400000.0625,8128.31005859375,1655.9599609375,-400000.0625,-1056.3900146484375,-400000.0625,10133.7001953125,-400000.0625
12.52466106414795,-400000.0625,8128.5498046875,1665.260009765625,-400000.0625,-1048.280029296875,-400000.0625,10105.900390625,-400000.0625
12.617715120315552,-400000.0625,8111.759765625,1651.18994140625,-400000.0625,-1064.06005859375,-400000.0625,10074.2802734375,-400000.0625
12.653700351715088,-400000.0625,8114.2900390625,1658.43994140625,-400000.0625,-1075.4599609375,-400000.0625,10055.2998046875,-400000.0625
12.716027975082397,-400000.0625,8104.27978515625,1659.3499755859375,-400000.0625,-1057.8199462890625,-400000.0625,10020.1103515625,-400000.0625
12.806768417358398,-400000.0625,8099.56005859375,1653.9599609375,-400000.0625,-1081.510009765625,-400000.0625,9998.4697265625,-400000.0625
12.844409227371216,-400000.0625,8092.35986328125,1652.0,-400000.0625,-1096.6800537109375,-400000.0625,9981.490234375,-400000.0625
12.907196760177612,-400000.0625,8078.77001953125,1645.6099853515625,-400000.0625,-1067.2099609375,-400000.0625,9948.919921875,-400000.0625
12.982589960098267,-400000.0625,8060.89013671875,1628.1099853515625,-400000.0625,-1064.4000244140625,-400000.0625,9921.4599609375,-400000.0625
13.036122560501099,-400000.0625,8063.169921875,1634.8800048828125,-400000.0625,-1066.489990234375,-400000.0625,9895.1796875,-400000.0625
13.102316617965698,-400000.0625,8056.31005859375,1636.27001953125,-400000.0625,-1074.4100341796875,-400000.0625,9877.73046875,-400000.0625
13.16360878944397,-400000.0625,8044.52978515625,1629.8800048828125,-400000.0625,-1064.5899658203125,-400000.0625,9848.5498046875,-400000.0625
13.23633623123169,-400000.0625,8039.47998046875,1628.3499755859375,-400000.0625,-1067.4000244140625,-400000.0625,9826.6103515625,-400000.0625
13.33118724822998,-400000.0625,8030.22021484375,1624.25,-400000.0625,-1073.550048828125,-400000.0625,9799.0498046875,-400000.0625
13.4277503490448,-400000.0625,7999.3701171875,1582.77001953125,-400000.0625,-1108.68994140625,-400000.0625,9773.6796875,-400000.0625
13.484541654586792,-400000.0625,8018.72998046875,1615.6700439453125,-400000.0625,-1093.8199462890625,-400000.0625,9750.419921875,-400000.0625
13.54830551147461,-400000.0625,8003.27978515625,1605.3199462890625,-400000.0625,-1089.3800048828125,-400000.0625,9722.4697265625,-400000.0625
13.71446442604065,-400000.0625,7997.080078125,1604.800048828125,-400000.0625,-1104.31005859375,-400000.0625,9679.2197265625,-400000.0625
13.746581315994263,-400000.0625,7991.41015625,1615.9100341796875,-400000.0625,-1096.72998046875,-400000.0625,9649.9501953125,-400000.0625
13.80862021446228,-400000.0625,7995.75,1625.5400390625,-400000.0625,-1103.31005859375,-400000.0625,9648.2802734375,-400000.0625
timestamp,ch7,ch2,ch3,ch5,is_pause
13.953933954238892,-400000.0625,7993.22021484375,1623.06005859375,-400000.0625,-1119.7099609375,-400000.0625,9598.0703125,-400000.0625
13.988364458084106,-400000.0625,7976.6298828125,1616.8599853515625,-400000.0625,-1100.06005859375,-400000.0625,9588.8603515625,-400000.0625
14.00380802154541,-400000.0625,7984.77978515625,1627.02001953125,-400000.0625,-1101.449951171875,-400000.0625,9593.150390625,-400000.0625
14.01824426651001,-400000.0625,7994.22021484375,1632.5999755859375,-400000.0625,-1103.260009765625,-400000.0625,9597.6396484375,-400000.0625
14.033447742462158,-400000.0625,7989.7900390625,1626.010009765625,-400000.0625,-1095.6800537109375,-400000.0625,9593.5400390625,-400000.0625
14.050628423690796,-400000.0625,7983.64013671875,1621.8199462890625,-400000.0625,-1109.31005859375,-400000.0625,9592.2001953125,-400000.0625
14.066348791122437,-400000.0625,7982.919921875,1620.199951171875,-400000.0625,-1104.4000244140625,-400000.0625,9593.1103515625,-400000.0625
14.100884675979614,-400000.0625,7984.06982421875,1619.1500244140625,-400000.0625,-1097.8699951171875,-400000.0625,9589.8603515625,-400000.0625
14.117945909500122,-400000.0625,7988.1201171875,1628.02001953125,-400000.0625,-1108.4599609375,-400000.0625,9595.490234375,-400000.0625
14.13663625717163,-400000.0625,7993.3701171875,1632.8800048828125,-400000.0625,-1113.0799560546875,-400000.0625,9596.5400390625,-400000.0625
14.15315294265747,-400000.0625,7989.1201171875,1628.5899658203125,-400000.0625,-1120.760009765625,-400000.0625,9592.2001953125,-400000.0625
14.168065547943115,-400000.0625,7985.97021484375,1625.43994140625,-400000.0625,-1112.030029296875,-400000.0625,9586.0498046875,-400000.0625
14.199987888336182,-400000.0625,7978.5400390625,1618.719970703125,-400000.0625,-1106.3599853515625,-400000.0625,9584.9501953125,-400000.0625
14.21953535079956,-400000.0625,7983.72998046875,1627.02001953125,-400000.0625,-1101.5400390625,-400000.0625,9588.8095703125,-400000.0625
14.245081663131714,-400000.0625,7982.77978515625,1626.8699951171875,-400000.0625,-1111.510009765625,-400000.0625,9585.6201171875,-400000.0625
14.264460325241089,-400000.0625,7980.68017578125,1624.06005859375,-400000.0625,-1111.7900390625,-400000.0625,9579.7998046875,-400000.0625
14.27902364730835,-400000.0625,7981.10986328125,1623.9200439453125,-400000.0625,-1107.5,-400000.0625,9578.5595703125,-400000.0625
14.31176233291626,-400000.0625,7980.97021484375,1623.77001953125,-400000.0625,-1101.3499755859375,-400000.0625,9578.3701171875,-400000.0625
14.326878547668457,-400000.0625,7987.740234375,1629.1600341796875,-400000.0625,-1102.6400146484375,-400000.0625,9580.1396484375,-400000.0625
14.34109115600586,-400000.0625,7989.5,1629.969970703125,-400000.0625,-1111.6500244140625,-400000.0625,9579.759765625,-400000.0625
14.358264207839966,-400000.0625,7980.25,1624.3900146484375,-400000.0625,-1116.8499755859375,-400000.0625,9577.080078125,-400000.0625
14.37200379371643,-400000.0625,7974.52978515625,1619.77001953125,-400000.0625,-1107.31005859375,-400000.0625,9571.599609375,-400000.0625
14.385189533233643,-400000.0625,7971.91015625,1618.9599609375,-400000.0625,-1107.6500244140625,-400000.0625,9572.41015625,-400000.0625
14.413562774658203,-400000.0625,7978.580078125,1623.489990234375,-400000.0625,-1101.1099853515625,-400000.0625,9578.1796875,-400000.0625
14.427947044372559,-400000.0625,7980.81982421875,1627.6400146484375,-400000.0625,-1092.8599853515625,-400000.0625,9577.1298828125,-400000.0625
14.445037364959717,-400000.0625,7976.91015625,1621.43994140625,-400000.0625,-1105.68994140625,-400000.0625,9575.1796875,-400000.0625
14.460287809371948,-400000.0625,7975.0498046875,1620.47998046875,-400000.0625,-1123.6199951171875,-400000.0625,9573.83984375,-400000.0625
14.474135160446167,-400000.0625,7979.35009765625,1624.199951171875,-400000.0625,-1131.010009765625,-400000.0625,9576.3701171875,-400000.0625
14.487840414047241,-400000.0625,7984.2099609375,1629.8800048828125,-400000.0625,-1114.1800537109375,-400000.0625,9578.6103515625,-400000.0625
14.518054485321045,-400000.0625,7983.16015625,1628.4000244140625,-400000.0625,-1117.52001953125,-400000.0625,9574.4599609375,-400000.0625
14.535107851028442,-400000.0625,7980.39990234375,1622.5799560546875,-400000.0625,-1112.030029296875,-400000.0625,9567.3095703125,-400000.0625
14.550829887390137,-400000.0625,7976.06005859375,1619.010009765625,-400000.0625,-1104.1199951171875,-400000.0625,9563.4501953125,-400000.0625
14.565572738647461,-400000.0625,7970.240234375,1617.18994140625,-400000.0625,-1106.449951171875,-400000.0625,9561.490234375,-400000.0625
14.579729080200195,-400000.0625,7975.25,1622.0999755859375,-400000.0625,-1102.9200439453125,-400000.0625,9563.73046875,-400000.0625
14.596559286117554,-400000.0625,7971.669921875,1618.0999755859375,-400000.0625,-1109.1700439453125,-400000.0625,9560.2998046875,-400000.0625
14.631513357162476,-400000.0625,7972.33984375,1616.239990234375,-400000.0625,-1111.3199462890625,-400000.0625,9556.76953125,-400000.0625
14.645585060119629,-400000.0625,7971.43017578125,1615.18994140625,-400000.0625,-1132.3499755859375,-400000.0625,9558.9599609375,-400000.0625
14.662617921829224,-400000.0625,7969.08984375,1614.6700439453125,-400000.0625,-1121.7099609375,-400000.0625,9558.6298828125,-400000.0625
14.676474571228027,-400000.0625,7980.06005859375,1624.3900146484375,-400000.0625,-1107.739990234375,-400000.0625,9561.6796875,-400000.0625
14.692620754241943,-400000.0625,7976.25,1622.6300048828125,-400000.0625,-1113.510009765625,-400000.0625,9560.1103515625,-400000.0625
14.710761547088623,-400000.0625,7974.52978515625,1621.06005859375,-400000.0625,-1111.1700439453125,-400000.0625,9555.25,-400000.0625
14.743705987930298,-400000.0625,7973.43017578125,1619.530029296875,-400000.0625,-1122.6700439453125,-400000.0625,9555.25,-400000.0625
14.757169961929321,-400000.0625,7975.14990234375,1620.010009765625,-400000.0625,-1127.6700439453125,-400000.0625,9553.7197265625,-400000.0625
14.771312713623047,-400000.0625,7979.97021484375,1624.969970703125,-400000.0625,-1103.1199951171875,-400000.0625,9551.9599609375,-400000.0625
14.785490989685059,-400000.0625,7978.77001953125,1626.2099609375,-400000.0625,-1092.6199951171875,-400000.0625,9553.7197265625,-400000.0625
14.80777096748352,-400000.0625,7973.2001953125,1622.5799560546875,-400000.0625,-1103.8299560546875,-400000.0625,9548.240234375,-400000.0625
14.833412885665894,-400000.0625,7972.3798828125,1620.9100341796875,-400000.0625,-1118.0400390625,-400000.0625,9541.3203125,-400000.0625
14.869843482971191,-400000.0625,7974.2001953125,1623.25,-400000.0625,-1126.1500244140625,-400000.0625,9543.7099609375,-400000.0625
14.896376848220825,-400000.0625,7977.9599609375,1628.1099853515625,-400000.0625,-1126.5799560546875,-400000.0625,9546.759765625,-400000.0625
14.910221815109253,-400000.0625,7972.10009765625,1624.8699951171875,-400000.0625,-1133.1600341796875,-400000.0625,9546.6103515625,-400000.0625
14.92563533782959,-400000.0625,7971.9599609375,1620.25,-400000.0625,-1112.8900146484375,-400000.0625,9542.509765625,-400000.0625
14.950312376022339,-400000.0625,7971.43017578125,1619.0999755859375,-400000.0625,-1094.25,-400000.0625,9541.7998046875,-400000.0625
14.976847410202026,-400000.0625,7972.9599609375,1622.43994140625,-400000.0625,-1092.9100341796875,-400000.0625,9535.9296875,-400000.0625
14.995678186416626,-400000.0625,7974.2001953125,1630.4000244140625,-400000.0625,-1104.449951171875,-400000.0625,9531.3095703125,-400000.0625
15.009142398834229,-400000.0625,7962.85009765625,1628.449951171875,-400000.0625,-1113.4599609375,-400000.0625,9536.83984375,-400000.0625
15.021312236785889,-400000.0625,7951.8798828125,1610.7099609375,-400000.0625,-1118.949951171875,-400000.0625,9546.5703125,-400000.0625
15.034629821777344,-400000.0625,7951.169921875,1595.9300537109375,-400000.0625,-1124.47998046875,-400000.0625,9549.8095703125,-400000.0625
15.056515455245972,-400000.0625,7961.509765625,1587.8199462890625,-400000.0625,-1133.1099853515625,-400000.0625,9558.150390625,-400000.0625
15.087125301361084,-400000.0625,7957.97998046875,1579.280029296875,-400000.0625,-1117.75,-400000.0625,9570.5,-400000.0625
15.103648900985718,-400000.0625,7949.830078125,1567.699951171875,-400000.0625,-1114.8900146484375,-400000.0625,9577.75,-400000.0625
15.132672548294067,-400000.0625,7937.669921875,1545.9100341796875,-400000.0625,-1134.1099853515625,-400000.0625,9584.240234375,-400000.0625
15.146050930023193,-400000.0625,7929.7099609375,1528.5,-400000.0625,-1150.93994140625,-400000.0625,9589.8603515625,-400000.0625
15.159837007522583,-400000.0625,7935.81005859375,1522.1099853515625,-400000.0625,-1138.9300537109375,-400000.0625,9592.4404296875,-400000.0625
15.191266298294067,-400000.0625,7936.2900390625,1517.6300048828125,-400000.0625,-1138.3499755859375,-400000.0625,9597.6396484375,-400000.0625
15.209099531173706,-400000.0625,7927.66015625,1518.1500244140625,-400000.0625,-1152.8499755859375,-400000.0625,9599.5,-400000.0625
15.227212905883789,-400000.0625,7919.31005859375,1512.6700439453125,-400000.0625,-1144.699951171875,-400000.0625,9589.48046875,-400000.0625
15.248258829116821,-400000.0625,7914.2099609375,1506.22998046875,-400000.0625,-1143.4599609375,-400000.0625,9586.0,-400000.0625
15.263454675674438,-400000.0625,7920.5498046875,1510.0999755859375,-400000.0625,-1160.4300537109375,-400000.0625,9592.009765625,-400000.0625
15.2969331741333,-400000.0625,7929.18017578125,1515.43994140625,-400000.0625,-1158.1400146484375,-400000.0625,9591.76953125,-400000.0625
15.318760395050049,-400000.0625,7915.93017578125,1506.760009765625,-400000.0625,-1145.97998046875,-400000.0625,9590.4404296875,-400000.0625
15.333521604537964,-400000.0625,7911.72998046875,1490.3499755859375,-400000.0625,-1166.199951171875,-400000.0625,9600.7802734375,-400000.0625
15.35350751876831,-400000.0625,7915.2099609375,1481.8199462890625,-400000.0625,-1170.5400390625,-400000.0625,9609.1796875,-400000.0625
15.367576837539673,-400000.0625,7918.5498046875,1476.81005859375,-400000.0625,-1165.719970703125,-400000.0625,9618.4296875,-400000.0625
15.399178266525269,-400000.0625,7916.2099609375,1467.989990234375,-400000.0625,-1168.72998046875,-400000.0625,9628.8203125,-400000.0625
15.419785022735596,-400000.0625,7905.8701171875,1452.5400390625,-400000.0625,-1164.010009765625,-400000.0625,9635.5400390625,-400000.0625
15.433204650878906,-400000.0625,7901.47998046875,1438.8599853515625,-400000.0625,-1168.780029296875,-400000.0625,9644.5595703125,-400000.0625
15.448208808898926,-400000.0625,7901.669921875,1433.6600341796875,-400000.0625,-1191.22998046875,-400000.0625,9651.3798828125,-400000.0625
15.46488618850708,-400000.0625,7902.18994140625,1429.3199462890625,-400000.0625,-1195.4300537109375,-400000.0625,9654.330078125,-400000.0625
15.480922222137451,-400000.0625,7904.47998046875,1428.030029296875,-400000.0625,-1190.1400146484375,-400000.0625,9662.5302734375,-400000.0625
15.52094054222107,-400000.0625,7911.830078125,1430.989990234375,-400000.0625,-1182.1700439453125,-400000.0625,9660.2900390625,-400000.0625
15.53541612625122,-400000.0625,7904.580078125,1424.27001953125,-400000.0625,-1176.449951171875,-400000.0625,9651.8095703125,-400000.0625
15.549379587173462,-400000.0625,7894.52001953125,1416.1099853515625,-400000.0625,-1185.1300048828125,-400000.0625,9648.1796875,-400000.0625
15.563983678817749,-400000.0625,7901.240234375,1422.1199951171875,-400000.0625,-1189.5699462890625,-400000.0625,9649.5595703125,-400000.0625
15.580908060073853,-400000.0625,7908.009765625,1431.0400390625,-400000.0625,-1177.97998046875,-400000.0625,9653.9501953125,-400000.0625
15.594942808151245,-400000.0625,7905.81982421875,1430.699951171875,-400000.0625,-1199.0999755859375,-400000.0625,9655.8603515625,-400000.0625
15.624477624893188,-400000.0625,7901.47998046875,1424.6500244140625,-400000.0625,-1198.9599609375,-400000.0625,9643.7001953125,-400000.0625
15.640983819961548,-400000.0625,7899.9501953125,1423.8800048828125,-400000.0625,-1170.43994140625,-400000.0625,9645.3701171875,-400000.0625
15.6563081741333,-400000.0625,7900.3798828125,1423.8800048828125,-400000.0625,-1162.3399658203125,-400000.0625,9648.4697265625,-400000.0625
15.6700758934021,-400000.0625,7901.91015625,1430.0799560546875,-400000.0625,-1171.3499755859375,-400000.0625,9652.330078125,-400000.0625
15.68748664855957,-400000.0625,7898.6201171875,1426.699951171875,-400000.0625,-1180.510009765625,-400000.0625,9652.66015625,-400000.0625
15.703945398330688,-400000.0625,7893.60986328125,1422.02001953125,-400000.0625,-1192.1400146484375,-400000.0625,9645.6103515625,-400000.0625
15.7361741065979,-400000.0625,7886.1201171875,1418.780029296875,-400000.0625,-1196.9599609375,-400000.0625,9643.4599609375,-400000.0625
15.751745700836182,-400000.0625,7886.89013671875,1421.9300537109375,-400000.0625,-1195.9100341796875,-400000.0625,9649.900390625,-400000.0625
15.767462015151978,-400000.0625,7891.22998046875,1422.31005859375,-400000.0625,-1220.510009765625,-400000.0625,9651.4697265625,-400000.0625
15.785093307495117,-400000.0625,7887.22021484375,1418.0699462890625,-400000.0625,-1190.52001953125,-400000.0625,9643.9404296875,-400000.0625
15.81810450553894,-400000.0625,7881.7900390625,1415.4000244140625,-400000.0625,-1160.0,-400000.0625,9640.7900390625,-400000.0625
15.85053825378418,-400000.0625,7877.2998046875,1417.780029296875,-400000.0625,-1165.6800537109375,-400000.0625,9644.8896484375,-400000.0625
15.865620613098145,-400000.0625,7863.7099609375,1431.8900146484375,-400000.0625,-1176.8800048828125,-400000.0625,9651.51953125,-400000.0625
15.883502006530762,-400000.0625,7868.2001953125,1439.6199951171875,-400000.0625,-1182.699951171875,-400000.0625,9653.7099609375,-400000.0625
15.898583889007568,-400000.0625,7863.759765625,1439.1400146484375,-400000.0625,-1175.7900390625,-400000.0625,9649.900390625,-400000.0625
15.917360782623291,-400000.0625,7852.080078125,1426.97998046875,-400000.0625,-1171.5899658203125,-400000.0625,9644.7998046875,-400000.0625
15.936448097229004,-400000.0625,7853.27001953125,1427.5999755859375,-400000.0625,-1170.5899658203125,-400000.0625,9649.1298828125,-400000.0625
15.976116418838501,-400000.0625,7874.8701171875,1427.27001953125,-400000.0625,-1174.260009765625,-400000.0625,9639.650390625,-400000.0625
timestamp,ch7,ch2,ch3,ch5,is_pause
16.001940488815308,-400000.0625,7837.9599609375,1424.550048828125,-400000.0625,-1169.25,-400000.0625,9629.2001953125,-400000.0625
16.020561933517456,-400000.0625,7869.52978515625,1422.0699462890625,-400000.0625,-1174.260009765625,-400000.0625,9620.51953125,-400000.0625
16.042348623275757,-400000.0625,7865.0,1398.3699951171875,-400000.0625,-1173.5400390625,-400000.0625,9601.740234375,-400000.0625
16.078188180923462,-400000.0625,7804.43994140625,1379.6800537109375,-400000.0625,-1173.8299560546875,-400000.0625,9605.5498046875,-400000.0625
16.0944082736969,-400000.0625,7793.85986328125,1362.75,-400000.0625,-1168.199951171875,-400000.0625,9616.5703125,-400000.0625
16.109172582626343,-400000.0625,7742.93017578125,1338.050048828125,-400000.0625,-1164.77001953125,-400000.0625,9617.7099609375,-400000.0625
16.131818056106567,-400000.0625,7673.7900390625,1305.010009765625,-400000.0625,-1155.9000244140625,-400000.0625,9612.3701171875,-400000.0625
16.14795994758606,-400000.0625,7617.52001953125,1274.300048828125,-400000.0625,-1136.4000244140625,-400000.0625,9604.169921875,-400000.0625
16.182005882263184,-400000.0625,7576.509765625,1247.4100341796875,-400000.0625,-1133.25,-400000.0625,9601.0703125,-400000.0625
16.19861149787903,-400000.0625,7560.39990234375,1232.0,-400000.0625,-1139.02001953125,-400000.0625,9613.0400390625,-400000.0625
16.213102340698242,-400000.0625,7547.08984375,1228.52001953125,-400000.0625,-1126.0,-400000.0625,9627.25,-400000.0625
16.229177474975586,-400000.0625,7536.7900390625,1224.469970703125,-400000.0625,-1119.7099609375,-400000.0625,9633.1103515625,-400000.0625
16.251440286636353,-400000.0625,7533.5,1209.9300537109375,-400000.0625,-1140.02001953125,-400000.0625,9640.6904296875,-400000.0625
16.27917242050171,-400000.0625,7531.740234375,1200.9100341796875,-400000.0625,-1161.81005859375,-400000.0625,9642.83984375,-400000.0625
16.296656131744385,-400000.0625,7516.0498046875,1196.3800048828125,-400000.0625,-1150.8900146484375,-400000.0625,9644.26953125,-400000.0625
16.312623739242554,-400000.0625,7518.2001953125,1197.0999755859375,-400000.0625,-1141.8800048828125,-400000.0625,9656.1904296875,-400000.0625
16.326555252075195,-400000.0625,7531.5,1196.6700439453125,-400000.0625,-1151.93994140625,-400000.0625,9659.2900390625,-400000.0625
16.339328050613403,-400000.0625,7536.75,1193.0,-400000.0625,-1170.300048828125,-400000.0625,9654.759765625,-400000.0625
16.355213403701782,-400000.0625,7543.14013671875,1187.989990234375,-400000.0625,-1169.43994140625,-400000.0625,9648.9404296875,-400000.0625
16.38229203224182,-400000.0625,7548.08984375,1189.3800048828125,-400000.0625,-1168.489990234375,-400000.0625,9655.2900390625,-400000.0625
16.39791703224182,-400000.0625,7567.5,1204.4000244140625,-400000.0625,-1171.5899658203125,-400000.0625,9660.5302734375,-400000.0625
16.41330337524414,-400000.0625,7583.669921875,1208.3499755859375,-400000.0625,-1183.3199462890625,-400000.0625,9659.009765625,-400000.0625
16.429439306259155,-400000.0625,7588.0498046875,1209.1199951171875,-400000.0625,-1184.8499755859375,-400000.0625,9657.5302734375,-400000.0625
16.448833227157593,-400000.0625,7600.93017578125,1212.8800048828125,-400000.0625,-1193.6700439453125,-400000.0625,9661.25,-400000.0625
16.466869592666626,-400000.0625,7613.7099609375,1215.27001953125,-400000.0625,-1204.1600341796875,-400000.0625,9663.0595703125,-400000.0625
16.49954128265381,-400000.0625,7627.14990234375,1224.0899658203125,-400000.0625,-1185.22998046875,-400000.0625,9666.9697265625,-400000.0625
16.518105030059814,-400000.0625,7633.77978515625,1228.1400146484375,-400000.0625,-1183.1300048828125,-400000.0625,9665.6796875,-400000.0625
16.543994188308716,-400000.0625,7638.22021484375,1226.81005859375,-400000.0625,-1183.699951171875,-400000.0625,9665.9697265625,-400000.0625
16.564764738082886,-400000.0625,7653.47998046875,1232.0999755859375,-400000.0625,-1203.8699951171875,-400000.0625,9672.599609375,-400000.0625
16.590463161468506,-400000.0625,7662.009765625,1235.9599609375,-400000.0625,-1218.27001953125,-400000.0625,9671.9296875,-400000.0625
16.63152503967285,-400000.0625,7668.93017578125,1242.5899658203125,-400000.0625,-1199.8199462890625,-400000.0625,9675.0703125,-400000.0625
16.64839744567871,-400000.0625,7679.64990234375,1244.31005859375,-400000.0625,-1199.199951171875,-400000.0625,9679.26953125,-400000.0625
16.668219566345215,-400000.0625,7684.3701171875,1246.9300537109375,-400000.0625,-1217.1700439453125,-400000.0625,9681.1298828125,-400000.0625
16.68572187423706,-400000.0625,7686.9501953125,1248.260009765625,-400000.0625,-1204.199951171875,-400000.0625,9679.509765625,-400000.0625
16.702053546905518,-400000.0625,7699.81982421875,1257.3699951171875,-400000.0625,-1193.3299560546875,-400000.0625,9678.8896484375,-400000.0625
16.745370149612427,-400000.0625,7711.7900390625,1269.0999755859375,-400000.0625,-1202.9599609375,-400000.0625,9687.0400390625,-400000.0625
16.7769296169281,-400000.0625,7715.080078125,1271.06005859375,-400000.0625,-1210.260009765625,-400000.0625,9693.099609375,-400000.0625
16.809847354888916,-400000.0625,7713.02978515625,1264.8599853515625,-400000.0625,-1214.219970703125,-400000.0625,9690.099609375,-400000.0625
16.85226011276245,-400000.0625,7715.75,1264.2900390625,-400000.0625,-1218.27001953125,-400000.0625,9689.669921875,-400000.0625
16.86583423614502,-400000.0625,7727.43017578125,1271.6800537109375,-400000.0625,-1231.239990234375,-400000.0625,9694.6298828125,-400000.0625
16.88173747062683,-400000.0625,7736.68017578125,1279.68994140625,-400000.0625,-1241.72998046875,-400000.0625,9704.919921875,-400000.0625
16.897783756256104,-400000.0625,7739.740234375,1280.449951171875,-400000.0625,-1238.8199462890625,-400000.0625,9706.3603515625,-400000.0625
16.912261724472046,-400000.0625,7732.77001953125,1276.9200439453125,-400000.0625,-1200.530029296875,-400000.0625,9697.150390625,-400000.0625
16.953919172286987,-400000.0625,7733.16015625,1275.1099853515625,-400000.0625,-1197.530029296875,-400000.0625,9694.150390625,-400000.0625
16.972225666046143,-400000.0625,7737.919921875,1278.780029296875,-400000.0625,-1212.0699462890625,-400000.0625,9693.580078125,-400000.0625
16.984605312347412,-400000.0625,7744.93017578125,1284.27001953125,-400000.0625,-1225.3800048828125,-400000.0625,9696.3896484375,-400000.0625
16.99740195274353,-400000.0625,7745.02978515625,1284.4100341796875,-400000.0625,-1230.81005859375,-400000.0625,9695.7197265625,-400000.0625
17.013952255249023,-400000.0625,7742.4501953125,1283.6500244140625,-400000.0625,-1225.9000244140625,-400000.0625,9693.33984375,-400000.0625
17.04474973678589,-400000.0625,7747.169921875,1286.6500244140625,-400000.0625,-1220.6600341796875,-400000.0625,9692.48046875,-400000.0625
17.06949257850647,-400000.0625,7757.52001953125,1293.0899658203125,-400000.0625,-1222.0400390625,-400000.0625,9696.2001953125,-400000.0625
17.095689058303833,-400000.0625,7761.6201171875,1298.6199951171875,-400000.0625,-1230.0999755859375,-400000.0625,9702.1103515625,-400000.0625
17.11356496810913,-400000.0625,7761.3798828125,1299.2900390625,-400000.0625,-1226.280029296875,-400000.0625,9698.0595703125,-400000.0625
17.127272129058838,-400000.0625,7758.81005859375,1294.800048828125,-400000.0625,-1221.22998046875,-400000.0625,9692.48046875,-400000.0625
17.164474487304688,-400000.0625,7757.14013671875,1292.0400390625,-400000.0625,-1223.6600341796875,-400000.0625,9688.4296875,-400000.0625
17.180477380752563,-400000.0625,7761.669921875,1295.22998046875,-400000.0625,-1231.2900390625,-400000.0625,9691.669921875,-400000.0625
17.19477915763855,-400000.0625,7768.35009765625,1301.2900390625,-400000.0625,-1218.030029296875,-400000.0625,9694.240234375,-400000.0625
17.21278715133667,-400000.0625,7773.10986328125,1301.719970703125,-400000.0625,-1234.3900146484375,-400000.0625,9695.009765625,-400000.0625
17.225884437561035,-400000.0625,7767.39013671875,1296.1400146484375,-400000.0625,-1244.969970703125,-400000.0625,9689.6201171875,-400000.0625
17.239433526992798,-400000.0625,7759.0498046875,1291.3199462890625,-400000.0625,-1211.739990234375,-400000.0625,9680.990234375,-400000.0625
17.278106212615967,-400000.0625,7760.81005859375,1293.56005859375,-400000.0625,-1229.1400146484375,-400000.0625,9686.3798828125,-400000.0625
17.293879985809326,-400000.0625,7768.009765625,1299.2900390625,-400000.0625,-1235.0999755859375,-400000.0625,9689.1396484375,-400000.0625
17.30837917327881,-400000.0625,7768.580078125,1297.760009765625,-400000.0625,-1226.760009765625,-400000.0625,9687.3798828125,-400000.0625
17.32694911956787,-400000.0625,7766.33984375,1297.3800048828125,-400000.0625,-1226.18994140625,-400000.0625,9686.849609375,-400000.0625
17.353060483932495,-400000.0625,7768.06005859375,1300.050048828125,-400000.0625,-1225.3299560546875,-400000.0625,9688.1396484375,-400000.0625
17.397237539291382,-400000.0625,7770.68017578125,1300.8599853515625,-400000.0625,-1228.6700439453125,-400000.0625,9689.669921875,-400000.0625
17.4328191280365,-400000.0625,7778.5,1305.9599609375,-400000.0625,-1223.3299560546875,-400000.0625,9692.0,-400000.0625
17.454236030578613,-400000.0625,7774.830078125,1305.06005859375,-400000.0625,-1225.5699462890625,-400000.0625,9692.8603515625,-400000.0625
17.491601705551147,-400000.0625,7770.77978515625,1302.2900390625,-400000.0625,-1240.969970703125,-400000.0625,9688.1904296875,-400000.0625
17.53192949295044,-400000.0625,7771.68017578125,1303.0999755859375,-400000.0625,-1241.02001953125,-400000.0625,9681.509765625,-400000.0625
17.555862188339233,-400000.0625,7767.14990234375,1305.9599609375,-400000.0625,-1222.1300048828125,-400000.0625,9678.8896484375,-400000.0625
17.59958052635193,-400000.0625,7770.25,1312.68994140625,-400000.0625,-1234.0999755859375,-400000.0625,9686.330078125,-400000.0625
17.63269305229187,-400000.0625,7774.1201171875,1304.43994140625,-400000.0625,-1241.780029296875,-400000.0625,9692.48046875,-400000.0625
17.65684676170349,-400000.0625,7769.39013671875,1291.699951171875,-400000.0625,-1228.050048828125,-400000.0625,9690.0,-400000.0625
17.72476553916931,-400000.0625,7758.43017578125,1285.1199951171875,-400000.0625,-1234.8699951171875,-400000.0625,9686.6103515625,-400000.0625
17.744317770004272,-400000.0625,7758.56982421875,1287.5999755859375,-400000.0625,-1235.9599609375,-400000.0625,9688.0,-400000.0625
17.76437520980835,-400000.0625,7764.580078125,1288.699951171875,-400000.0625,-1230.0999755859375,-400000.0625,9690.759765625,-400000.0625
17.82595944404602,-400000.0625,7761.43017578125,1287.6500244140625,-400000.0625,-1226.3299560546875,-400000.0625,9692.8095703125,-400000.0625
17.843830585479736,-400000.0625,7756.47021484375,1284.8900146484375,-400000.0625,-1235.3399658203125,-400000.0625,9693.76953125,-400000.0625
17.866538286209106,-400000.0625,7762.18994140625,1288.800048828125,-400000.0625,-1234.050048828125,-400000.0625,9692.2900390625,-400000.0625
17.924763441085815,-400000.0625,7767.72998046875,1290.8900146484375,-400000.0625,-1236.5799560546875,-400000.0625,9694.33984375,-400000.0625
17.952886819839478,-400000.0625,7769.77978515625,1294.4200439453125,-400000.0625,-1240.1600341796875,-400000.0625,9697.9599609375,-400000.0625
17.98089361190796,-400000.0625,7768.5400390625,1292.469970703125,-400000.0625,-1247.1700439453125,-400000.0625,9694.3896484375,-400000.0625
18.02907943725586,-400000.0625,7760.669921875,1285.3599853515625,-400000.0625,-1256.56005859375,-400000.0625,9689.2802734375,-400000.0625
18.05134677886963,-400000.0625,7759.240234375,1285.9300537109375,-400000.0625,-1234.8199462890625,-400000.0625,9688.2802734375,-400000.0625
18.07142686843872,-400000.0625,7767.2001953125,1290.75,-400000.0625,-1231.0,-400000.0625,9692.3798828125,-400000.0625
18.100467443466187,-400000.0625,7768.68017578125,1295.6099853515625,-400000.0625,-1235.6800537109375,-400000.0625,9692.5703125,-400000.0625
18.15252709388733,-400000.0625,7767.8701171875,1293.989990234375,-400000.0625,-1239.8699951171875,-400000.0625,9690.9501953125,-400000.0625
18.17422318458557,-400000.0625,7764.009765625,1288.1300048828125,-400000.0625,-1249.8900146484375,-400000.0625,9681.419921875,-400000.0625
18.197076320648193,-400000.0625,7768.06005859375,1287.3199462890625,-400000.0625,-1256.1800537109375,-400000.0625,9682.6103515625,-400000.0625
18.21931290626526,-400000.0625,7764.52978515625,1286.3199462890625,-400000.0625,-1241.4000244140625,-400000.0625,9682.2802734375,-400000.0625
18.2721266746521,-400000.0625,7762.669921875,1285.739990234375,-400000.0625,-1240.72998046875,-400000.0625,9682.9404296875,-400000.0625
18.303253650665283,-400000.0625,7758.330078125,1283.739990234375,-400000.0625,-1247.260009765625,-400000.0625,9682.080078125,-400000.0625
18.337849140167236,-400000.0625,7754.52001953125,1282.8399658203125,-400000.0625,-1235.010009765625,-400000.0625,9674.6904296875,-400000.0625
18.372543811798096,-400000.0625,7751.60986328125,1281.2099609375,-400000.0625,-1240.1099853515625,-400000.0625,9669.1103515625,-400000.0625
18.39645290374756,-400000.0625,7754.27978515625,1284.7900390625,-400000.0625,-1243.8800048828125,-400000.0625,9671.5498046875,-400000.0625
18.426623106002808,-400000.0625,7761.2900390625,1289.510009765625,-400000.0625,-1239.25,-400000.0625,9678.599609375,-400000.0625
18.44151735305786,-400000.0625,7764.0498046875,1291.699951171875,-400000.0625,-1239.6300048828125,-400000.0625,9678.509765625,-400000.0625
18.48002314567566,-400000.0625,7755.60986328125,1288.219970703125,-400000.0625,-1253.699951171875,-400000.0625,9669.3095703125,-400000.0625
18.499102115631104,-400000.0625,7755.759765625,1283.550048828125,-400000.0625,-1276.2099609375,-400000.0625,9664.2001953125,-400000.0625
18.512821912765503,-400000.0625,7758.18994140625,1285.4599609375,-400000.0625,-1280.1600341796875,-400000.0625,9664.25,-400000.0625
18.533717393875122,-400000.0625,7759.2900390625,1289.3699951171875,-400000.0625,-1251.97998046875,-400000.0625,9669.5,-400000.0625
18.561943292617798,-400000.0625,7761.14990234375,1292.0400390625,-400000.0625,-1224.7099609375,-400000.0625,9666.16015625,-400000.0625
18.61586356163025,-400000.0625,7755.14013671875,1287.75,-400000.0625,-1226.469970703125,-400000.0625,9662.6298828125,-400000.0625
18.635640621185303,-400000.0625,7752.93994140625,1280.97998046875,-400000.0625,-1263.5699462890625,-400000.0625,9662.6796875,-400000.0625
18.649457454681396,-400000.0625,7754.27978515625,1284.4599609375,-400000.0625,-1261.760009765625,-400000.0625,9658.48046875,-400000.0625
18.668781042099,-400000.0625,7760.0,1294.7099609375,-400000.0625,-1233.530029296875,-400000.0625,9663.8203125,-400000.0625
18.719523429870605,-400000.0625,7758.85986328125,1294.280029296875,-400000.0625,-1243.4000244140625,-400000.0625,9664.919921875,-400000.0625
18.73758602142334,-400000.0625,7755.7099609375,1287.93994140625,-400000.0625,-1240.5899658203125,-400000.0625,9656.91015625,-400000.0625
18.76953649520874,-400000.0625,7754.60986328125,1285.5999755859375,-400000.0625,-1237.06005859375,-400000.0625,9654.7099609375,-400000.0625
18.82928228378296,-400000.0625,7754.7099609375,1287.8900146484375,-400000.0625,-1243.8800048828125,-400000.0625,9657.0,-400000.0625
18.84998393058777,-400000.0625,7763.14990234375,1296.7099609375,-400000.0625,-1238.199951171875,-400000.0625,9656.9501953125,-400000.0625
18.865951538085938,-400000.0625,7760.240234375,1295.469970703125,-400000.0625,-1245.2099609375,-400000.0625,9657.91015625,-400000.0625
18.89368724822998,-400000.0625,7755.18994140625,1287.8900146484375,-400000.0625,-1256.6600341796875,-400000.0625,9651.9501953125,-400000.0625
18.937122583389282,-400000.0625,7747.02978515625,1279.6400146484375,-400000.0625,-1254.8399658203125,-400000.0625,9644.3203125,-400000.0625
18.966840505599976,-400000.0625,7750.509765625,1284.6500244140625,-400000.0625,-1246.2099609375,-400000.0625,9645.8896484375,-400000.0625
18.993644952774048,-400000.0625,7758.56982421875,1289.56005859375,-400000.0625,-1251.219970703125,-400000.0625,9654.08984375,-400000.0625
19.062159299850464,-400000.0625,7751.75,1351.7900390625,-400000.0625,-1304.199951171875,-400000.0625,8815.9599609375,-400000.0625
19.117112636566162,-400000.0625,7742.35986328125,1346.02001953125,-400000.0625,-1330.0400390625,-400000.0625,8809.759765625,-400000.0625
19.24032163619995,-400000.0625,7736.490234375,1346.4000244140625,-400000.0625,-1323.3699951171875,-400000.0625,8808.1396484375,-400000.0625
19.30917763710022,-400000.0625,7714.89013671875,1329.3299560546875,-400000.0625,-1340.47998046875,-400000.0625,8789.01953125,-400000.0625
19.39909291267395,-400000.0625,7721.9501953125,1336.1500244140625,-400000.0625,-1319.550048828125,-400000.0625,8763.3603515625,-400000.0625
19.503188133239746,-400000.0625,7715.509765625,1340.06005859375,-400000.0625,-1330.800048828125,-400000.0625,8749.6796875,-400000.0625
19.583441734313965,-400000.0625,7713.509765625,1340.43994140625,-400000.0625,-1306.3399658203125,-400000.0625,8746.580078125,-400000.0625
19.628799438476562,-400000.0625,7705.64013671875,1340.719970703125,-400000.0625,-1337.9599609375,-400000.0625,8738.9501953125,-400000.0625
19.709885835647583,-400000.0625,7701.39990234375,1335.760009765625,-400000.0625,-1337.3900146484375,-400000.0625,8732.7001953125,-400000.0625
19.762491703033447,-400000.0625,7672.8798828125,1290.4599609375,-400000.0625,-1349.1600341796875,-400000.0625,8783.76953125,-400000.0625
19.923258781433105,-400000.0625,7648.85009765625,1245.780029296875,-400000.0625,-1355.1700439453125,-400000.0625,8790.4501953125,-400000.0625
19.972136735916138,-400000.0625,7685.9501953125,1329.1800537109375,-400000.0625,-1354.27001953125,-400000.0625,8691.740234375,-400000.0625
20.018624544143677,-400000.0625,7671.7900390625,1324.4200439453125,-400000.0625,-1362.4200439453125,-400000.0625,8682.8701171875,-400000.0625
20.077000379562378,-400000.0625,7670.35986328125,1327.1300048828125,-400000.0625,-1342.1099853515625,-400000.0625,8680.150390625,-400000.0625
20.155457973480225,-400000.0625,7673.7900390625,1329.5699462890625,-400000.0625,-1350.550048828125,-400000.0625,8669.1904296875,-400000.0625
20.218477964401245,-400000.0625,7667.97021484375,1326.699951171875,-400000.0625,-1326.469970703125,-400000.0625,8668.3798828125,-400000.0625
20.298176050186157,-400000.0625,7660.06005859375,1321.93994140625,-400000.0625,-1360.3699951171875,-400000.0625,8659.0302734375,-400000.0625
20.40106511116028,-400000.0625,7656.33984375,1321.75,-400000.0625,-1364.989990234375,-400000.0625,8651.4501953125,-400000.0625
20.526796579360962,-400000.0625,7645.27001953125,1309.5400390625,-400000.0625,-1358.3199462890625,-400000.0625,8646.0595703125,-400000.0625
20.71169114112854,-400000.0625,7642.22021484375,1314.1199951171875,-400000.0625,-1369.050048828125,-400000.0625,8639.0,-400000.0625
20.74673104286194,-400000.0625,7632.919921875,1302.9599609375,-400000.0625,-1387.31005859375,-400000.0625,8620.5,-400000.0625
20.782663106918335,-400000.0625,7648.85009765625,1319.27001953125,-400000.0625,-1380.72998046875,-400000.0625,8616.6904296875,-400000.0625
20.847176790237427,-400000.0625,7646.22998046875,1318.5999755859375,-400000.0625,-1366.22998046875,-400000.0625,8600.1396484375,-400000.0625
20.911212921142578,-400000.0625,7645.75,1320.9300537109375,-400000.0625,-1362.75,-400000.0625,8607.5302734375,-400000.0625
20.979714393615723,-400000.0625,7636.06982421875,1313.02001953125,-400000.0625,-1375.6800537109375,-400000.0625,8591.83984375,-400000.0625
21.05717635154724,-400000.0625,7631.58984375,1310.489990234375,-400000.0625,-1366.18994140625,-400000.0625,8582.7802734375,-400000.0625
21.11052966117859,-400000.0625,7625.81982421875,1307.3900146484375,-400000.0625,-1384.449951171875,-400000.0625,8570.580078125,-400000.0625
21.228513717651367,-400000.0625,7625.9599609375,1308.8199462890625,-400000.0625,-1362.4200439453125,-400000.0625,8564.1904296875,-400000.0625
21.296188354492188,-400000.0625,7620.9599609375,1314.68994140625,-400000.0625,-1351.2099609375,-400000.0625,8557.0302734375,-400000.0625
21.356040000915527,-400000.0625,7616.56982421875,1303.5799560546875,-400000.0625,-1402.469970703125,-400000.0625,8545.6396484375,-400000.0625
21.43004035949707,-400000.0625,7527.5400390625,1161.1500244140625,-400000.0625,-1427.6500244140625,-400000.0625,8664.1796875,-400000.0625
21.498706340789795,-400000.0625,7478.91015625,1094.8199462890625,-400000.0625,-1448.3499755859375,-400000.0625,8750.76953125,-400000.0625
21.55986785888672,-400000.0625,7504.080078125,1118.989990234375,-400000.0625,-1460.8399658203125,-400000.0625,8756.4501953125,-400000.0625
21.612436532974243,-400000.0625,7491.77978515625,1114.989990234375,-400000.0625,-1473.239990234375,-400000.0625,8760.0703125,-400000.0625
21.681373834609985,-400000.0625,7483.85986328125,1113.27001953125,-400000.0625,-1471.7099609375,-400000.0625,8748.2001953125,-400000.0625
21.78573250770569,-400000.0625,7481.0,1108.3599853515625,-400000.0625,-1460.739990234375,-400000.0625,8735.1298828125,-400000.0625
21.872658729553223,-400000.0625,7481.33984375,1112.030029296875,-400000.0625,-1445.47998046875,-400000.0625,8725.7900390625,-400000.0625
21.9467613697052,-400000.0625,7495.58984375,1122.4300537109375,-400000.0625,-1447.8699951171875,-400000.0625,8734.0400390625,-400000.0625
21.998178243637085,-400000.0625,7481.52978515625,1104.780029296875,-400000.0625,-1464.6500244140625,-400000.0625,8730.3203125,-400000.0625
22.064186573028564,-400000.0625,7474.08984375,1098.72998046875,-400000.0625,-1465.0799560546875,-400000.0625,8727.2197265625,-400000.0625
22.145941257476807,-400000.0625,7468.080078125,1093.8599853515625,-400000.0625,-1476.3800048828125,-400000.0625,8704.4697265625,-400000.0625
22.20828366279602,-400000.0625,7474.7099609375,1102.5,-400000.0625,-1466.1300048828125,-400000.0625,8708.3798828125,-400000.0625
22.265290021896362,-400000.0625,7475.52001953125,1107.550048828125,-400000.0625,-1469.4200439453125,-400000.0625,8700.9404296875,-400000.0625
22.319701671600342,-400000.0625,7463.22021484375,1101.4000244140625,-400000.0625,-1462.75,-400000.0625,8695.5595703125,-400000.0625
22.395920515060425,-400000.0625,7455.39990234375,1098.6800537109375,-400000.0625,-1484.25,-400000.0625,8682.400390625,-400000.0625
22.541983604431152,-400000.0625,7467.4599609375,1105.449951171875,-400000.0625,-1489.8800048828125,-400000.0625,8684.5400390625,-400000.0625
22.581911325454712,-400000.0625,7468.60986328125,1110.7900390625,-400000.0625,-1491.3599853515625,-400000.0625,8682.0595703125,-400000.0625
22.70600962638855,-400000.0625,7459.68994140625,1105.8800048828125,-400000.0625,-1485.06005859375,-400000.0625,8650.2099609375,-400000.0625
22.763132572174072,-400000.0625,7466.4599609375,1111.1700439453125,-400000.0625,-1495.9300537109375,-400000.0625,8651.16015625,-400000.0625
22.830824851989746,-400000.0625,7461.93017578125,1108.31005859375,-400000.0625,-1474.4300537109375,-400000.0625,8639.3798828125,-400000.0625
22.907984256744385,-400000.0625,7463.27001953125,1114.3199462890625,-400000.0625,-1491.3599853515625,-400000.0625,8639.150390625,-400000.0625
22.96455430984497,-400000.0625,7459.8798828125,1110.510009765625,-400000.0625,-1476.2900390625,-400000.0625,8629.5595703125,-400000.0625
23.024757862091064,-400000.0625,7455.16015625,1106.260009765625,-400000.0625,-1491.02001953125,-400000.0625,8623.3603515625,-400000.0625
23.10818648338318,-400000.0625,7458.02001953125,1110.7900390625,-400000.0625,-1505.7099609375,-400000.0625,8616.830078125,-400000.0625
23.16359257698059,-400000.0625,7464.7001953125,1119.280029296875,-400000.0625,-1487.6400146484375,-400000.0625,8616.8798828125,-400000.0625
23.302314043045044,-400000.0625,7452.009765625,1108.9300537109375,-400000.0625,-1501.4200439453125,-400000.0625,8602.51953125,-400000.0625
23.407095432281494,-400000.0625,7458.5,1125.050048828125,-400000.0625,-1473.0,-400000.0625,8539.25,-400000.0625
23.46825671195984,-400000.0625,7502.7001953125,1265.6199951171875,-400000.0625,-1399.0400390625,-400000.0625,8330.490234375,-400000.0625
23.63576626777649,-400000.0625,7571.97998046875,1299.4300537109375,-400000.0625,-1412.9200439453125,-400000.0625,8364.3896484375,-400000.0625
23.723223209381104,-400000.0625,7572.27001953125,1299.6700439453125,-400000.0625,-1415.1099853515625,-400000.0625,8354.0400390625,-400000.0625
23.808902978897095,-400000.0625,7576.18017578125,1307.9599609375,-400000.0625,-1402.469970703125,-400000.0625,8345.26953125,-400000.0625
23.86053466796875,-400000.0625,7574.509765625,1306.489990234375,-400000.0625,-1423.1700439453125,-400000.0625,8347.0400390625,-400000.0625
23.919493198394775,-400000.0625,7577.3701171875,1306.8699951171875,-400000.0625,-1416.1099853515625,-400000.0625,8344.7001953125,-400000.0625
24.11628007888794,-400000.0625,7568.7900390625,1303.530029296875,-400000.0625,-1422.5,-400000.0625,8320.8095703125,-400000.0625
24.178672790527344,-400000.0625,7583.43017578125,1314.31005859375,-400000.0625,-1399.0899658203125,-400000.0625,8322.4296875,-400000.0625
24.244903564453125,-400000.0625,7572.4599609375,1309.6800537109375,-400000.0625,-1405.2900390625,-400000.0625,8310.3701171875,-400000.0625
24.299838542938232,-400000.0625,7570.89013671875,1303.77001953125,-400000.0625,-1417.6800537109375,-400000.0625,8305.740234375,-400000.0625
24.372107982635498,-400000.0625,7565.2099609375,1301.0,-400000.0625,-1428.030029296875,-400000.0625,8311.1796875,-400000.0625
24.431724309921265,-400000.0625,7563.58984375,1300.530029296875,-400000.0625,-1433.0899658203125,-400000.0625,8304.5498046875,-400000.0625
24.502134323120117,-400000.0625,7567.7900390625,1304.719970703125,-400000.0625,-1412.300048828125,-400000.0625,8306.9296875,-400000.0625
24.557498693466187,-400000.0625,7571.509765625,1308.6800537109375,-400000.0625,-1404.5699462890625,-400000.0625,8292.33984375,-400000.0625
24.619986534118652,-400000.0625,7565.7900390625,1297.52001953125,-400000.0625,-1440.949951171875,-400000.0625,8289.33984375,-400000.0625
24.728067636489868,-400000.0625,7566.02001953125,1292.22998046875,-400000.0625,-1430.6099853515625,-400000.0625,8283.66015625,-400000.0625
24.87694001197815,-400000.0625,7583.08984375,1311.6400146484375,-400000.0625,-1417.8800048828125,-400000.0625,8288.9599609375,-400000.0625
24.961896181106567,-400000.0625,7583.14013671875,1321.75,-400000.0625,-1417.2099609375,-400000.0625,8276.419921875,-400000.0625
25.01567268371582,-400000.0625,7573.27001953125,1313.5899658203125,-400000.0625,-1421.7900390625,-400000.0625,8278.900390625,-400000.0625
25.13229250907898,-400000.0625,7598.58984375,1333.760009765625,-400000.0625,-1398.280029296875,-400000.0625,8288.669921875,-400000.0625
25.200542211532593,-400000.0625,7583.759765625,1326.6099853515625,-400000.0625,-1400.800048828125,-400000.0625,8281.1396484375,-400000.0625
25.265750408172607,-400000.0625,7708.35986328125,1478.0,-400000.0625,-1380.06005859375,-400000.0625,8155.490234375,-400000.0625
25.327121019363403,-400000.0625,7696.52978515625,1477.18994140625,-400000.0625,-1351.0699462890625,-400000.0625,8155.06005859375,-400000.0625
25.398763179779053,-400000.0625,7696.10009765625,1490.449951171875,-400000.0625,-1368.050048828125,-400000.0625,8152.52978515625,-400000.0625
25.477124214172363,-400000.0625,7698.25,1492.4100341796875,-400000.0625,-1363.989990234375,-400000.0625,8154.39013671875,-400000.0625
25.51640748977661,-400000.0625,7706.35986328125,1539.760009765625,-400000.0625,-1354.31005859375,-400000.0625,8097.7001953125,-400000.0625
25.65317988395691,-400000.0625,7707.83984375,1537.280029296875,-400000.0625,-1378.72998046875,-400000.0625,8086.2099609375,-400000.0625
25.79683756828308,-400000.0625,7726.77001953125,1553.3900146484375,-400000.0625,-1381.5899658203125,-400000.0625,8102.56005859375,-400000.0625
25.86734652519226,-400000.0625,7728.009765625,1556.489990234375,-400000.0625,-1383.5400390625,-400000.0625,8106.330078125,-400000.0625
25.96508002281189,-400000.0625,7712.56005859375,1547.239990234375,-400000.0625,-1368.9000244140625,-400000.0625,8085.97021484375,-400000.0625
26.029988527297974,-400000.0625,7716.419921875,1555.72998046875,-400000.0625,-1358.4599609375,-400000.0625,8089.02001953125,-400000.0625
26.09636378288269,-400000.0625,7719.47021484375,1556.5400390625,-400000.0625,-1368.8599853515625,-400000.0625,8089.919921875,-400000.0625
26.222139596939087,-400000.0625,7710.89013671875,1548.5799560546875,-400000.0625,-1374.3399658203125,-400000.0625,8085.2998046875,-400000.0625
26.302292346954346,-400000.0625,7672.35986328125,1516.43994140625,-400000.0625,-1380.010009765625,-400000.0625,8088.4501953125,-400000.0625
26.35593819618225,-400000.0625,7665.58984375,1505.800048828125,-400000.0625,-1389.5999755859375,-400000.0625,8088.68994140625,-400000.0625
26.41566252708435,-400000.0625,7632.06982421875,1450.300048828125,-400000.0625,-1398.280029296875,-400000.0625,8138.7099609375,-400000.0625
26.475672960281372,-400000.0625,7539.22998046875,1309.489990234375,-400000.0625,-1432.3699951171875,-400000.0625,8219.0498046875,-400000.0625
26.61398720741272,-400000.0625,7525.35009765625,1293.7099609375,-400000.0625,-1440.239990234375,-400000.0625,8212.419921875,-400000.0625
26.670276880264282,-400000.0625,7482.43017578125,1245.5899658203125,-400000.0625,-1453.1099853515625,-400000.0625,8234.0703125,-400000.0625
26.74602699279785,-400000.0625,7489.25,1256.699951171875,-400000.0625,-1451.1099853515625,-400000.0625,8244.23046875,-400000.0625
26.81118679046631,-400000.0625,7486.25,1257.6600341796875,-400000.0625,-1446.8699951171875,-400000.0625,8230.3095703125,-400000.0625
26.864822387695312,-400000.0625,7497.4501953125,1265.6700439453125,-400000.0625,-1442.1500244140625,-400000.0625,8240.7998046875,-400000.0625
26.942257404327393,-400000.0625,7489.72998046875,1251.510009765625,-400000.0625,-1452.06005859375,-400000.0625,8228.2099609375,-400000.0625
26.996949672698975,-400000.0625,7493.16015625,1253.8399658203125,-400000.0625,-1467.56005859375,-400000.0625,8231.830078125,-400000.0625
27.053582429885864,-400000.0625,7503.18017578125,1267.2900390625,-400000.0625,-1460.97998046875,-400000.0625,8245.990234375,-400000.0625
27.11849021911621,-400000.0625,7503.4599609375,1266.4300537109375,-400000.0625,-1456.5899658203125,-400000.0625,8235.650390625,-400000.0625
timestamp,ch7,ch2,ch3,ch5,is_pause
27.179646968841553,-400000.0625,7506.89990234375,1270.3399658203125,-400000.0625,-1467.989990234375,-400000.0625,8239.26953125,-400000.0625
27.204814434051514,-400000.0625,7494.8798828125,1259.5699462890625,-400000.0625,-1450.43994140625,-400000.0625,8231.349609375,-400000.0625
27.218960523605347,-400000.0625,7499.1201171875,1260.4200439453125,-400000.0625,-1458.5999755859375,-400000.0625,8233.740234375,-400000.0625
27.264015674591064,-400000.0625,7505.7001953125,1269.8199462890625,-400000.0625,-1436.18994140625,-400000.0625,8239.7900390625,-400000.0625
27.281126976013184,-400000.0625,7510.27978515625,1276.02001953125,-400000.0625,-1434.6600341796875,-400000.0625,8245.3701171875,-400000.0625
27.297297954559326,-400000.0625,7506.89990234375,1271.010009765625,-400000.0625,-1438.8599853515625,-400000.0625,8236.5498046875,-400000.0625
27.313780307769775,-400000.0625,7497.83984375,1262.239990234375,-400000.0625,-1446.2900390625,-400000.0625,8231.01953125,-400000.0625
27.333728313446045,-400000.0625,7496.97998046875,1260.7099609375,-400000.0625,-1456.550048828125,-400000.0625,8231.01953125,-400000.0625
27.368895769119263,-400000.0625,7499.83984375,1267.3900146484375,-400000.0625,-1455.68994140625,-400000.0625,8234.3095703125,-400000.0625
27.38418936729431,-400000.0625,7511.81005859375,1277.68994140625,-400000.0625,-1440.530029296875,-400000.0625,8240.509765625,-400000.0625
27.400660276412964,-400000.0625,7507.22998046875,1273.300048828125,-400000.0625,-1432.22998046875,-400000.0625,8239.3203125,-400000.0625
27.414026498794556,-400000.0625,7498.93017578125,1264.3800048828125,-400000.0625,-1432.1300048828125,-400000.0625,8229.2099609375,-400000.0625
27.42518901824951,-400000.0625,7498.89013671875,1263.3800048828125,-400000.0625,-1443.8199462890625,-400000.0625,8228.349609375,-400000.0625
27.440621852874756,-400000.0625,7506.27978515625,1270.489990234375,-400000.0625,-1451.3499755859375,-400000.0625,8233.0703125,-400000.0625
27.472183227539062,-400000.0625,7509.9501953125,1274.780029296875,-400000.0625,-1454.4000244140625,-400000.0625,8235.740234375,-400000.0625
27.48730754852295,-400000.0625,7498.1201171875,1268.0999755859375,-400000.0625,-1451.5899658203125,-400000.0625,8237.3603515625,-400000.0625
27.505939722061157,-400000.0625,7492.72998046875,1261.4300537109375,-400000.0625,-1452.02001953125,-400000.0625,8228.349609375,-400000.0625
27.521860361099243,-400000.0625,7499.83984375,1262.0,-400000.0625,-1469.949951171875,-400000.0625,8229.6904296875,-400000.0625
27.54389262199402,-400000.0625,7502.1298828125,1267.3900146484375,-400000.0625,-1475.949951171875,-400000.0625,8236.5,-400000.0625
27.57682991027832,-400000.0625,7504.3701171875,1270.6300048828125,-400000.0625,-1436.8499755859375,-400000.0625,8239.7900390625,-400000.0625
27.597556114196777,-400000.0625,7501.7001953125,1264.760009765625,-400000.0625,-1430.1300048828125,-400000.0625,8237.8896484375,-400000.0625
27.614503622055054,-400000.0625,7498.7900390625,1258.9000244140625,-400000.0625,-1444.010009765625,-400000.0625,8228.9697265625,-400000.0625
27.629725456237793,-400000.0625,7500.60009765625,1259.989990234375,-400000.0625,-1452.4000244140625,-400000.0625,8230.9697265625,-400000.0625
27.64448308944702,-400000.0625,7505.31982421875,1265.81005859375,-400000.0625,-1456.8299560546875,-400000.0625,8236.1201171875,-400000.0625
27.674787998199463,-400000.0625,7506.27978515625,1267.9100341796875,-400000.0625,-1459.1199951171875,-400000.0625,8235.1201171875,-400000.0625
27.69357657432556,-400000.0625,7495.5498046875,1260.4200439453125,-400000.0625,-1456.1199951171875,-400000.0625,8231.259765625,-400000.0625
27.709100246429443,-400000.0625,7497.259765625,1257.22998046875,-400000.0625,-1473.6199951171875,-400000.0625,8230.16015625,-400000.0625
27.72681999206543,-400000.0625,7496.93017578125,1258.3699951171875,-400000.0625,-1448.199951171875,-400000.0625,8228.73046875,-400000.0625
27.740601301193237,-400000.0625,7496.740234375,1262.239990234375,-400000.0625,-1434.1800537109375,-400000.0625,8231.5,-400000.0625
