time,ch1,ch2,ch3,ch4,ch5,ch6,ch7,ch8
234.3475832939148,-400000.0625,6366.830078125,457.04998779296875,-400000.0625,-2287.580078125,-400000.0625,5011.1298828125,-400000.0625
234.36864352226257,-400000.0625,6367.35009765625,454.19000244140625,-400000.0625,-2277.89990234375,-400000.0625,5008.27001953125,-400000.0625
234.4199047088623,-400000.0625,6344.4599609375,429.5799865722656,-400000.0625,-2286.050048828125,-400000.0625,4986.759765625,-400000.0625
234.48104310035706,-400000.0625,6330.919921875,420.0,-400000.0625,-2307.219970703125,-400000.0625,4971.740234375,-400000.0625
234.51037669181824,-400000.0625,6348.3701171875,435.29998779296875,-400000.0625,-2296.590087890625,-400000.0625,4987.3798828125,-400000.0625
234.53649163246155,-400000.0625,6367.8701171875,453.3800048828125,-400000.0625,-2282.570068359375,-400000.0625,5011.990234375,-400000.0625
234.58541750907898,-400000.0625,6367.4501953125,455.04998779296875,-400000.0625,-2294.830078125,-400000.0625,5013.47021484375,-400000.0625
234.60516715049744,-400000.0625,6349.3701171875,431.9200134277344,-400000.0625,-2317.139892578125,-400000.0625,4991.72021484375,-400000.0625
234.6333303451538,-400000.0625,6336.93017578125,418.95001220703125,-400000.0625,-2297.260009765625,-400000.0625,4978.1298828125,-400000.0625
234.65256452560425,-400000.0625,6352.43017578125,435.5,-400000.0625,-2279.659912109375,-400000.0625,4996.81982421875,-400000.0625
234.70090007781982,-400000.0625,6373.4501953125,456.80999755859375,-400000.0625,-2260.159912109375,-400000.0625,5015.56005859375,-400000.0625
234.7230143547058,-400000.0625,6370.830078125,456.2900085449219,-400000.0625,-2265.169921875,-400000.0625,5011.080078125,-400000.0625
234.74947500228882,-400000.0625,6348.7998046875,432.05999755859375,-400000.0625,-2294.639892578125,-400000.0625,4990.2900390625,-400000.0625
234.77694654464722,-400000.0625,6338.64013671875,421.6700134277344,-400000.0625,-2307.1298828125,-400000.0625,4982.52001953125,-400000.0625
234.8161244392395,-400000.0625,6350.9501953125,438.54998779296875,-400000.0625,-2302.070068359375,-400000.0625,4998.10986328125,-400000.0625
234.8383011817932,-400000.0625,6370.35009765625,459.1000061035156,-400000.0625,-2288.77001953125,-400000.0625,5014.7099609375,-400000.0625
234.8542582988739,-400000.0625,6364.490234375,451.1400146484375,-400000.0625,-2291.580078125,-400000.0625,5009.7001953125,-400000.0625
234.87906694412231,-400000.0625,6339.60009765625,427.1000061035156,-400000.0625,-2288.389892578125,-400000.0625,4985.43017578125,-400000.0625
234.9163315296173,-400000.0625,6333.35009765625,417.8500061035156,-400000.0625,-2293.300048828125,-400000.0625,4976.93994140625,-400000.0625
234.9336862564087,-400000.0625,6352.81005859375,434.9200134277344,-400000.0625,-2298.550048828125,-400000.0625,4994.919921875,-400000.0625
234.9561140537262,-400000.0625,6368.10986328125,452.79998779296875,-400000.0625,-2290.14990234375,-400000.0625,5012.60986328125,-400000.0625
234.97764253616333,-400000.0625,6365.10986328125,452.79998779296875,-400000.0625,-2281.050048828125,-400000.0625,5008.22021484375,-400000.0625
234.99667882919312,-400000.0625,6350.0400390625,433.25,-400000.0625,-2295.919921875,-400000.0625,4990.10009765625,-400000.0625
235.03375482559204,-400000.0625,6335.740234375,418.6600036621094,-400000.0625,-2307.989990234375,-400000.0625,4978.419921875,-400000.0625
235.0517773628235,-400000.0625,6347.89990234375,431.67999267578125,-400000.0625,-2298.780029296875,-400000.0625,4986.330078125,-400000.0625
235.07152342796326,-400000.0625,6372.35986328125,455.760009765625,-400000.0625,-2274.659912109375,-400000.0625,5005.7900390625,-400000.0625
235.09868025779724,-400000.0625,6366.16015625,452.17999267578125,-400000.0625,-2270.409912109375,-400000.0625,5009.93994140625,-400000.0625
235.1429843902588,-400000.0625,6346.85009765625,430.1499938964844,-400000.0625,-2300.929931640625,-400000.0625,4991.68017578125,-400000.0625
235.1654133796692,-400000.0625,6337.830078125,417.57000732421875,-400000.0625,-2314.3798828125,-400000.0625,4977.419921875,-400000.0625
235.18534541130066,-400000.0625,6349.14013671875,430.44000244140625,-400000.0625,-2292.590087890625,-400000.0625,4992.91015625,-400000.0625
235.20450496673584,-400000.0625,6369.4501953125,449.17999267578125,-400000.0625,-2271.1298828125,-400000.0625,5012.080078125,-400000.0625
235.24524545669556,-400000.0625,6371.2099609375,453.95001220703125,-400000.0625,-2279.419921875,-400000.0625,5010.56005859375,-400000.0625
235.26221084594727,-400000.0625,6348.27978515625,430.9200134277344,-400000.0625,-2309.56005859375,-400000.0625,4991.43994140625,-400000.0625
235.28761410713196,-400000.0625,6335.16015625,415.8500061035156,-400000.0625,-2311.800048828125,-400000.0625,4981.08984375,-400000.0625
235.31444549560547,-400000.0625,6351.47021484375,432.6300048828125,-400000.0625,-2292.25,-400000.0625,4992.25,-400000.0625
235.3495752811432,-400000.0625,6369.5,453.2799987792969,-400000.0625,-2273.179931640625,-400000.0625,5012.080078125,-400000.0625
235.37595224380493,-400000.0625,6367.97021484375,453.0400085449219,-400000.0625,-2268.840087890625,-400000.0625,5011.60986328125,-400000.0625
235.43648266792297,-400000.0625,6344.64990234375,430.1099853515625,-400000.0625,-2298.8798828125,-400000.0625,4994.2998046875,-400000.0625
235.49399161338806,-400000.0625,6333.830078125,417.3299865722656,-400000.0625,-2316.139892578125,-400000.0625,4984.52001953125,-400000.0625
235.52331399917603,-400000.0625,6346.75,430.8699951171875,-400000.0625,-2297.68994140625,-400000.0625,4995.8701171875,-400000.0625
235.56611847877502,-400000.0625,6366.97021484375,454.6199951171875,-400000.0625,-2276.610107421875,-400000.0625,5015.08984375,-400000.0625
235.6008174419403,-400000.0625,6369.64013671875,456.5199890136719,-400000.0625,-2258.39990234375,-400000.0625,5014.93994140625,-400000.0625
235.61938214302063,-400000.0625,6345.56005859375,430.9700012207031,-400000.0625,-2284.3798828125,-400000.0625,4997.68017578125,-400000.0625
235.64736127853394,-400000.0625,6332.97021484375,414.55999755859375,-400000.0625,-2302.27001953125,-400000.0625,4982.6201171875,-400000.0625
235.6747317314148,-400000.0625,6351.7099609375,432.8299865722656,-400000.0625,-2293.489990234375,-400000.0625,4996.10986328125,-400000.0625
235.72463178634644,-400000.0625,6368.919921875,455.6700134277344,-400000.0625,-2280.52001953125,-400000.0625,5013.3701171875,-400000.0625
235.75881123542786,-400000.0625,6369.02001953125,455.19000244140625,-400000.0625,-2266.030029296875,-400000.0625,5009.02978515625,-400000.0625
235.78225374221802,-400000.0625,6348.419921875,435.29998779296875,-400000.0625,-2288.43994140625,-400000.0625,4990.6298828125,-400000.0625
235.82436203956604,-400000.0625,6335.4501953125,422.760009765625,-400000.0625,-2313.760009765625,-400000.0625,4980.7099609375,-400000.0625
235.84707617759705,-400000.0625,6346.4599609375,434.9700012207031,-400000.0625,-2292.159912109375,-400000.0625,4990.240234375,-400000.0625
235.86412072181702,-400000.0625,6366.8701171875,455.04998779296875,-400000.0625,-2262.39990234375,-400000.0625,5010.31982421875,-400000.0625
235.88340854644775,-400000.0625,6365.25,454.0400085449219,-400000.0625,-2270.60009765625,-400000.0625,5008.35986328125,-400000.0625
235.92231631278992,-400000.0625,6344.02978515625,429.7699890136719,-400000.0625,-2293.8701171875,-400000.0625,4989.77001953125,-400000.0625
235.9463450908661,-400000.0625,6334.259765625,417.760009765625,-400000.0625,-2305.7900390625,-400000.0625,4980.759765625,-400000.0625
235.96800541877747,-400000.0625,6350.22998046875,434.3999938964844,-400000.0625,-2302.5,-400000.0625,4992.91015625,-400000.0625
235.98683500289917,-400000.0625,6369.72998046875,455.7099914550781,-400000.0625,-2280.429931640625,-400000.0625,5012.47021484375,-400000.0625
236.02201437950134,-400000.0625,6364.68017578125,452.3299865722656,-400000.0625,-2266.1201171875,-400000.0625,5013.85009765625,-400000.0625
236.04630041122437,-400000.0625,6340.5498046875,426.5799865722656,-400000.0625,-2291.25,-400000.0625,4990.39013671875,-400000.0625
236.0647735595703,-400000.0625,6332.4501953125,413.94000244140625,-400000.0625,-2307.510009765625,-400000.0625,4973.93994140625,-400000.0625
236.08627271652222,-400000.0625,6345.18017578125,427.20001220703125,-400000.0625,-2292.489990234375,-400000.0625,4988.47998046875,-400000.0625
236.1035614013672,-400000.0625,6361.33984375,447.4599914550781,-400000.0625,-2291.43994140625,-400000.0625,5009.83984375,-400000.0625
236.14414739608765,-400000.0625,6365.77978515625,452.17999267578125,-400000.0625,-2295.070068359375,-400000.0625,5007.97998046875,-400000.0625
236.1588258743286,-400000.0625,6342.080078125,427.05999755859375,-400000.0625,-2299.169921875,-400000.0625,4983.9501953125,-400000.0625
236.17909622192383,-400000.0625,6330.8701171875,413.4700012207031,-400000.0625,-2305.4599609375,-400000.0625,4975.080078125,-400000.0625
236.19440007209778,-400000.0625,6344.02978515625,427.1499938964844,-400000.0625,-2288.389892578125,-400000.0625,4986.759765625,-400000.0625
236.2098422050476,-400000.0625,6365.2998046875,452.4200134277344,-400000.0625,-2282.47998046875,-400000.0625,5009.22021484375,-400000.0625
236.25260496139526,-400000.0625,6365.97021484375,455.19000244140625,-400000.0625,-2287.340087890625,-400000.0625,5011.27001953125,-400000.0625
236.27621006965637,-400000.0625,6347.1298828125,433.1099853515625,-400000.0625,-2300.31005859375,-400000.0625,4992.25,-400000.0625
236.295166015625,-400000.0625,6335.77978515625,417.0400085449219,-400000.0625,-2305.64990234375,-400000.0625,4980.3701171875,-400000.0625
236.3124439716339,-400000.0625,6347.7001953125,430.489990234375,-400000.0625,-2297.1201171875,-400000.0625,4992.52978515625,-400000.0625
236.3506052494049,-400000.0625,6365.919921875,450.79998779296875,-400000.0625,-2287.2900390625,-400000.0625,5010.509765625,-400000.0625
236.37304067611694,-400000.0625,6369.02001953125,455.7099914550781,-400000.0625,-2299.02001953125,-400000.0625,5017.7099609375,-400000.0625
236.41567087173462,-400000.0625,6346.3701171875,432.9200134277344,-400000.0625,-2297.739990234375,-400000.0625,4996.35009765625,-400000.0625
236.47160863876343,-400000.0625,6332.06005859375,416.1400146484375,-400000.0625,-2299.260009765625,-400000.0625,4981.7099609375,-400000.0625
236.499370098114,-400000.0625,6347.7001953125,433.7300109863281,-400000.0625,-2290.580078125,-400000.0625,4992.43994140625,-400000.0625
236.52145195007324,-400000.0625,6366.10986328125,455.19000244140625,-400000.0625,-2260.489990234375,-400000.0625,5012.1298828125,-400000.0625
236.56493735313416,-400000.0625,6366.68017578125,456.5199890136719,-400000.0625,-2272.320068359375,-400000.0625,5011.509765625,-400000.0625
236.59295630455017,-400000.0625,6347.27978515625,435.6400146484375,-400000.0625,-2301.5,-400000.0625,4990.9599609375,-400000.0625
236.6090829372406,-400000.0625,6335.39990234375,419.6199951171875,-400000.0625,-2318.18994140625,-400000.0625,4982.9501953125,-400000.0625
236.63042402267456,-400000.0625,6350.990234375,435.8299865722656,-400000.0625,-2299.169921875,-400000.0625,4998.35009765625,-400000.0625
236.67252278327942,-400000.0625,6372.169921875,460.7699890136719,-400000.0625,-2280.81005859375,-400000.0625,5015.7998046875,-400000.0625
236.69670033454895,-400000.0625,6368.830078125,455.5199890136719,-400000.0625,-2293.159912109375,-400000.0625,5014.52001953125,-400000.0625
236.71933889389038,-400000.0625,6348.27978515625,432.1600036621094,-400000.0625,-2306.1298828125,-400000.0625,4991.68017578125,-400000.0625
236.74031376838684,-400000.0625,6335.64013671875,417.760009765625,-400000.0625,-2298.739990234375,-400000.0625,4976.419921875,-400000.0625
236.78236174583435,-400000.0625,6346.0400390625,430.9700012207031,-400000.0625,-2271.989990234375,-400000.0625,4986.47998046875,-400000.0625
236.79613876342773,-400000.0625,6367.35009765625,452.4700012207031,-400000.0625,-2252.8701171875,-400000.0625,5008.41015625,-400000.0625
236.81849265098572,-400000.0625,6369.93017578125,454.0899963378906,-400000.0625,-2264.360107421875,-400000.0625,5006.97998046875,-400000.0625
236.8412446975708,-400000.0625,6348.31982421875,434.9200134277344,-400000.0625,-2290.580078125,-400000.0625,4987.85986328125,-400000.0625
236.87941813468933,-400000.0625,6335.31005859375,421.0899963378906,-400000.0625,-2315.090087890625,-400000.0625,4979.89990234375,-400000.0625
236.90300035476685,-400000.0625,6345.419921875,434.2099914550781,-400000.0625,-2305.7900390625,-400000.0625,4989.240234375,-400000.0625
236.92090249061584,-400000.0625,6370.4501953125,458.57000732421875,-400000.0625,-2278.760009765625,-400000.0625,5006.740234375,-400000.0625
236.94432878494263,-400000.0625,6369.72998046875,456.4800109863281,-400000.0625,-2284.050048828125,-400000.0625,5007.64990234375,-400000.0625
236.98769807815552,-400000.0625,6348.990234375,435.5,-400000.0625,-2301.68994140625,-400000.0625,4987.6201171875,-400000.0625
236.9983365535736,-400000.0625,6339.41015625,421.95001220703125,-400000.0625,-2318.330078125,-400000.0625,4977.1298828125,-400000.0625
237.02155590057373,-400000.0625,6350.27978515625,435.6400146484375,-400000.0625,-2298.360107421875,-400000.0625,4990.77001953125,-400000.0625
237.04632925987244,-400000.0625,6367.259765625,458.5299987792969,-400000.0625,-2262.2099609375,-400000.0625,5008.41015625,-400000.0625
237.0779504776001,-400000.0625,6364.5400390625,454.8999938964844,-400000.0625,-2270.7900390625,-400000.0625,5003.1201171875,-400000.0625
237.10881185531616,-400000.0625,6347.1298828125,433.45001220703125,-400000.0625,-2299.449951171875,-400000.0625,4981.330078125,-400000.0625
237.1264226436615,-400000.0625,6332.830078125,418.6600036621094,-400000.0625,-2312.090087890625,-400000.0625,4971.35986328125,-400000.0625
237.13892817497253,-400000.0625,6346.1298828125,430.6300048828125,-400000.0625,-2309.56005859375,-400000.0625,4984.6201171875,-400000.0625
237.15786838531494,-400000.0625,6368.490234375,455.57000732421875,-400000.0625,-2270.030029296875,-400000.0625,5004.4501953125,-400000.0625
237.18943548202515,-400000.0625,6364.2001953125,452.79998779296875,-400000.0625,-2256.919921875,-400000.0625,5004.7900390625,-400000.0625
237.2038230895996,-400000.0625,6343.3701171875,433.7300109863281,-400000.0625,-2285.429931640625,-400000.0625,4984.43017578125,-400000.0625
237.22285985946655,-400000.0625,6336.259765625,423.19000244140625,-400000.0625,-2314.469970703125,-400000.0625,4973.7900390625,-400000.0625
237.2413296699524,-400000.0625,6350.330078125,437.9700012207031,-400000.0625,-2306.510009765625,-400000.0625,4986.81005859375,-400000.0625
237.26206707954407,-400000.0625,6369.16015625,457.6700134277344,-400000.0625,-2273.3701171875,-400000.0625,5005.7900390625,-400000.0625
237.3013563156128,-400000.0625,6372.830078125,460.42999267578125,-400000.0625,-2268.030029296875,-400000.0625,5005.60009765625,-400000.0625
237.32178449630737,-400000.0625,6351.419921875,438.92999267578125,-400000.0625,-2294.639892578125,-400000.0625,4985.240234375,-400000.0625
237.33913850784302,-400000.0625,6336.06982421875,425.04998779296875,-400000.0625,-2310.280029296875,-400000.0625,4975.02978515625,-400000.0625
237.35599303245544,-400000.0625,6343.1298828125,432.7799987792969,-400000.0625,-2293.25,-400000.0625,4986.72021484375,-400000.0625
237.37752556800842,-400000.0625,6364.919921875,454.5199890136719,-400000.0625,-2273.320068359375,-400000.0625,5007.22021484375,-400000.0625
237.4348168373108,-400000.0625,6364.06005859375,453.7099914550781,-400000.0625,-2286.530029296875,-400000.0625,5007.1201171875,-400000.0625
237.4628438949585,-400000.0625,6346.990234375,436.8299865722656,-400000.0625,-2315.280029296875,-400000.0625,4986.669921875,-400000.0625
237.48372316360474,-400000.0625,6336.5,426.6700134277344,-400000.0625,-2314.280029296875,-400000.0625,4975.60986328125,-400000.0625
237.51043891906738,-400000.0625,6351.759765625,441.0299987792969,-400000.0625,-2278.280029296875,-400000.0625,4989.33984375,-400000.0625
237.53087830543518,-400000.0625,6370.4501953125,462.67999267578125,-400000.0625,-2266.97998046875,-400000.0625,5007.41015625,-400000.0625
237.546795129776,-400000.0625,6370.740234375,462.67999267578125,-400000.0625,-2271.4599609375,-400000.0625,5007.7001953125,-400000.0625
237.57452201843262,-400000.0625,6349.47021484375,438.260009765625,-400000.0625,-2296.070068359375,-400000.0625,4987.43017578125,-400000.0625
237.59086322784424,-400000.0625,6338.31005859375,426.6700134277344,-400000.0625,-2302.030029296875,-400000.0625,4971.02978515625,-400000.0625
237.63588523864746,-400000.0625,6355.6201171875,440.9800109863281,-400000.0625,-2303.409912109375,-400000.0625,4985.47998046875,-400000.0625
237.65908885002136,-400000.0625,6374.5498046875,462.25,-400000.0625,-2290.300048828125,-400000.0625,5006.35986328125,-400000.0625
237.68384265899658,-400000.0625,6375.169921875,463.9100036621094,-400000.0625,-2289.8701171875,-400000.0625,5005.02978515625,-400000.0625
237.7069227695465,-400000.0625,6353.27978515625,441.3599853515625,-400000.0625,-2308.56005859375,-400000.0625,4986.43017578125,-400000.0625
237.7388777732849,-400000.0625,6345.7001953125,428.489990234375,-400000.0625,-2302.7900390625,-400000.0625,4975.93994140625,-400000.0625
237.75696325302124,-400000.0625,6357.14990234375,443.739990234375,-400000.0625,-2294.35009765625,-400000.0625,4986.9501953125,-400000.0625
237.7745487689972,-400000.0625,6374.169921875,463.3900146484375,-400000.0625,-2273.659912109375,-400000.0625,5001.5,-400000.0625
237.79435300827026,-400000.0625,6375.080078125,463.3399963378906,-400000.0625,-2263.97998046875,-400000.0625,5004.35986328125,-400000.0625
237.81791615486145,-400000.0625,6354.85986328125,441.6499938964844,-400000.0625,-2289.77001953125,-400000.0625,4985.52001953125,-400000.0625
237.85771703720093,-400000.0625,6344.1298828125,430.3500061035156,-400000.0625,-2310.510009765625,-400000.0625,4973.60009765625,-400000.0625
237.87672185897827,-400000.0625,6350.9501953125,440.6499938964844,-400000.0625,-2302.4599609375,-400000.0625,4986.10009765625,-400000.0625
237.89377117156982,-400000.0625,6376.31005859375,466.44000244140625,-400000.0625,-2282.47998046875,-400000.0625,5006.22021484375,-400000.0625
237.9160234928131,-400000.0625,6376.89013671875,469.260009765625,-400000.0625,-2283.760009765625,-400000.0625,5008.27001953125,-400000.0625
237.93266010284424,-400000.0625,6353.27978515625,445.8900146484375,-400000.0625,-2297.830078125,-400000.0625,4990.240234375,-400000.0625
237.97749638557434,-400000.0625,6341.89013671875,431.9200134277344,-400000.0625,-2291.679931640625,-400000.0625,4977.0400390625,-400000.0625
237.9987063407898,-400000.0625,6351.66015625,441.69000244140625,-400000.0625,-2285.340087890625,-400000.0625,4987.85986328125,-400000.0625
238.01447248458862,-400000.0625,6371.259765625,463.20001220703125,-400000.0625,-2276.75,-400000.0625,5005.8798828125,-400000.0625
238.03056812286377,-400000.0625,6374.41015625,462.7200012207031,-400000.0625,-2268.889892578125,-400000.0625,5006.83984375,-400000.0625
238.0547754764557,-400000.0625,6351.85009765625,436.5,-400000.0625,-2301.64990234375,-400000.0625,4986.9501953125,-400000.0625
238.09618997573853,-400000.0625,6337.93017578125,420.760009765625,-400000.0625,-2322.199951171875,-400000.0625,4973.509765625,-400000.0625
238.11651468276978,-400000.0625,6355.52001953125,438.0199890136719,-400000.0625,-2288.389892578125,-400000.0625,4984.56982421875,-400000.0625
238.13677549362183,-400000.0625,6378.02978515625,465.7699890136719,-400000.0625,-2267.550048828125,-400000.0625,5005.169921875,-400000.0625
238.15469193458557,-400000.0625,6374.97998046875,465.5400085449219,-400000.0625,-2269.27001953125,-400000.0625,5007.60009765625,-400000.0625
238.1713891029358,-400000.0625,6359.47998046875,445.0799865722656,-400000.0625,-2284.239990234375,-400000.0625,4988.77001953125,-400000.0625
238.2046239376068,-400000.0625,6344.60986328125,428.3399963378906,-400000.0625,-2305.219970703125,-400000.0625,4970.83984375,-400000.0625
238.22165751457214,-400000.0625,6355.18994140625,443.0799865722656,-400000.0625,-2295.110107421875,-400000.0625,4986.330078125,-400000.0625
238.23851442337036,-400000.0625,6380.080078125,465.9200134277344,-400000.0625,-2273.4599609375,-400000.0625,5010.64990234375,-400000.0625
238.26015853881836,-400000.0625,6372.39990234375,463.5299987792969,-400000.0625,-2280.469970703125,-400000.0625,5004.68994140625,-400000.0625
238.28528952598572,-400000.0625,6350.52001953125,444.3599853515625,-400000.0625,-2295.590087890625,-400000.0625,4985.52001953125,-400000.0625
238.31848812103271,-400000.0625,6340.41015625,430.9700012207031,-400000.0625,-2288.2900390625,-400000.0625,4973.89013671875,-400000.0625
238.33694124221802,-400000.0625,6359.33984375,443.54998779296875,-400000.0625,-2272.75,-400000.0625,4985.43017578125,-400000.0625
238.36323380470276,-400000.0625,6381.3701171875,469.5400085449219,-400000.0625,-2270.219970703125,-400000.0625,5005.7900390625,-400000.0625
238.37856650352478,-400000.0625,6381.89013671875,469.5400085449219,-400000.0625,-2284.10009765625,-400000.0625,5004.60009765625,-400000.0625
238.4198715686798,-400000.0625,6358.39013671875,445.0799865722656,-400000.0625,-2304.360107421875,-400000.0625,4982.18994140625,-400000.0625
238.46340584754944,-400000.0625,6345.75,434.3500061035156,-400000.0625,-2301.64990234375,-400000.0625,4973.7900390625,-400000.0625
238.48488855361938,-400000.0625,6360.8701171875,445.17999267578125,-400000.0625,-2293.110107421875,-400000.0625,4984.759765625,-400000.0625
238.4988341331482,-400000.0625,6384.52001953125,467.2099914550781,-400000.0625,-2293.06005859375,-400000.0625,5003.830078125,-400000.0625
238.5199646949768,-400000.0625,6382.3701171875,469.8800048828125,-400000.0625,-2275.179931640625,-400000.0625,5006.02978515625,-400000.0625
238.56603026390076,-400000.0625,6362.2998046875,446.989990234375,-400000.0625,-2272.179931640625,-400000.0625,4985.56982421875,-400000.0625
238.58176159858704,-400000.0625,6348.990234375,435.8299865722656,-400000.0625,-2291.06005859375,-400000.0625,4978.1298828125,-400000.0625
238.59976363182068,-400000.0625,6362.39013671875,449.0400085449219,-400000.0625,-2284.0,-400000.0625,4991.47998046875,-400000.0625
238.62530660629272,-400000.0625,6384.27978515625,470.45001220703125,-400000.0625,-2267.889892578125,-400000.0625,5007.60009765625,-400000.0625
238.6662154197693,-400000.0625,6383.7998046875,468.6400146484375,-400000.0625,-2278.85009765625,-400000.0625,5003.60009765625,-400000.0625
238.6869614124298,-400000.0625,6360.47998046875,445.4100036621094,-400000.0625,-2284.239990234375,-400000.0625,4988.6201171875,-400000.0625
238.70577549934387,-400000.0625,6346.60986328125,430.20001220703125,-400000.0625,-2296.2099609375,-400000.0625,4978.08984375,-400000.0625
238.74054646492004,-400000.0625,6356.10009765625,439.8299865722656,-400000.0625,-2297.590087890625,-400000.0625,4990.9599609375,-400000.0625
238.7854449748993,-400000.0625,6376.41015625,461.6700134277344,-400000.0625,-2292.010009765625,-400000.0625,5012.31982421875,-400000.0625
238.801659822464,-400000.0625,6379.509765625,464.3900146484375,-400000.0625,-2279.22998046875,-400000.0625,5015.18017578125,-400000.0625
238.8192858695984,-400000.0625,6363.6298828125,444.32000732421875,-400000.0625,-2284.0,-400000.0625,4995.6298828125,-400000.0625
238.84026980400085,-400000.0625,6349.85009765625,431.67999267578125,-400000.0625,-2297.159912109375,-400000.0625,4982.27978515625,-400000.0625
238.85686874389648,-400000.0625,6359.0498046875,443.2699890136719,-400000.0625,-2288.909912109375,-400000.0625,4990.52978515625,-400000.0625
238.89264225959778,-400000.0625,6383.60986328125,465.010009765625,-400000.0625,-2276.330078125,-400000.0625,5012.18017578125,-400000.0625
238.9107015132904,-400000.0625,6385.89990234375,465.3500061035156,-400000.0625,-2269.320068359375,-400000.0625,5012.66015625,-400000.0625
238.9318299293518,-400000.0625,6356.33984375,442.2200012207031,-400000.0625,-2288.2900390625,-400000.0625,4989.33984375,-400000.0625
238.948721408844,-400000.0625,6343.89013671875,426.6700134277344,-400000.0625,-2311.989990234375,-400000.0625,4978.31982421875,-400000.0625
238.96530771255493,-400000.0625,6357.72021484375,438.2099914550781,-400000.0625,-2303.550048828125,-400000.0625,4989.10009765625,-400000.0625
239.000408411026,-400000.0625,6375.35986328125,457.42999267578125,-400000.0625,-2285.669921875,-400000.0625,5009.7001953125,-400000.0625
239.01916575431824,-400000.0625,6376.22021484375,460.8599853515625,-400000.0625,-2285.81005859375,-400000.0625,5009.60009765625,-400000.0625
239.04804873466492,-400000.0625,6359.85986328125,439.8800048828125,-400000.0625,-2288.43994140625,-400000.0625,4987.0498046875,-400000.0625
239.0656328201294,-400000.0625,6348.990234375,427.67999267578125,-400000.0625,-2279.85009765625,-400000.0625,4974.93994140625,-400000.0625
239.09138369560242,-400000.0625,6358.91015625,439.54998779296875,-400000.0625,-2275.85009765625,-400000.0625,4989.81982421875,-400000.0625
239.10322213172913,-400000.0625,6378.64990234375,464.29998779296875,-400000.0625,-2265.97998046875,-400000.0625,5009.1298828125,-400000.0625
239.12416768074036,-400000.0625,6385.3701171875,468.9700012207031,-400000.0625,-2276.85009765625,-400000.0625,5010.990234375,-400000.0625
239.1426763534546,-400000.0625,6364.009765625,446.0799865722656,-400000.0625,-2304.97998046875,-400000.0625,4993.14990234375,-400000.0625
239.16243505477905,-400000.0625,6350.759765625,429.5299987792969,-400000.0625,-2315.090087890625,-400000.0625,4980.3701171875,-400000.0625
239.18137311935425,-400000.0625,6363.43994140625,442.54998779296875,-400000.0625,-2291.72998046875,-400000.0625,4988.72021484375,-400000.0625
239.2149817943573,-400000.0625,6382.89990234375,466.010009765625,-400000.0625,-2274.93994140625,-400000.0625,5008.89013671875,-400000.0625
239.2388517856598,-400000.0625,6382.509765625,467.9700012207031,-400000.0625,-2271.030029296875,-400000.0625,5017.27978515625,-400000.0625
239.264310836792,-400000.0625,6363.580078125,446.6499938964844,-400000.0625,-2287.010009765625,-400000.0625,4997.8701171875,-400000.0625
239.28491687774658,-400000.0625,6351.27978515625,430.8699951171875,-400000.0625,-2295.110107421875,-400000.0625,4986.18994140625,-400000.0625
239.3202896118164,-400000.0625,6360.43994140625,442.4599914550781,-400000.0625,-2278.3798828125,-400000.0625,4993.9599609375,-400000.0625
239.33872890472412,-400000.0625,6378.509765625,462.82000732421875,-400000.0625,-2262.739990234375,-400000.0625,5010.080078125,-400000.0625
239.39690589904785,-400000.0625,6384.52001953125,465.20001220703125,-400000.0625,-2269.320068359375,-400000.0625,5010.93994140625,-400000.0625
239.53259325027466,-400000.0625,6366.490234375,445.3699951171875,-400000.0625,-2299.070068359375,-400000.0625,4992.52978515625,-400000.0625
239.60040616989136,-400000.0625,6350.7099609375,431.9200134277344,-400000.0625,-2311.659912109375,-400000.0625,4976.85009765625,-400000.0625
239.62438464164734,-400000.0625,6360.39013671875,445.75,-400000.0625,-2283.139892578125,-400000.0625,4988.3798828125,-400000.0625
239.65828132629395,-400000.0625,6385.52001953125,467.82000732421875,-400000.0625,-2257.780029296875,-400000.0625,5010.75,-400000.0625
239.75260639190674,-400000.0625,6382.1298828125,463.6300048828125,-400000.0625,-2262.39990234375,-400000.0625,5010.89013671875,-400000.0625
239.78501677513123,-400000.0625,6360.580078125,442.4100036621094,-400000.0625,-2285.909912109375,-400000.0625,4990.72021484375,-400000.0625
239.865962266922,-400000.0625,6348.89990234375,430.25,-400000.0625,-2293.159912109375,-400000.0625,4978.3701171875,-400000.0625
239.89914989471436,-400000.0625,6362.8701171875,444.8399963378906,-400000.0625,-2287.669921875,-400000.0625,4990.85986328125,-400000.0625
239.94942116737366,-400000.0625,6388.240234375,472.2099914550781,-400000.0625,-2271.27001953125,-400000.0625,5013.89990234375,-400000.0625
239.9803159236908,-400000.0625,6390.330078125,473.3999938964844,-400000.0625,-2273.610107421875,-400000.0625,5013.419921875,-400000.0625
240.04137063026428,-400000.0625,6364.2001953125,448.510009765625,-400000.0625,-2298.159912109375,-400000.0625,4992.8701171875,-400000.0625
240.13186502456665,-400000.0625,6349.56005859375,432.010009765625,-400000.0625,-2303.219970703125,-400000.0625,4978.85009765625,-400000.0625
240.16973304748535,-400000.0625,6361.39013671875,443.4100036621094,-400000.0625,-2271.3701171875,-400000.0625,4987.0498046875,-400000.0625
240.22351551055908,-400000.0625,6384.419921875,465.29998779296875,-400000.0625,-2257.199951171875,-400000.0625,5009.080078125,-400000.0625
240.30837678909302,-400000.0625,6385.419921875,468.1600036621094,-400000.0625,-2275.89990234375,-400000.0625,5015.18017578125,-400000.0625
240.37565088272095,-400000.0625,6367.490234375,450.0400085449219,-400000.0625,-2299.260009765625,-400000.0625,4994.14990234375,-400000.0625
240.4207067489624,-400000.0625,6351.759765625,432.5400085449219,-400000.0625,-2308.889892578125,-400000.0625,4978.08984375,-400000.0625
240.47171354293823,-400000.0625,6359.33984375,442.70001220703125,-400000.0625,-2299.5,-400000.0625,4990.14990234375,-400000.0625
240.52147483825684,-400000.0625,6382.1298828125,466.25,-400000.0625,-2270.030029296875,-400000.0625,5006.97998046875,-400000.0625
240.59562635421753,-400000.0625,6383.22998046875,465.9700012207031,-400000.0625,-2266.360107421875,-400000.0625,5008.64990234375,-400000.0625
240.64319252967834,-400000.0625,6363.919921875,445.2699890136719,-400000.0625,-2283.570068359375,-400000.0625,4992.91015625,-400000.0625
240.7082326412201,-400000.0625,6351.08984375,430.3900146484375,-400000.0625,-2306.56005859375,-400000.0625,4978.93994140625,-400000.0625
240.74725675582886,-400000.0625,6363.81982421875,443.1700134277344,-400000.0625,-2288.389892578125,-400000.0625,4986.43017578125,-400000.0625
240.8122103214264,-400000.0625,6385.60986328125,467.8699951171875,-400000.0625,-2283.2900390625,-400000.0625,5005.7900390625,-400000.0625
240.8414707183838,-400000.0625,6388.81005859375,470.69000244140625,-400000.0625,-2293.780029296875,-400000.0625,5009.3701171875,-400000.0625
240.86113834381104,-400000.0625,6367.4501953125,449.17999267578125,-400000.0625,-2288.6298828125,-400000.0625,4990.47998046875,-400000.0625
240.9184513092041,-400000.0625,6352.47021484375,430.5799865722656,-400000.0625,-2302.360107421875,-400000.0625,4976.509765625,-400000.0625
240.94740462303162,-400000.0625,6362.81982421875,440.739990234375,-400000.0625,-2286.530029296875,-400000.0625,4986.91015625,-400000.0625
240.96686601638794,-400000.0625,6385.56982421875,464.82000732421875,-400000.0625,-2263.830078125,-400000.0625,5005.41015625,-400000.0625
241.02787518501282,-400000.0625,6390.14013671875,466.7799987792969,-400000.0625,-2265.68994140625,-400000.0625,5010.75,-400000.0625
241.0482873916626,-400000.0625,6366.16015625,443.739990234375,-400000.0625,-2286.530029296875,-400000.0625,4992.43994140625,-400000.0625
241.07976722717285,-400000.0625,6353.56982421875,430.25,-400000.0625,-2311.989990234375,-400000.0625,4979.27978515625,-400000.0625
241.1157352924347,-400000.0625,6366.919921875,445.6499938964844,-400000.0625,-2309.989990234375,-400000.0625,4991.6298828125,-400000.0625
241.14282703399658,-400000.0625,6385.27978515625,465.3900146484375,-400000.0625,-2276.75,-400000.0625,5013.27978515625,-400000.0625
241.1791398525238,-400000.0625,6388.08984375,468.9200134277344,-400000.0625,-2269.4599609375,-400000.0625,5016.60986328125,-400000.0625
241.21851873397827,-400000.0625,6367.58984375,447.4599914550781,-400000.0625,-2290.340087890625,-400000.0625,4994.5400390625,-400000.0625
241.27346539497375,-400000.0625,6356.85986328125,434.2099914550781,-400000.0625,-2308.989990234375,-400000.0625,4983.27978515625,-400000.0625
241.2992627620697,-400000.0625,6368.64013671875,447.94000244140625,-400000.0625,-2286.050048828125,-400000.0625,4993.77001953125,-400000.0625
241.32425713539124,-400000.0625,6392.10009765625,471.5,-400000.0625,-2262.969970703125,-400000.0625,5011.02978515625,-400000.0625
241.37595105171204,-400000.0625,6391.72021484375,472.3500061035156,-400000.0625,-2277.22998046875,-400000.0625,5012.7001953125,-400000.0625
241.41393876075745,-400000.0625,6364.919921875,446.70001220703125,-400000.0625,-2305.27001953125,-400000.0625,4995.68017578125,-400000.0625
241.4505376815796,-400000.0625,6351.08984375,432.1600036621094,-400000.0625,-2308.320068359375,-400000.0625,4982.27978515625,-400000.0625
241.50784349441528,-400000.0625,6367.259765625,444.8900146484375,-400000.0625,-2286.9599609375,-400000.0625,4992.490234375,-400000.0625
241.52362537384033,-400000.0625,6387.47021484375,468.1600036621094,-400000.0625,-2262.780029296875,-400000.0625,5015.08984375,-400000.0625
241.54438138008118,-400000.0625,6390.0,474.739990234375,-400000.0625,-2271.699951171875,-400000.0625,5017.9501953125,-400000.0625
241.57699179649353,-400000.0625,6367.2998046875,451.6099853515625,-400000.0625,-2314.18994140625,-400000.0625,4996.10986328125,-400000.0625
241.62849974632263,-400000.0625,6351.66015625,435.260009765625,-400000.0625,-2304.60009765625,-400000.0625,4977.990234375,-400000.0625
241.67759823799133,-400000.0625,6363.919921875,447.3699951171875,-400000.0625,-2291.110107421875,-400000.0625,4989.72021484375,-400000.0625
241.7286159992218,-400000.0625,6386.14013671875,467.29998779296875,-400000.0625,-2290.14990234375,-400000.0625,5010.7998046875,-400000.0625
241.75156664848328,-400000.0625,6387.43017578125,471.69000244140625,-400000.0625,-2297.590087890625,-400000.0625,5015.0400390625,-400000.0625
241.77614784240723,-400000.0625,6365.97021484375,448.8500061035156,-400000.0625,-2301.030029296875,-400000.0625,4998.2099609375,-400000.0625
241.8026168346405,-400000.0625,6353.52001953125,433.7300109863281,-400000.0625,-2297.35009765625,-400000.0625,4981.759765625,-400000.0625
241.86040377616882,-400000.0625,6366.77978515625,448.6099853515625,-400000.0625,-2287.909912109375,-400000.0625,4997.77978515625,-400000.0625
241.9146716594696,-400000.0625,6384.419921875,468.44000244140625,-400000.0625,-2275.89990234375,-400000.0625,5015.27978515625,-400000.0625
241.98307514190674,-400000.0625,6386.47021484375,473.07000732421875,-400000.0625,-2271.179931640625,-400000.0625,5017.47021484375,-400000.0625
242.0183835029602,-400000.0625,6365.35009765625,448.4700012207031,-400000.0625,-2297.929931640625,-400000.0625,5000.5400390625,-400000.0625
242.07811617851257,-400000.0625,6351.27978515625,433.3500061035156,-400000.0625,-2312.760009765625,-400000.0625,4987.0498046875,-400000.0625
242.1205677986145,-400000.0625,6366.25,447.6499938964844,-400000.0625,-2313.3798828125,-400000.0625,4995.06005859375,-400000.0625
242.19296646118164,-400000.0625,6386.7099609375,469.260009765625,-400000.0625,-2278.52001953125,-400000.0625,5013.75,-400000.0625
242.23937892913818,-400000.0625,6392.669921875,473.260009765625,-400000.0625,-2273.179931640625,-400000.0625,5015.759765625,-400000.0625
242.2869086265564,-400000.0625,6369.35009765625,447.8500061035156,-400000.0625,-2286.77001953125,-400000.0625,4998.35009765625,-400000.0625
242.31082963943481,-400000.0625,6347.47021484375,433.0199890136719,-400000.0625,-2301.409912109375,-400000.0625,4981.85009765625,-400000.0625
242.33918738365173,-400000.0625,6363.68017578125,447.1300048828125,-400000.0625,-2291.300048828125,-400000.0625,4992.81982421875,-400000.0625
242.3650484085083,-400000.0625,6385.18017578125,465.3500061035156,-400000.0625,-2293.43994140625,-400000.0625,5014.27978515625,-400000.0625
242.4573850631714,-400000.0625,6380.7998046875,463.8699951171875,-400000.0625,-2289.25,-400000.0625,5013.66015625,-400000.0625
242.488107919693,-400000.0625,6362.14990234375,445.2200012207031,-400000.0625,-2289.010009765625,-400000.0625,4993.490234375,-400000.0625
242.56070160865784,-400000.0625,6342.080078125,428.7200012207031,-400000.0625,-2306.409912109375,-400000.0625,4980.759765625,-400000.0625
242.60543394088745,-400000.0625,6353.3798828125,441.69000244140625,-400000.0625,-2303.31005859375,-400000.0625,4990.72021484375,-400000.0625
242.68155550956726,-400000.0625,6385.0400390625,467.489990234375,-400000.0625,-2285.18994140625,-400000.0625,5009.3701171875,-400000.0625
242.71585655212402,-400000.0625,6386.27978515625,467.489990234375,-400000.0625,-2273.699951171875,-400000.0625,5013.27978515625,-400000.0625
242.77698850631714,-400000.0625,6364.39013671875,446.79998779296875,-400000.0625,-2285.580078125,-400000.0625,4994.81982421875,-400000.0625
242.80457139015198,-400000.0625,6348.7099609375,432.67999267578125,-400000.0625,-2296.300048828125,-400000.0625,4979.93994140625,-400000.0625
242.8373064994812,-400000.0625,6359.77001953125,442.30999755859375,-400000.0625,-2296.39990234375,-400000.0625,4994.77001953125,-400000.0625
242.90062260627747,-400000.0625,6376.93017578125,462.2900085449219,-400000.0625,-2290.8701171875,-400000.0625,5011.89013671875,-400000.0625
242.93564009666443,-400000.0625,6379.1298828125,463.82000732421875,-400000.0625,-2294.639892578125,-400000.0625,5009.64990234375,-400000.0625
242.95113348960876,-400000.0625,6358.81005859375,440.54998779296875,-400000.0625,-2309.27001953125,-400000.0625,4990.39013671875,-400000.0625
242.98363661766052,-400000.0625,6342.169921875,425.239990234375,-400000.0625,-2304.409912109375,-400000.0625,4981.419921875,-400000.0625
243.0002236366272,-400000.0625,6349.7998046875,438.2099914550781,-400000.0625,-2292.679931640625,-400000.0625,4989.77001953125,-400000.0625
243.02243423461914,-400000.0625,6349.990234375,460.2900085449219,-400000.0625,-2288.47998046875,-400000.0625,5010.990234375,-400000.0625
243.04503655433655,-400000.0625,6344.509765625,475.6000061035156,-400000.0625,-2266.739990234375,-400000.0625,5027.580078125,-400000.0625
243.0675230026245,-400000.0625,6342.31982421875,470.8299865722656,-400000.0625,-2263.929931640625,-400000.0625,5011.22998046875,-400000.0625
243.12042021751404,-400000.0625,6317.9501953125,442.92999267578125,-400000.0625,-2280.89990234375,-400000.0625,4982.14013671875,-400000.0625
243.1420066356659,-400000.0625,6331.97021484375,446.75,-400000.0625,-2285.18994140625,-400000.0625,4971.4599609375,-400000.0625
243.16968178749084,-400000.0625,6341.97998046875,457.95001220703125,-400000.0625,-2271.699951171875,-400000.0625,4977.509765625,-400000.0625
243.202299118042,-400000.0625,6337.259765625,469.1099853515625,-400000.0625,-2264.60009765625,-400000.0625,4980.419921875,-400000.0625
243.2348792552948,-400000.0625,6287.72021484375,464.9200134277344,-400000.0625,-2269.080078125,-400000.0625,4961.35009765625,-400000.0625
243.26139974594116,-400000.0625,6276.56005859375,438.1199951171875,-400000.0625,-2277.570068359375,-400000.0625,4927.06005859375,-400000.0625
243.28572511672974,-400000.0625,6295.39990234375,426.010009765625,-400000.0625,-2273.080078125,-400000.0625,4919.240234375,-400000.0625
243.33384323120117,-400000.0625,6292.2998046875,442.2200012207031,-400000.0625,-2246.52001953125,-400000.0625,4937.97998046875,-400000.0625
243.35267686843872,-400000.0625,6262.35009765625,436.8299865722656,-400000.0625,-2236.080078125,-400000.0625,4929.58984375,-400000.0625
243.37485146522522,-400000.0625,6211.66015625,405.54998779296875,-400000.0625,-2240.22998046875,-400000.0625,4893.2099609375,-400000.0625
243.39908051490784,-400000.0625,6160.4501953125,380.79998779296875,-400000.0625,-2242.0400390625,-400000.0625,4860.1201171875,-400000.0625
243.4466209411621,-400000.0625,6135.0400390625,384.1400146484375,-400000.0625,-2224.969970703125,-400000.0625,4856.25,-400000.0625
243.47682166099548,-400000.0625,6132.169921875,398.2099914550781,-400000.0625,-2198.169921875,-400000.0625,4868.83984375,-400000.0625
243.50273442268372,-400000.0625,6114.8701171875,396.010009765625,-400000.0625,-2201.889892578125,-400000.0625,4868.7900390625,-400000.0625
243.54492235183716,-400000.0625,6082.68017578125,374.8399963378906,-400000.0625,-2226.2099609375,-400000.0625,4846.10009765625,-400000.0625
243.56954169273376,-400000.0625,6050.25,357.1499938964844,-400000.0625,-2241.419921875,-400000.0625,4827.06982421875,-400000.0625
243.59052085876465,-400000.0625,6044.77001953125,369.6400146484375,-400000.0625,-2243.81005859375,-400000.0625,4830.5,-400000.0625
243.6209716796875,-400000.0625,6059.22021484375,391.4800109863281,-400000.0625,-2188.489990234375,-400000.0625,4842.419921875,-400000.0625
243.6732861995697,-400000.0625,6053.16015625,394.67999267578125,-400000.0625,-2153.43994140625,-400000.0625,4835.509765625,-400000.0625
243.6969289779663,-400000.0625,6030.22998046875,373.0299987792969,-400000.0625,-2173.139892578125,-400000.0625,4810.9501953125,-400000.0625
243.72001910209656,-400000.0625,6013.68017578125,353.2900085449219,-400000.0625,-2197.080078125,-400000.0625,4801.18017578125,-400000.0625
243.73818397521973,-400000.0625,6025.83984375,365.69000244140625,-400000.0625,-2198.169921875,-400000.0625,4811.6201171875,-400000.0625
243.78762221336365,-400000.0625,6053.77978515625,389.04998779296875,-400000.0625,-2186.25,-400000.0625,4831.7001953125,-400000.0625
243.82010293006897,-400000.0625,6055.68994140625,387.8599853515625,-400000.0625,-2183.530029296875,-400000.0625,4835.419921875,-400000.0625
243.8568058013916,-400000.0625,6032.27978515625,363.25,-400000.0625,-2204.3701171875,-400000.0625,4817.6298828125,-400000.0625
243.90699911117554,-400000.0625,6019.740234375,342.70001220703125,-400000.0625,-2218.2900390625,-400000.0625,4804.27978515625,-400000.0625
243.92576336860657,-400000.0625,6035.27978515625,353.57000732421875,-400000.0625,-2210.860107421875,-400000.0625,4816.25,-400000.0625
243.94859862327576,-400000.0625,6062.990234375,376.3699951171875,-400000.0625,-2198.27001953125,-400000.0625,4838.7099609375,-400000.0625
243.97133588790894,-400000.0625,6071.7099609375,377.4200134277344,-400000.0625,-2192.830078125,-400000.0625,4845.6201171875,-400000.0625
244.02226877212524,-400000.0625,6060.41015625,354.42999267578125,-400000.0625,-2215.81005859375,-400000.0625,4837.7001953125,-400000.0625
244.05121207237244,-400000.0625,6052.35009765625,339.55999755859375,-400000.0625,-2241.179931640625,-400000.0625,4830.169921875,-400000.0625
244.07984042167664,-400000.0625,6076.3798828125,354.04998779296875,-400000.0625,-2242.139892578125,-400000.0625,4849.240234375,-400000.0625
244.14081478118896,-400000.0625,6106.22998046875,372.92999267578125,-400000.0625,-2235.64990234375,-400000.0625,4877.7099609375,-400000.0625
244.16859078407288,-400000.0625,6114.2900390625,375.2699890136719,-400000.0625,-2234.27001953125,-400000.0625,4885.240234375,-400000.0625
244.19315266609192,-400000.0625,6105.27978515625,357.67999267578125,-400000.0625,-2239.659912109375,-400000.0625,4867.27001953125,-400000.0625
244.24691081047058,-400000.0625,6097.080078125,342.989990234375,-400000.0625,-2253.9599609375,-400000.0625,4860.06982421875,-400000.0625
244.27223348617554,-400000.0625,6115.009765625,352.57000732421875,-400000.0625,-2245.860107421875,-400000.0625,4875.419921875,-400000.0625
244.3009216785431,-400000.0625,6146.56982421875,380.17999267578125,-400000.0625,-2220.489990234375,-400000.0625,4899.31005859375,-400000.0625
244.3580288887024,-400000.0625,6153.81982421875,385.4800109863281,-400000.0625,-2223.919921875,-400000.0625,4912.52001953125,-400000.0625
244.4225950241089,-400000.0625,6144.18994140625,363.9700012207031,-400000.0625,-2244.090087890625,-400000.0625,4901.080078125,-400000.0625
244.53493976593018,-400000.0625,6133.990234375,344.7099914550781,-400000.0625,-2269.93994140625,-400000.0625,4893.97021484375,-400000.0625
244.60870456695557,-400000.0625,6148.85986328125,359.67999267578125,-400000.0625,-2273.699951171875,-400000.0625,4910.0400390625,-400000.0625
244.62555932998657,-400000.0625,6182.81005859375,386.42999267578125,-400000.0625,-2254.719970703125,-400000.0625,4937.1201171875,-400000.0625
244.64882063865662,-400000.0625,6194.64013671875,389.6199951171875,-400000.0625,-2262.2099609375,-400000.0625,4945.66015625,-400000.0625
244.7201828956604,-400000.0625,6180.43017578125,370.4100036621094,-400000.0625,-2277.330078125,-400000.0625,4926.8701171875,-400000.0625
244.75082755088806,-400000.0625,6176.9501953125,360.7799987792969,-400000.0625,-2275.510009765625,-400000.0625,4916.56982421875,-400000.0625
244.81176662445068,-400000.0625,6189.2998046875,369.54998779296875,-400000.0625,-2264.449951171875,-400000.0625,4928.06005859375,-400000.0625
244.8570373058319,-400000.0625,6213.0,394.25,-400000.0625,-2256.43994140625,-400000.0625,4951.10009765625,-400000.0625
244.9282989501953,-400000.0625,6222.81982421875,398.05999755859375,-400000.0625,-2256.580078125,-400000.0625,4959.2001953125,-400000.0625
244.9856743812561,-400000.0625,6207.0400390625,377.2699890136719,-400000.0625,-2274.610107421875,-400000.0625,4939.990234375,-400000.0625
245.0623960494995,-400000.0625,6194.64013671875,361.3900146484375,-400000.0625,-2294.39990234375,-400000.0625,4928.2998046875,-400000.0625
245.0932755470276,-400000.0625,6209.419921875,373.75,-400000.0625,-2286.199951171875,-400000.0625,4939.080078125,-400000.0625
245.17773175239563,-400000.0625,6240.02978515625,400.0199890136719,-400000.0625,-2265.360107421875,-400000.0625,4963.490234375,-400000.0625
245.2217104434967,-400000.0625,6250.2900390625,406.54998779296875,-400000.0625,-2272.610107421875,-400000.0625,4970.4599609375,-400000.0625
245.29642534255981,-400000.0625,6237.22021484375,387.7200012207031,-400000.0625,-2280.89990234375,-400000.0625,4948.89990234375,-400000.0625
245.33134150505066,-400000.0625,6223.10986328125,370.6499938964844,-400000.0625,-2298.929931640625,-400000.0625,4938.169921875,-400000.0625
245.41426539421082,-400000.0625,6236.7001953125,384.6199951171875,-400000.0625,-2297.02001953125,-400000.0625,4956.72021484375,-400000.0625
245.4612877368927,-400000.0625,6266.4501953125,414.0899963378906,-400000.0625,-2278.3798828125,-400000.0625,4977.7998046875,-400000.0625
245.55400037765503,-400000.0625,6272.4599609375,418.95001220703125,-400000.0625,-2284.14990234375,-400000.0625,4983.66015625,-400000.0625
245.59972381591797,-400000.0625,6254.240234375,397.8299865722656,-400000.0625,-2307.030029296875,-400000.0625,4966.68994140625,-400000.0625
245.70388174057007,-400000.0625,6243.990234375,383.19000244140625,-400000.0625,-2300.169921875,-400000.0625,4951.669921875,-400000.0625
245.7729573249817,-400000.0625,6262.2998046875,397.7300109863281,-400000.0625,-2284.3798828125,-400000.0625,4966.06982421875,-400000.0625
245.80765867233276,-400000.0625,6286.91015625,423.19000244140625,-400000.0625,-2278.7099609375,-400000.0625,4989.72021484375,-400000.0625
245.88088631629944,-400000.0625,6299.259765625,430.05999755859375,-400000.0625,-2271.75,-400000.0625,4998.2099609375,-400000.0625
245.90663266181946,-400000.0625,6280.7998046875,405.92999267578125,-400000.0625,-2289.9599609375,-400000.0625,4979.93994140625,-400000.0625
245.94853138923645,-400000.0625,6268.169921875,393.05999755859375,-400000.0625,-2314.280029296875,-400000.0625,4962.43994140625,-400000.0625
246.03725934028625,-400000.0625,6282.0,405.45001220703125,-400000.0625,-2303.739990234375,-400000.0625,4974.89013671875,-400000.0625
246.06711411476135,-400000.0625,6303.740234375,430.25,-400000.0625,-2295.969970703125,-400000.0625,4996.10986328125,-400000.0625
246.11878848075867,-400000.0625,6308.02978515625,433.2099914550781,-400000.0625,-2301.260009765625,-400000.0625,5002.02001953125,-400000.0625
246.1469488143921,-400000.0625,6290.669921875,414.510009765625,-400000.0625,-2314.22998046875,-400000.0625,4984.81005859375,-400000.0625
246.16993260383606,-400000.0625,6282.759765625,401.1600036621094,-400000.0625,-2306.179931640625,-400000.0625,4972.35986328125,-400000.0625
246.22373914718628,-400000.0625,6292.6298828125,410.75,-400000.0625,-2286.340087890625,-400000.0625,4980.990234375,-400000.0625
246.26586604118347,-400000.0625,6314.47021484375,435.5400085449219,-400000.0625,-2271.27001953125,-400000.0625,5002.4501953125,-400000.0625
246.29441237449646,-400000.0625,6323.240234375,440.9800109863281,-400000.0625,-2278.7099609375,-400000.0625,5006.31005859375,-400000.0625
246.35091924667358,-400000.0625,6306.740234375,421.9100036621094,-400000.0625,-2303.409912109375,-400000.0625,4985.43017578125,-400000.0625
246.3806436061859,-400000.0625,6293.72998046875,404.6400146484375,-400000.0625,-2307.75,-400000.0625,4970.35986328125,-400000.0625
246.42861533164978,-400000.0625,6304.60009765625,417.3800048828125,-400000.0625,-2290.14990234375,-400000.0625,4982.89990234375,-400000.0625
246.48279857635498,-400000.0625,6327.43994140625,443.3599853515625,-400000.0625,-2275.56005859375,-400000.0625,5007.35986328125,-400000.0625
246.50743579864502,-400000.0625,6335.58984375,447.70001220703125,-400000.0625,-2292.300048828125,-400000.0625,5011.080078125,-400000.0625
246.52713227272034,-400000.0625,6315.85009765625,427.05999755859375,-400000.0625,-2320.14990234375,-400000.0625,4991.91015625,-400000.0625
246.55268263816833,-400000.0625,6300.5,409.2200012207031,-400000.0625,-2317.0,-400000.0625,4976.22998046875,-400000.0625
246.59839701652527,-400000.0625,6314.89990234375,423.7200012207031,-400000.0625,-2299.639892578125,-400000.0625,4987.18994140625,-400000.0625
246.62319564819336,-400000.0625,6334.64013671875,445.8399963378906,-400000.0625,-2269.320068359375,-400000.0625,5005.93017578125,-400000.0625
246.64553308486938,-400000.0625,6340.7900390625,450.75,-400000.0625,-2266.840087890625,-400000.0625,5014.22998046875,-400000.0625
246.67020201683044,-400000.0625,6328.10986328125,435.9700012207031,-400000.0625,-2295.489990234375,-400000.0625,4999.2099609375,-400000.0625
246.72477889060974,-400000.0625,6310.18017578125,416.55999755859375,-400000.0625,-2306.27001953125,-400000.0625,4984.14013671875,-400000.0625
246.74640107154846,-400000.0625,6321.10009765625,422.8599853515625,-400000.0625,-2290.110107421875,-400000.0625,4990.10009765625,-400000.0625
246.78475761413574,-400000.0625,6338.169921875,446.8399963378906,-400000.0625,-2288.389892578125,-400000.0625,5010.56005859375,-400000.0625
246.8716447353363,-400000.0625,6346.3701171875,454.80999755859375,-400000.0625,-2296.780029296875,-400000.0625,5014.31982421875,-400000.0625
246.90402150154114,-400000.0625,6327.81982421875,435.7300109863281,-400000.0625,-2304.409912109375,-400000.0625,4996.490234375,-400000.0625
246.97623372077942,-400000.0625,6317.81005859375,422.3800048828125,-400000.0625,-2314.81005859375,-400000.0625,4979.18017578125,-400000.0625
247.00595355033875,-400000.0625,6326.10009765625,430.5400085449219,-400000.0625,-2286.389892578125,-400000.0625,4985.9501953125,-400000.0625
247.0538625717163,-400000.0625,6342.93994140625,455.6199951171875,-400000.0625,-2265.739990234375,-400000.0625,5005.740234375,-400000.0625
247.08365750312805,-400000.0625,6348.52001953125,460.2900085449219,-400000.0625,-2266.64990234375,-400000.0625,5007.89013671875,-400000.0625
247.10580372810364,-400000.0625,6330.72998046875,439.30999755859375,-400000.0625,-2285.909912109375,-400000.0625,4991.6298828125,-400000.0625
247.13337922096252,-400000.0625,6317.56982421875,421.7099914550781,-400000.0625,-2298.449951171875,-400000.0625,4977.93994140625,-400000.0625
247.18561244010925,-400000.0625,6331.490234375,433.0199890136719,-400000.0625,-2294.110107421875,-400000.0625,4990.0498046875,-400000.0625
247.20476651191711,-400000.0625,6354.43017578125,456.3800048828125,-400000.0625,-2286.530029296875,-400000.0625,5011.4599609375,-400000.0625
247.23075103759766,-400000.0625,6357.9599609375,463.25,-400000.0625,-2281.429931640625,-400000.0625,5015.9501953125,-400000.0625
247.2491753101349,-400000.0625,6340.97998046875,443.0299987792969,-400000.0625,-2306.4599609375,-400000.0625,4996.10986328125,-400000.0625
247.29146122932434,-400000.0625,6321.14013671875,424.7200012207031,-400000.0625,-2310.610107421875,-400000.0625,4979.75,-400000.0625
247.32375741004944,-400000.0625,6326.81982421875,433.7300109863281,-400000.0625,-2290.110107421875,-400000.0625,4989.91015625,-400000.0625
247.34884977340698,-400000.0625,6341.83984375,458.3800048828125,-400000.0625,-2278.0400390625,-400000.0625,5005.8798828125,-400000.0625
247.36698937416077,-400000.0625,6342.1298828125,459.9599914550781,-400000.0625,-2279.949951171875,-400000.0625,5009.509765625,-400000.0625
247.4330666065216,-400000.0625,6328.77001953125,430.05999755859375,-400000.0625,-2293.010009765625,-400000.0625,5002.97998046875,-400000.0625
247.45102310180664,-400000.0625,6312.3701171875,406.4100036621094,-400000.0625,-2309.989990234375,-400000.0625,4996.25,-400000.0625
247.47190833091736,-400000.0625,6308.60009765625,414.510009765625,-400000.0625,-2307.75,-400000.0625,5007.93994140625,-400000.0625
247.50918316841125,-400000.0625,6334.93017578125,432.489990234375,-400000.0625,-2297.39990234375,-400000.0625,5038.169921875,-400000.0625
247.53489899635315,-400000.0625,6335.4501953125,424.42999267578125,-400000.0625,-2304.030029296875,-400000.0625,5049.18017578125,-400000.0625
247.55837726593018,-400000.0625,6304.31005859375,392.20001220703125,-400000.0625,-2307.080078125,-400000.0625,5034.35009765625,-400000.0625
247.58119535446167,-400000.0625,6277.990234375,365.9700012207031,-400000.0625,-2318.949951171875,-400000.0625,5025.77001953125,-400000.0625
247.6291904449463,-400000.0625,6280.14013671875,374.2200012207031,-400000.0625,-2306.219970703125,-400000.0625,5038.7900390625,-400000.0625
247.65197777748108,-400000.0625,6298.39990234375,386.04998779296875,-400000.0625,-2294.159912109375,-400000.0625,5069.8798828125,-400000.0625
247.67855429649353,-400000.0625,6298.68994140625,377.94000244140625,-400000.0625,-2304.169921875,-400000.0625,5079.3701171875,-400000.0625
247.70728635787964,-400000.0625,6273.60009765625,354.4800109863281,-400000.0625,-2315.760009765625,-400000.0625,5061.91015625,-400000.0625
247.7442328929901,-400000.0625,6253.81982421875,338.4100036621094,-400000.0625,-2319.2900390625,-400000.0625,5047.93994140625,-400000.0625
247.76857709884644,-400000.0625,6262.97021484375,350.6199951171875,-400000.0625,-2313.7099609375,-400000.0625,5057.759765625,-400000.0625
247.78694939613342,-400000.0625,6285.10009765625,371.5,-400000.0625,-2294.780029296875,-400000.0625,5076.7001953125,-400000.0625
247.8069474697113,-400000.0625,6293.580078125,375.17999267578125,-400000.0625,-2299.68994140625,-400000.0625,5082.509765625,-400000.0625
247.83038330078125,-400000.0625,6279.89990234375,355.04998779296875,-400000.0625,-2329.300048828125,-400000.0625,5065.35009765625,-400000.0625
247.88553309440613,-400000.0625,6259.35009765625,337.8900146484375,-400000.0625,-2348.760009765625,-400000.0625,5051.419921875,-400000.0625
247.90348529815674,-400000.0625,6271.97998046875,350.6199951171875,-400000.0625,-2335.02001953125,-400000.0625,5061.9599609375,-400000.0625
247.92325019836426,-400000.0625,6294.77978515625,371.3599853515625,-400000.0625,-2312.949951171875,-400000.0625,5077.89013671875,-400000.0625
247.94003033638,-400000.0625,6296.58984375,377.75,-400000.0625,-2305.699951171875,-400000.0625,5079.41015625,-400000.0625
247.99174451828003,-400000.0625,6271.22021484375,353.5299987792969,-400000.0625,-2311.280029296875,-400000.0625,5061.6298828125,-400000.0625
248.01979732513428,-400000.0625,6254.77001953125,338.510009765625,-400000.0625,-2334.449951171875,-400000.0625,5047.85009765625,-400000.0625
248.0390133857727,-400000.0625,6271.1201171875,351.95001220703125,-400000.0625,-2316.090087890625,-400000.0625,5054.89990234375,-400000.0625
248.06251621246338,-400000.0625,6291.72021484375,372.54998779296875,-400000.0625,-2288.43994140625,-400000.0625,5072.5,-400000.0625
248.1060996055603,-400000.0625,6297.06005859375,378.75,-400000.0625,-2288.77001953125,-400000.0625,5079.56005859375,-400000.0625
248.13162922859192,-400000.0625,6281.47021484375,361.9200134277344,-400000.0625,-2319.530029296875,-400000.0625,5059.91015625,-400000.0625
248.16059279441833,-400000.0625,6263.68994140625,343.94000244140625,-400000.0625,-2347.659912109375,-400000.0625,5046.22998046875,-400000.0625
248.18569803237915,-400000.0625,6271.740234375,352.3800048828125,-400000.0625,-2340.840087890625,-400000.0625,5058.240234375,-400000.0625
248.22018575668335,-400000.0625,6296.77978515625,380.0899963378906,-400000.0625,-2291.389892578125,-400000.0625,5079.22021484375,-400000.0625
248.23911690711975,-400000.0625,6298.97021484375,383.6600036621094,-400000.0625,-2283.530029296875,-400000.0625,5082.080078125,-400000.0625
248.25694823265076,-400000.0625,6277.85009765625,361.9700012207031,-400000.0625,-2311.949951171875,-400000.0625,5068.259765625,-400000.0625
248.27462697029114,-400000.0625,6268.7900390625,345.989990234375,-400000.0625,-2324.300048828125,-400000.0625,5053.14013671875,-400000.0625
248.2948441505432,-400000.0625,6275.89013671875,355.3399963378906,-400000.0625,-2318.669921875,-400000.0625,5059.0,-400000.0625
248.32898473739624,-400000.0625,6295.72998046875,378.32000732421875,-400000.0625,-2300.830078125,-400000.0625,5079.509765625,-400000.0625
248.34983468055725,-400000.0625,6302.169921875,383.57000732421875,-400000.0625,-2305.840087890625,-400000.0625,5084.52001953125,-400000.0625
248.3753480911255,-400000.0625,6282.759765625,360.9200134277344,-400000.0625,-2342.27001953125,-400000.0625,5062.52978515625,-400000.0625
248.40653562545776,-400000.0625,6264.77978515625,343.2300109863281,-400000.0625,-2334.169921875,-400000.0625,5046.419921875,-400000.0625
248.45650601387024,-400000.0625,6274.18017578125,355.04998779296875,-400000.0625,-2306.60009765625,-400000.0625,5059.2900390625,-400000.0625
248.53558015823364,-400000.0625,6296.72998046875,379.2300109863281,-400000.0625,-2286.010009765625,-400000.0625,5080.83984375,-400000.0625
248.63682913780212,-400000.0625,6301.31005859375,384.57000732421875,-400000.0625,-2281.760009765625,-400000.0625,5081.22998046875,-400000.0625
248.72059726715088,-400000.0625,6280.60986328125,363.2099914550781,-400000.0625,-2307.93994140625,-400000.0625,5059.52978515625,-400000.0625
248.76267385482788,-400000.0625,6264.2099609375,345.0400085449219,-400000.0625,-2328.489990234375,-400000.0625,5044.7001953125,-400000.0625
248.80527067184448,-400000.0625,6272.7001953125,355.42999267578125,-400000.0625,-2330.72998046875,-400000.0625,5054.52001953125,-400000.0625
248.84275007247925,-400000.0625,6295.58984375,378.0400085449219,-400000.0625,-2325.14990234375,-400000.0625,5075.31005859375,-400000.0625
248.92766785621643,-400000.0625,6298.64013671875,380.4200134277344,-400000.0625,-2322.47998046875,-400000.0625,5079.31982421875,-400000.0625
248.98537802696228,-400000.0625,6278.31982421875,360.5400085449219,-400000.0625,-2308.22998046875,-400000.0625,5056.2900390625,-400000.0625
249.021639585495,-400000.0625,6261.490234375,341.8399963378906,-400000.0625,-2317.860107421875,-400000.0625,5046.31982421875,-400000.0625
249.0573616027832,-400000.0625,6268.1201171875,349.4700012207031,-400000.0625,-2318.81005859375,-400000.0625,5054.89990234375,-400000.0625
249.14661240577698,-400000.0625,6290.580078125,375.75,-400000.0625,-2310.85009765625,-400000.0625,5071.77978515625,-400000.0625
249.1846628189087,-400000.0625,6293.39013671875,380.17999267578125,-400000.0625,-2302.739990234375,-400000.0625,5078.97998046875,-400000.0625
249.22824788093567,-400000.0625,6276.509765625,360.1099853515625,-400000.0625,-2324.580078125,-400000.0625,5058.33984375,-400000.0625
249.25193619728088,-400000.0625,6262.5400390625,341.989990234375,-400000.0625,-2337.1201171875,-400000.0625,5041.83984375,-400000.0625
249.30040621757507,-400000.0625,6271.27001953125,349.19000244140625,-400000.0625,-2327.72998046875,-400000.0625,5043.89013671875,-400000.0625
249.3748278617859,-400000.0625,6289.39013671875,371.2699890136719,-400000.0625,-2304.360107421875,-400000.0625,5064.919921875,-400000.0625
249.45628213882446,-400000.0625,6292.14990234375,378.0799865722656,-400000.0625,-2297.2099609375,-400000.0625,5074.93017578125,-400000.0625
249.5485873222351,-400000.0625,6272.1298828125,358.3900146484375,-400000.0625,-2313.330078125,-400000.0625,5058.0,-400000.0625
249.58272409439087,-400000.0625,6255.14990234375,340.6000061035156,-400000.0625,-2327.389892578125,-400000.0625,5040.5498046875,-400000.0625
249.6633017063141,-400000.0625,6261.72998046875,348.2799987792969,-400000.0625,-2322.77001953125,-400000.0625,5047.60986328125,-400000.0625
249.75314664840698,-400000.0625,6287.2900390625,374.70001220703125,-400000.0625,-2309.469970703125,-400000.0625,5066.5400390625,-400000.0625
249.82949781417847,-400000.0625,6290.39013671875,379.55999755859375,-400000.0625,-2307.64990234375,-400000.0625,5071.06982421875,-400000.0625
249.87680006027222,-400000.0625,6270.5498046875,358.489990234375,-400000.0625,-2327.780029296875,-400000.0625,5058.43017578125,-400000.0625
249.93915581703186,-400000.0625,6247.7099609375,334.30999755859375,-400000.0625,-2347.85009765625,-400000.0625,5044.64990234375,-400000.0625
249.97125458717346,-400000.0625,6255.33984375,346.95001220703125,-400000.0625,-2319.3798828125,-400000.0625,5048.75,-400000.0625
250.018976688385,-400000.0625,6305.5,389.42999267578125,-400000.0625,-2289.489990234375,-400000.0625,5066.58984375,-400000.0625
250.08641648292542,-400000.0625,6325.47998046875,403.45001220703125,-400000.0625,-2292.72998046875,-400000.0625,5067.16015625,-400000.0625
250.1259527206421,-400000.0625,6313.22998046875,390.010009765625,-400000.0625,-2314.22998046875,-400000.0625,5040.5498046875,-400000.0625
250.21144914627075,-400000.0625,6301.39990234375,378.8500061035156,-400000.0625,-2312.139892578125,-400000.0625,5016.60986328125,-400000.0625
250.2460925579071,-400000.0625,6321.0498046875,400.8299865722656,-400000.0625,-2313.18994140625,-400000.0625,5021.91015625,-400000.0625
250.28339910507202,-400000.0625,6352.330078125,430.3900146484375,-400000.0625,-2300.31005859375,-400000.0625,5032.02001953125,-400000.0625
250.30157351493835,-400000.0625,6357.0,439.1700134277344,-400000.0625,-2284.2900390625,-400000.0625,5024.85986328125,-400000.0625
250.31535053253174,-400000.0625,6338.1201171875,424.04998779296875,-400000.0625,-2287.2900390625,-400000.0625,4999.72998046875,-400000.0625
250.3346140384674,-400000.0625,6324.580078125,410.1300048828125,-400000.0625,-2312.469970703125,-400000.0625,4980.14013671875,-400000.0625
250.34836745262146,-400000.0625,6333.16015625,418.8999938964844,-400000.0625,-2315.6201171875,-400000.0625,4981.9501953125,-400000.0625
250.37643885612488,-400000.0625,6363.9599609375,449.0899963378906,-400000.0625,-2284.81005859375,-400000.0625,5006.97998046875,-400000.0625
250.4063000679016,-400000.0625,6375.080078125,460.42999267578125,-400000.0625,-2282.10009765625,-400000.0625,5013.85009765625,-400000.0625
250.43607449531555,-400000.0625,6352.3798828125,438.260009765625,-400000.0625,-2297.2099609375,-400000.0625,4993.39013671875,-400000.0625
250.45291829109192,-400000.0625,6335.06982421875,419.0899963378906,-400000.0625,-2298.449951171875,-400000.0625,4979.75,-400000.0625
250.51819109916687,-400000.0625,6343.080078125,432.6300048828125,-400000.0625,-2298.2099609375,-400000.0625,4990.77001953125,-400000.0625
250.55993509292603,-400000.0625,6365.10986328125,458.2900085449219,-400000.0625,-2297.929931640625,-400000.0625,5013.1298828125,-400000.0625
250.6084749698639,-400000.0625,6367.490234375,461.1499938964844,-400000.0625,-2292.679931640625,-400000.0625,5020.759765625,-400000.0625
250.6262333393097,-400000.0625,6344.7998046875,435.29998779296875,-400000.0625,-2304.739990234375,-400000.0625,4998.02001953125,-400000.0625
250.65871930122375,-400000.0625,6326.81982421875,414.510009765625,-400000.0625,-2307.27001953125,-400000.0625,4979.60986328125,-400000.0625
250.6910755634308,-400000.0625,6336.68994140625,425.7200012207031,-400000.0625,-2294.8701171875,-400000.0625,4988.6201171875,-400000.0625
250.72763657569885,-400000.0625,6359.2001953125,453.4200134277344,-400000.0625,-2279.330078125,-400000.0625,5006.7900390625,-400000.0625
250.76445722579956,-400000.0625,6362.8701171875,458.1000061035156,-400000.0625,-2271.27001953125,-400000.0625,5013.27978515625,-400000.0625
250.78214311599731,-400000.0625,6339.64990234375,432.67999267578125,-400000.0625,-2298.8798828125,-400000.0625,4996.009765625,-400000.0625
250.7998821735382,-400000.0625,6322.91015625,414.79998779296875,-400000.0625,-2323.719970703125,-400000.0625,4981.7099609375,-400000.0625
250.8301067352295,-400000.0625,6335.5498046875,427.8699951171875,-400000.0625,-2310.85009765625,-400000.0625,4990.81982421875,-400000.0625
250.84700345993042,-400000.0625,6360.77001953125,451.4700012207031,-400000.0625,-2285.77001953125,-400000.0625,5011.60986328125,-400000.0625
250.8708598613739,-400000.0625,6355.81005859375,450.2799987792969,-400000.0625,-2284.10009765625,-400000.0625,5018.52001953125,-400000.0625
250.88835215568542,-400000.0625,6336.2099609375,430.1099853515625,-400000.0625,-2299.070068359375,-400000.0625,4998.72998046875,-400000.0625
250.905668258667,-400000.0625,6325.580078125,412.2699890136719,-400000.0625,-2321.429931640625,-400000.0625,4979.66015625,-400000.0625
250.93841314315796,-400000.0625,6332.2998046875,421.0,-400000.0625,-2314.89990234375,-400000.0625,4988.81005859375,-400000.0625
250.9672520160675,-400000.0625,6354.14013671875,446.70001220703125,-400000.0625,-2274.56005859375,-400000.0625,5007.080078125,-400000.0625
250.98593401908875,-400000.0625,6361.8701171875,455.1400146484375,-400000.0625,-2274.22998046875,-400000.0625,5013.85009765625,-400000.0625
251.00013065338135,-400000.0625,6336.31005859375,431.5899963378906,-400000.0625,-2297.02001953125,-400000.0625,4996.2001953125,-400000.0625
251.01781272888184,-400000.0625,6322.18994140625,413.3699951171875,-400000.0625,-2314.949951171875,-400000.0625,4981.14013671875,-400000.0625
251.07346439361572,-400000.0625,6329.97021484375,422.04998779296875,-400000.0625,-2313.419921875,-400000.0625,4986.81005859375,-400000.0625
251.10148811340332,-400000.0625,6351.47021484375,444.1300048828125,-400000.0625,-2292.25,-400000.0625,5011.1298828125,-400000.0625
251.1201937198639,-400000.0625,6359.240234375,446.989990234375,-400000.0625,-2300.550048828125,-400000.0625,5019.0,-400000.0625
251.16093945503235,-400000.0625,6339.93017578125,427.6300048828125,-400000.0625,-2321.10009765625,-400000.0625,4996.68017578125,-400000.0625
251.1802225112915,-400000.0625,6322.669921875,412.4200134277344,-400000.0625,-2314.139892578125,-400000.0625,4978.60986328125,-400000.0625
251.19783425331116,-400000.0625,6333.39990234375,424.04998779296875,-400000.0625,-2291.159912109375,-400000.0625,4988.3798828125,-400000.0625
251.21302103996277,-400000.0625,6356.0498046875,447.6499938964844,-400000.0625,-2275.090087890625,-400000.0625,5014.27978515625,-400000.0625
251.2627067565918,-400000.0625,6361.2001953125,454.1400146484375,-400000.0625,-2282.3798828125,-400000.0625,5022.33984375,-400000.0625
251.3339467048645,-400000.0625,6344.02978515625,435.5,-400000.0625,-2296.8798828125,-400000.0625,4998.72998046875,-400000.0625
251.37216806411743,-400000.0625,6324.33984375,413.70001220703125,-400000.0625,-2317.570068359375,-400000.0625,4980.85009765625,-400000.0625
251.44640183448792,-400000.0625,6328.81982421875,423.19000244140625,-400000.0625,-2330.489990234375,-400000.0625,4988.0,-400000.0625
251.49176383018494,-400000.0625,6348.27978515625,446.0799865722656,-400000.0625,-2309.22998046875,-400000.0625,5006.27001953125,-400000.0625
251.58678698539734,-400000.0625,6340.740234375,446.0299987792969,-400000.0625,-2283.860107421875,-400000.0625,5010.4599609375,-400000.0625
251.6468985080719,-400000.0625,6327.68017578125,427.1499938964844,-400000.0625,-2289.6298828125,-400000.0625,4995.5400390625,-400000.0625
251.7260823249817,-400000.0625,6325.009765625,415.989990234375,-400000.0625,-2303.31005859375,-400000.0625,4978.89990234375,-400000.0625
251.7596037387848,-400000.0625,6332.35009765625,428.3399963378906,-400000.0625,-2292.389892578125,-400000.0625,4978.85009765625,-400000.0625
251.81213068962097,-400000.0625,6362.77001953125,456.8599853515625,-400000.0625,-2269.889892578125,-400000.0625,4995.97021484375,-400000.0625
251.86464595794678,-400000.0625,6380.02978515625,468.44000244140625,-400000.0625,-2264.68994140625,-400000.0625,4995.490234375,-400000.0625
251.9376106262207,-400000.0625,6345.31982421875,447.4200134277344,-400000.0625,-2286.9599609375,-400000.0625,4971.41015625,-400000.0625
251.97832465171814,-400000.0625,6333.58984375,433.45001220703125,-400000.0625,-2312.949951171875,-400000.0625,4948.08984375,-400000.0625
252.04277849197388,-400000.0625,6343.509765625,446.989990234375,-400000.0625,-2296.68994140625,-400000.0625,4946.60986328125,-400000.0625
252.09083676338196,-400000.0625,6361.009765625,471.69000244140625,-400000.0625,-2280.239990234375,-400000.0625,4964.259765625,-400000.0625
252.15187692642212,-400000.0625,6369.8798828125,481.6499938964844,-400000.0625,-2270.56005859375,-400000.0625,4966.31005859375,-400000.0625
252.1844666004181,-400000.0625,6357.0498046875,467.3999938964844,-400000.0625,-2282.239990234375,-400000.0625,4945.89990234375,-400000.0625
252.21266317367554,-400000.0625,6338.8798828125,450.8500061035156,-400000.0625,-2293.39990234375,-400000.0625,4930.97021484375,-400000.0625
252.26679921150208,-400000.0625,6343.89013671875,462.4800109863281,-400000.0625,-2282.47998046875,-400000.0625,4934.22021484375,-400000.0625
252.31840419769287,-400000.0625,6364.490234375,484.1300048828125,-400000.0625,-2265.360107421875,-400000.0625,4956.8701171875,-400000.0625
252.36991429328918,-400000.0625,6368.39990234375,488.6600036621094,-400000.0625,-2269.27001953125,-400000.0625,4964.77978515625,-400000.0625
252.41122150421143,-400000.0625,6350.330078125,465.9200134277344,-400000.0625,-2292.72998046875,-400000.0625,4947.419921875,-400000.0625
252.42871069908142,-400000.0625,6331.72998046875,447.4599914550781,-400000.0625,-2292.590087890625,-400000.0625,4928.16015625,-400000.0625
252.45653414726257,-400000.0625,6338.8798828125,456.2900085449219,-400000.0625,-2281.669921875,-400000.0625,4934.60009765625,-400000.0625
252.47345757484436,-400000.0625,6362.81982421875,482.1300048828125,-400000.0625,-2270.169921875,-400000.0625,4956.2001953125,-400000.0625
252.49236536026,-400000.0625,6368.4501953125,492.1400146484375,-400000.0625,-2268.409912109375,-400000.0625,4961.68017578125,-400000.0625
252.5059633255005,-400000.0625,6346.56005859375,468.3500061035156,-400000.0625,-2275.090087890625,-400000.0625,4944.56005859375,-400000.0625
252.5195436477661,-400000.0625,6332.35009765625,451.1400146484375,-400000.0625,-2284.2900390625,-400000.0625,4928.97021484375,-400000.0625
252.53506779670715,-400000.0625,6343.56005859375,463.82000732421875,-400000.0625,-2295.919921875,-400000.0625,4937.1201171875,-400000.0625
252.56142592430115,-400000.0625,6364.5400390625,483.8500061035156,-400000.0625,-2273.080078125,-400000.0625,4958.81982421875,-400000.0625
252.57490944862366,-400000.0625,6364.97021484375,484.17999267578125,-400000.0625,-2265.68994140625,-400000.0625,4961.10986328125,-400000.0625
252.5879361629486,-400000.0625,6346.66015625,464.489990234375,-400000.0625,-2282.239990234375,-400000.0625,4943.7998046875,-400000.0625
252.6056191921234,-400000.0625,6327.580078125,444.1700134277344,-400000.0625,-2284.77001953125,-400000.0625,4925.2998046875,-400000.0625
252.6199676990509,-400000.0625,6338.169921875,454.2799987792969,-400000.0625,-2267.409912109375,-400000.0625,4931.31005859375,-400000.0625
252.63444781303406,-400000.0625,6362.14990234375,483.510009765625,-400000.0625,-2259.449951171875,-400000.0625,4956.580078125,-400000.0625
252.6491596698761,-400000.0625,6365.490234375,487.6099853515625,-400000.0625,-2277.330078125,-400000.0625,4963.2998046875,-400000.0625
252.68826532363892,-400000.0625,6350.52001953125,467.44000244140625,-400000.0625,-2292.25,-400000.0625,4945.89990234375,-400000.0625
252.70533537864685,-400000.0625,6328.009765625,446.94000244140625,-400000.0625,-2284.239990234375,-400000.0625,4929.02001953125,-400000.0625
252.72285556793213,-400000.0625,6335.16015625,456.4800109863281,-400000.0625,-2274.699951171875,-400000.0625,4938.169921875,-400000.0625
252.74694561958313,-400000.0625,6364.2998046875,480.1300048828125,-400000.0625,-2267.7900390625,-400000.0625,4960.919921875,-400000.0625
252.77620577812195,-400000.0625,6369.58984375,485.94000244140625,-400000.0625,-2274.659912109375,-400000.0625,4965.35009765625,-400000.0625
253.1471447944641,-400000.0625,6346.3701171875,464.7300109863281,-400000.0625,-2284.860107421875,-400000.0625,4946.759765625,-400000.0625
253.32560276985168,-400000.0625,6327.2998046875,446.55999755859375,-400000.0625,-2290.5400390625,-400000.0625,4932.740234375,-400000.0625
253.44501042366028,-400000.0625,6338.8798828125,456.6199951171875,-400000.0625,-2277.89990234375,-400000.0625,4940.18017578125,-400000.0625
253.62213277816772,-400000.0625,6358.77001953125,479.2699890136719,-400000.0625,-2272.3701171875,-400000.0625,4959.580078125,-400000.0625
253.788747549057,-400000.0625,6363.81982421875,484.75,-400000.0625,-2275.320068359375,-400000.0625,4967.830078125,-400000.0625
253.97997403144836,-400000.0625,6349.7998046875,468.6400146484375,-400000.0625,-2292.43994140625,-400000.0625,4954.0,-400000.0625
254.16776323318481,-400000.0625,6330.06005859375,449.2799987792969,-400000.0625,-2297.68994140625,-400000.0625,4934.35986328125,-400000.0625
254.33662962913513,-400000.0625,6339.259765625,458.04998779296875,-400000.0625,-2277.7099609375,-400000.0625,4940.990234375,-400000.0625
254.52295851707458,-400000.0625,6359.77001953125,480.2699890136719,-400000.0625,-2252.340087890625,-400000.0625,4961.77978515625,-400000.0625
254.7177791595459,-400000.0625,6367.830078125,490.239990234375,-400000.0625,-2259.919921875,-400000.0625,4969.740234375,-400000.0625
254.9112091064453,-400000.0625,6352.330078125,471.3500061035156,-400000.0625,-2286.77001953125,-400000.0625,4953.77001953125,-400000.0625
255.0870225429535,-400000.0625,6335.02001953125,450.0899963378906,-400000.0625,-2297.1201171875,-400000.0625,4937.740234375,-400000.0625
255.2297923564911,-400000.0625,6336.169921875,458.04998779296875,-400000.0625,-2278.949951171875,-400000.0625,4946.14013671875,-400000.0625
255.42172741889954,-400000.0625,6360.14990234375,480.94000244140625,-400000.0625,-2260.489990234375,-400000.0625,4964.97021484375,-400000.0625
255.61685299873352,-400000.0625,6367.02001953125,488.0899963378906,-400000.0625,-2268.4599609375,-400000.0625,4969.22021484375,-400000.0625
255.76488947868347,-400000.0625,6348.66015625,468.5400085449219,-400000.0625,-2288.679931640625,-400000.0625,4953.240234375,-400000.0625
255.9184639453888,-400000.0625,6334.8798828125,451.0400085449219,-400000.0625,-2292.25,-400000.0625,4939.4599609375,-400000.0625
256.08568954467773,-400000.0625,6340.5498046875,458.57000732421875,-400000.0625,-2282.239990234375,-400000.0625,4942.93994140625,-400000.0625
256.2487015724182,-400000.0625,6361.490234375,481.0299987792969,-400000.0625,-2254.199951171875,-400000.0625,4959.009765625,-400000.0625
256.45790672302246,-400000.0625,6370.4501953125,487.5199890136719,-400000.0625,-2247.139892578125,-400000.0625,4964.39990234375,-400000.0625
256.62812876701355,-400000.0625,6347.7001953125,465.9700012207031,-400000.0625,-2267.030029296875,-400000.0625,4954.0,-400000.0625
256.82038593292236,-400000.0625,6332.2099609375,449.32000732421875,-400000.0625,-2280.280029296875,-400000.0625,4935.68994140625,-400000.0625
257.0309796333313,-400000.0625,6339.60009765625,456.760009765625,-400000.0625,-2283.429931640625,-400000.0625,4936.5,-400000.0625
257.24487566947937,-400000.0625,6361.52978515625,480.0799865722656,-400000.0625,-2285.0,-400000.0625,4961.5400390625,-400000.0625
257.4164276123047,-400000.0625,6367.39990234375,485.75,-400000.0625,-2281.280029296875,-400000.0625,4971.27001953125,-400000.0625
257.5699315071106,-400000.0625,6347.3701171875,466.3900146484375,-400000.0625,-2267.889892578125,-400000.0625,4951.52978515625,-400000.0625
257.72139501571655,-400000.0625,6327.2998046875,447.17999267578125,-400000.0625,-2274.469970703125,-400000.0625,4929.259765625,-400000.0625
257.95949697494507,-400000.0625,6332.97021484375,453.5199890136719,-400000.0625,-2275.659912109375,-400000.0625,4932.06982421875,-400000.0625
258.29023814201355,-400000.0625,6358.10009765625,476.7900085449219,-400000.0625,-2267.219970703125,-400000.0625,4954.91015625,-400000.0625
258.53187084198,-400000.0625,6382.56005859375,496.3399963378906,-400000.0625,-2252.47998046875,-400000.0625,4966.16015625,-400000.0625
258.7260785102844,-400000.0625,6367.2998046875,480.55999755859375,-400000.0625,-2267.64990234375,-400000.0625,4946.14013671875,-400000.0625
258.89671444892883,-400000.0625,6346.75,464.29998779296875,-400000.0625,-2290.9599609375,-400000.0625,4922.2998046875,-400000.0625
259.0550446510315,-400000.0625,6362.919921875,476.8800048828125,-400000.0625,-2289.389892578125,-400000.0625,4925.25,-400000.0625
259.3419351577759,-400000.0625,6387.14013671875,504.05999755859375,-400000.0625,-2267.5,-400000.0625,4942.47021484375,-400000.0625
259.4956479072571,-400000.0625,6394.0498046875,517.4199829101562,-400000.0625,-2249.909912109375,-400000.0625,4943.66015625,-400000.0625
259.69622826576233,-400000.0625,6374.64990234375,503.2099914550781,-400000.0625,-2249.860107421875,-400000.0625,4922.68017578125,-400000.0625
259.8346219062805,-400000.0625,6355.10009765625,483.79998779296875,-400000.0625,-2259.06005859375,-400000.0625,4900.02978515625,-400000.0625
259.95971179008484,-400000.0625,6375.7001953125,499.8699951171875,-400000.0625,-2256.5400390625,-400000.0625,4908.60986328125,-400000.0625
260.15071392059326,-400000.0625,6396.490234375,522.7999877929688,-400000.0625,-2253.010009765625,-400000.0625,4929.830078125,-400000.0625
260.3090817928314,-400000.0625,6401.25,528.6699829101562,-400000.0625,-2242.330078125,-400000.0625,4929.4501953125,-400000.0625
260.5272331237793,-400000.0625,6381.1298828125,508.5899963378906,-400000.0625,-2259.39990234375,-400000.0625,4911.52001953125,-400000.0625
260.65945649147034,-400000.0625,6362.33984375,490.3800048828125,-400000.0625,-2299.5,-400000.0625,4898.830078125,-400000.0625
260.77750849723816,-400000.0625,6368.06982421875,496.6700134277344,-400000.0625,-2296.02001953125,-400000.0625,4906.56005859375,-400000.0625
260.9958462715149,-400000.0625,6390.3798828125,519.75,-400000.0625,-2255.9599609375,-400000.0625,4922.43994140625,-400000.0625
261.1372585296631,-400000.0625,6393.85986328125,527.0499877929688,-400000.0625,-2237.56005859375,-400000.0625,4927.4501953125,-400000.0625
261.31567454338074,-400000.0625,6378.7900390625,510.260009765625,-400000.0625,-2252.14990234375,-400000.0625,4909.0400390625,-400000.0625
261.4419102668762,-400000.0625,6360.43994140625,488.8999938964844,-400000.0625,-2267.889892578125,-400000.0625,4894.5400390625,-400000.0625
261.6158378124237,-400000.0625,6365.25,495.9100036621094,-400000.0625,-2270.169921875,-400000.0625,4899.7900390625,-400000.0625
261.7551381587982,-400000.0625,6381.56005859375,518.6599731445312,-400000.0625,-2257.199951171875,-400000.0625,4922.10009765625,-400000.0625
261.9037780761719,-400000.0625,6388.89990234375,525.239990234375,-400000.0625,-2260.300048828125,-400000.0625,4928.2099609375,-400000.0625
262.0452718734741,-400000.0625,6370.5498046875,506.2099914550781,-400000.0625,-2272.219970703125,-400000.0625,4913.0,-400000.0625
262.1753273010254,-400000.0625,6353.0498046875,485.3699951171875,-400000.0625,-2280.330078125,-400000.0625,4896.58984375,-400000.0625
262.3331558704376,-400000.0625,6357.14990234375,491.42999267578125,-400000.0625,-2272.419921875,-400000.0625,4903.169921875,-400000.0625
262.6076445579529,-400000.0625,6384.56005859375,517.0800170898438,-400000.0625,-2251.719970703125,-400000.0625,4926.10986328125,-400000.0625
262.8112373352051,-400000.0625,6396.81982421875,528.3400268554688,-400000.0625,-2262.449951171875,-400000.0625,4933.5498046875,-400000.0625
262.9620170593262,-400000.0625,6375.080078125,508.92999267578125,-400000.0625,-2263.1201171875,-400000.0625,4915.91015625,-400000.0625
263.14735746383667,-400000.0625,6355.0,486.6600036621094,-400000.0625,-2265.97998046875,-400000.0625,4896.4501953125,-400000.0625
263.3308765888214,-400000.0625,6361.39013671875,495.3399963378906,-400000.0625,-2256.43994140625,-400000.0625,4904.41015625,-400000.0625
263.51964116096497,-400000.0625,6385.47021484375,519.5599975585938,-400000.0625,-2241.0400390625,-400000.0625,4931.5,-400000.0625
263.66806173324585,-400000.0625,6399.06005859375,532.6699829101562,-400000.0625,-2250.389892578125,-400000.0625,4944.0400390625,-400000.0625
263.81683325767517,-400000.0625,6376.60009765625,509.6000061035156,-400000.0625,-2270.64990234375,-400000.0625,4926.06005859375,-400000.0625
263.9414999485016,-400000.0625,6356.85986328125,487.2300109863281,-400000.0625,-2288.909912109375,-400000.0625,4904.22021484375,-400000.0625
264.1421139240265,-400000.0625,6363.33984375,494.1499938964844,-400000.0625,-2288.820068359375,-400000.0625,4911.0400390625,-400000.0625
264.28299736976624,-400000.0625,6387.08984375,517.8900146484375,-400000.0625,-2261.2099609375,-400000.0625,4930.02001953125,-400000.0625
264.4459578990936,-400000.0625,6397.14990234375,529.0,-400000.0625,-2235.030029296875,-400000.0625,4936.41015625,-400000.0625
264.5988042354584,-400000.0625,6374.02978515625,509.2099914550781,-400000.0625,-2253.47998046875,-400000.0625,4922.919921875,-400000.0625
264.76414012908936,-400000.0625,6358.0498046875,486.760009765625,-400000.0625,-2282.760009765625,-400000.0625,4906.85009765625,-400000.0625
264.91006684303284,-400000.0625,6363.43994140625,492.04998779296875,-400000.0625,-2270.409912109375,-400000.0625,4910.9501953125,-400000.0625
265.10989332199097,-400000.0625,6381.7998046875,514.7899780273438,-400000.0625,-2254.679931640625,-400000.0625,4934.06982421875,-400000.0625
265.23234009742737,-400000.0625,6392.43017578125,523.52001953125,-400000.0625,-2246.89990234375,-400000.0625,4940.93994140625,-400000.0625
265.3728928565979,-400000.0625,6375.97998046875,505.8800048828125,-400000.0625,-2261.110107421875,-400000.0625,4922.9599609375,-400000.0625
265.6710374355316,-400000.0625,6355.240234375,486.2300109863281,-400000.0625,-2291.489990234375,-400000.0625,4906.64990234375,-400000.0625
265.88124680519104,-400000.0625,6363.919921875,495.6199951171875,-400000.0625,-2276.949951171875,-400000.0625,4915.2900390625,-400000.0625
266.1330602169037,-400000.0625,6388.6201171875,519.0399780273438,-400000.0625,-2258.919921875,-400000.0625,4938.89013671875,-400000.0625
266.2997839450836,-400000.0625,6395.9599609375,527.4299926757812,-400000.0625,-2246.0,-400000.0625,4944.75,-400000.0625
266.4409122467041,-400000.0625,6379.64990234375,506.260009765625,-400000.0625,-2256.820068359375,-400000.0625,4925.39013671875,-400000.0625
266.57818603515625,-400000.0625,6355.330078125,487.3800048828125,-400000.0625,-2268.510009765625,-400000.0625,4907.1298828125,-400000.0625
266.76570892333984,-400000.0625,6364.06005859375,492.42999267578125,-400000.0625,-2265.31005859375,-400000.0625,4918.39013671875,-400000.0625
266.9515917301178,-400000.0625,6386.08984375,515.030029296875,-400000.0625,-2255.5400390625,-400000.0625,4941.85009765625,-400000.0625
267.13118720054626,-400000.0625,6388.08984375,518.989990234375,-400000.0625,-2264.070068359375,-400000.0625,4947.14013671875,-400000.0625
267.3105490207672,-400000.0625,6367.02001953125,501.9700012207031,-400000.0625,-2284.9599609375,-400000.0625,4921.580078125,-400000.0625
267.45813512802124,-400000.0625,6341.89013671875,483.94000244140625,-400000.0625,-2288.389892578125,-400000.0625,4899.8798828125,-400000.0625
267.6863503456116,-400000.0625,6349.52001953125,484.7099914550781,-400000.0625,-2274.22998046875,-400000.0625,4921.33984375,-400000.0625
267.8974463939667,-400000.0625,6375.97998046875,498.82000732421875,-400000.0625,-2248.050048828125,-400000.0625,4956.9599609375,-400000.0625
268.04811120033264,-400000.0625,6381.89013671875,504.45001220703125,-400000.0625,-2239.280029296875,-400000.0625,4969.97998046875,-400000.0625
268.2590868473053,-400000.0625,6360.43994140625,477.6000061035156,-400000.0625,-2259.300048828125,-400000.0625,4960.35009765625,-400000.0625
268.51734948158264,-400000.0625,6342.7001953125,449.0400085449219,-400000.0625,-2288.2900390625,-400000.0625,4953.81005859375,-400000.0625
268.71034598350525,-400000.0625,6349.47021484375,446.8900146484375,-400000.0625,-2289.719970703125,-400000.0625,4967.1201171875,-400000.0625
268.8988859653473,-400000.0625,6359.52978515625,457.3299865722656,-400000.0625,-2280.6201171875,-400000.0625,5000.5,-400000.0625
269.0583837032318,-400000.0625,6365.72998046875,458.19000244140625,-400000.0625,-2285.14990234375,-400000.0625,5016.7099609375,-400000.0625
269.2961974143982,-400000.0625,6347.93994140625,429.1099853515625,-400000.0625,-2291.06005859375,-400000.0625,5001.4501953125,-400000.0625
269.4854142665863,-400000.0625,6321.56982421875,404.54998779296875,-400000.0625,-2299.02001953125,-400000.0625,4987.72021484375,-400000.0625
269.69175362586975,-400000.0625,6328.5400390625,411.94000244140625,-400000.0625,-2292.820068359375,-400000.0625,5000.8798828125,-400000.0625
269.89104557037354,-400000.0625,6362.43994140625,440.4100036621094,-400000.0625,-2308.93994140625,-400000.0625,5024.580078125,-400000.0625
270.1012878417969,-400000.0625,6367.10986328125,442.4599914550781,-400000.0625,-2294.2099609375,-400000.0625,5030.43994140625,-400000.0625
270.3358647823334,-400000.0625,6344.3701171875,417.8500061035156,-400000.0625,-2286.2900390625,-400000.0625,5013.7001953125,-400000.0625
270.4942183494568,-400000.0625,6331.39990234375,402.1199951171875,-400000.0625,-2313.18994140625,-400000.0625,4995.8701171875,-400000.0625
270.714967250824,-400000.0625,6335.830078125,409.510009765625,-400000.0625,-2295.68994140625,-400000.0625,5001.4501953125,-400000.0625
271.0296585559845,-400000.0625,6361.72021484375,431.44000244140625,-400000.0625,-2272.030029296875,-400000.0625,5023.14990234375,-400000.0625
271.220312833786,-400000.0625,6371.58984375,441.92999267578125,-400000.0625,-2279.85009765625,-400000.0625,5030.43994140625,-400000.0625
271.46614480018616,-400000.0625,6348.75,420.6700134277344,-400000.0625,-2311.419921875,-400000.0625,5011.3701171875,-400000.0625
271.6642687320709,-400000.0625,6331.39990234375,404.69000244140625,-400000.0625,-2316.6201171875,-400000.0625,4996.490234375,-400000.0625
271.83961963653564,-400000.0625,6340.7001953125,411.510009765625,-400000.0625,-2300.60009765625,-400000.0625,5004.5498046875,-400000.0625
272.0300896167755,-400000.0625,6361.9599609375,433.8699951171875,-400000.0625,-2277.89990234375,-400000.0625,5029.10986328125,-400000.0625
272.3261384963989,-400000.0625,6372.169921875,441.5,-400000.0625,-2271.699951171875,-400000.0625,5033.77978515625,-400000.0625
272.5221469402313,-400000.0625,6351.759765625,424.3399963378906,-400000.0625,-2292.159912109375,-400000.0625,5018.14013671875,-400000.0625
272.8054373264313,-400000.0625,6329.25,403.45001220703125,-400000.0625,-2308.4599609375,-400000.0625,5000.259765625,-400000.0625
273.15616750717163,-400000.0625,6342.1298828125,413.510009765625,-400000.0625,-2300.360107421875,-400000.0625,5006.83984375,-400000.0625
273.32752752304077,-400000.0625,6367.58984375,440.5,-400000.0625,-2291.8701171875,-400000.0625,5028.10986328125,-400000.0625
273.66711020469666,-400000.0625,6369.31005859375,449.6099853515625,-400000.0625,-2284.570068359375,-400000.0625,5032.10986328125,-400000.0625
273.8292157649994,-400000.0625,6354.9501953125,434.5400085449219,-400000.0625,-2284.530029296875,-400000.0625,5018.18994140625,-400000.0625
273.96908235549927,-400000.0625,6339.259765625,417.0400085449219,-400000.0625,-2307.510009765625,-400000.0625,5000.5400390625,-400000.0625
274.1992676258087,-400000.0625,6344.27001953125,421.04998779296875,-400000.0625,-2308.419921875,-400000.0625,5009.3701171875,-400000.0625
274.3368899822235,-400000.0625,6366.39990234375,443.0299987792969,-400000.0625,-2282.760009765625,-400000.0625,5030.5400390625,-400000.0625
274.57735776901245,-400000.0625,6374.31005859375,454.57000732421875,-400000.0625,-2276.3701171875,-400000.0625,5037.02001953125,-400000.0625
274.70324635505676,-400000.0625,6353.330078125,432.9200134277344,-400000.0625,-2284.340087890625,-400000.0625,5019.6201171875,-400000.0625
274.84724044799805,-400000.0625,6332.490234375,413.2699890136719,-400000.0625,-2303.31005859375,-400000.0625,5003.02001953125,-400000.0625
275.1381742954254,-400000.0625,6340.7900390625,422.4800109863281,-400000.0625,-2293.43994140625,-400000.0625,5007.7900390625,-400000.0625
275.3566474914551,-400000.0625,6366.43994140625,443.6000061035156,-400000.0625,-2264.639892578125,-400000.0625,5029.35009765625,-400000.0625
275.5072991847992,-400000.0625,6374.97998046875,456.80999755859375,-400000.0625,-2266.360107421875,-400000.0625,5040.60009765625,-400000.0625
275.63715648651123,-400000.0625,6359.47998046875,440.6000061035156,-400000.0625,-2293.679931640625,-400000.0625,5022.56982421875,-400000.0625
275.74683809280396,-400000.0625,6346.56005859375,421.7099914550781,-400000.0625,-2311.179931640625,-400000.0625,5002.68994140625,-400000.0625
275.89790058135986,-400000.0625,6349.7998046875,427.6300048828125,-400000.0625,-2313.090087890625,-400000.0625,5011.22998046875,-400000.0625
276.02779054641724,-400000.0625,6366.06005859375,445.94000244140625,-400000.0625,-2284.3798828125,-400000.0625,5031.8701171875,-400000.0625
276.17154145240784,-400000.0625,6371.8798828125,450.4200134277344,-400000.0625,-2273.080078125,-400000.0625,5032.97021484375,-400000.0625
276.32426142692566,-400000.0625,6355.91015625,431.9700012207031,-400000.0625,-2294.5400390625,-400000.0625,5019.08984375,-400000.0625
276.4454617500305,-400000.0625,6339.64990234375,415.55999755859375,-400000.0625,-2301.739990234375,-400000.0625,5004.1201171875,-400000.0625
276.54344749450684,-400000.0625,6342.7001953125,421.42999267578125,-400000.0625,-2285.10009765625,-400000.0625,5010.22021484375,-400000.0625
276.56985116004944,-400000.0625,6364.2001953125,442.8900146484375,-400000.0625,-2268.739990234375,-400000.0625,5030.919921875,-400000.0625
276.65609884262085,-400000.0625,6372.97998046875,451.2799987792969,-400000.0625,-2277.179931640625,-400000.0625,5037.169921875,-400000.0625
276.71045422554016,-400000.0625,6350.9501953125,432.3999938964844,-400000.0625,-2301.550048828125,-400000.0625,5021.47998046875,-400000.0625
276.8168830871582,-400000.0625,6336.64013671875,414.0400085449219,-400000.0625,-2309.85009765625,-400000.0625,5005.64990234375,-400000.0625
276.86999464035034,-400000.0625,6347.31982421875,421.0,-400000.0625,-2297.929931640625,-400000.0625,5009.7900390625,-400000.0625
276.898229598999,-400000.0625,6362.8701171875,442.2699890136719,-400000.0625,-2286.340087890625,-400000.0625,5029.77001953125,-400000.0625
276.93068981170654,-400000.0625,6367.2998046875,450.2799987792969,-400000.0625,-2277.949951171875,-400000.0625,5033.2998046875,-400000.0625
276.99100160598755,-400000.0625,6346.0400390625,431.3500061035156,-400000.0625,-2275.510009765625,-400000.0625,5017.47021484375,-400000.0625
277.0289816856384,-400000.0625,6333.259765625,414.32000732421875,-400000.0625,-2302.739990234375,-400000.0625,5002.64013671875,-400000.0625
277.0704393386841,-400000.0625,6339.02978515625,418.95001220703125,-400000.0625,-2309.320068359375,-400000.0625,5012.47021484375,-400000.0625
277.1106221675873,-400000.0625,6361.14990234375,441.4100036621094,-400000.0625,-2278.419921875,-400000.0625,5031.2998046875,-400000.0625
277.14915680885315,-400000.0625,6372.1201171875,454.2799987792969,-400000.0625,-2260.300048828125,-400000.0625,5041.35986328125,-400000.0625
277.18169808387756,-400000.0625,6348.60986328125,432.8299865722656,-400000.0625,-2280.7099609375,-400000.0625,5025.0498046875,-400000.0625
277.23583602905273,-400000.0625,6326.490234375,411.0799865722656,-400000.0625,-2291.35009765625,-400000.0625,5005.31005859375,-400000.0625
277.255170583725,-400000.0625,6337.5498046875,422.1000061035156,-400000.0625,-2287.340087890625,-400000.0625,5011.990234375,-400000.0625
277.2840313911438,-400000.0625,6358.81005859375,445.8900146484375,-400000.0625,-2287.719970703125,-400000.0625,5031.43994140625,-400000.0625
277.32975006103516,-400000.0625,6370.259765625,458.4800109863281,-400000.0625,-2268.409912109375,-400000.0625,5041.35986328125,-400000.0625
277.3495228290558,-400000.0625,6355.240234375,442.4100036621094,-400000.0625,-2273.4599609375,-400000.0625,5026.8701171875,-400000.0625
277.38150787353516,-400000.0625,6337.4501953125,422.9100036621094,-400000.0625,-2300.830078125,-400000.0625,5011.080078125,-400000.0625
277.42489194869995,-400000.0625,6340.7001953125,426.4800109863281,-400000.0625,-2298.39990234375,-400000.0625,5013.89990234375,-400000.0625
277.5400815010071,-400000.0625,6359.0498046875,448.79998779296875,-400000.0625,-2277.3701171875,-400000.0625,5027.2001953125,-400000.0625
277.5914235115051,-400000.0625,6365.68017578125,455.8599853515625,-400000.0625,-2271.989990234375,-400000.0625,5035.2099609375,-400000.0625
277.61193442344666,-400000.0625,6349.47021484375,434.5899963378906,-400000.0625,-2280.18994140625,-400000.0625,5020.08984375,-400000.0625
277.63655185699463,-400000.0625,6334.5,417.5199890136719,-400000.0625,-2303.699951171875,-400000.0625,5005.740234375,-400000.0625
277.6608247756958,-400000.0625,6337.68994140625,422.8599853515625,-400000.0625,-2299.7900390625,-400000.0625,5009.7900390625,-400000.0625
277.7063846588135,-400000.0625,6362.06005859375,446.989990234375,-400000.0625,-2266.260009765625,-400000.0625,5030.77978515625,-400000.0625
277.7364158630371,-400000.0625,6368.16015625,453.1400146484375,-400000.0625,-2260.449951171875,-400000.0625,5039.31005859375,-400000.0625
277.75031781196594,-400000.0625,6345.22998046875,430.7300109863281,-400000.0625,-2274.800048828125,-400000.0625,5021.72021484375,-400000.0625
277.79012727737427,-400000.0625,6330.16015625,415.17999267578125,-400000.0625,-2292.199951171875,-400000.0625,5003.2099609375,-400000.0625
277.8522958755493,-400000.0625,6334.2099609375,422.1400146484375,-400000.0625,-2290.820068359375,-400000.0625,5007.7001953125,-400000.0625
277.8922052383423,-400000.0625,6357.81005859375,444.4100036621094,-400000.0625,-2285.2900390625,-400000.0625,5032.25,-400000.0625
277.94840478897095,-400000.0625,6364.97021484375,452.2300109863281,-400000.0625,-2286.429931640625,-400000.0625,5036.740234375,-400000.0625
277.9919066429138,-400000.0625,6346.3701171875,432.1099853515625,-400000.0625,-2283.139892578125,-400000.0625,5017.0400390625,-400000.0625
278.0408751964569,-400000.0625,6333.2998046875,414.989990234375,-400000.0625,-2290.110107421875,-400000.0625,4998.5400390625,-400000.0625
278.1106638908386,-400000.0625,6327.39013671875,420.3800048828125,-400000.0625,-2293.300048828125,-400000.0625,4996.6298828125,-400000.0625
278.1521415710449,-400000.0625,6337.4501953125,439.1700134277344,-400000.0625,-2286.580078125,-400000.0625,5018.3798828125,-400000.0625
278.21237349510193,-400000.0625,6354.47998046875,438.8299865722656,-400000.0625,-2274.3701171875,-400000.0625,5043.4599609375,-400000.0625
278.23658990859985,-400000.0625,6336.31005859375,409.6000061035156,-400000.0625,-2291.300048828125,-400000.0625,5035.72998046875,-400000.0625
278.26208758354187,-400000.0625,6312.66015625,383.1400146484375,-400000.0625,-2313.7099609375,-400000.0625,5020.2900390625,-400000.0625
278.37165093421936,-400000.0625,6311.47021484375,388.9100036621094,-400000.0625,-2302.929931640625,-400000.0625,5026.6298828125,-400000.0625
278.4496560096741,-400000.0625,6324.43994140625,408.6000061035156,-400000.0625,-2282.47998046875,-400000.0625,5057.85986328125,-400000.0625
278.4909029006958,-400000.0625,6328.10986328125,409.2699890136719,-400000.0625,-2287.25,-400000.0625,5071.58984375,-400000.0625
278.57978534698486,-400000.0625,6311.1298828125,385.3299865722656,-400000.0625,-2307.080078125,-400000.0625,5052.9501953125,-400000.0625
278.630366563797,-400000.0625,6286.52978515625,366.6400146484375,-400000.0625,-2311.56005859375,-400000.0625,5035.830078125,-400000.0625
278.7008147239685,-400000.0625,6288.0498046875,374.510009765625,-400000.0625,-2307.4599609375,-400000.0625,5048.080078125,-400000.0625
278.72834610939026,-400000.0625,6311.85009765625,397.9700012207031,-400000.0625,-2288.580078125,-400000.0625,5071.740234375,-400000.0625
278.752703666687,-400000.0625,6325.10009765625,407.0299987792969,-400000.0625,-2287.199951171875,-400000.0625,5070.06982421875,-400000.0625
278.81388878822327,-400000.0625,6304.22021484375,386.5199890136719,-400000.0625,-2299.1201171875,-400000.0625,5053.47021484375,-400000.0625
278.8613245487213,-400000.0625,6284.240234375,366.739990234375,-400000.0625,-2310.469970703125,-400000.0625,5034.58984375,-400000.0625
278.91251254081726,-400000.0625,6293.2998046875,374.94000244140625,-400000.0625,-2309.75,-400000.0625,5040.06982421875,-400000.0625
278.9334032535553,-400000.0625,6313.419921875,394.5400085449219,-400000.0625,-2283.669921875,-400000.0625,5064.2001953125,-400000.0625
278.949298620224,-400000.0625,6324.2001953125,403.1700134277344,-400000.0625,-2282.47998046875,-400000.0625,5069.39990234375,-400000.0625
278.96267771720886,-400000.0625,6306.1201171875,384.2799987792969,-400000.0625,-2307.030029296875,-400000.0625,5054.52001953125,-400000.0625
278.99563217163086,-400000.0625,6283.14013671875,366.5899963378906,-400000.0625,-2316.6201171875,-400000.0625,5039.64013671875,-400000.0625
279.0100736618042,-400000.0625,6289.39013671875,369.6000061035156,-400000.0625,-2309.93994140625,-400000.0625,5043.4599609375,-400000.0625
279.02286100387573,-400000.0625,6305.27001953125,388.19000244140625,-400000.0625,-2279.760009765625,-400000.0625,5061.43994140625,-400000.0625
279.0346007347107,-400000.0625,6316.56982421875,399.8800048828125,-400000.0625,-2274.22998046875,-400000.0625,5069.8798828125,-400000.0625
279.0488829612732,-400000.0625,6302.31005859375,383.6600036621094,-400000.0625,-2300.8798828125,-400000.0625,5050.89990234375,-400000.0625
279.06793451309204,-400000.0625,6287.0,368.9800109863281,-400000.0625,-2319.6201171875,-400000.0625,5035.97021484375,-400000.0625
279.09907960891724,-400000.0625,6295.009765625,375.8399963378906,-400000.0625,-2311.3701171875,-400000.0625,5042.02978515625,-400000.0625
279.11650681495667,-400000.0625,6312.66015625,397.44000244140625,-400000.0625,-2291.43994140625,-400000.0625,5057.9599609375,-400000.0625
279.1345329284668,-400000.0625,6319.18994140625,405.69000244140625,-400000.0625,-2282.719970703125,-400000.0625,5064.14990234375,-400000.0625
279.14773511886597,-400000.0625,6304.60009765625,389.7200012207031,-400000.0625,-2300.219970703125,-400000.0625,5051.60986328125,-400000.0625
279.1616189479828,-400000.0625,6277.7001953125,364.260009765625,-400000.0625,-2323.9599609375,-400000.0625,5034.5,-400000.0625
279.1804184913635,-400000.0625,6283.9501953125,371.5,-400000.0625,-2306.4599609375,-400000.0625,5037.39990234375,-400000.0625
279.2052457332611,-400000.0625,6310.02978515625,393.8699951171875,-400000.0625,-2271.27001953125,-400000.0625,5056.3798828125,-400000.0625
279.2250576019287,-400000.0625,6317.85009765625,403.1199951171875,-400000.0625,-2268.64990234375,-400000.0625,5066.919921875,-400000.0625
279.237722158432,-400000.0625,6300.64013671875,387.95001220703125,-400000.0625,-2289.8701171875,-400000.0625,5053.22998046875,-400000.0625
279.2508454322815,-400000.0625,6284.52001953125,369.45001220703125,-400000.0625,-2316.090087890625,-400000.0625,5036.259765625,-400000.0625
279.2683620452881,-400000.0625,6290.009765625,374.75,-400000.0625,-2320.10009765625,-400000.0625,5040.68994140625,-400000.0625
279.27950644493103,-400000.0625,6312.75,400.5,-400000.0625,-2302.929931640625,-400000.0625,5060.14990234375,-400000.0625
279.2949335575104,-400000.0625,6321.9599609375,406.69000244140625,-400000.0625,-2293.2099609375,-400000.0625,5066.8701171875,-400000.0625
279.32496762275696,-400000.0625,6306.509765625,388.7200012207031,-400000.0625,-2297.639892578125,-400000.0625,5052.47021484375,-400000.0625
279.3407347202301,-400000.0625,6280.9501953125,366.1199951171875,-400000.0625,-2294.639892578125,-400000.0625,5033.68017578125,-400000.0625
279.3566544055939,-400000.0625,6291.14990234375,377.94000244140625,-400000.0625,-2290.820068359375,-400000.0625,5042.93994140625,-400000.0625
279.3972735404968,-400000.0625,6313.47021484375,401.07000732421875,-400000.0625,-2283.669921875,-400000.0625,5065.25,-400000.0625
279.4479694366455,-400000.0625,6315.56982421875,405.5,-400000.0625,-2269.080078125,-400000.0625,5066.6298828125,-400000.0625
279.4756007194519,-400000.0625,6307.7900390625,391.9100036621094,-400000.0625,-2272.889892578125,-400000.0625,5055.81005859375,-400000.0625
279.4973347187042,-400000.0625,6289.2001953125,370.07000732421875,-400000.0625,-2302.1201171875,-400000.0625,5036.06982421875,-400000.0625
279.5473244190216,-400000.0625,6293.81982421875,374.8900146484375,-400000.0625,-2310.610107421875,-400000.0625,5041.080078125,-400000.0625
279.5879726409912,-400000.0625,6312.7998046875,396.44000244140625,-400000.0625,-2295.639892578125,-400000.0625,5063.43994140625,-400000.0625
279.6250891685486,-400000.0625,6316.89990234375,404.54998779296875,-400000.0625,-2294.02001953125,-400000.0625,5070.72998046875,-400000.0625
279.6829333305359,-400000.0625,6303.97998046875,388.7699890136719,-400000.0625,-2302.68994140625,-400000.0625,5054.85986328125,-400000.0625
279.70596504211426,-400000.0625,6280.66015625,363.3999938964844,-400000.0625,-2306.080078125,-400000.0625,5036.64013671875,-400000.0625
279.7283773422241,-400000.0625,6284.0498046875,367.5899963378906,-400000.0625,-2287.719970703125,-400000.0625,5038.93017578125,-400000.0625
279.77756118774414,-400000.0625,6311.7001953125,396.9200134277344,-400000.0625,-2276.090087890625,-400000.0625,5063.81982421875,-400000.0625
279.81466579437256,-400000.0625,6322.580078125,404.69000244140625,-400000.0625,-2292.969970703125,-400000.0625,5075.68994140625,-400000.0625
279.86632561683655,-400000.0625,6300.02001953125,384.2799987792969,-400000.0625,-2314.3798828125,-400000.0625,5055.14013671875,-400000.0625
279.95476365089417,-400000.0625,6281.08984375,363.489990234375,-400000.0625,-2308.699951171875,-400000.0625,5033.77978515625,-400000.0625
280.0156497955322,-400000.0625,6283.759765625,370.30999755859375,-400000.0625,-2293.489990234375,-400000.0625,5037.97998046875,-400000.0625
280.08790278434753,-400000.0625,6307.1298828125,393.82000732421875,-400000.0625,-2260.5400390625,-400000.0625,5060.14990234375,-400000.0625
280.1244831085205,-400000.0625,6321.10009765625,402.9800109863281,-400000.0625,-2265.739990234375,-400000.0625,5071.93017578125,-400000.0625
280.21614360809326,-400000.0625,6306.89013671875,387.5299987792969,-400000.0625,-2291.919921875,-400000.0625,5058.10009765625,-400000.0625
280.277930021286,-400000.0625,6282.27978515625,364.7300109863281,-400000.0625,-2319.2900390625,-400000.0625,5042.41015625,-400000.0625
280.35028100013733,-400000.0625,6286.91015625,368.260009765625,-400000.0625,-2315.469970703125,-400000.0625,5045.7001953125,-400000.0625
280.381121635437,-400000.0625,6311.75,395.1099853515625,-400000.0625,-2288.389892578125,-400000.0625,5066.919921875,-400000.0625
280.5495834350586,-400000.0625,6318.759765625,404.1700134277344,-400000.0625,-2276.419921875,-400000.0625,5074.64013671875,-400000.0625
280.7102572917938,-400000.0625,6298.5,382.760009765625,-400000.0625,-2290.300048828125,-400000.0625,5059.91015625,-400000.0625
280.87853598594666,-400000.0625,6283.08984375,365.45001220703125,-400000.0625,-2302.68994140625,-400000.0625,5038.31005859375,-400000.0625
281.0696084499359,-400000.0625,6290.52978515625,371.1199951171875,-400000.0625,-2304.60009765625,-400000.0625,5045.22021484375,-400000.0625
281.26507091522217,-400000.0625,6312.22998046875,395.82000732421875,-400000.0625,-2289.340087890625,-400000.0625,5069.97021484375,-400000.0625
281.41549468040466,-400000.0625,6321.33984375,404.260009765625,-400000.0625,-2280.330078125,-400000.0625,5075.1201171875,-400000.0625
281.5918252468109,-400000.0625,6303.68994140625,384.0400085449219,-400000.0625,-2287.010009765625,-400000.0625,5063.68017578125,-400000.0625
281.75586342811584,-400000.0625,6287.9599609375,366.9700012207031,-400000.0625,-2313.570068359375,-400000.0625,5045.89013671875,-400000.0625
281.9742078781128,-400000.0625,6292.490234375,372.2200012207031,-400000.0625,-2311.469970703125,-400000.0625,5049.1298828125,-400000.0625
282.1622905731201,-400000.0625,6308.4599609375,390.1499938964844,-400000.0625,-2274.179931640625,-400000.0625,5066.77978515625,-400000.0625
282.347003698349,-400000.0625,6310.18017578125,396.1600036621094,-400000.0625,-2271.030029296875,-400000.0625,5070.93017578125,-400000.0625
282.5336151123047,-400000.0625,6293.43994140625,376.4200134277344,-400000.0625,-2280.949951171875,-400000.0625,5055.240234375,-400000.0625
282.68165850639343,-400000.0625,6278.7099609375,360.05999755859375,-400000.0625,-2286.199951171875,-400000.0625,5036.02001953125,-400000.0625
282.84975123405457,-400000.0625,6283.240234375,366.5400085449219,-400000.0625,-2302.070068359375,-400000.0625,5042.93994140625,-400000.0625
283.01420855522156,-400000.0625,6304.5498046875,387.80999755859375,-400000.0625,-2281.47998046875,-400000.0625,5064.06005859375,-400000.0625
283.1741876602173,-400000.0625,6314.22998046875,400.45001220703125,-400000.0625,-2270.219970703125,-400000.0625,5069.16015625,-400000.0625
283.2829406261444,-400000.0625,6297.2998046875,384.0899963378906,-400000.0625,-2296.639892578125,-400000.0625,5052.60986328125,-400000.0625
283.424565076828,-400000.0625,6276.31982421875,358.05999755859375,-400000.0625,-2320.860107421875,-400000.0625,5034.39990234375,-400000.0625
283.58127188682556,-400000.0625,6281.52001953125,363.7300109863281,-400000.0625,-2303.080078125,-400000.0625,5045.83984375,-400000.0625
283.7085156440735,-400000.0625,6302.8798828125,386.19000244140625,-400000.0625,-2268.1201171875,-400000.0625,5060.81982421875,-400000.0625
283.8930289745331,-400000.0625,6311.60986328125,396.489990234375,-400000.0625,-2263.1201171875,-400000.0625,5065.81982421875,-400000.0625
284.09109139442444,-400000.0625,6296.2998046875,379.32000732421875,-400000.0625,-2289.919921875,-400000.0625,5051.27978515625,-400000.0625
284.25916862487793,-400000.0625,6274.41015625,359.3399963378906,-400000.0625,-2299.639892578125,-400000.0625,5034.16015625,-400000.0625
284.4014313220978,-400000.0625,6281.47021484375,364.260009765625,-400000.0625,-2291.489990234375,-400000.0625,5040.35986328125,-400000.0625
284.65443754196167,-400000.0625,6306.60009765625,387.3299865722656,-400000.0625,-2304.60009765625,-400000.0625,5058.33984375,-400000.0625
284.8203110694885,-400000.0625,6317.85009765625,398.5899963378906,-400000.0625,-2285.6201171875,-400000.0625,5066.2998046875,-400000.0625
284.9164900779724,-400000.0625,6301.7900390625,386.7099914550781,-400000.0625,-2270.97998046875,-400000.0625,5049.93994140625,-400000.0625
284.9829068183899,-400000.0625,6295.009765625,377.55999755859375,-400000.0625,-2273.75,-400000.0625,5031.5400390625,-400000.0625
285.0428502559662,-400000.0625,6307.4599609375,386.42999267578125,-400000.0625,-2280.3798828125,-400000.0625,5029.81982421875,-400000.0625
285.0989799499512,-400000.0625,6326.9599609375,408.32000732421875,-400000.0625,-2265.8798828125,-400000.0625,5045.56005859375,-400000.0625
285.17225885391235,-400000.0625,6346.66015625,424.2900085449219,-400000.0625,-2249.429931640625,-400000.0625,5052.22998046875,-400000.0625
285.2989776134491,-400000.0625,6329.580078125,406.7900085449219,-400000.0625,-2276.949951171875,-400000.0625,5037.830078125,-400000.0625
285.41254138946533,-400000.0625,6307.35986328125,387.6199951171875,-400000.0625,-2299.8798828125,-400000.0625,5013.85009765625,-400000.0625
285.5068202018738,-400000.0625,6322.2900390625,396.3500061035156,-400000.0625,-2290.77001953125,-400000.0625,5015.759765625,-400000.0625
285.6109368801117,-400000.0625,6344.60986328125,417.2300109863281,-400000.0625,-2267.64990234375,-400000.0625,5039.31005859375,-400000.0625
285.6976273059845,-400000.0625,6348.89990234375,427.4800109863281,-400000.0625,-2275.659912109375,-400000.0625,5050.08984375,-400000.0625
285.7529466152191,-400000.0625,6336.02001953125,409.32000732421875,-400000.0625,-2288.8701171875,-400000.0625,5034.68994140625,-400000.0625
285.84564328193665,-400000.0625,6310.990234375,386.19000244140625,-400000.0625,-2283.050048828125,-400000.0625,5016.7099609375,-400000.0625
285.93814849853516,-400000.0625,6318.52001953125,394.6300048828125,-400000.0625,-2283.18994140625,-400000.0625,5022.33984375,-400000.0625
286.0275468826294,-400000.0625,6342.60009765625,414.4200134277344,-400000.0625,-2284.719970703125,-400000.0625,5039.41015625,-400000.0625
286.10452461242676,-400000.0625,6342.169921875,421.0,-400000.0625,-2272.3701171875,-400000.0625,5045.93994140625,-400000.0625
286.2207283973694,-400000.0625,6324.10009765625,405.92999267578125,-400000.0625,-2281.0,-400000.0625,5027.2900390625,-400000.0625
286.3057565689087,-400000.0625,6311.60986328125,387.6199951171875,-400000.0625,-2304.1298828125,-400000.0625,5009.60009765625,-400000.0625
286.45143842697144,-400000.0625,6315.330078125,391.3900146484375,-400000.0625,-2289.06005859375,-400000.0625,5016.3798828125,-400000.0625
286.541761636734,-400000.0625,6339.7900390625,415.3699951171875,-400000.0625,-2258.110107421875,-400000.0625,5030.39013671875,-400000.0625
286.58716797828674,-400000.0625,6344.7998046875,425.6199951171875,-400000.0625,-2259.8701171875,-400000.0625,5041.41015625,-400000.0625
286.6720161437988,-400000.0625,6330.39990234375,410.17999267578125,-400000.0625,-2284.47998046875,-400000.0625,5029.97021484375,-400000.0625
286.7241380214691,-400000.0625,6315.9501953125,392.05999755859375,-400000.0625,-2293.8701171875,-400000.0625,5014.22998046875,-400000.0625
286.79100012779236,-400000.0625,6318.6201171875,396.5899963378906,-400000.0625,-2286.050048828125,-400000.0625,5019.89990234375,-400000.0625
286.8337619304657,-400000.0625,6337.06982421875,415.4200134277344,-400000.0625,-2269.320068359375,-400000.0625,5037.93017578125,-400000.0625
286.9048662185669,-400000.0625,6347.419921875,428.6300048828125,-400000.0625,-2248.530029296875,-400000.0625,5046.64990234375,-400000.0625
286.94064116477966,-400000.0625,6330.8701171875,414.989990234375,-400000.0625,-2264.31005859375,-400000.0625,5034.8798828125,-400000.0625
286.9952189922333,-400000.0625,6313.85009765625,396.20001220703125,-400000.0625,-2294.830078125,-400000.0625,5018.9501953125,-400000.0625
287.0207974910736,-400000.0625,6320.18994140625,400.1099853515625,-400000.0625,-2295.830078125,-400000.0625,5021.0,-400000.0625
287.038063287735,-400000.0625,6336.2099609375,418.8500061035156,-400000.0625,-2276.75,-400000.0625,5041.5,-400000.0625
287.06225299835205,-400000.0625,6340.27001953125,427.4800109863281,-400000.0625,-2255.5400390625,-400000.0625,5048.47021484375,-400000.0625
287.10029554367065,-400000.0625,6324.14990234375,411.4200134277344,-400000.0625,-2265.550048828125,-400000.0625,5028.81982421875,-400000.0625
287.12047386169434,-400000.0625,6306.4599609375,390.6300048828125,-400000.0625,-2284.18994140625,-400000.0625,5011.75,-400000.0625
287.14516830444336,-400000.0625,6310.4599609375,395.1600036621094,-400000.0625,-2286.669921875,-400000.0625,5013.89990234375,-400000.0625
287.1649088859558,-400000.0625,6331.64013671875,416.6099853515625,-400000.0625,-2269.1298828125,-400000.0625,5030.72998046875,-400000.0625
287.2233135700226,-400000.0625,6340.93017578125,427.6300048828125,-400000.0625,-2251.10009765625,-400000.0625,5040.5498046875,-400000.0625
287.23622274398804,-400000.0625,6321.9599609375,409.55999755859375,-400000.0625,-2268.31005859375,-400000.0625,5024.14990234375,-400000.0625
287.26143765449524,-400000.0625,6302.60009765625,389.9599914550781,-400000.0625,-2282.719970703125,-400000.0625,5005.169921875,-400000.0625
287.28681683540344,-400000.0625,6308.60009765625,398.29998779296875,-400000.0625,-2280.330078125,-400000.0625,5009.990234375,-400000.0625
287.35609102249146,-400000.0625,6330.919921875,419.19000244140625,-400000.0625,-2261.159912109375,-400000.0625,5033.4501953125,-400000.0625
287.39697313308716,-400000.0625,6343.02978515625,428.9599914550781,-400000.0625,-2268.219970703125,-400000.0625,5044.89013671875,-400000.0625
287.45118260383606,-400000.0625,6326.39013671875,411.75,-400000.0625,-2295.260009765625,-400000.0625,5027.9599609375,-400000.0625
287.4797525405884,-400000.0625,6307.35986328125,389.9599914550781,-400000.0625,-2293.6298828125,-400000.0625,5012.7998046875,-400000.0625
287.5021381378174,-400000.0625,6306.7001953125,394.29998779296875,-400000.0625,-2273.75,-400000.0625,5016.9501953125,-400000.0625
287.5513997077942,-400000.0625,6331.35009765625,419.7099914550781,-400000.0625,-2259.72998046875,-400000.0625,5035.259765625,-400000.0625
287.60067772865295,-400000.0625,6341.7900390625,430.29998779296875,-400000.0625,-2255.14990234375,-400000.0625,5045.31982421875,-400000.0625
287.6484661102295,-400000.0625,6324.6298828125,413.94000244140625,-400000.0625,-2262.780029296875,-400000.0625,5029.10986328125,-400000.0625
287.72892332077026,-400000.0625,6307.509765625,393.05999755859375,-400000.0625,-2281.330078125,-400000.0625,5011.27001953125,-400000.0625
287.76036405563354,-400000.0625,6313.52001953125,398.9700012207031,-400000.0625,-2287.10009765625,-400000.0625,5014.18017578125,-400000.0625
287.79939126968384,-400000.0625,6331.77978515625,422.8599853515625,-400000.0625,-2280.280029296875,-400000.0625,5037.2099609375,-400000.0625
287.84425806999207,-400000.0625,6345.27001953125,434.67999267578125,-400000.0625,-2281.949951171875,-400000.0625,5048.7998046875,-400000.0625
287.86169624328613,-400000.0625,6323.77001953125,415.989990234375,-400000.0625,-2280.3798828125,-400000.0625,5032.10986328125,-400000.0625
287.91074800491333,-400000.0625,6301.31005859375,395.3500061035156,-400000.0625,-2274.610107421875,-400000.0625,5011.89013671875,-400000.0625
287.94531989097595,-400000.0625,6311.0400390625,399.6400146484375,-400000.0625,-2264.68994140625,-400000.0625,5013.47021484375,-400000.0625
287.9785006046295,-400000.0625,6329.97021484375,421.6199951171875,-400000.0625,-2242.760009765625,-400000.0625,5033.16015625,-400000.0625
288.02811217308044,-400000.0625,6342.60009765625,434.5899963378906,-400000.0625,-2243.280029296875,-400000.0625,5040.31005859375,-400000.0625
288.04934453964233,-400000.0625,6323.77001953125,418.6199951171875,-400000.0625,-2272.179931640625,-400000.0625,5024.52978515625,-400000.0625
288.0788633823395,-400000.0625,6305.41015625,398.25,-400000.0625,-2301.409912109375,-400000.0625,5009.83984375,-400000.0625
288.15994477272034,-400000.0625,6310.60986328125,401.5,-400000.0625,-2298.2099609375,-400000.0625,5012.75,-400000.0625
288.199844121933,-400000.0625,6330.919921875,419.5199890136719,-400000.0625,-2280.760009765625,-400000.0625,5032.25,-400000.0625
288.2830228805542,-400000.0625,6339.259765625,430.1499938964844,-400000.0625,-2258.300048828125,-400000.0625,5040.169921875,-400000.0625
288.33990383148193,-400000.0625,6321.0498046875,414.2799987792969,-400000.0625,-2256.969970703125,-400000.0625,5024.81982421875,-400000.0625
288.4610929489136,-400000.0625,6301.58984375,392.8699951171875,-400000.0625,-2265.97998046875,-400000.0625,5007.5498046875,-400000.0625
288.61124992370605,-400000.0625,6302.97998046875,393.82000732421875,-400000.0625,-2277.52001953125,-400000.0625,5009.4599609375,-400000.0625
288.7436203956604,-400000.0625,6322.43017578125,416.4200134277344,-400000.0625,-2277.949951171875,-400000.0625,5031.2998046875,-400000.0625
288.8477108478546,-400000.0625,6336.830078125,428.8699951171875,-400000.0625,-2258.72998046875,-400000.0625,5041.02978515625,-400000.0625
288.94407963752747,-400000.0625,6318.14013671875,409.7900085449219,-400000.0625,-2256.72998046875,-400000.0625,5025.72021484375,-400000.0625
288.9909293651581,-400000.0625,6295.919921875,387.4800109863281,-400000.0625,-2295.260009765625,-400000.0625,5006.1201171875,-400000.0625
289.0832324028015,-400000.0625,6292.33984375,388.9100036621094,-400000.0625,-2291.5400390625,-400000.0625,5004.4501953125,-400000.0625
289.1771161556244,-400000.0625,6314.08984375,411.989990234375,-400000.0625,-2259.39990234375,-400000.0625,5027.2001953125,-400000.0625
289.3053243160248,-400000.0625,6333.06982421875,420.8599853515625,-400000.0625,-2250.239990234375,-400000.0625,5042.740234375,-400000.0625
289.4618866443634,-400000.0625,6317.81005859375,398.29998779296875,-400000.0625,-2264.550048828125,-400000.0625,5032.35009765625,-400000.0625
289.62982964515686,-400000.0625,6286.14990234375,373.0299987792969,-400000.0625,-2291.72998046875,-400000.0625,5013.89990234375,-400000.0625
289.80234122276306,-400000.0625,6282.85009765625,374.8399963378906,-400000.0625,-2294.5400390625,-400000.0625,5021.0498046875,-400000.0625
289.9317274093628,-400000.0625,6307.60009765625,392.7699890136719,-400000.0625,-2280.18994140625,-400000.0625,5047.3701171875,-400000.0625
290.07545351982117,-400000.0625,6314.52001953125,395.9700012207031,-400000.0625,-2262.2099609375,-400000.0625,5061.33984375,-400000.0625
290.2683000564575,-400000.0625,6294.39013671875,377.1300048828125,-400000.0625,-2292.25,-400000.0625,5055.18994140625,-400000.0625
290.4191451072693,-400000.0625,6278.47021484375,352.8599853515625,-400000.0625,-2307.320068359375,-400000.0625,5041.740234375,-400000.0625
290.55010986328125,-400000.0625,6277.990234375,351.239990234375,-400000.0625,-2295.639892578125,-400000.0625,5051.419921875,-400000.0625
290.6979761123657,-400000.0625,6292.10986328125,369.07000732421875,-400000.0625,-2283.909912109375,-400000.0625,5072.35986328125,-400000.0625
290.820919752121,-400000.0625,6303.740234375,381.6099853515625,-400000.0625,-2267.7900390625,-400000.0625,5082.85009765625,-400000.0625
290.9771571159363,-400000.0625,6286.56982421875,364.260009765625,-400000.0625,-2278.139892578125,-400000.0625,5075.60009765625,-400000.0625
291.150431394577,-400000.0625,6267.4501953125,340.989990234375,-400000.0625,-2301.030029296875,-400000.0625,5054.43017578125,-400000.0625
291.3441364765167,-400000.0625,6278.27978515625,348.1400146484375,-400000.0625,-2293.6298828125,-400000.0625,5057.85986328125,-400000.0625
291.5149817466736,-400000.0625,6297.2998046875,368.6000061035156,-400000.0625,-2287.9599609375,-400000.0625,5077.169921875,-400000.0625
291.66526079177856,-400000.0625,6300.68994140625,375.510009765625,-400000.0625,-2276.3701171875,-400000.0625,5086.18017578125,-400000.0625
291.86383748054504,-400000.0625,6284.669921875,357.9100036621094,-400000.0625,-2274.280029296875,-400000.0625,5070.72998046875,-400000.0625
292.03984093666077,-400000.0625,6262.259765625,337.3599853515625,-400000.0625,-2297.5400390625,-400000.0625,5055.7099609375,-400000.0625
292.2291593551636,-400000.0625,6271.97998046875,347.80999755859375,-400000.0625,-2305.699951171875,-400000.0625,5061.2900390625,-400000.0625
292.4404058456421,-400000.0625,6295.919921875,371.0299987792969,-400000.0625,-2287.6298828125,-400000.0625,5080.509765625,-400000.0625
292.65500473976135,-400000.0625,6302.41015625,380.55999755859375,-400000.0625,-2259.300048828125,-400000.0625,5088.47021484375,-400000.0625
292.8421928882599,-400000.0625,6286.10009765625,364.5899963378906,-400000.0625,-2283.81005859375,-400000.0625,5071.93017578125,-400000.0625
293.0159046649933,-400000.0625,6268.7900390625,344.94000244140625,-400000.0625,-2309.0400390625,-400000.0625,5050.22998046875,-400000.0625
293.2045843601227,-400000.0625,6268.8798828125,346.95001220703125,-400000.0625,-2303.840087890625,-400000.0625,5055.08984375,-400000.0625
293.3964102268219,-400000.0625,6287.72021484375,367.07000732421875,-400000.0625,-2274.3701171875,-400000.0625,5076.7900390625,-400000.0625
293.5785541534424,-400000.0625,6295.16015625,376.989990234375,-400000.0625,-2259.830078125,-400000.0625,5083.85009765625,-400000.0625
293.7797956466675,-400000.0625,6275.7998046875,359.9599914550781,-400000.0625,-2282.81005859375,-400000.0625,5065.81982421875,-400000.0625
293.95947909355164,-400000.0625,6258.2998046875,337.8399963378906,-400000.0625,-2305.1298828125,-400000.0625,5046.990234375,-400000.0625
294.1595208644867,-400000.0625,6265.06982421875,340.55999755859375,-400000.0625,-2304.97998046875,-400000.0625,5053.89990234375,-400000.0625
