time,ch1,ch2,ch3,ch4,ch5
timestamp,ch7,ch2,ch3,ch5,is_pause
timestamp,ch7,ch2,ch3,ch5,is_pause
timestamp,ch7,ch2,ch3,ch5,is_pause
0.03499650955200195,-400000.0625,-7428.5498046875,279.57000732421875,-400000.0625,-14413.9296875,-400000.0625,-2279.22998046875,-400000.0625
0.03513145446777344,-400000.0625,-7430.22021484375,277.2300109863281,-400000.0625,-14415.740234375,-400000.0625,-2290.820068359375,-400000.0625
0.035143375396728516,-400000.0625,-7443.3798828125,262.2099914550781,-400000.0625,-14424.3701171875,-400000.0625,-2302.929931640625,-400000.0625
0.035149335861206055,-400000.0625,-7446.580078125,258.67999267578125,-400000.0625,-14427.0400390625,-400000.0625,-2303.1201171875,-400000.0625
0.0351567268371582,-400000.0625,-7441.66015625,268.510009765625,-400000.0625,-14418.9404296875,-400000.0625,-2296.639892578125,-400000.0625
0.03516101837158203,-400000.0625,-7434.60986328125,274.8999938964844,-400000.0625,-14409.58984375,-400000.0625,-2287.580078125,-400000.0625
0.03516554832458496,-400000.0625,-7442.240234375,267.3599853515625,-400000.0625,-14417.599609375,-400000.0625,-2288.340087890625,-400000.0625
0.03517007827758789,-400000.0625,-7451.6298828125,257.8299865722656,-400000.0625,-14425.7998046875,-400000.0625,-2302.169921875,-400000.0625
0.03517413139343262,-400000.0625,-7453.16015625,256.5899963378906,-400000.0625,-14427.23046875,-400000.0625,-2306.75,-400000.0625
0.035178184509277344,-400000.0625,-7440.47021484375,267.6000061035156,-400000.0625,-14418.26953125,-400000.0625,-2293.25,-400000.0625
0.03518223762512207,-400000.0625,-7435.1298828125,272.55999755859375,-400000.0625,-14414.740234375,-400000.0625,-2282.330078125,-400000.0625
0.0351862907409668,-400000.0625,-7441.3798828125,265.8800048828125,-400000.0625,-14421.23046875,-400000.0625,-2290.9599609375,-400000.0625
0.03519082069396973,-400000.0625,-7453.97021484375,255.72999572753906,-400000.0625,-14429.0498046875,-400000.0625,-2305.1298828125,-400000.0625
0.03519487380981445,-400000.0625,-7453.39013671875,255.9199981689453,-400000.0625,-14428.3798828125,-400000.0625,-2300.929931640625,-400000.0625
0.03519940376281738,-400000.0625,-7441.14013671875,269.2200012207031,-400000.0625,-14416.169921875,-400000.0625,-2292.820068359375,-400000.0625
0.03520321846008301,-400000.0625,-7434.509765625,275.5199890136719,-400000.0625,-14414.5,-400000.0625,-2284.77001953125,-400000.0625
timestamp,ch7,ch2,ch3,ch5,is_pause
timestamp,ch7,ch2,ch3,ch5,is_pause
timestamp,ch7,ch2,ch3,ch5,is_pause
timestamp,ch7,ch2,ch3,ch5,is_pause
timestamp,ch7,ch2,ch3,ch5,is_pause
timestamp,ch7,ch2,ch3,ch5,is_pause
timestamp,ch7,ch2,ch3,ch5,is_pause
timestamp,ch7,ch2,ch3,ch5,is_pause
timestamp,ch7,ch2,ch3,ch5,is_pause
0.14388084411621094,-400000.0625,-7442.47998046875,267.1700134277344,-400000.0625,-14423.5595703125,-400000.0625,-2296.5,-400000.0625
0.14407014846801758,-400000.0625,-7458.02001953125,251.47999572753906,-400000.0625,-14432.5302734375,-400000.0625,-2313.18994140625,-400000.0625
0.14408636093139648,-400000.0625,-7456.97021484375,253.72999572753906,-400000.0625,-14429.900390625,-400000.0625,-2310.469970703125,-400000.0625
0.14409995079040527,-400000.0625,-7444.43017578125,264.6000061035156,-400000.0625,-14414.98046875,-400000.0625,-2296.780029296875,-400000.0625
0.14411306381225586,-400000.0625,-7439.22998046875,270.8900146484375,-400000.0625,-14411.1201171875,-400000.0625,-2288.43994140625,-400000.0625
0.14863157272338867,-400000.0625,-7446.0,264.9800109863281,-400000.0625,-14417.8896484375,-400000.0625,-2298.070068359375,-400000.0625
0.14864516258239746,-400000.0625,-7458.830078125,253.00999450683594,-400000.0625,-14429.4296875,-400000.0625,-2308.800048828125,-400000.0625
0.1486501693725586,-400000.0625,-7454.490234375,253.82000732421875,-400000.0625,-14430.1904296875,-400000.0625,-2308.659912109375,-400000.0625
0.14865541458129883,-400000.0625,-7445.91015625,264.0199890136719,-400000.0625,-14419.26953125,-400000.0625,-2295.969970703125,-400000.0625
0.14865946769714355,-400000.0625,-7440.66015625,269.4599914550781,-400000.0625,-14416.4599609375,-400000.0625,-2289.9599609375,-400000.0625
0.14866352081298828,-400000.0625,-7449.009765625,259.45001220703125,-400000.0625,-14422.2802734375,-400000.0625,-2299.929931640625,-400000.0625
0.148667573928833,-400000.0625,-7460.02001953125,249.77000427246094,-400000.0625,-14430.1396484375,-400000.0625,-2311.22998046875,-400000.0625
0.14867138862609863,-400000.0625,-7460.64013671875,250.82000732421875,-400000.0625,-14428.330078125,-400000.0625,-2308.989990234375,-400000.0625
0.14867615699768066,-400000.0625,-7448.72021484375,260.45001220703125,-400000.0625,-14415.9296875,-400000.0625,-2296.969970703125,-400000.0625
0.1486814022064209,-400000.0625,-7441.08984375,267.2200012207031,-400000.0625,-14411.830078125,-400000.0625,-2290.25,-400000.0625
0.14868545532226562,-400000.0625,-7450.52978515625,258.6400146484375,-400000.0625,-14422.23046875,-400000.0625,-2301.929931640625,-400000.0625
timestamp,ch7,ch2,ch3,ch5,is_pause
timestamp,ch7,ch2,ch3,ch5,is_pause
timestamp,ch7,ch2,ch3,ch5,is_pause
timestamp,ch7,ch2,ch3,ch5,is_pause
0.19970488548278809,-400000.0625,-7465.22021484375,248.72000122070312,-400000.0625,-14429.7099609375,-400000.0625,-2313.659912109375,-400000.0625
0.1998131275177002,-400000.0625,-7471.08984375,246.9499969482422,-400000.0625,-14430.48046875,-400000.0625,-2316.760009765625,-400000.0625
0.19981980323791504,-400000.0625,-7460.2099609375,255.5399932861328,-400000.0625,-14421.080078125,-400000.0625,-2303.7900390625,-400000.0625
0.19982409477233887,-400000.0625,-7453.68017578125,263.260009765625,-400000.0625,-14411.9296875,-400000.0625,-2294.35009765625,-400000.0625
0.1998281478881836,-400000.0625,-7464.31005859375,259.2099914550781,-400000.0625,-14416.3095703125,-400000.0625,-2304.4599609375,-400000.0625
0.19983220100402832,-400000.0625,-7475.85009765625,248.19000244140625,-400000.0625,-14424.330078125,-400000.0625,-2318.719970703125,-400000.0625
0.19983601570129395,-400000.0625,-7474.85009765625,248.6199951171875,-400000.0625,-14421.1796875,-400000.0625,-2317.760009765625,-400000.0625
0.19984006881713867,-400000.0625,-7464.93017578125,259.8299865722656,-400000.0625,-14407.0595703125,-400000.0625,-2307.030029296875,-400000.0625
0.1998438835144043,-400000.0625,-7464.35986328125,262.739990234375,-400000.0625,-14402.2998046875,-400000.0625,-2301.260009765625,-400000.0625
0.19984769821166992,-400000.0625,-7469.509765625,255.3000030517578,-400000.0625,-14408.400390625,-400000.0625,-2310.56005859375,-400000.0625
0.19985151290893555,-400000.0625,-7483.580078125,244.42999267578125,-400000.0625,-14418.169921875,-400000.0625,-2321.47998046875,-400000.0625
0.19985532760620117,-400000.0625,-7493.39990234375,240.61000061035156,-400000.0625,-14414.0302734375,-400000.0625,-2327.300048828125,-400000.0625
0.19986438751220703,-400000.0625,-7495.64013671875,251.8699951171875,-400000.0625,-14401.150390625,-400000.0625,-2317.3798828125,-400000.0625
0.19986820220947266,-400000.0625,-7496.8798828125,250.0500030517578,-400000.0625,-14400.7197265625,-400000.0625,-2294.25,-400000.0625
0.19987225532531738,-400000.0625,-7504.64990234375,227.74000549316406,-400000.0625,-14410.5498046875,-400000.0625,-2293.590087890625,-400000.0625
0.199876070022583,-400000.0625,-7523.5400390625,201.99000549316406,-400000.0625,-14418.7001953125,-400000.0625,-2304.97998046875,-400000.0625
timestamp,ch7,ch2,ch3,ch5,is_pause
timestamp,ch7,ch2,ch3,ch5,is_pause
timestamp,ch7,ch2,ch3,ch5,is_pause
0.23217439651489258,-400000.0625,-7542.419921875,184.97000122070312,-400000.0625,-14422.6103515625,-400000.0625,-2296.639892578125,-400000.0625
0.23227977752685547,-400000.0625,-7534.31005859375,180.0500030517578,-400000.0625,-14420.83984375,-400000.0625,-2269.7900390625,-400000.0625
0.23229002952575684,-400000.0625,-7521.25,172.3800048828125,-400000.0625,-14419.509765625,-400000.0625,-2254.679931640625,-400000.0625
0.2322986125946045,-400000.0625,-7532.68994140625,156.39999389648438,-400000.0625,-14427.1396484375,-400000.0625,-2257.43994140625,-400000.0625
0.23230695724487305,-400000.0625,-7558.77978515625,136.57000732421875,-400000.0625,-14443.259765625,-400000.0625,-2253.580078125,-400000.0625
0.2323150634765625,-400000.0625,-7555.009765625,125.36000061035156,-400000.0625,-14448.5,-400000.0625,-2240.090087890625,-400000.0625
0.23232436180114746,-400000.0625,-7535.7001953125,130.94000244140625,-400000.0625,-14437.2998046875,-400000.0625,-2220.199951171875,-400000.0625
0.23233270645141602,-400000.0625,-7535.169921875,132.1300048828125,-400000.0625,-14433.150390625,-400000.0625,-2202.56005859375,-400000.0625
0.23234057426452637,-400000.0625,-7544.9501953125,123.87999725341797,-400000.0625,-14441.5400390625,-400000.0625,-2202.4599609375,-400000.0625
0.23234868049621582,-400000.0625,-7555.52978515625,108.86000061035156,-400000.0625,-14461.08984375,-400000.0625,-2210.570068359375,-400000.0625
0.23236298561096191,-400000.0625,-7553.91015625,109.29000091552734,-400000.0625,-14468.48046875,-400000.0625,-2203.320068359375,-400000.0625
0.23237133026123047,-400000.0625,-7540.080078125,121.12000274658203,-400000.0625,-14451.7900390625,-400000.0625,-2194.68994140625,-400000.0625
0.23237943649291992,-400000.0625,-7536.97998046875,127.2699966430664,-400000.0625,-14442.349609375,-400000.0625,-2182.530029296875,-400000.0625
0.23238730430603027,-400000.0625,-7537.7001953125,124.41000366210938,-400000.0625,-14449.4599609375,-400000.0625,-2186.6298828125,-400000.0625
0.23239493370056152,-400000.0625,-7543.7099609375,116.20999908447266,-400000.0625,-14459.9501953125,-400000.0625,-2201.080078125,-400000.0625
0.23240256309509277,-400000.0625,-7543.3701171875,119.16000366210938,-400000.0625,-14462.6201171875,-400000.0625,-2199.93994140625,-400000.0625
timestamp,ch7,ch2,ch3,ch5,is_pause
timestamp,ch7,ch2,ch3,ch5,is_pause
timestamp,ch7,ch2,ch3,ch5,is_pause
timestamp,ch7,ch2,ch3,ch5,is_pause
timestamp,ch7,ch2,ch3,ch5,is_pause
timestamp,ch7,ch2,ch3,ch5,is_pause
0.2998213768005371,-400000.0625,-7525.97021484375,130.8000030517578,-400000.0625,-14451.26953125,-400000.0625,-2188.159912109375,-400000.0625
timestamp,ch7,ch2,ch3,ch5,is_pause
0.3120536804199219,-400000.0625,-7519.580078125,137.57000732421875,-400000.0625,-14444.5400390625,-400000.0625,-2180.6201171875,-400000.0625
0.3167853355407715,-400000.0625,-7527.06982421875,130.8000030517578,-400000.0625,-14452.75,-400000.0625,-2190.639892578125,-400000.0625
0.31679463386535645,-400000.0625,-7541.22998046875,121.36000061035156,-400000.0625,-14464.1904296875,-400000.0625,-2200.169921875,-400000.0625
0.3167989253997803,-400000.0625,-7536.35986328125,126.08000183105469,-400000.0625,-14460.7998046875,-400000.0625,-2198.739990234375,-400000.0625
0.31680870056152344,-400000.0625,-7519.47998046875,139.19000244140625,-400000.0625,-14446.98046875,-400000.0625,-2184.14990234375,-400000.0625
0.31681251525878906,-400000.0625,-7513.6201171875,144.33999633789062,-400000.0625,-14443.2099609375,-400000.0625,-2176.860107421875,-400000.0625
0.3168177604675293,-400000.0625,-7525.8701171875,134.99000549316406,-400000.0625,-14456.3701171875,-400000.0625,-2184.580078125,-400000.0625
0.316821813583374,-400000.0625,-7536.509765625,125.88999938964844,-400000.0625,-14461.7099609375,-400000.0625,-2197.64990234375,-400000.0625
0.31682538986206055,-400000.0625,-7535.64990234375,127.02999877929688,-400000.0625,-14459.330078125,-400000.0625,-2194.7900390625,-400000.0625
0.31682896614074707,-400000.0625,-7525.10986328125,137.85000610351562,-400000.0625,-14454.8896484375,-400000.0625,-2179.669921875,-400000.0625
0.3168325424194336,-400000.0625,-7519.10009765625,144.2899932861328,-400000.0625,-14446.1201171875,-400000.0625,-2171.3701171875,-400000.0625
0.3168361186981201,-400000.0625,-7525.02001953125,138.9499969482422,-400000.0625,-14453.26953125,-400000.0625,-2181.14990234375,-400000.0625
0.31683969497680664,-400000.0625,-7537.080078125,127.2699966430664,-400000.0625,-14463.6201171875,-400000.0625,-2192.449951171875,-400000.0625
0.31684327125549316,-400000.0625,-7536.60009765625,126.12000274658203,-400000.0625,-14462.6201171875,-400000.0625,-2191.969970703125,-400000.0625
0.3168466091156006,-400000.0625,-7523.81982421875,137.47000122070312,-400000.0625,-14451.41015625,-400000.0625,-2181.10009765625,-400000.0625
timestamp,ch7,ch2,ch3,ch5,is_pause
timestamp,ch7,ch2,ch3,ch5,is_pause
timestamp,ch7,ch2,ch3,ch5,is_pause
0.35474705696105957,-400000.0625,-7517.6201171875,145.6300048828125,-400000.0625,-14443.490234375,-400000.0625,-2172.3701171875,-400000.0625
timestamp,ch7,ch2,ch3,ch5,is_pause
0.3598606586456299,-400000.0625,-7524.8701171875,139.89999389648438,-400000.0625,-14449.6904296875,-400000.0625,-2182.669921875,-400000.0625
0.36413025856018066,-400000.0625,-7534.02978515625,133.66000366210938,-400000.0625,-14463.6201171875,-400000.0625,-2192.780029296875,-400000.0625
0.3641371726989746,-400000.0625,-7531.1201171875,134.27999877929688,-400000.0625,-14458.9404296875,-400000.0625,-2186.6298828125,-400000.0625
0.36414122581481934,-400000.0625,-7520.490234375,144.2899932861328,-400000.0625,-14450.6904296875,-400000.0625,-2175.89990234375,-400000.0625
0.3641481399536133,-400000.0625,-7517.0,150.82000732421875,-400000.0625,-14445.259765625,-400000.0625,-2169.419921875,-400000.0625
0.364152193069458,-400000.0625,-7522.43994140625,148.1999969482422,-400000.0625,-14442.0595703125,-400000.0625,-2177.2900390625,-400000.0625
0.36415576934814453,-400000.0625,-7531.93017578125,136.66000366210938,-400000.0625,-14455.1796875,-400000.0625,-2188.02001953125,-400000.0625
0.36415934562683105,-400000.0625,-7534.7900390625,133.8000030517578,-400000.0625,-14458.4697265625,-400000.0625,-2193.39990234375,-400000.0625
0.3641629219055176,-400000.0625,-7524.2099609375,144.14999389648438,-400000.0625,-14448.5,-400000.0625,-2181.820068359375,-400000.0625
0.3641664981842041,-400000.0625,-7519.6298828125,149.00999450683594,-400000.0625,-14442.2998046875,-400000.0625,-2174.570068359375,-400000.0625
0.3641700744628906,-400000.0625,-7529.39990234375,143.14999389648438,-400000.0625,-14448.4501953125,-400000.0625,-2184.340087890625,-400000.0625
0.36417388916015625,-400000.0625,-7535.64990234375,135.4199981689453,-400000.0625,-14457.5595703125,-400000.0625,-2198.4599609375,-400000.0625
0.36417698860168457,-400000.0625,-7533.7900390625,135.8000030517578,-400000.0625,-14458.849609375,-400000.0625,-2198.739990234375,-400000.0625
0.3641808032989502,-400000.0625,-7526.06005859375,144.24000549316406,-400000.0625,-14443.349609375,-400000.0625,-2189.159912109375,-400000.0625
0.36418771743774414,-400000.0625,-7520.2998046875,149.67999267578125,-400000.0625,-14437.919921875,-400000.0625,-2183.489990234375,-400000.0625
timestamp,ch7,ch2,ch3,ch5,is_pause
timestamp,ch7,ch2,ch3,ch5,is_pause
timestamp,ch7,ch2,ch3,ch5,is_pause
timestamp,ch7,ch2,ch3,ch5,is_pause
timestamp,ch7,ch2,ch3,ch5,is_pause
0.42669224739074707,-400000.0625,-7526.259765625,143.42999267578125,-400000.0625,-14448.740234375,-400000.0625,-2190.449951171875,-400000.0625
timestamp,ch7,ch2,ch3,ch5,is_pause
0.436936616897583,-400000.0625,-7537.080078125,136.61000061035156,-400000.0625,-14457.900390625,-400000.0625,-2201.889892578125,-400000.0625
0.4407615661621094,-400000.0625,-7536.60009765625,134.75,-400000.0625,-14457.66015625,-400000.0625,-2201.64990234375,-400000.0625
0.4407687187194824,-400000.0625,-7529.06982421875,143.0500030517578,-400000.0625,-14447.8798828125,-400000.0625,-2193.31005859375,-400000.0625
0.44077253341674805,-400000.0625,-7520.2998046875,151.05999755859375,-400000.0625,-14443.919921875,-400000.0625,-2186.969970703125,-400000.0625
0.44077587127685547,-400000.0625,-7523.43994140625,145.2899932861328,-400000.0625,-14453.0302734375,-400000.0625,-2191.639892578125,-400000.0625
0.440779447555542,-400000.0625,-7536.41015625,134.52000427246094,-400000.0625,-14463.2802734375,-400000.0625,-2205.989990234375,-400000.0625
0.4407830238342285,-400000.0625,-7542.47021484375,129.27000427246094,-400000.0625,-14466.8603515625,-400000.0625,-2204.75,-400000.0625
0.44078660011291504,-400000.0625,-7530.39990234375,137.7100067138672,-400000.0625,-14455.2197265625,-400000.0625,-2193.360107421875,-400000.0625
0.44079017639160156,-400000.0625,-7526.830078125,143.5800018310547,-400000.0625,-14444.6904296875,-400000.0625,-2189.2099609375,-400000.0625
0.4407937526702881,-400000.0625,-7534.60009765625,138.24000549316406,-400000.0625,-14452.080078125,-400000.0625,-2196.97998046875,-400000.0625
0.4407975673675537,-400000.0625,-7536.4599609375,135.0399932861328,-400000.0625,-14459.900390625,-400000.0625,-2210.3798828125,-400000.0625
timestamp,ch7,ch2,ch3,ch5,is_pause
0.4413282871246338,-400000.0625,-7532.68994140625,139.86000061035156,-400000.0625,-14456.6103515625,-400000.0625,-2208.18994140625,-400000.0625
0.4413454532623291,-400000.0625,-7527.06982421875,149.00999450683594,-400000.0625,-14449.7900390625,-400000.0625,-2191.969970703125,-400000.0625
0.44135475158691406,-400000.0625,-7523.8701171875,154.39999389648438,-400000.0625,-14450.0302734375,-400000.0625,-2185.820068359375,-400000.0625
0.4413626194000244,-400000.0625,-7531.169921875,146.44000244140625,-400000.0625,-14455.6103515625,-400000.0625,-2198.169921875,-400000.0625
timestamp,ch7,ch2,ch3,ch5,is_pause
timestamp,ch7,ch2,ch3,ch5,is_pause
timestamp,ch7,ch2,ch3,ch5,is_pause
timestamp,ch7,ch2,ch3,ch5,is_pause
timestamp,ch7,ch2,ch3,ch5,is_pause
timestamp,ch7,ch2,ch3,ch5,is_pause
timestamp,ch7,ch2,ch3,ch5,is_pause
timestamp,ch7,ch2,ch3,ch5,is_pause
0.5437734127044678,-400000.0625,-7537.75,137.9499969482422,-400000.0625,-14465.51953125,-400000.0625,-2213.0,-400000.0625
timestamp,ch7,ch2,ch3,ch5,is_pause
0.5549874305725098,-400000.0625,-7539.080078125,138.85000610351562,-400000.0625,-14462.900390625,-400000.0625,-2210.280029296875,-400000.0625
timestamp,ch7,ch2,ch3,ch5,is_pause
0.5612330436706543,-400000.0625,-7528.830078125,148.11000061035156,-400000.0625,-14451.080078125,-400000.0625,-2193.68994140625,-400000.0625
0.5660898685455322,-400000.0625,-7523.97021484375,154.63999938964844,-400000.0625,-14447.169921875,-400000.0625,-2186.820068359375,-400000.0625
0.5660974979400635,-400000.0625,-7531.31005859375,148.5800018310547,-400000.0625,-14449.4599609375,-400000.0625,-2202.610107421875,-400000.0625
0.5661017894744873,-400000.0625,-7539.7998046875,140.91000366210938,-400000.0625,-14457.75,-400000.0625,-2214.860107421875,-400000.0625
0.566105842590332,-400000.0625,-7538.02978515625,142.86000061035156,-400000.0625,-14457.1796875,-400000.0625,-2210.429931640625,-400000.0625
0.5661094188690186,-400000.0625,-7524.25,157.07000732421875,-400000.0625,-14444.6904296875,-400000.0625,-2194.739990234375,-400000.0625
0.5661129951477051,-400000.0625,-7518.39013671875,162.1699981689453,-400000.0625,-14440.009765625,-400000.0625,-2188.159912109375,-400000.0625
0.5661165714263916,-400000.0625,-7526.39990234375,151.77999877929688,-400000.0625,-14448.599609375,-400000.0625,-2199.1298828125,-400000.0625
0.5661263465881348,-400000.0625,-7538.83984375,142.24000549316406,-400000.0625,-14457.9404296875,-400000.0625,-2209.7099609375,-400000.0625
0.5661301612854004,-400000.0625,-7539.22998046875,143.14999389648438,-400000.0625,-14460.849609375,-400000.0625,-2207.52001953125,-400000.0625
0.5661342144012451,-400000.0625,-7525.58984375,151.82000732421875,-400000.0625,-14447.98046875,-400000.0625,-2194.68994140625,-400000.0625
0.5661377906799316,-400000.0625,-7519.72021484375,161.74000549316406,-400000.0625,-14437.2998046875,-400000.0625,-2193.739990234375,-400000.0625
0.5661587715148926,-400000.0625,-7530.93017578125,152.9199981689453,-400000.0625,-14443.58984375,-400000.0625,-2198.409912109375,-400000.0625
0.5661623477935791,-400000.0625,-7539.85009765625,143.0500030517578,-400000.0625,-14451.98046875,-400000.0625,-2213.050048828125,-400000.0625
0.5661661624908447,-400000.0625,-7535.1201171875,146.82000732421875,-400000.0625,-14453.0302734375,-400000.0625,-2215.909912109375,-400000.0625
0.5661697387695312,-400000.0625,-7522.919921875,156.39999389648438,-400000.0625,-14444.400390625,-400000.0625,-2198.510009765625,-400000.0625
0.5661733150482178,-400000.0625,-7518.47998046875,162.74000549316406,-400000.0625,-14438.9599609375,-400000.0625,-2191.02001953125,-400000.0625
0.5661766529083252,-400000.0625,-7527.10986328125,155.1199951171875,-400000.0625,-14445.1201171875,-400000.0625,-2200.699951171875,-400000.0625
0.5661802291870117,-400000.0625,-7532.1201171875,148.9600067138672,-400000.0625,-14451.1201171875,-400000.0625,-2207.85009765625,-400000.0625
0.5661838054656982,-400000.0625,-7530.8798828125,150.49000549316406,-400000.0625,-14449.41015625,-400000.0625,-2209.139892578125,-400000.0625
0.5661871433258057,-400000.0625,-7521.81982421875,155.97000122070312,-400000.0625,-14443.9697265625,-400000.0625,-2195.449951171875,-400000.0625
0.5661904811859131,-400000.0625,-7512.89990234375,167.55999755859375,-400000.0625,-14436.33984375,-400000.0625,-2188.300048828125,-400000.0625
0.5661940574645996,-400000.0625,-7519.81982421875,162.97999572753906,-400000.0625,-14443.01953125,-400000.0625,-2201.989990234375,-400000.0625
0.5661976337432861,-400000.0625,-7529.830078125,152.16000366210938,-400000.0625,-14451.740234375,-400000.0625,-2215.77001953125,-400000.0625
0.5662007331848145,-400000.0625,-7533.06982421875,149.38999938964844,-400000.0625,-14450.599609375,-400000.0625,-2211.669921875,-400000.0625
0.566204309463501,-400000.0625,-7521.39013671875,158.97999572753906,-400000.0625,-14442.2099609375,-400000.0625,-2202.610107421875,-400000.0625
0.566209077835083,-400000.0625,-7515.3798828125,162.94000244140625,-400000.0625,-14438.2998046875,-400000.0625,-2196.31005859375,-400000.0625
0.5662126541137695,-400000.0625,-7522.10986328125,160.1199951171875,-400000.0625,-14446.01953125,-400000.0625,-2204.93994140625,-400000.0625
0.566215991973877,-400000.0625,-7526.830078125,154.3000030517578,-400000.0625,-14453.990234375,-400000.0625,-2213.2900390625,-400000.0625
0.5662198066711426,-400000.0625,-7520.39013671875,159.8800048828125,-400000.0625,-14449.4599609375,-400000.0625,-2207.949951171875,-400000.0625
timestamp,ch7,ch2,ch3,ch5,is_pause
timestamp,ch7,ch2,ch3,ch5,is_pause
timestamp,ch7,ch2,ch3,ch5,is_pause
timestamp,ch7,ch2,ch3,ch5,is_pause
timestamp,ch7,ch2,ch3,ch5,is_pause
timestamp,ch7,ch2,ch3,ch5,is_pause
timestamp,ch7,ch2,ch3,ch5,is_pause
0.6438343524932861,-400000.0625,-7511.27978515625,165.83999633789062,-400000.0625,-14439.009765625,-400000.0625,-2194.830078125,-400000.0625
0.6540577411651611,-400000.0625,-7506.27978515625,170.66000366210938,-400000.0625,-14434.150390625,-400000.0625,-2191.2099609375,-400000.0625
timestamp,ch7,ch2,ch3,ch5,is_pause
0.6591436862945557,-400000.0625,-7517.52978515625,164.55999755859375,-400000.0625,-14440.2001953125,-400000.0625,-2204.0400390625,-400000.0625
0.6637678146362305,-400000.0625,-7525.64013671875,153.35000610351562,-400000.0625,-14447.830078125,-400000.0625,-2211.280029296875,-400000.0625
0.6637768745422363,-400000.0625,-7522.919921875,159.74000549316406,-400000.0625,-14445.58984375,-400000.0625,-2211.280029296875,-400000.0625
0.6637816429138184,-400000.0625,-7512.14013671875,173.13999938964844,-400000.0625,-14435.91015625,-400000.0625,-2199.699951171875,-400000.0625
0.6637856960296631,-400000.0625,-7504.27001953125,176.10000610351562,-400000.0625,-14435.76953125,-400000.0625,-2191.68994140625,-400000.0625
0.6637895107269287,-400000.0625,-7513.18994140625,167.22999572753906,-400000.0625,-14445.0703125,-400000.0625,-2202.080078125,-400000.0625
0.6637930870056152,-400000.0625,-7527.72998046875,152.77999877929688,-400000.0625,-14453.41015625,-400000.0625,-2216.10009765625,-400000.0625
0.6638047695159912,-400000.0625,-7525.16015625,153.16000366210938,-400000.0625,-14452.98046875,-400000.0625,-2211.47998046875,-400000.0625
0.6638088226318359,-400000.0625,-7513.14013671875,168.94000244140625,-400000.0625,-14442.16015625,-400000.0625,-2199.97998046875,-400000.0625
0.6638126373291016,-400000.0625,-7507.1298828125,175.57000732421875,-400000.0625,-14441.349609375,-400000.0625,-2190.8798828125,-400000.0625
0.6638162136077881,-400000.0625,-7510.14013671875,164.6999969482422,-400000.0625,-14450.26953125,-400000.0625,-2197.5,-400000.0625
0.6638197898864746,-400000.0625,-7521.009765625,154.97000122070312,-400000.0625,-14452.5498046875,-400000.0625,-2217.47998046875,-400000.0625
0.6638240814208984,-400000.0625,-7521.2998046875,156.77999877929688,-400000.0625,-14449.169921875,-400000.0625,-2213.669921875,-400000.0625
0.6638274192810059,-400000.0625,-7508.47021484375,168.99000549316406,-400000.0625,-14435.8203125,-400000.0625,-2199.60009765625,-400000.0625
timestamp,ch7,ch2,ch3,ch5,is_pause
timestamp,ch7,ch2,ch3,ch5,is_pause
0.6836779117584229,-400000.0625,-7503.7001953125,174.24000549316406,-400000.0625,-14434.91015625,-400000.0625,-2195.219970703125,-400000.0625
0.6880669593811035,-400000.0625,-7510.18994140625,168.75,-400000.0625,-14444.16015625,-400000.0625,-2206.89990234375,-400000.0625
0.6880753040313721,-400000.0625,-7518.240234375,159.5,-400000.0625,-14447.3603515625,-400000.0625,-2220.820068359375,-400000.0625
0.6880793571472168,-400000.0625,-7517.47998046875,163.60000610351562,-400000.0625,-14445.01953125,-400000.0625,-2217.8701171875,-400000.0625
0.6880831718444824,-400000.0625,-7501.75,175.80999755859375,-400000.0625,-14438.8701171875,-400000.0625,-2205.989990234375,-400000.0625
0.688086986541748,-400000.0625,-7492.16015625,181.8699951171875,-400000.0625,-14435.76953125,-400000.0625,-2194.739990234375,-400000.0625
0.6880905628204346,-400000.0625,-7505.47021484375,172.19000244140625,-400000.0625,-14445.58984375,-400000.0625,-2201.409912109375,-400000.0625
0.6880974769592285,-400000.0625,-7517.10009765625,162.0800018310547,-400000.0625,-14449.1201171875,-400000.0625,-2213.81005859375,-400000.0625
0.688101053237915,-400000.0625,-7507.990234375,165.4600067138672,-400000.0625,-14437.6298828125,-400000.0625,-2214.3798828125,-400000.0625
0.6881048679351807,-400000.0625,-7498.35986328125,175.7100067138672,-400000.0625,-14429.0,-400000.0625,-2198.60009765625,-400000.0625
0.6881082057952881,-400000.0625,-7492.919921875,183.38999938964844,-400000.0625,-14424.330078125,-400000.0625,-2191.35009765625,-400000.0625
0.6881117820739746,-400000.0625,-7496.41015625,178.24000549316406,-400000.0625,-14428.8095703125,-400000.0625,-2198.7900390625,-400000.0625
0.6881167888641357,-400000.0625,-7510.27978515625,166.88999938964844,-400000.0625,-14444.2099609375,-400000.0625,-2214.530029296875,-400000.0625
0.6881203651428223,-400000.0625,-7510.14013671875,165.61000061035156,-400000.0625,-14444.6904296875,-400000.0625,-2215.580078125,-400000.0625
0.6881239414215088,-400000.0625,-7501.93994140625,173.47000122070312,-400000.0625,-14434.76953125,-400000.0625,-2203.989990234375,-400000.0625
0.6881272792816162,-400000.0625,-7495.5,179.6699981689453,-400000.0625,-14433.240234375,-400000.0625,-2196.840087890625,-400000.0625
timestamp,ch7,ch2,ch3,ch5,is_pause
timestamp,ch7,ch2,ch3,ch5,is_pause
timestamp,ch7,ch2,ch3,ch5,is_pause
timestamp,ch7,ch2,ch3,ch5,is_pause
timestamp,ch7,ch2,ch3,ch5,is_pause
0.7436544895172119,-400000.0625,-7501.22021484375,173.75999450683594,-400000.0625,-14443.73046875,-400000.0625,-2204.0400390625,-400000.0625
0.7481462955474854,-400000.0625,-7512.52001953125,163.50999450683594,-400000.0625,-14452.080078125,-400000.0625,-2214.77001953125,-400000.0625
timestamp,ch7,ch2,ch3,ch5,is_pause
0.7530441284179688,-400000.0625,-7511.0400390625,162.5500030517578,-400000.0625,-14444.0703125,-400000.0625,-2212.239990234375,-400000.0625
0.7571969032287598,-400000.0625,-7497.5498046875,178.77000427246094,-400000.0625,-14430.0,-400000.0625,-2199.699951171875,-400000.0625
0.7572050094604492,-400000.0625,-7499.41015625,178.0500030517578,-400000.0625,-14433.2900390625,-400000.0625,-2194.449951171875,-400000.0625
0.757209300994873,-400000.0625,-7504.31982421875,172.3300018310547,-400000.0625,-14432.9599609375,-400000.0625,-2207.610107421875,-400000.0625
0.7572131156921387,-400000.0625,-7511.3798828125,166.8000030517578,-400000.0625,-14437.76953125,-400000.0625,-2217.77001953125,-400000.0625
0.7572169303894043,-400000.0625,-7508.85009765625,168.50999450683594,-400000.0625,-14439.2001953125,-400000.0625,-2215.050048828125,-400000.0625
0.7572205066680908,-400000.0625,-7494.68994140625,183.05999755859375,-400000.0625,-14431.759765625,-400000.0625,-2205.610107421875,-400000.0625
0.7572243213653564,-400000.0625,-7489.35009765625,187.3000030517578,-400000.0625,-14430.7197265625,-400000.0625,-2200.409912109375,-400000.0625
0.757227897644043,-400000.0625,-7497.60009765625,175.75999450683594,-400000.0625,-14443.7802734375,-400000.0625,-2210.89990234375,-400000.0625
0.7572312355041504,-400000.0625,-7507.18017578125,166.85000610351562,-400000.0625,-14444.2099609375,-400000.0625,-2224.780029296875,-400000.0625
0.7572348117828369,-400000.0625,-7508.60986328125,166.22999572753906,-400000.0625,-14437.76953125,-400000.0625,-2224.25,-400000.0625
0.7572381496429443,-400000.0625,-7492.77978515625,181.52999877929688,-400000.0625,-14427.6201171875,-400000.0625,-2207.139892578125,-400000.0625
0.7572417259216309,-400000.0625,-7485.9599609375,188.39999389648438,-400000.0625,-14418.2197265625,-400000.0625,-2200.64990234375,-400000.0625
0.7572453022003174,-400000.0625,-7495.58984375,178.33999633789062,-400000.0625,-14427.5703125,-400000.0625,-2212.139892578125,-400000.0625
timestamp,ch7,ch2,ch3,ch5,is_pause
timestamp,ch7,ch2,ch3,ch5,is_pause
timestamp,ch7,ch2,ch3,ch5,is_pause
timestamp,ch7,ch2,ch3,ch5,is_pause
timestamp,ch7,ch2,ch3,ch5,is_pause
timestamp,ch7,ch2,ch3,ch5,is_pause
0.8276801109313965,-400000.0625,-7505.93994140625,168.17999267578125,-400000.0625,-14441.7802734375,-400000.0625,-2221.25,-400000.0625
timestamp,ch7,ch2,ch3,ch5,is_pause
0.8331387042999268,-400000.0625,-7507.1298828125,168.61000061035156,-400000.0625,-14440.400390625,-400000.0625,-2219.530029296875,-400000.0625
0.8373260498046875,-400000.0625,-7495.06982421875,176.13999938964844,-400000.0625,-14428.1904296875,-400000.0625,-2207.659912109375,-400000.0625
0.8373391628265381,-400000.0625,-7484.47998046875,187.05999755859375,-400000.0625,-14421.4599609375,-400000.0625,-2196.550048828125,-400000.0625
0.837343692779541,-400000.0625,-7493.68994140625,180.1999969482422,-400000.0625,-14434.4296875,-400000.0625,-2203.56005859375,-400000.0625
0.8373477458953857,-400000.0625,-7501.7001953125,170.7100067138672,-400000.0625,-14445.1201171875,-400000.0625,-2219.679931640625,-400000.0625
0.8373510837554932,-400000.0625,-7497.259765625,172.89999389648438,-400000.0625,-14434.009765625,-400000.0625,-2215.2900390625,-400000.0625
0.8373565673828125,-400000.0625,-7488.25,179.72000122070312,-400000.0625,-14428.330078125,-400000.0625,-2205.56005859375,-400000.0625
0.837360143661499,-400000.0625,-7487.35009765625,183.9600067138672,-400000.0625,-14426.1904296875,-400000.0625,-2202.179931640625,-400000.0625
0.8373639583587646,-400000.0625,-7492.68994140625,177.33999633789062,-400000.0625,-14430.5703125,-400000.0625,-2205.52001953125,-400000.0625
0.8373672962188721,-400000.0625,-7497.68994140625,170.89999389648438,-400000.0625,-14438.8203125,-400000.0625,-2216.050048828125,-400000.0625
0.8373708724975586,-400000.0625,-7493.830078125,172.22999572753906,-400000.0625,-14436.5302734375,-400000.0625,-2215.580078125,-400000.0625
0.8373744487762451,-400000.0625,-7484.81982421875,179.9600067138672,-400000.0625,-14430.48046875,-400000.0625,-2205.85009765625,-400000.0625
0.8373780250549316,-400000.0625,-7477.08984375,188.49000549316406,-400000.0625,-14425.7099609375,-400000.0625,-2194.830078125,-400000.0625
0.8373813629150391,-400000.0625,-7479.3798828125,183.1999969482422,-400000.0625,-14435.2900390625,-400000.0625,-2198.60009765625,-400000.0625
0.8373849391937256,-400000.0625,-7483.6298828125,173.27999877929688,-400000.0625,-14447.98046875,-400000.0625,-2200.510009765625,-400000.0625
timestamp,ch7,ch2,ch3,ch5,is_pause
timestamp,ch7,ch2,ch3,ch5,is_pause
timestamp,ch7,ch2,ch3,ch5,is_pause
timestamp,ch7,ch2,ch3,ch5,is_pause
timestamp,ch7,ch2,ch3,ch5,is_pause
timestamp,ch7,ch2,ch3,ch5,is_pause
0.9100837707519531,-400000.0625,-7484.9599609375,172.0399932861328,-400000.0625,-14448.7900390625,-400000.0625,-2198.889892578125,-400000.0625
timestamp,ch7,ch2,ch3,ch5,is_pause
0.9201221466064453,-400000.0625,-7474.7099609375,182.14999389648438,-400000.0625,-14438.3896484375,-400000.0625,-2184.72998046875,-400000.0625
0.9239025115966797,-400000.0625,-7461.740234375,186.8699951171875,-400000.0625,-14437.5302734375,-400000.0625,-2180.719970703125,-400000.0625
0.9239106178283691,-400000.0625,-7465.7001953125,182.1999969482422,-400000.0625,-14441.9697265625,-400000.0625,-2188.06005859375,-400000.0625
0.9239146709442139,-400000.0625,-7472.3701171875,171.89999389648438,-400000.0625,-14449.5,-400000.0625,-2194.97998046875,-400000.0625
0.9239184856414795,-400000.0625,-7466.89013671875,174.89999389648438,-400000.0625,-14451.7001953125,-400000.0625,-2195.840087890625,-400000.0625
0.923922061920166,-400000.0625,-7455.77978515625,188.97000122070312,-400000.0625,-14431.5703125,-400000.0625,-2188.35009765625,-400000.0625
0.9239256381988525,-400000.0625,-7447.669921875,194.41000366210938,-400000.0625,-14423.75,-400000.0625,-2181.199951171875,-400000.0625
0.9239292144775391,-400000.0625,-7458.39990234375,185.6300048828125,-400000.0625,-14439.4404296875,-400000.0625,-2186.110107421875,-400000.0625
0.9239325523376465,-400000.0625,-7467.56005859375,175.52000427246094,-400000.0625,-14456.4599609375,-400000.0625,-2195.31005859375,-400000.0625
0.923936128616333,-400000.0625,-7465.080078125,178.19000244140625,-400000.0625,-14449.0703125,-400000.0625,-2198.360107421875,-400000.0625
0.9239397048950195,-400000.0625,-7456.259765625,187.11000061035156,-400000.0625,-14426.900390625,-400000.0625,-2186.580078125,-400000.0625
0.923943042755127,-400000.0625,-7454.2099609375,189.25999450683594,-400000.0625,-14422.990234375,-400000.0625,-2181.860107421875,-400000.0625
0.9239504337310791,-400000.0625,-7458.35009765625,184.97000122070312,-400000.0625,-14435.669921875,-400000.0625,-2191.39990234375,-400000.0625
0.9239552021026611,-400000.0625,-7468.1298828125,176.13999938964844,-400000.0625,-14445.01953125,-400000.0625,-2203.419921875,-400000.0625
0.9239599704742432,-400000.0625,-7466.56005859375,175.91000366210938,-400000.0625,-14444.6904296875,-400000.0625,-2201.179931640625,-400000.0625
timestamp,ch7,ch2,ch3,ch5,is_pause
0.9362387657165527,-400000.0625,-7452.68017578125,188.16000366210938,-400000.0625,-14437.099609375,-400000.0625,-2186.580078125,-400000.0625
0.9413647651672363,-400000.0625,-7450.8701171875,192.1199951171875,-400000.0625,-14439.16015625,-400000.0625,-2181.580078125,-400000.0625
timestamp,ch7,ch2,ch3,ch5,is_pause
0.9480509757995605,-400000.0625,-7458.259765625,185.44000244140625,-400000.0625,-14448.0703125,-400000.0625,-2191.110107421875,-400000.0625
0.9521181583404541,-400000.0625,-7465.89013671875,178.3800048828125,-400000.0625,-14442.830078125,-400000.0625,-2205.800048828125,-400000.0625
0.9521267414093018,-400000.0625,-7461.31005859375,181.47999572753906,-400000.0625,-14442.400390625,-400000.0625,-2198.169921875,-400000.0625
0.9521310329437256,-400000.0625,-7454.58984375,188.35000610351562,-400000.0625,-14434.5302734375,-400000.0625,-2188.06005859375,-400000.0625
0.9521365165710449,-400000.0625,-7454.68017578125,190.97000122070312,-400000.0625,-14433.33984375,-400000.0625,-2187.679931640625,-400000.0625
0.9521400928497314,-400000.0625,-7459.39990234375,185.25,-400000.0625,-14440.0595703125,-400000.0625,-2192.31005859375,-400000.0625
0.952143669128418,-400000.0625,-7471.85009765625,172.08999633789062,-400000.0625,-14451.3603515625,-400000.0625,-2202.320068359375,-400000.0625
0.9521474838256836,-400000.0625,-7469.60986328125,171.7100067138672,-400000.0625,-14452.75,-400000.0625,-2203.3701171875,-400000.0625
0.952150821685791,-400000.0625,-7460.7900390625,182.8699951171875,-400000.0625,-14438.76953125,-400000.0625,-2194.97998046875,-400000.0625
0.9521620273590088,-400000.0625,-7455.64013671875,187.39999389648438,-400000.0625,-14428.0,-400000.0625,-2187.5400390625,-400000.0625
0.9521660804748535,-400000.0625,-7457.68994140625,183.77000427246094,-400000.0625,-14433.5302734375,-400000.0625,-2193.360107421875,-400000.0625
0.9521698951721191,-400000.0625,-7464.93017578125,176.42999267578125,-400000.0625,-14442.7802734375,-400000.0625,-2204.989990234375,-400000.0625
0.9521734714508057,-400000.0625,-7470.990234375,172.47000122070312,-400000.0625,-14444.6396484375,-400000.0625,-2199.1298828125,-400000.0625
0.9521770477294922,-400000.0625,-7456.58984375,186.1999969482422,-400000.0625,-14433.33984375,-400000.0625,-2186.25,-400000.0625
timestamp,ch7,ch2,ch3,ch5,is_pause
timestamp,ch7,ch2,ch3,ch5,is_pause
timestamp,ch7,ch2,ch3,ch5,is_pause
timestamp,ch7,ch2,ch3,ch5,is_pause
timestamp,ch7,ch2,ch3,ch5,is_pause
1.010133981704712,-400000.0625,-7445.85986328125,194.22000122070312,-400000.0625,-14431.2900390625,-400000.0625,-2182.820068359375,-400000.0625
timestamp,ch7,ch2,ch3,ch5,is_pause
1.0200364589691162,-400000.0625,-7453.16015625,188.02000427246094,-400000.0625,-14438.5400390625,-400000.0625,-2193.739990234375,-400000.0625
1.024305820465088,-400000.0625,-7465.1298828125,177.33999633789062,-400000.0625,-14451.2197265625,-400000.0625,-2196.8798828125,-400000.0625
1.024312973022461,-400000.0625,-7461.1201171875,182.14999389648438,-400000.0625,-14447.5,-400000.0625,-2193.449951171875,-400000.0625
1.0243170261383057,-400000.0625,-7449.43994140625,191.8300018310547,-400000.0625,-14432.4296875,-400000.0625,-2184.489990234375,-400000.0625
1.0243210792541504,-400000.0625,-7451.77001953125,195.30999755859375,-400000.0625,-14425.849609375,-400000.0625,-2175.139892578125,-400000.0625
1.0243244171142578,-400000.0625,-7479.9501953125,180.10000610351562,-400000.0625,-14436.5302734375,-400000.0625,-2195.639892578125,-400000.0625
1.0243279933929443,-400000.0625,-7513.330078125,161.02999877929688,-400000.0625,-14461.8095703125,-400000.0625,-2218.530029296875,-400000.0625
1.0243315696716309,-400000.0625,-7504.080078125,168.17999267578125,-400000.0625,-14451.599609375,-400000.0625,-2212.139892578125,-400000.0625
1.0243382453918457,-400000.0625,-7477.85986328125,178.14999389648438,-400000.0625,-14427.9501953125,-400000.0625,-2200.080078125,-400000.0625
1.0243418216705322,-400000.0625,-7486.919921875,181.00999450683594,-400000.0625,-14414.98046875,-400000.0625,-2201.610107421875,-400000.0625
1.0243453979492188,-400000.0625,-7509.47021484375,167.6999969482422,-400000.0625,-14421.6103515625,-400000.0625,-2218.77001953125,-400000.0625
1.0243489742279053,-400000.0625,-7547.240234375,145.33999633789062,-400000.0625,-14437.76953125,-400000.0625,-2247.81005859375,-400000.0625
1.024352788925171,-400000.0625,-7561.830078125,135.3300018310547,-400000.0625,-14430.1904296875,-400000.0625,-2262.2099609375,-400000.0625
1.0243561267852783,-400000.0625,-7558.39013671875,140.0500030517578,-400000.0625,-14417.2197265625,-400000.0625,-2259.449951171875,-400000.0625
1.0243594646453857,-400000.0625,-7583.81005859375,137.85000610351562,-400000.0625,-14416.740234375,-400000.0625,-2263.590087890625,-400000.0625
timestamp,ch7,ch2,ch3,ch5,is_pause
timestamp,ch7,ch2,ch3,ch5,is_pause
timestamp,ch7,ch2,ch3,ch5,is_pause
timestamp,ch7,ch2,ch3,ch5,is_pause
timestamp,ch7,ch2,ch3,ch5,is_pause
timestamp,ch7,ch2,ch3,ch5,is_pause
1.0954654216766357,-400000.0625,-7607.169921875,129.3699951171875,-400000.0625,-14422.23046875,-400000.0625,-2273.510009765625,-400000.0625
timestamp,ch7,ch2,ch3,ch5,is_pause
1.1004891395568848,-400000.0625,-7622.2900390625,117.44999694824219,-400000.0625,-14410.2099609375,-400000.0625,-2299.639892578125,-400000.0625
1.1053001880645752,-400000.0625,-7632.2099609375,118.68000030517578,-400000.0625,-14410.1201171875,-400000.0625,-2311.330078125,-400000.0625
1.1053082942962646,-400000.0625,-7626.580078125,129.94000244140625,-400000.0625,-14405.58984375,-400000.0625,-2309.419921875,-400000.0625
1.1053128242492676,-400000.0625,-7629.10986328125,141.42999267578125,-400000.0625,-14401.490234375,-400000.0625,-2317.6201171875,-400000.0625
1.1053178310394287,-400000.0625,-7643.60986328125,135.66000366210938,-400000.0625,-14393.51953125,-400000.0625,-2341.699951171875,-400000.0625
1.10532546043396,-400000.0625,-7660.77001953125,133.85000610351562,-400000.0625,-14404.16015625,-400000.0625,-2359.820068359375,-400000.0625
1.1053290367126465,-400000.0625,-7643.31982421875,159.1199951171875,-400000.0625,-14394.330078125,-400000.0625,-2352.090087890625,-400000.0625
1.105332612991333,-400000.0625,-7614.0400390625,181.00999450683594,-400000.0625,-14380.26953125,-400000.0625,-2343.93994140625,-400000.0625
1.1053361892700195,-400000.0625,-7625.39013671875,182.1999969482422,-400000.0625,-14387.419921875,-400000.0625,-2354.429931640625,-400000.0625
1.105339527130127,-400000.0625,-7637.35986328125,186.25,-400000.0625,-14392.4697265625,-400000.0625,-2372.169921875,-400000.0625
1.1053431034088135,-400000.0625,-7631.77978515625,189.2100067138672,-400000.0625,-14390.5703125,-400000.0625,-2381.56005859375,-400000.0625
1.1053466796875,-400000.0625,-7612.990234375,204.52000427246094,-400000.0625,-14391.3798828125,-400000.0625,-2374.27001953125,-400000.0625
1.1053502559661865,-400000.0625,-7609.4599609375,214.52999877929688,-400000.0625,-14388.900390625,-400000.0625,-2370.260009765625,-400000.0625
1.105353832244873,-400000.0625,-7612.3701171875,224.5399932861328,-400000.0625,-14372.7802734375,-400000.0625,-2365.2099609375,-400000.0625
1.1053578853607178,-400000.0625,-7617.81005859375,220.97000122070312,-400000.0625,-14384.0302734375,-400000.0625,-2370.60009765625,-400000.0625
timestamp,ch7,ch2,ch3,ch5,is_pause
timestamp,ch7,ch2,ch3,ch5,is_pause
timestamp,ch7,ch2,ch3,ch5,is_pause
1.1444389820098877,-400000.0625,-7615.3798828125,219.49000549316406,-400000.0625,-14393.759765625,-400000.0625,-2378.64990234375,-400000.0625
timestamp,ch7,ch2,ch3,ch5,is_pause
1.154808521270752,-400000.0625,-7611.47021484375,220.72999572753906,-400000.0625,-14397.91015625,-400000.0625,-2375.60009765625,-400000.0625
1.1591804027557373,-400000.0625,-7598.5400390625,231.5500030517578,-400000.0625,-14390.2802734375,-400000.0625,-2358.6298828125,-400000.0625
1.1591970920562744,-400000.0625,-7584.47998046875,243.7100067138672,-400000.0625,-14379.2197265625,-400000.0625,-2345.610107421875,-400000.0625
1.1592013835906982,-400000.0625,-7593.81982421875,231.30999755859375,-400000.0625,-14398.5302734375,-400000.0625,-2358.06005859375,-400000.0625
1.1592059135437012,-400000.0625,-7602.5,223.4499969482422,-400000.0625,-14415.7001953125,-400000.0625,-2368.780029296875,-400000.0625
1.159209966659546,-400000.0625,-7607.509765625,220.82000732421875,-400000.0625,-14403.8701171875,-400000.0625,-2366.68994140625,-400000.0625
1.1592137813568115,-400000.0625,-7595.16015625,233.22000122070312,-400000.0625,-14389.1396484375,-400000.0625,-2354.570068359375,-400000.0625
1.1592175960540771,-400000.0625,-7584.2900390625,241.47000122070312,-400000.0625,-14383.83984375,-400000.0625,-2349.89990234375,-400000.0625
1.1592216491699219,-400000.0625,-7585.9599609375,238.1300048828125,-400000.0625,-14398.240234375,-400000.0625,-2349.949951171875,-400000.0625
1.1592254638671875,-400000.0625,-7587.240234375,235.02999877929688,-400000.0625,-14405.73046875,-400000.0625,-2354.719970703125,-400000.0625
1.159228801727295,-400000.0625,-7582.669921875,241.57000732421875,-400000.0625,-14404.25,-400000.0625,-2353.3798828125,-400000.0625
1.1592326164245605,-400000.0625,-7576.56005859375,250.00999450683594,-400000.0625,-14382.080078125,-400000.0625,-2347.610107421875,-400000.0625
1.1592369079589844,-400000.0625,-7568.7900390625,253.44000244140625,-400000.0625,-14376.740234375,-400000.0625,-2340.75,-400000.0625
1.1592411994934082,-400000.0625,-7582.52001953125,240.0399932861328,-400000.0625,-14389.23046875,-400000.0625,-2348.85009765625,-400000.0625
1.1592450141906738,-400000.0625,-7589.2900390625,235.75,-400000.0625,-14402.8701171875,-400000.0625,-2354.719970703125,-400000.0625
timestamp,ch7,ch2,ch3,ch5,is_pause
timestamp,ch7,ch2,ch3,ch5,is_pause
timestamp,ch7,ch2,ch3,ch5,is_pause
timestamp,ch7,ch2,ch3,ch5,is_pause
timestamp,ch7,ch2,ch3,ch5,is_pause
timestamp,ch7,ch2,ch3,ch5,is_pause
timestamp,ch7,ch2,ch3,ch5,is_pause
timestamp,ch7,ch2,ch3,ch5,is_pause
1.2439963817596436,-400000.0625,-7583.18994140625,241.0399932861328,-400000.0625,-14401.0595703125,-400000.0625,-2352.6201171875,-400000.0625
1.2485957145690918,-400000.0625,-7578.89990234375,245.6699981689453,-400000.0625,-14390.51953125,-400000.0625,-2344.080078125,-400000.0625
1.252957820892334,-400000.0625,-7575.31982421875,250.42999267578125,-400000.0625,-14384.8896484375,-400000.0625,-2335.7900390625,-400000.0625
timestamp,ch7,ch2,ch3,ch5,is_pause
1.2578375339508057,-400000.0625,-7577.22998046875,246.42999267578125,-400000.0625,-14396.2900390625,-400000.0625,-2343.699951171875,-400000.0625
1.2578470706939697,-400000.0625,-7584.2900390625,237.8000030517578,-400000.0625,-14406.490234375,-400000.0625,-2351.570068359375,-400000.0625
1.2578513622283936,-400000.0625,-7580.60986328125,239.99000549316406,-400000.0625,-14408.4501953125,-400000.0625,-2344.56005859375,-400000.0625
1.2578551769256592,-400000.0625,-7578.7099609375,249.1999969482422,-400000.0625,-14380.3095703125,-400000.0625,-2330.780029296875,-400000.0625
1.2578589916229248,-400000.0625,-7576.7001953125,250.6699981689453,-400000.0625,-14382.7001953125,-400000.0625,-2331.02001953125,-400000.0625
1.257864236831665,-400000.0625,-7585.2900390625,239.47000122070312,-400000.0625,-14386.849609375,-400000.0625,-2344.469970703125,-400000.0625
1.2578680515289307,-400000.0625,-7595.39990234375,229.5,-400000.0625,-14396.759765625,-400000.0625,-2353.2900390625,-400000.0625
1.2578716278076172,-400000.0625,-7590.72021484375,232.02999877929688,-400000.0625,-14399.7197265625,-400000.0625,-2351.0,-400000.0625
1.2578754425048828,-400000.0625,-7577.31982421875,242.27999877929688,-400000.0625,-14389.849609375,-400000.0625,-2341.56005859375,-400000.0625
1.2578790187835693,-400000.0625,-7577.0400390625,243.0399932861328,-400000.0625,-14389.08984375,-400000.0625,-2335.60009765625,-400000.0625
1.2578835487365723,-400000.0625,-7586.669921875,235.61000061035156,-400000.0625,-14396.7197265625,-400000.0625,-2344.22998046875,-400000.0625
1.2578890323638916,-400000.0625,-7592.009765625,231.6999969482422,-400000.0625,-14398.240234375,-400000.0625,-2352.239990234375,-400000.0625
1.257896900177002,-400000.0625,-7589.39013671875,232.88999938964844,-400000.0625,-14407.6796875,-400000.0625,-2348.570068359375,-400000.0625
timestamp,ch7,ch2,ch3,ch5,is_pause
1.2688097953796387,-400000.0625,-7582.0498046875,240.3300018310547,-400000.0625,-14395.669921875,-400000.0625,-2333.929931640625,-400000.0625
1.2733542919158936,-400000.0625,-7577.75,243.89999389648438,-400000.0625,-14380.1201171875,-400000.0625,-2332.5400390625,-400000.0625
1.2733612060546875,-400000.0625,-7578.330078125,239.08999633789062,-400000.0625,-14388.2802734375,-400000.0625,-2342.080078125,-400000.0625
1.2733652591705322,-400000.0625,-7589.91015625,230.1199951171875,-400000.0625,-14400.150390625,-400000.0625,-2352.52001953125,-400000.0625
1.2733690738677979,-400000.0625,-7586.52978515625,234.6999969482422,-400000.0625,-14392.8095703125,-400000.0625,-2353.719970703125,-400000.0625
1.2733728885650635,-400000.0625,-7577.47021484375,239.99000549316406,-400000.0625,-14388.419921875,-400000.0625,-2341.409912109375,-400000.0625
1.273376226425171,-400000.0625,-7572.89013671875,246.3800048828125,-400000.0625,-14386.4599609375,-400000.0625,-2335.02001953125,-400000.0625
1.2733798027038574,-400000.0625,-7578.08984375,240.3699951171875,-400000.0625,-14391.66015625,-400000.0625,-2346.330078125,-400000.0625
1.273383378982544,-400000.0625,-7588.43994140625,230.97999572753906,-400000.0625,-14397.580078125,-400000.0625,-2356.10009765625,-400000.0625
1.2733871936798096,-400000.0625,-7583.81005859375,237.75,-400000.0625,-14392.6201171875,-400000.0625,-2348.469970703125,-400000.0625
1.273390769958496,-400000.0625,-7572.27001953125,249.0500030517578,-400000.0625,-14383.3701171875,-400000.0625,-2335.7900390625,-400000.0625
1.2733941078186035,-400000.0625,-7567.93017578125,252.2899932861328,-400000.0625,-14381.0302734375,-400000.0625,-2330.639892578125,-400000.0625
1.27339768409729,-400000.0625,-7573.89013671875,247.0500030517578,-400000.0625,-14385.419921875,-400000.0625,-2338.4599609375,-400000.0625
1.2734041213989258,-400000.0625,-7577.47021484375,239.17999267578125,-400000.0625,-14401.150390625,-400000.0625,-2348.800048828125,-400000.0625
1.2734079360961914,-400000.0625,-7581.27978515625,237.85000610351562,-400000.0625,-14391.7099609375,-400000.0625,-2345.800048828125,-400000.0625
1.2734112739562988,-400000.0625,-7570.7900390625,247.2899932861328,-400000.0625,-14377.98046875,-400000.0625,-2336.68994140625,-400000.0625
timestamp,ch7,ch2,ch3,ch5,is_pause
timestamp,ch7,ch2,ch3,ch5,is_pause
timestamp,ch7,ch2,ch3,ch5,is_pause
timestamp,ch7,ch2,ch3,ch5,is_pause
timestamp,ch7,ch2,ch3,ch5,is_pause
1.3289375305175781,-400000.0625,-7572.56005859375,247.42999267578125,-400000.0625,-14378.41015625,-400000.0625,-2337.7900390625,-400000.0625
1.333472728729248,-400000.0625,-7577.93994140625,242.9499969482422,-400000.0625,-14384.26953125,-400000.0625,-2344.179931640625,-400000.0625
1.3334810733795166,-400000.0625,-7583.91015625,236.88999938964844,-400000.0625,-14392.330078125,-400000.0625,-2352.429931640625,-400000.0625
1.3334856033325195,-400000.0625,-7581.0,240.9499969482422,-400000.0625,-14385.7998046875,-400000.0625,-2349.0,-400000.0625
1.3334896564483643,-400000.0625,-7570.93994140625,247.86000061035156,-400000.0625,-14380.98046875,-400000.0625,-2339.550048828125,-400000.0625
1.3334934711456299,-400000.0625,-7565.5498046875,254.25,-400000.0625,-14377.8798828125,-400000.0625,-2327.820068359375,-400000.0625
1.333500623703003,-400000.0625,-7574.93994140625,243.6199951171875,-400000.0625,-14385.7001953125,-400000.0625,-2338.840087890625,-400000.0625
1.3335046768188477,-400000.0625,-7591.10986328125,229.1199951171875,-400000.0625,-14396.0498046875,-400000.0625,-2360.14990234375,-400000.0625
1.3335084915161133,-400000.0625,-7591.25,227.63999938964844,-400000.0625,-14394.240234375,-400000.0625,-2356.580078125,-400000.0625
1.3335120677947998,-400000.0625,-7577.47021484375,237.50999450683594,-400000.0625,-14384.7998046875,-400000.0625,-2340.75,-400000.0625
1.3335156440734863,-400000.0625,-7574.18017578125,241.75999450683594,-400000.0625,-14391.8095703125,-400000.0625,-2339.699951171875,-400000.0625
1.3335204124450684,-400000.0625,-7578.27978515625,237.22999572753906,-400000.0625,-14384.4599609375,-400000.0625,-2345.179931640625,-400000.0625
1.333524227142334,-400000.0625,-7585.10009765625,231.88999938964844,-400000.0625,-14388.990234375,-400000.0625,-2354.570068359375,-400000.0625
1.3335278034210205,-400000.0625,-7580.3798828125,235.17999267578125,-400000.0625,-14388.1298828125,-400000.0625,-2345.3701171875,-400000.0625
1.3335316181182861,-400000.0625,-7572.60009765625,240.8000030517578,-400000.0625,-14386.3701171875,-400000.0625,-2333.97998046875,-400000.0625
1.3335351943969727,-400000.0625,-7569.27001953125,242.75999450683594,-400000.0625,-14384.26953125,-400000.0625,-2332.35009765625,-400000.0625
timestamp,ch7,ch2,ch3,ch5,is_pause
timestamp,ch7,ch2,ch3,ch5,is_pause
timestamp,ch7,ch2,ch3,ch5,is_pause
timestamp,ch7,ch2,ch3,ch5,is_pause
timestamp,ch7,ch2,ch3,ch5,is_pause
1.3866052627563477,-400000.0625,-7580.0,237.4600067138672,-400000.0625,-14388.6103515625,-400000.0625,-2343.699951171875,-400000.0625
timestamp,ch7,ch2,ch3,ch5,is_pause
1.3971643447875977,-400000.0625,-7585.56982421875,232.4600067138672,-400000.0625,-14393.1904296875,-400000.0625,-2352.570068359375,-400000.0625
1.40220308303833,-400000.0625,-7582.47021484375,233.4600067138672,-400000.0625,-14396.7197265625,-400000.0625,-2349.949951171875,-400000.0625
1.406245231628418,-400000.0625,-7566.41015625,246.9499969482422,-400000.0625,-14391.9501953125,-400000.0625,-2328.590087890625,-400000.0625
1.4062533378601074,-400000.0625,-7565.58984375,246.86000061035156,-400000.0625,-14393.330078125,-400000.0625,-2324.489990234375,-400000.0625
1.4062573909759521,-400000.0625,-7582.14013671875,230.92999267578125,-400000.0625,-14387.900390625,-400000.0625,-2339.7900390625,-400000.0625
1.4062612056732178,-400000.0625,-7592.39013671875,222.97000122070312,-400000.0625,-14395.240234375,-400000.0625,-2354.669921875,-400000.0625
1.4062647819519043,-400000.0625,-7586.669921875,230.83999633789062,-400000.0625,-14388.990234375,-400000.0625,-2347.56005859375,-400000.0625
1.4062721729278564,-400000.0625,-7571.75,241.75999450683594,-400000.0625,-14383.41015625,-400000.0625,-2333.070068359375,-400000.0625
1.406275749206543,-400000.0625,-7564.68994140625,242.85000610351562,-400000.0625,-14385.5595703125,-400000.0625,-2332.39990234375,-400000.0625
1.4062793254852295,-400000.0625,-7565.39990234375,235.22000122070312,-400000.0625,-14392.23046875,-400000.0625,-2349.7099609375,-400000.0625
1.406282901763916,-400000.0625,-7575.419921875,230.4600067138672,-400000.0625,-14391.7099609375,-400000.0625,-2347.0400390625,-400000.0625
1.4062864780426025,-400000.0625,-7573.83984375,227.5500030517578,-400000.0625,-14399.2900390625,-400000.0625,-2318.239990234375,-400000.0625
1.40628981590271,-400000.0625,-7541.85009765625,235.61000061035156,-400000.0625,-14393.900390625,-400000.0625,-2294.679931640625,-400000.0625
1.4062941074371338,-400000.0625,-7523.6298828125,236.32000732421875,-400000.0625,-14396.48046875,-400000.0625,-2279.139892578125,-400000.0625
1.4062979221343994,-400000.0625,-7513.0,225.4499969482422,-400000.0625,-14406.9697265625,-400000.0625,-2276.0400390625,-400000.0625
timestamp,ch7,ch2,ch3,ch5,is_pause
timestamp,ch7,ch2,ch3,ch5,is_pause
timestamp,ch7,ch2,ch3,ch5,is_pause
timestamp,ch7,ch2,ch3,ch5,is_pause
timestamp,ch7,ch2,ch3,ch5,is_pause
timestamp,ch7,ch2,ch3,ch5,is_pause
1.477060079574585,-400000.0625,-7509.759765625,212.3800048828125,-400000.0625,-14417.2197265625,-400000.0625,-2271.1298828125,-400000.0625
timestamp,ch7,ch2,ch3,ch5,is_pause
1.482823133468628,-400000.0625,-7490.68017578125,212.3800048828125,-400000.0625,-14415.650390625,-400000.0625,-2252.010009765625,-400000.0625
1.4872853755950928,-400000.0625,-7460.68994140625,223.58999633789062,-400000.0625,-14408.2998046875,-400000.0625,-2228.070068359375,-400000.0625
1.4915745258331299,-400000.0625,-7442.0,228.2100067138672,-400000.0625,-14408.919921875,-400000.0625,-2211.139892578125,-400000.0625
timestamp,ch7,ch2,ch3,ch5,is_pause
1.4974391460418701,-400000.0625,-7438.330078125,223.3000030517578,-400000.0625,-14418.83984375,-400000.0625,-2211.429931640625,-400000.0625
1.5017502307891846,-400000.0625,-7437.66015625,218.33999633789062,-400000.0625,-14429.3798828125,-400000.0625,-2212.330078125,-400000.0625
1.5017602443695068,-400000.0625,-7431.4599609375,221.97000122070312,-400000.0625,-14425.2802734375,-400000.0625,-2209.090087890625,-400000.0625
1.5017642974853516,-400000.0625,-7415.33984375,231.36000061035156,-400000.0625,-14412.9296875,-400000.0625,-2194.830078125,-400000.0625
1.5017683506011963,-400000.0625,-7413.2001953125,234.1300048828125,-400000.0625,-14407.25,-400000.0625,-2187.72998046875,-400000.0625
1.5017719268798828,-400000.0625,-7423.1201171875,226.16000366210938,-400000.0625,-14419.509765625,-400000.0625,-2199.030029296875,-400000.0625
1.5017759799957275,-400000.0625,-7432.56005859375,211.6699981689453,-400000.0625,-14432.240234375,-400000.0625,-2212.330078125,-400000.0625
1.5017800331115723,-400000.0625,-7434.18017578125,213.86000061035156,-400000.0625,-14423.9404296875,-400000.0625,-2207.570068359375,-400000.0625
1.5017831325531006,-400000.0625,-7423.5,228.02000427246094,-400000.0625,-14406.5400390625,-400000.0625,-2194.68994140625,-400000.0625
1.5017869472503662,-400000.0625,-7420.5400390625,231.22000122070312,-400000.0625,-14404.2001953125,-400000.0625,-2186.389892578125,-400000.0625
1.5017905235290527,-400000.0625,-7431.7001953125,219.00999450683594,-400000.0625,-14415.5,-400000.0625,-2202.56005859375,-400000.0625
1.5017943382263184,-400000.0625,-7446.240234375,211.0,-400000.0625,-14420.9404296875,-400000.0625,-2214.860107421875,-400000.0625
timestamp,ch7,ch2,ch3,ch5,is_pause
timestamp,ch7,ch2,ch3,ch5,is_pause
1.5199549198150635,-400000.0625,-7441.330078125,216.91000366210938,-400000.0625,-14423.1796875,-400000.0625,-2206.3701171875,-400000.0625
1.5245366096496582,-400000.0625,-7430.35986328125,228.41000366210938,-400000.0625,-14410.8798828125,-400000.0625,-2191.929931640625,-400000.0625
1.5245444774627686,-400000.0625,-7425.31005859375,235.02999877929688,-400000.0625,-14402.490234375,-400000.0625,-2191.260009765625,-400000.0625
1.5245487689971924,-400000.0625,-7431.7900390625,226.69000244140625,-400000.0625,-14415.5,-400000.0625,-2201.409912109375,-400000.0625
1.524552583694458,-400000.0625,-7441.7099609375,217.33999633789062,-400000.0625,-14424.66015625,-400000.0625,-2207.139892578125,-400000.0625
1.5245561599731445,-400000.0625,-7440.0,219.14999389648438,-400000.0625,-14423.1298828125,-400000.0625,-2205.320068359375,-400000.0625
1.524559736251831,-400000.0625,-7432.60009765625,226.63999938964844,-400000.0625,-14411.9296875,-400000.0625,-2191.070068359375,-400000.0625
1.5245630741119385,-400000.0625,-7427.64990234375,230.83999633789062,-400000.0625,-14401.33984375,-400000.0625,-2188.159912109375,-400000.0625
1.5245704650878906,-400000.0625,-7437.7099609375,224.72999572753906,-400000.0625,-14409.2099609375,-400000.0625,-2196.360107421875,-400000.0625
1.5245745182037354,-400000.0625,-7447.47998046875,215.47999572753906,-400000.0625,-14421.3203125,-400000.0625,-2206.469970703125,-400000.0625
1.5245780944824219,-400000.0625,-7439.9501953125,221.6300048828125,-400000.0625,-14415.599609375,-400000.0625,-2201.179931640625,-400000.0625
1.5245816707611084,-400000.0625,-7429.7001953125,232.02999877929688,-400000.0625,-14404.490234375,-400000.0625,-2188.39990234375,-400000.0625
1.5245850086212158,-400000.0625,-7427.97998046875,235.50999450683594,-400000.0625,-14406.6396484375,-400000.0625,-2190.070068359375,-400000.0625
1.5245895385742188,-400000.0625,-7442.240234375,220.82000732421875,-400000.0625,-14418.7900390625,-400000.0625,-2199.1298828125,-400000.0625
1.5245931148529053,-400000.0625,-7451.39013671875,215.10000610351562,-400000.0625,-14434.3896484375,-400000.0625,-2207.570068359375,-400000.0625
1.5245966911315918,-400000.0625,-7448.2900390625,220.72999572753906,-400000.0625,-14426.2802734375,-400000.0625,-2203.699951171875,-400000.0625
timestamp,ch7,ch2,ch3,ch5,is_pause
timestamp,ch7,ch2,ch3,ch5,is_pause
timestamp,ch7,ch2,ch3,ch5,is_pause
timestamp,ch7,ch2,ch3,ch5,is_pause
timestamp,ch7,ch2,ch3,ch5,is_pause
timestamp,ch7,ch2,ch3,ch5,is_pause
timestamp,ch7,ch2,ch3,ch5,is_pause
timestamp,ch7,ch2,ch3,ch5,is_pause
timestamp,ch7,ch2,ch3,ch5,is_pause
timestamp,ch7,ch2,ch3,ch5,is_pause
1.648097038269043,-400000.0625,-7435.89013671875,229.8800048828125,-400000.0625,-14403.9599609375,-400000.0625,-2191.5,-400000.0625
timestamp,ch7,ch2,ch3,ch5,is_pause
1.6590464115142822,-400000.0625,-7434.31982421875,232.74000549316406,-400000.0625,-14402.2001953125,-400000.0625,-2180.2900390625,-400000.0625
timestamp,ch7,ch2,ch3,ch5,is_pause
1.6643590927124023,-400000.0625,-7442.669921875,225.25999450683594,-400000.0625,-14410.8798828125,-400000.0625,-2194.550048828125,-400000.0625
1.6682214736938477,-400000.0625,-7444.47998046875,222.8300018310547,-400000.0625,-14419.8896484375,-400000.0625,-2201.64990234375,-400000.0625
1.668229341506958,-400000.0625,-7442.27978515625,226.16000366210938,-400000.0625,-14422.7998046875,-400000.0625,-2196.360107421875,-400000.0625
1.6682331562042236,-400000.0625,-7433.02978515625,235.8000030517578,-400000.0625,-14400.8701171875,-400000.0625,-2185.389892578125,-400000.0625
1.6682369709014893,-400000.0625,-7432.27001953125,237.4199981689453,-400000.0625,-14400.099609375,-400000.0625,-2188.300048828125,-400000.0625
1.6682403087615967,-400000.0625,-7439.47021484375,233.75,-400000.0625,-14409.73046875,-400000.0625,-2198.7900390625,-400000.0625
1.668243646621704,-400000.0625,-7448.2900390625,224.07000732421875,-400000.0625,-14416.509765625,-400000.0625,-2208.949951171875,-400000.0625
1.6682469844818115,-400000.0625,-7443.47998046875,225.4499969482422,-400000.0625,-14414.599609375,-400000.0625,-2202.219970703125,-400000.0625
1.6682500839233398,-400000.0625,-7433.02978515625,236.94000244140625,-400000.0625,-14399.9599609375,-400000.0625,-2187.780029296875,-400000.0625
1.6682534217834473,-400000.0625,-7427.64990234375,243.57000732421875,-400000.0625,-14396.0498046875,-400000.0625,-2177.760009765625,-400000.0625
1.6682567596435547,-400000.0625,-7432.509765625,236.22999572753906,-400000.0625,-14409.6396484375,-400000.0625,-2189.110107421875,-400000.0625
1.668259859085083,-400000.0625,-7441.9501953125,228.30999755859375,-400000.0625,-14415.599609375,-400000.0625,-2201.64990234375,-400000.0625
1.6682696342468262,-400000.0625,-7444.81005859375,227.63999938964844,-400000.0625,-14406.2099609375,-400000.0625,-2200.64990234375,-400000.0625
1.6682732105255127,-400000.0625,-7442.08984375,232.50999450683594,-400000.0625,-14394.08984375,-400000.0625,-2194.449951171875,-400000.0625
1.6682765483856201,-400000.0625,-7451.10986328125,233.88999938964844,-400000.0625,-14396.3798828125,-400000.0625,-2198.840087890625,-400000.0625
1.6682796478271484,-400000.0625,-7451.25,227.5,-400000.0625,-14409.6904296875,-400000.0625,-2193.449951171875,-400000.0625
1.668283462524414,-400000.0625,-7450.68017578125,209.3800048828125,-400000.0625,-14423.3203125,-400000.0625,-2189.679931640625,-400000.0625
1.6682863235473633,-400000.0625,-7458.259765625,204.94000244140625,-400000.0625,-14413.8798828125,-400000.0625,-2187.780029296875,-400000.0625
1.6682896614074707,-400000.0625,-7448.6298828125,212.86000061035156,-400000.0625,-14403.73046875,-400000.0625,-2166.219970703125,-400000.0625
1.6682929992675781,-400000.0625,-7446.6201171875,210.57000732421875,-400000.0625,-14399.48046875,-400000.0625,-2155.590087890625,-400000.0625
1.6682963371276855,-400000.0625,-7467.080078125,192.7899932861328,-400000.0625,-14408.400390625,-400000.0625,-2165.4599609375,-400000.0625
1.668299674987793,-400000.0625,-7475.47021484375,178.14999389648438,-400000.0625,-14418.1298828125,-400000.0625,-2171.760009765625,-400000.0625
1.6683032512664795,-400000.0625,-7476.6201171875,175.91000366210938,-400000.0625,-14419.650390625,-400000.0625,-2162.169921875,-400000.0625
1.668306589126587,-400000.0625,-7469.27001953125,180.24000549316406,-400000.0625,-14414.5,-400000.0625,-2149.72998046875,-400000.0625
1.6683099269866943,-400000.0625,-7467.60009765625,180.6300048828125,-400000.0625,-14410.5498046875,-400000.0625,-2147.389892578125,-400000.0625
1.6683132648468018,-400000.0625,-7478.330078125,174.80999755859375,-400000.0625,-14415.3095703125,-400000.0625,-2155.2099609375,-400000.0625
1.6683177947998047,-400000.0625,-7486.14990234375,165.64999389648438,-400000.0625,-14419.2197265625,-400000.0625,-2162.739990234375,-400000.0625
1.6683213710784912,-400000.0625,-7482.52978515625,165.50999450683594,-400000.0625,-14418.4599609375,-400000.0625,-2155.590087890625,-400000.0625
1.668325424194336,-400000.0625,-7471.60986328125,175.91000366210938,-400000.0625,-14412.9296875,-400000.0625,-2143.909912109375,-400000.0625
1.6683290004730225,-400000.0625,-7468.27001953125,179.0,-400000.0625,-14410.5498046875,-400000.0625,-2142.3798828125,-400000.0625
timestamp,ch7,ch2,ch3,ch5,is_pause
timestamp,ch7,ch2,ch3,ch5,is_pause
timestamp,ch7,ch2,ch3,ch5,is_pause
timestamp,ch7,ch2,ch3,ch5,is_pause
timestamp,ch7,ch2,ch3,ch5,is_pause
timestamp,ch7,ch2,ch3,ch5,is_pause
timestamp,ch7,ch2,ch3,ch5,is_pause
1.744905710220337,-400000.0625,-7477.43017578125,170.99000549316406,-400000.0625,-14419.5595703125,-400000.0625,-2152.199951171875,-400000.0625
1.7506201267242432,-400000.0625,-7485.580078125,163.1300048828125,-400000.0625,-14429.08984375,-400000.0625,-2163.929931640625,-400000.0625
timestamp,ch7,ch2,ch3,ch5,is_pause
1.7603645324707031,-400000.0625,-7485.25,161.4600067138672,-400000.0625,-14419.509765625,-400000.0625,-2165.320068359375,-400000.0625
1.7650978565216064,-400000.0625,-7470.89013671875,175.42999267578125,-400000.0625,-14407.830078125,-400000.0625,-2150.580078125,-400000.0625
1.7651066780090332,-400000.0625,-7466.1298828125,182.33999633789062,-400000.0625,-14403.0595703125,-400000.0625,-2142.949951171875,-400000.0625
1.765110969543457,-400000.0625,-7474.89990234375,175.6699981689453,-400000.0625,-14411.830078125,-400000.0625,-2152.5400390625,-400000.0625
1.7651147842407227,-400000.0625,-7484.77001953125,166.32000732421875,-400000.0625,-14421.849609375,-400000.0625,-2160.1201171875,-400000.0625
1.7651183605194092,-400000.0625,-7480.47998046875,169.47000122070312,-400000.0625,-14420.9404296875,-400000.0625,-2154.110107421875,-400000.0625
1.7651221752166748,-400000.0625,-7475.0400390625,176.9499969482422,-400000.0625,-14413.7900390625,-400000.0625,-2146.199951171875,-400000.0625
1.7651336193084717,-400000.0625,-7471.56005859375,181.47999572753906,-400000.0625,-14405.58984375,-400000.0625,-2140.139892578125,-400000.0625
1.7651371955871582,-400000.0625,-7477.669921875,172.75999450683594,-400000.0625,-14410.8798828125,-400000.0625,-2149.489990234375,-400000.0625
1.7651422023773193,-400000.0625,-7491.02001953125,158.8300018310547,-400000.0625,-14426.0400390625,-400000.0625,-2162.1201171875,-400000.0625
1.7651457786560059,-400000.0625,-7486.25,164.0800018310547,-400000.0625,-14420.5595703125,-400000.0625,-2156.929931640625,-400000.0625
1.7651493549346924,-400000.0625,-7481.33984375,171.89999389648438,-400000.0625,-14412.6904296875,-400000.0625,-2147.580078125,-400000.0625
1.765153169631958,-400000.0625,-7477.56982421875,175.86000061035156,-400000.0625,-14412.599609375,-400000.0625,-2145.10009765625,-400000.0625
1.7651569843292236,-400000.0625,-7483.10009765625,171.08999633789062,-400000.0625,-14420.1298828125,-400000.0625,-2151.679931640625,-400000.0625
1.7651607990264893,-400000.0625,-7492.4501953125,163.55999755859375,-400000.0625,-14429.51953125,-400000.0625,-2158.360107421875,-400000.0625
1.7651646137237549,-400000.0625,-7487.72998046875,166.27000427246094,-400000.0625,-14420.8896484375,-400000.0625,-2153.489990234375,-400000.0625
1.7651681900024414,-400000.0625,-7477.330078125,176.6199951171875,-400000.0625,-14410.9296875,-400000.0625,-2142.52001953125,-400000.0625
1.765171766281128,-400000.0625,-7477.9501953125,176.10000610351562,-400000.0625,-14417.83984375,-400000.0625,-2142.47998046875,-400000.0625
1.7651753425598145,-400000.0625,-7485.2001953125,168.85000610351562,-400000.0625,-14419.75,-400000.0625,-2150.919921875,-400000.0625
1.7651786804199219,-400000.0625,-7486.77001953125,165.6999969482422,-400000.0625,-14422.3701171875,-400000.0625,-2154.8798828125,-400000.0625
1.7651824951171875,-400000.0625,-7485.33984375,168.22999572753906,-400000.0625,-14422.2802734375,-400000.0625,-2152.39990234375,-400000.0625
1.765185832977295,-400000.0625,-7482.39013671875,174.3300018310547,-400000.0625,-14408.0703125,-400000.0625,-2141.050048828125,-400000.0625
1.765190601348877,-400000.0625,-7480.56982421875,175.52000427246094,-400000.0625,-14407.2099609375,-400000.0625,-2142.139892578125,-400000.0625
1.7651941776275635,-400000.0625,-7488.35009765625,167.50999450683594,-400000.0625,-14416.0302734375,-400000.0625,-2152.110107421875,-400000.0625
1.76519775390625,-400000.0625,-7495.58984375,159.1199951171875,-400000.0625,-14426.5703125,-400000.0625,-2158.1201171875,-400000.0625
1.7652018070220947,-400000.0625,-7493.31005859375,163.6999969482422,-400000.0625,-14428.0,-400000.0625,-2150.9599609375,-400000.0625
1.7652051448822021,-400000.0625,-7481.77001953125,173.89999389648438,-400000.0625,-14414.0302734375,-400000.0625,-2137.090087890625,-400000.0625
1.7652087211608887,-400000.0625,-7478.669921875,178.6199951171875,-400000.0625,-14401.8203125,-400000.0625,-2128.60009765625,-400000.0625
1.765214204788208,-400000.0625,-7486.06005859375,169.32000732421875,-400000.0625,-14412.3603515625,-400000.0625,-2136.659912109375,-400000.0625
1.7652177810668945,-400000.0625,-7495.740234375,163.60000610351562,-400000.0625,-14422.7001953125,-400000.0625,-2146.669921875,-400000.0625
timestamp,ch7,ch2,ch3,ch5,is_pause
timestamp,ch7,ch2,ch3,ch5,is_pause
timestamp,ch7,ch2,ch3,ch5,is_pause
timestamp,ch7,ch2,ch3,ch5,is_pause
timestamp,ch7,ch2,ch3,ch5,is_pause
1.827413558959961,-400000.0625,-7489.009765625,170.89999389648438,-400000.0625,-14422.849609375,-400000.0625,-2139.760009765625,-400000.0625
timestamp,ch7,ch2,ch3,ch5,is_pause
1.8343143463134766,-400000.0625,-7484.52978515625,173.85000610351562,-400000.0625,-14413.0703125,-400000.0625,-2127.739990234375,-400000.0625
1.8386328220367432,-400000.0625,-7481.240234375,177.33999633789062,-400000.0625,-14403.919921875,-400000.0625,-2126.409912109375,-400000.0625
1.8386406898498535,-400000.0625,-7485.52978515625,171.57000732421875,-400000.0625,-14405.2998046875,-400000.0625,-2132.93994140625,-400000.0625
1.83864426612854,-400000.0625,-7488.43994140625,167.55999755859375,-400000.0625,-14418.9404296875,-400000.0625,-2134.75,-400000.0625
1.8386492729187012,-400000.0625,-7491.8798828125,166.22999572753906,-400000.0625,-14418.8896484375,-400000.0625,-2137.52001953125,-400000.0625
1.8386526107788086,-400000.0625,-7482.33984375,175.42999267578125,-400000.0625,-14406.2099609375,-400000.0625,-2129.4599609375,-400000.0625
1.838655710220337,-400000.0625,-7482.52978515625,177.6699981689453,-400000.0625,-14398.48046875,-400000.0625,-2125.1201171875,-400000.0625
1.8386590480804443,-400000.0625,-7487.490234375,172.19000244140625,-400000.0625,-14401.7197265625,-400000.0625,-2131.320068359375,-400000.0625
1.8386621475219727,-400000.0625,-7488.10986328125,166.8000030517578,-400000.0625,-14411.3095703125,-400000.0625,-2139.81005859375,-400000.0625
1.838665246963501,-400000.0625,-7483.2001953125,171.0399932861328,-400000.0625,-14408.919921875,-400000.0625,-2133.320068359375,-400000.0625
1.8386683464050293,-400000.0625,-7477.7099609375,178.0500030517578,-400000.0625,-14402.490234375,-400000.0625,-2122.1201171875,-400000.0625
1.8386712074279785,-400000.0625,-7476.47021484375,179.6699981689453,-400000.0625,-14403.25,-400000.0625,-2119.260009765625,-400000.0625
1.8386743068695068,-400000.0625,-7479.9501953125,176.3300018310547,-400000.0625,-14405.2998046875,-400000.0625,-2128.739990234375,-400000.0625
1.8386774063110352,-400000.0625,-7488.58984375,167.55999755859375,-400000.0625,-14406.01953125,-400000.0625,-2134.510009765625,-400000.0625
1.8386805057525635,-400000.0625,-7488.6298828125,166.22999572753906,-400000.0625,-14413.0703125,-400000.0625,-2131.56005859375,-400000.0625
timestamp,ch7,ch2,ch3,ch5,is_pause
timestamp,ch7,ch2,ch3,ch5,is_pause
timestamp,ch7,ch2,ch3,ch5,is_pause
timestamp,ch7,ch2,ch3,ch5,is_pause
timestamp,ch7,ch2,ch3,ch5,is_pause
1.8961858749389648,-400000.0625,-7476.89990234375,179.6199951171875,-400000.0625,-14405.6298828125,-400000.0625,-2118.780029296875,-400000.0625
timestamp,ch7,ch2,ch3,ch5,is_pause
1.9072997570037842,-400000.0625,-7479.10009765625,179.0,-400000.0625,-14397.0,-400000.0625,-2121.68994140625,-400000.0625
timestamp,ch7,ch2,ch3,ch5,is_pause
1.913346529006958,-400000.0625,-7488.68017578125,167.17999267578125,-400000.0625,-14406.5400390625,-400000.0625,-2130.7900390625,-400000.0625
1.9174609184265137,-400000.0625,-7494.58984375,163.97999572753906,-400000.0625,-14411.830078125,-400000.0625,-2137.610107421875,-400000.0625
1.9174690246582031,-400000.0625,-7490.8701171875,169.3699951171875,-400000.0625,-14410.16015625,-400000.0625,-2130.219970703125,-400000.0625
1.917473316192627,-400000.0625,-7482.2900390625,178.72000122070312,-400000.0625,-14396.1396484375,-400000.0625,-2120.8798828125,-400000.0625
1.9174776077270508,-400000.0625,-7474.759765625,184.67999267578125,-400000.0625,-14386.849609375,-400000.0625,-2119.2099609375,-400000.0625
1.9174811840057373,-400000.0625,-7480.669921875,178.52999877929688,-400000.0625,-14393.4697265625,-400000.0625,-2125.070068359375,-400000.0625
1.9174847602844238,-400000.0625,-7490.490234375,170.7100067138672,-400000.0625,-14405.4404296875,-400000.0625,-2135.3701171875,-400000.0625
1.9174883365631104,-400000.0625,-7483.43994140625,175.2899932861328,-400000.0625,-14402.1103515625,-400000.0625,-2131.75,-400000.0625
1.9174916744232178,-400000.0625,-7472.66015625,187.02000427246094,-400000.0625,-14391.4697265625,-400000.0625,-2122.35009765625,-400000.0625
1.9174952507019043,-400000.0625,-7484.77001953125,182.33999633789062,-400000.0625,-14390.990234375,-400000.0625,-2122.639892578125,-400000.0625
1.9174985885620117,-400000.0625,-7498.1201171875,172.80999755859375,-400000.0625,-14410.740234375,-400000.0625,-2131.030029296875,-400000.0625
1.9175021648406982,-400000.0625,-7488.39013671875,167.55999755859375,-400000.0625,-14423.5595703125,-400000.0625,-2143.530029296875,-400000.0625
1.9175136089324951,-400000.0625,-7479.9501953125,170.17999267578125,-400000.0625,-14402.490234375,-400000.0625,-2146.669921875,-400000.0625
1.9175176620483398,-400000.0625,-7472.3701171875,186.6300048828125,-400000.0625,-14381.0302734375,-400000.0625,-2134.610107421875,-400000.0625
timestamp,ch7,ch2,ch3,ch5,is_pause
timestamp,ch7,ch2,ch3,ch5,is_pause
timestamp,ch7,ch2,ch3,ch5,is_pause
timestamp,ch7,ch2,ch3,ch5,is_pause
timestamp,ch7,ch2,ch3,ch5,is_pause
timestamp,ch7,ch2,ch3,ch5,is_pause
1.9886622428894043,-400000.0625,-7471.89990234375,188.16000366210938,-400000.0625,-14384.3701171875,-400000.0625,-2132.93994140625,-400000.0625
1.9939203262329102,-400000.0625,-7484.77001953125,176.0500030517578,-400000.0625,-14401.9599609375,-400000.0625,-2145.909912109375,-400000.0625
timestamp,ch7,ch2,ch3,ch5,is_pause
1.9998159408569336,-400000.0625,-7491.5400390625,171.0399932861328,-400000.0625,-14408.73046875,-400000.0625,-2155.02001953125,-400000.0625
timestamp,ch7,ch2,ch3,ch5,is_pause
2.0091898441314697,-400000.0625,-7483.39013671875,175.42999267578125,-400000.0625,-14407.349609375,-400000.0625,-2149.389892578125,-400000.0625
2.0148227214813232,-400000.0625,-7472.56005859375,185.5399932861328,-400000.0625,-14398.6201171875,-400000.0625,-2136.989990234375,-400000.0625
2.0189342498779297,-400000.0625,-7470.66015625,189.2100067138672,-400000.0625,-14391.4697265625,-400000.0625,-2131.510009765625,-400000.0625
2.0189428329467773,-400000.0625,-7473.85009765625,184.5800018310547,-400000.0625,-14396.8603515625,-400000.0625,-2136.89990234375,-400000.0625
2.0189476013183594,-400000.0625,-7483.47998046875,177.72000122070312,-400000.0625,-14402.6796875,-400000.0625,-2150.010009765625,-400000.0625
2.018953561782837,-400000.0625,-7480.52978515625,180.0500030517578,-400000.0625,-14404.490234375,-400000.0625,-2147.530029296875,-400000.0625
2.0189592838287354,-400000.0625,-7476.9501953125,185.44000244140625,-400000.0625,-14395.5703125,-400000.0625,-2133.56005859375,-400000.0625
2.018962860107422,-400000.0625,-7475.7099609375,188.02000427246094,-400000.0625,-14390.1796875,-400000.0625,-2130.93994140625,-400000.0625
2.0189666748046875,-400000.0625,-7481.0,183.14999389648438,-400000.0625,-14396.0498046875,-400000.0625,-2137.3798828125,-400000.0625
2.018970012664795,-400000.0625,-7490.72998046875,174.89999389648438,-400000.0625,-14408.2998046875,-400000.0625,-2146.820068359375,-400000.0625
2.0189738273620605,-400000.0625,-7492.35009765625,173.3800048828125,-400000.0625,-14412.5498046875,-400000.0625,-2146.669921875,-400000.0625
2.01898455619812,-400000.0625,-7479.56982421875,184.82000732421875,-400000.0625,-14401.9599609375,-400000.0625,-2135.989990234375,-400000.0625
2.018988609313965,-400000.0625,-7477.14013671875,189.02000427246094,-400000.0625,-14388.75,-400000.0625,-2131.4599609375,-400000.0625
2.019719123840332,-400000.0625,-7484.25,182.1999969482422,-400000.0625,-14388.900390625,-400000.0625,-2140.239990234375,-400000.0625
2.0197324752807617,-400000.0625,-7488.77978515625,174.42999267578125,-400000.0625,-14399.48046875,-400000.0625,-2150.8701171875,-400000.0625
2.0197370052337646,-400000.0625,-7482.39013671875,180.10000610351562,-400000.0625,-14398.580078125,-400000.0625,-2145.580078125,-400000.0625
2.0197408199310303,-400000.0625,-7472.89990234375,191.77999877929688,-400000.0625,-14387.0400390625,-400000.0625,-2128.699951171875,-400000.0625
2.019744634628296,-400000.0625,-7465.7900390625,197.5500030517578,-400000.0625,-14379.2197265625,-400000.0625,-2126.219970703125,-400000.0625
2.0197482109069824,-400000.0625,-7477.330078125,186.97000122070312,-400000.0625,-14391.7099609375,-400000.0625,-2138.139892578125,-400000.0625
2.019751787185669,-400000.0625,-7481.85986328125,181.9600067138672,-400000.0625,-14402.8701171875,-400000.0625,-2144.239990234375,-400000.0625
2.0197553634643555,-400000.0625,-7479.0,184.49000549316406,-400000.0625,-14397.1904296875,-400000.0625,-2141.909912109375,-400000.0625
2.0197601318359375,-400000.0625,-7472.3701171875,190.63999938964844,-400000.0625,-14386.1298828125,-400000.0625,-2127.360107421875,-400000.0625
2.019765615463257,-400000.0625,-7469.080078125,195.02999877929688,-400000.0625,-14380.98046875,-400000.0625,-2122.5,-400000.0625
2.0197689533233643,-400000.0625,-7474.9501953125,190.07000732421875,-400000.0625,-14387.509765625,-400000.0625,-2132.1298828125,-400000.0625
2.019772529602051,-400000.0625,-7484.06005859375,178.77000427246094,-400000.0625,-14403.9599609375,-400000.0625,-2140.949951171875,-400000.0625
2.0197808742523193,-400000.0625,-7486.009765625,178.6699981689453,-400000.0625,-14397.580078125,-400000.0625,-2138.570068359375,-400000.0625
2.019784927368164,-400000.0625,-7473.27978515625,193.02000427246094,-400000.0625,-14379.5498046875,-400000.0625,-2124.5,-400000.0625
2.0197885036468506,-400000.0625,-7471.75,195.83999633789062,-400000.0625,-14383.0302734375,-400000.0625,-2117.6298828125,-400000.0625
2.019792079925537,-400000.0625,-7474.9501953125,191.1199951171875,-400000.0625,-14390.7998046875,-400000.0625,-2130.60009765625,-400000.0625
timestamp,ch7,ch2,ch3,ch5,is_pause
timestamp,ch7,ch2,ch3,ch5,is_pause
timestamp,ch7,ch2,ch3,ch5,is_pause
timestamp,ch7,ch2,ch3,ch5,is_pause
timestamp,ch7,ch2,ch3,ch5,is_pause
timestamp,ch7,ch2,ch3,ch5,is_pause
2.0836451053619385,-400000.0625,-7475.08984375,185.6300048828125,-400000.0625,-14392.7099609375,-400000.0625,-2140.090087890625,-400000.0625
2.0883049964904785,-400000.0625,-7475.85009765625,187.8300018310547,-400000.0625,-14388.900390625,-400000.0625,-2139.52001953125,-400000.0625
2.088313102722168,-400000.0625,-7463.5,200.64999389648438,-400000.0625,-14377.3095703125,-400000.0625,-2124.97998046875,-400000.0625
2.088317632675171,-400000.0625,-7460.31005859375,204.4199981689453,-400000.0625,-14375.9697265625,-400000.0625,-2122.260009765625,-400000.0625
2.0883212089538574,-400000.0625,-7470.89013671875,192.5500030517578,-400000.0625,-14391.23046875,-400000.0625,-2130.7900390625,-400000.0625
2.088325023651123,-400000.0625,-7482.52978515625,182.9600067138672,-400000.0625,-14392.4296875,-400000.0625,-2141.81005859375,-400000.0625
2.0883285999298096,-400000.0625,-7483.580078125,185.9199981689453,-400000.0625,-14388.3701171875,-400000.0625,-2139.18994140625,-400000.0625
2.088332176208496,-400000.0625,-7474.0400390625,198.50999450683594,-400000.0625,-14381.740234375,-400000.0625,-2127.840087890625,-400000.0625
2.0883357524871826,-400000.0625,-7471.509765625,201.3699951171875,-400000.0625,-14376.4501953125,-400000.0625,-2124.7900390625,-400000.0625
2.088343620300293,-400000.0625,-7485.919921875,199.3699951171875,-400000.0625,-14379.9296875,-400000.0625,-2127.4599609375,-400000.0625
2.0883474349975586,-400000.0625,-7504.22998046875,200.55999755859375,-400000.0625,-14386.8896484375,-400000.0625,-2128.169921875,-400000.0625
2.088351249694824,-400000.0625,-7502.41015625,200.64999389648438,-400000.0625,-14383.169921875,-400000.0625,-2130.56005859375,-400000.0625
2.0883545875549316,-400000.0625,-7494.1201171875,206.8000030517578,-400000.0625,-14368.349609375,-400000.0625,-2113.77001953125,-400000.0625
2.088358163833618,-400000.0625,-7509.27978515625,200.75,-400000.0625,-14359.1904296875,-400000.0625,-2120.110107421875,-400000.0625
2.0883617401123047,-400000.0625,-7502.60009765625,170.66000366210938,-400000.0625,-14367.2001953125,-400000.0625,-2142.570068359375,-400000.0625
2.0883655548095703,-400000.0625,-7520.39013671875,154.02000427246094,-400000.0625,-14376.5498046875,-400000.0625,-2156.830078125,-400000.0625
timestamp,ch7,ch2,ch3,ch5,is_pause
timestamp,ch7,ch2,ch3,ch5,is_pause
timestamp,ch7,ch2,ch3,ch5,is_pause
timestamp,ch7,ch2,ch3,ch5,is_pause
timestamp,ch7,ch2,ch3,ch5,is_pause
timestamp,ch7,ch2,ch3,ch5,is_pause
timestamp,ch7,ch2,ch3,ch5,is_pause
2.162261962890625,-400000.0625,-7559.8701171875,154.69000244140625,-400000.0625,-14366.6796875,-400000.0625,-2153.679931640625,-400000.0625
2.1713008880615234,-400000.0625,-7559.2099609375,162.74000549316406,-400000.0625,-14344.41015625,-400000.0625,-2142.52001953125,-400000.0625
timestamp,ch7,ch2,ch3,ch5,is_pause
2.1771748065948486,-400000.0625,-7570.27001953125,146.91000366210938,-400000.0625,-14337.7802734375,-400000.0625,-2156.68994140625,-400000.0625
2.181558847427368,-400000.0625,-7621.6201171875,106.62000274658203,-400000.0625,-14355.0400390625,-400000.0625,-2189.260009765625,-400000.0625
2.181567668914795,-400000.0625,-7648.47021484375,88.87999725341797,-400000.0625,-14344.98046875,-400000.0625,-2221.969970703125,-400000.0625
2.1815717220306396,-400000.0625,-7667.39990234375,74.29000091552734,-400000.0625,-14324.3798828125,-400000.0625,-2245.7099609375,-400000.0625
2.1815757751464844,-400000.0625,-7713.509765625,59.560001373291016,-400000.0625,-14312.7900390625,-400000.0625,-2251.429931640625,-400000.0625
2.1815879344940186,-400000.0625,-7744.7900390625,45.630001068115234,-400000.0625,-14303.58984375,-400000.0625,-2257.6298828125,-400000.0625
2.181591749191284,-400000.0625,-7772.64013671875,26.040000915527344,-400000.0625,-14298.73046875,-400000.0625,-2292.06005859375,-400000.0625
2.181595802307129,-400000.0625,-7809.97021484375,13.15999984741211,-400000.0625,-14298.9697265625,-400000.0625,-2325.820068359375,-400000.0625
2.1815996170043945,-400000.0625,-7825.18017578125,6.960000038146973,-400000.0625,-14289.9501953125,-400000.0625,-2335.409912109375,-400000.0625
2.18160343170166,-400000.0625,-7827.9501953125,17.790000915527344,-400000.0625,-14279.990234375,-400000.0625,-2334.68994140625,-400000.0625
2.1816070079803467,-400000.0625,-7832.240234375,26.850000381469727,-400000.0625,-14273.599609375,-400000.0625,-2338.169921875,-400000.0625
2.1816108226776123,-400000.0625,-7840.43994140625,22.030000686645508,-400000.0625,-14279.7001953125,-400000.0625,-2356.580078125,-400000.0625
2.181614875793457,-400000.0625,-7847.60009765625,22.549999237060547,-400000.0625,-14285.759765625,-400000.0625,-2372.60009765625,-400000.0625
2.1816186904907227,-400000.0625,-7847.35986328125,32.900001525878906,-400000.0625,-14283.4697265625,-400000.0625,-2373.409912109375,-400000.0625
timestamp,ch7,ch2,ch3,ch5,is_pause
timestamp,ch7,ch2,ch3,ch5,is_pause
timestamp,ch7,ch2,ch3,ch5,is_pause
timestamp,ch7,ch2,ch3,ch5,is_pause
2.2213237285614014,-400000.0625,-7831.2900390625,47.970001220703125,-400000.0625,-14284.0400390625,-400000.0625,-2360.530029296875,-400000.0625
2.225719690322876,-400000.0625,-7810.39990234375,62.130001068115234,-400000.0625,-14279.4599609375,-400000.0625,-2354.570068359375,-400000.0625
2.2257277965545654,-400000.0625,-7812.93017578125,62.18000030517578,-400000.0625,-14284.2802734375,-400000.0625,-2362.199951171875,-400000.0625
2.22573184967041,-400000.0625,-7807.16015625,63.939998626708984,-400000.0625,-14291.8603515625,-400000.0625,-2369.360107421875,-400000.0625
2.225735664367676,-400000.0625,-7781.02978515625,80.77999877929688,-400000.0625,-14287.9501953125,-400000.0625,-2359.43994140625,-400000.0625
2.225740671157837,-400000.0625,-7756.0,100.18000030517578,-400000.0625,-14277.2197265625,-400000.0625,-2344.610107421875,-400000.0625
2.2257442474365234,-400000.0625,-7745.83984375,107.4800033569336,-400000.0625,-14278.5595703125,-400000.0625,-2336.31005859375,-400000.0625
2.22574782371521,-400000.0625,-7736.68017578125,108.05000305175781,-400000.0625,-14287.2802734375,-400000.0625,-2338.1201171875,-400000.0625
2.2257513999938965,-400000.0625,-7731.77001953125,106.37999725341797,-400000.0625,-14299.009765625,-400000.0625,-2341.320068359375,-400000.0625
2.225754737854004,-400000.0625,-7714.4599609375,114.3499984741211,-400000.0625,-14304.2099609375,-400000.0625,-2335.8798828125,-400000.0625
2.2257583141326904,-400000.0625,-7691.0,130.83999633789062,-400000.0625,-14300.8701171875,-400000.0625,-2313.469970703125,-400000.0625
2.225761651992798,-400000.0625,-7671.5,142.77000427246094,-400000.0625,-14295.2001953125,-400000.0625,-2301.030029296875,-400000.0625
2.2257652282714844,-400000.0625,-7669.77978515625,142.42999267578125,-400000.0625,-14305.830078125,-400000.0625,-2307.1298828125,-400000.0625
2.225768804550171,-400000.0625,-7671.259765625,139.7100067138672,-400000.0625,-14320.849609375,-400000.0625,-2308.989990234375,-400000.0625
2.2257723808288574,-400000.0625,-7652.43017578125,151.25,-400000.0625,-14322.3798828125,-400000.0625,-2298.2099609375,-400000.0625
2.225775718688965,-400000.0625,-7632.10986328125,167.4199981689453,-400000.0625,-14311.7001953125,-400000.0625,-2278.89990234375,-400000.0625
timestamp,ch7,ch2,ch3,ch5,is_pause
timestamp,ch7,ch2,ch3,ch5,is_pause
timestamp,ch7,ch2,ch3,ch5,is_pause
timestamp,ch7,ch2,ch3,ch5,is_pause
2.27728533744812,-400000.0625,-7622.669921875,175.0500030517578,-400000.0625,-14308.5,-400000.0625,-2266.97998046875,-400000.0625
timestamp,ch7,ch2,ch3,ch5,is_pause
2.290032148361206,-400000.0625,-7619.85986328125,172.22999572753906,-400000.0625,-14320.759765625,-400000.0625,-2273.27001953125,-400000.0625
timestamp,ch7,ch2,ch3,ch5,is_pause
2.295053720474243,-400000.0625,-7612.52001953125,173.80999755859375,-400000.0625,-14330.2001953125,-400000.0625,-2277.949951171875,-400000.0625
2.299229383468628,-400000.0625,-7601.02001953125,178.72000122070312,-400000.0625,-14331.3896484375,-400000.0625,-2265.739990234375,-400000.0625
2.299238443374634,-400000.0625,-7588.0498046875,191.5,-400000.0625,-14320.9501953125,-400000.0625,-2249.909912109375,-400000.0625
2.2992427349090576,-400000.0625,-7580.08984375,201.17999267578125,-400000.0625,-14314.9404296875,-400000.0625,-2242.139892578125,-400000.0625
2.2992470264434814,-400000.0625,-7581.330078125,195.60000610351562,-400000.0625,-14320.7998046875,-400000.0625,-2247.18994140625,-400000.0625
2.299250602722168,-400000.0625,-7584.6201171875,186.72999572753906,-400000.0625,-14333.4404296875,-400000.0625,-2255.489990234375,-400000.0625
2.2992544174194336,-400000.0625,-7581.22998046875,188.72999572753906,-400000.0625,-14334.7802734375,-400000.0625,-2256.35009765625,-400000.0625
2.299260139465332,-400000.0625,-7567.64990234375,201.99000549316406,-400000.0625,-14324.3798828125,-400000.0625,-2241.330078125,-400000.0625
2.2992637157440186,-400000.0625,-7560.830078125,205.7100067138672,-400000.0625,-14322.6201171875,-400000.0625,-2232.739990234375,-400000.0625
2.299267292022705,-400000.0625,-7563.2099609375,198.32000732421875,-400000.0625,-14331.5302734375,-400000.0625,-2242.0400390625,-400000.0625
2.2992711067199707,-400000.0625,-7575.56005859375,186.25,-400000.0625,-14348.1298828125,-400000.0625,-2251.9599609375,-400000.0625
2.2992746829986572,-400000.0625,-7574.419921875,186.72999572753906,-400000.0625,-14340.3095703125,-400000.0625,-2246.81005859375,-400000.0625
2.299283742904663,-400000.0625,-7556.72998046875,203.17999267578125,-400000.0625,-14328.669921875,-400000.0625,-2234.550048828125,-400000.0625
2.2992875576019287,-400000.0625,-7551.9599609375,210.13999938964844,-400000.0625,-14331.8701171875,-400000.0625,-2227.1201171875,-400000.0625
timestamp,ch7,ch2,ch3,ch5,is_pause
timestamp,ch7,ch2,ch3,ch5,is_pause
timestamp,ch7,ch2,ch3,ch5,is_pause
timestamp,ch7,ch2,ch3,ch5,is_pause
timestamp,ch7,ch2,ch3,ch5,is_pause
timestamp,ch7,ch2,ch3,ch5,is_pause
timestamp,ch7,ch2,ch3,ch5,is_pause
2.3769161701202393,-400000.0625,-7564.68994140625,198.32000732421875,-400000.0625,-14341.400390625,-400000.0625,-2238.179931640625,-400000.0625
2.3817107677459717,-400000.0625,-7575.27001953125,185.25,-400000.0625,-14348.3701171875,-400000.0625,-2252.2900390625,-400000.0625
timestamp,ch7,ch2,ch3,ch5,is_pause
2.387028217315674,-400000.0625,-7571.7900390625,187.49000549316406,-400000.0625,-14344.259765625,-400000.0625,-2251.909912109375,-400000.0625
2.390972852706909,-400000.0625,-7553.43994140625,202.17999267578125,-400000.0625,-14333.3896484375,-400000.0625,-2238.93994140625,-400000.0625
2.3909809589385986,-400000.0625,-7546.0,207.7100067138672,-400000.0625,-14331.009765625,-400000.0625,-2228.1201171875,-400000.0625
2.3909852504730225,-400000.0625,-7560.16015625,198.41000366210938,-400000.0625,-14343.5498046875,-400000.0625,-2236.3701171875,-400000.0625
2.390989303588867,-400000.0625,-7566.5,189.25999450683594,-400000.0625,-14353.3701171875,-400000.0625,-2247.0,-400000.0625
2.3909928798675537,-400000.0625,-7553.77001953125,196.27000427246094,-400000.0625,-14345.080078125,-400000.0625,-2241.949951171875,-400000.0625
2.3909966945648193,-400000.0625,-7537.509765625,211.91000366210938,-400000.0625,-14335.1103515625,-400000.0625,-2224.02001953125,-400000.0625
2.3910000324249268,-400000.0625,-7534.1201171875,215.24000549316406,-400000.0625,-14331.91015625,-400000.0625,-2212.570068359375,-400000.0625
2.3910036087036133,-400000.0625,-7547.89990234375,205.89999389648438,-400000.0625,-14338.2998046875,-400000.0625,-2225.590087890625,-400000.0625
2.3910071849823,-400000.0625,-7555.91015625,196.88999938964844,-400000.0625,-14344.5498046875,-400000.0625,-2239.419921875,-400000.0625
2.3910186290740967,-400000.0625,-7556.06005859375,195.97999572753906,-400000.0625,-14346.41015625,-400000.0625,-2237.64990234375,-400000.0625
2.391022205352783,-400000.0625,-7539.31982421875,208.75999450683594,-400000.0625,-14333.8701171875,-400000.0625,-2221.199951171875,-400000.0625
2.3910257816314697,-400000.0625,-7531.41015625,217.9600067138672,-400000.0625,-14327.9599609375,-400000.0625,-2208.0400390625,-400000.0625
2.3910295963287354,-400000.0625,-7538.990234375,212.33999633789062,-400000.0625,-14333.009765625,-400000.0625,-2219.389892578125,-400000.0625
timestamp,ch7,ch2,ch3,ch5,is_pause
timestamp,ch7,ch2,ch3,ch5,is_pause
timestamp,ch7,ch2,ch3,ch5,is_pause
2.4306187629699707,-400000.0625,-7544.419921875,207.9499969482422,-400000.0625,-14340.2099609375,-400000.0625,-2232.169921875,-400000.0625
timestamp,ch7,ch2,ch3,ch5,is_pause
2.435863494873047,-400000.0625,-7537.75,212.86000061035156,-400000.0625,-14337.490234375,-400000.0625,-2219.06005859375,-400000.0625
2.4400479793548584,-400000.0625,-7521.10986328125,228.2100067138672,-400000.0625,-14322.23046875,-400000.0625,-2200.989990234375,-400000.0625
2.4400577545166016,-400000.0625,-7509.47021484375,239.3699951171875,-400000.0625,-14312.5595703125,-400000.0625,-2188.830078125,-400000.0625
2.4400618076324463,-400000.0625,-7528.02001953125,222.97000122070312,-400000.0625,-14327.580078125,-400000.0625,-2204.56005859375,-400000.0625
2.440065383911133,-400000.0625,-7546.6201171875,204.0399932861328,-400000.0625,-14345.650390625,-400000.0625,-2226.830078125,-400000.0625
2.4400689601898193,-400000.0625,-7546.0,204.22999572753906,-400000.0625,-14342.41015625,-400000.0625,-2222.110107421875,-400000.0625
2.440072774887085,-400000.0625,-7529.06982421875,219.35000610351562,-400000.0625,-14326.2900390625,-400000.0625,-2199.550048828125,-400000.0625
2.4400763511657715,-400000.0625,-7522.009765625,222.77999877929688,-400000.0625,-14318.3203125,-400000.0625,-2196.97998046875,-400000.0625
2.4400856494903564,-400000.0625,-7533.64990234375,212.6699981689453,-400000.0625,-14328.580078125,-400000.0625,-2208.22998046875,-400000.0625
2.4400904178619385,-400000.0625,-7545.56982421875,204.94000244140625,-400000.0625,-14334.7802734375,-400000.0625,-2222.010009765625,-400000.0625
2.440093994140625,-400000.0625,-7545.08984375,204.75,-400000.0625,-14330.33984375,-400000.0625,-2221.159912109375,-400000.0625
2.4400975704193115,-400000.0625,-7534.1201171875,216.44000244140625,-400000.0625,-14321.1396484375,-400000.0625,-2204.56005859375,-400000.0625
2.440101385116577,-400000.0625,-7530.68994140625,223.72999572753906,-400000.0625,-14313.7900390625,-400000.0625,-2197.1201171875,-400000.0625
2.440106153488159,-400000.0625,-7541.3701171875,210.91000366210938,-400000.0625,-14323.759765625,-400000.0625,-2209.22998046875,-400000.0625
2.4401097297668457,-400000.0625,-7557.490234375,191.2100067138672,-400000.0625,-14341.6396484375,-400000.0625,-2224.780029296875,-400000.0625
timestamp,ch7,ch2,ch3,ch5,is_pause
timestamp,ch7,ch2,ch3,ch5,is_pause
timestamp,ch7,ch2,ch3,ch5,is_pause
2.4685821533203125,-400000.0625,-7556.72998046875,191.74000549316406,-400000.0625,-14343.1201171875,-400000.0625,-2223.830078125,-400000.0625
2.4738781452178955,-400000.0625,-7536.93994140625,204.99000549316406,-400000.0625,-14327.3798828125,-400000.0625,-2210.239990234375,-400000.0625
2.4782557487487793,-400000.0625,-7533.5,208.89999389648438,-400000.0625,-14324.6201171875,-400000.0625,-2205.179931640625,-400000.0625
2.4782652854919434,-400000.0625,-7550.91015625,194.25999450683594,-400000.0625,-14336.7802734375,-400000.0625,-2208.090087890625,-400000.0625
2.478269338607788,-400000.0625,-7556.2998046875,178.33999633789062,-400000.0625,-14354.7998046875,-400000.0625,-2206.179931640625,-400000.0625
2.478273391723633,-400000.0625,-7539.22998046875,182.77000427246094,-400000.0625,-14346.26953125,-400000.0625,-2186.489990234375,-400000.0625
2.4782774448394775,-400000.0625,-7516.52978515625,192.07000732421875,-400000.0625,-14335.25,-400000.0625,-2156.5,-400000.0625
2.4782915115356445,-400000.0625,-7499.89013671875,189.02000427246094,-400000.0625,-14336.4404296875,-400000.0625,-2138.0400390625,-400000.0625
2.478295087814331,-400000.0625,-7502.75,175.0500030517578,-400000.0625,-14350.1298828125,-400000.0625,-2135.7099609375,-400000.0625
2.4782986640930176,-400000.0625,-7508.85009765625,158.36000061035156,-400000.0625,-14363.76953125,-400000.0625,-2133.85009765625,-400000.0625
2.478302478790283,-400000.0625,-7500.64990234375,158.1199951171875,-400000.0625,-14361.8603515625,-400000.0625,-2119.02001953125,-400000.0625
2.4783058166503906,-400000.0625,-7482.580078125,172.57000732421875,-400000.0625,-14347.5498046875,-400000.0625,-2098.659912109375,-400000.0625
2.478309392929077,-400000.0625,-7470.22998046875,176.75999450683594,-400000.0625,-14341.740234375,-400000.0625,-2091.68994140625,-400000.0625
2.4783129692077637,-400000.0625,-7472.330078125,168.3699951171875,-400000.0625,-14352.0400390625,-400000.0625,-2101.419921875,-400000.0625
2.47831654548645,-400000.0625,-7483.43994140625,157.1199951171875,-400000.0625,-14365.0498046875,-400000.0625,-2113.25,-400000.0625
2.478320360183716,-400000.0625,-7483.6298828125,159.69000244140625,-400000.0625,-14362.0498046875,-400000.0625,-2111.050048828125,-400000.0625
timestamp,ch7,ch2,ch3,ch5,is_pause
timestamp,ch7,ch2,ch3,ch5,is_pause
timestamp,ch7,ch2,ch3,ch5,is_pause
timestamp,ch7,ch2,ch3,ch5,is_pause
timestamp,ch7,ch2,ch3,ch5,is_pause
timestamp,ch7,ch2,ch3,ch5,is_pause
2.540278434753418,-400000.0625,-7476.27978515625,166.64999389648438,-400000.0625,-14352.080078125,-400000.0625,-2093.699951171875,-400000.0625
2.550647735595703,-400000.0625,-7473.27978515625,171.52000427246094,-400000.0625,-14350.5595703125,-400000.0625,-2088.260009765625,-400000.0625
timestamp,ch7,ch2,ch3,ch5,is_pause
2.5558083057403564,-400000.0625,-7481.0,162.5500030517578,-400000.0625,-14360.759765625,-400000.0625,-2103.18994140625,-400000.0625
2.5606513023376465,-400000.0625,-7500.02978515625,142.14999389648438,-400000.0625,-14378.6396484375,-400000.0625,-2119.8798828125,-400000.0625
2.560661554336548,-400000.0625,-7500.27001953125,143.6199951171875,-400000.0625,-14374.2099609375,-400000.0625,-2117.159912109375,-400000.0625
2.5606658458709717,-400000.0625,-7482.669921875,161.30999755859375,-400000.0625,-14359.330078125,-400000.0625,-2096.4599609375,-400000.0625
2.5606696605682373,-400000.0625,-7480.33984375,165.64999389648438,-400000.0625,-14357.1396484375,-400000.0625,-2090.5,-400000.0625
2.560673236846924,-400000.0625,-7491.259765625,158.02000427246094,-400000.0625,-14357.6201171875,-400000.0625,-2105.330078125,-400000.0625
2.5606768131256104,-400000.0625,-7503.56005859375,143.80999755859375,-400000.0625,-14370.5400390625,-400000.0625,-2121.39990234375,-400000.0625
2.560680389404297,-400000.0625,-7500.27001953125,148.52999877929688,-400000.0625,-14368.8701171875,-400000.0625,-2112.010009765625,-400000.0625
2.5606839656829834,-400000.0625,-7488.2001953125,160.30999755859375,-400000.0625,-14354.1396484375,-400000.0625,-2098.3701171875,-400000.0625
2.560688018798828,-400000.0625,-7488.39013671875,160.8800048828125,-400000.0625,-14354.330078125,-400000.0625,-2095.64990234375,-400000.0625
2.5606913566589355,-400000.0625,-7497.4501953125,155.1199951171875,-400000.0625,-14365.0498046875,-400000.0625,-2102.330078125,-400000.0625
2.560694932937622,-400000.0625,-7501.89013671875,149.44000244140625,-400000.0625,-14371.919921875,-400000.0625,-2113.77001953125,-400000.0625
2.5606987476348877,-400000.0625,-7500.02978515625,149.38999938964844,-400000.0625,-14373.5400390625,-400000.0625,-2110.429931640625,-400000.0625
2.560702323913574,-400000.0625,-7489.68017578125,159.60000610351562,-400000.0625,-14357.2802734375,-400000.0625,-2091.550048828125,-400000.0625
timestamp,ch7,ch2,ch3,ch5,is_pause
timestamp,ch7,ch2,ch3,ch5,is_pause
timestamp,ch7,ch2,ch3,ch5,is_pause
2.5960586071014404,-400000.0625,-7483.6298828125,165.1300048828125,-400000.0625,-14350.1298828125,-400000.0625,-2085.8798828125,-400000.0625
timestamp,ch7,ch2,ch3,ch5,is_pause
2.6014750003814697,-400000.0625,-7491.2998046875,158.02000427246094,-400000.0625,-14367.9599609375,-400000.0625,-2096.409912109375,-400000.0625
2.6059749126434326,-400000.0625,-7503.1298828125,146.25,-400000.0625,-14375.259765625,-400000.0625,-2107.860107421875,-400000.0625
2.605984926223755,-400000.0625,-7499.169921875,150.16000366210938,-400000.0625,-14367.2998046875,-400000.0625,-2103.570068359375,-400000.0625
2.6059892177581787,-400000.0625,-7487.6298828125,163.83999633789062,-400000.0625,-14354.9501953125,-400000.0625,-2089.550048828125,-400000.0625
2.6059935092926025,-400000.0625,-7484.06005859375,169.52000427246094,-400000.0625,-14348.41015625,-400000.0625,-2088.590087890625,-400000.0625
2.605997085571289,-400000.0625,-7495.02001953125,159.1199951171875,-400000.0625,-14356.5703125,-400000.0625,-2101.56005859375,-400000.0625
2.6060004234313965,-400000.0625,-7503.56005859375,152.72999572753906,-400000.0625,-14365.2900390625,-400000.0625,-2112.669921875,-400000.0625
2.606004238128662,-400000.0625,-7496.169921875,158.7899932861328,-400000.0625,-14361.4296875,-400000.0625,-2106.0,-400000.0625
2.6060075759887695,-400000.0625,-7486.6298828125,167.61000061035156,-400000.0625,-14353.75,-400000.0625,-2093.510009765625,-400000.0625
2.606011152267456,-400000.0625,-7487.14990234375,168.32000732421875,-400000.0625,-14351.26953125,-400000.0625,-2093.030029296875,-400000.0625
2.6060149669647217,-400000.0625,-7500.35986328125,154.25999450683594,-400000.0625,-14362.150390625,-400000.0625,-2108.050048828125,-400000.0625
2.606018543243408,-400000.0625,-7509.330078125,147.25,-400000.0625,-14370.73046875,-400000.0625,-2117.780029296875,-400000.0625
2.6060221195220947,-400000.0625,-7499.27001953125,157.02000427246094,-400000.0625,-14366.33984375,-400000.0625,-2112.47998046875,-400000.0625
2.6060256958007812,-400000.0625,-7483.0498046875,171.13999938964844,-400000.0625,-14353.5595703125,-400000.0625,-2093.739990234375,-400000.0625
2.606029510498047,-400000.0625,-7477.3798828125,178.0500030517578,-400000.0625,-14351.1796875,-400000.0625,-2085.5400390625,-400000.0625
timestamp,ch7,ch2,ch3,ch5,is_pause
timestamp,ch7,ch2,ch3,ch5,is_pause
timestamp,ch7,ch2,ch3,ch5,is_pause
timestamp,ch7,ch2,ch3,ch5,is_pause
timestamp,ch7,ch2,ch3,ch5,is_pause
timestamp,ch7,ch2,ch3,ch5,is_pause
timestamp,ch7,ch2,ch3,ch5,is_pause
2.6862425804138184,-400000.0625,-7492.35009765625,165.0800018310547,-400000.0625,-14370.0595703125,-400000.0625,-2103.22998046875,-400000.0625
2.695366621017456,-400000.0625,-7506.0400390625,150.72999572753906,-400000.0625,-14380.0302734375,-400000.0625,-2118.43994140625,-400000.0625
timestamp,ch7,ch2,ch3,ch5,is_pause
2.7015554904937744,-400000.0625,-7502.3701171875,157.39999389648438,-400000.0625,-14369.6796875,-400000.0625,-2115.43994140625,-400000.0625
2.706810235977173,-400000.0625,-7490.58984375,171.47000122070312,-400000.0625,-14356.330078125,-400000.0625,-2103.659912109375,-400000.0625
timestamp,ch7,ch2,ch3,ch5,is_pause
2.715256690979004,-400000.0625,-7481.77001953125,177.75999450683594,-400000.0625,-14348.650390625,-400000.0625,-2097.93994140625,-400000.0625
2.719869375228882,-400000.0625,-7490.64013671875,165.64999389648438,-400000.0625,-14358.240234375,-400000.0625,-2104.280029296875,-400000.0625
2.7198779582977295,-400000.0625,-7504.18017578125,157.1699981689453,-400000.0625,-14370.490234375,-400000.0625,-2113.8701171875,-400000.0625
2.7198824882507324,-400000.0625,-7497.83984375,164.83999633789062,-400000.0625,-14365.0498046875,-400000.0625,-2108.429931640625,-400000.0625
2.719886541366577,-400000.0625,-7484.14990234375,177.75999450683594,-400000.0625,-14352.1298828125,-400000.0625,-2093.080078125,-400000.0625
2.7198903560638428,-400000.0625,-7478.56982421875,183.49000549316406,-400000.0625,-14343.4501953125,-400000.0625,-2090.070068359375,-400000.0625
2.7198941707611084,-400000.0625,-7489.490234375,174.0500030517578,-400000.0625,-14352.7001953125,-400000.0625,-2106.239990234375,-400000.0625
2.719897747039795,-400000.0625,-7498.4599609375,162.97999572753906,-400000.0625,-14364.33984375,-400000.0625,-2119.260009765625,-400000.0625
2.7199015617370605,-400000.0625,-7493.8798828125,166.55999755859375,-400000.0625,-14365.91015625,-400000.0625,-2117.25,-400000.0625
2.719905376434326,-400000.0625,-7479.14013671875,177.52999877929688,-400000.0625,-14357.4296875,-400000.0625,-2105.18994140625,-400000.0625
2.7199156284332275,-400000.0625,-7479.6201171875,179.52999877929688,-400000.0625,-14353.849609375,-400000.0625,-2102.090087890625,-400000.0625
2.7199199199676514,-400000.0625,-7491.02001953125,172.3800048828125,-400000.0625,-14354.900390625,-400000.0625,-2112.669921875,-400000.0625
timestamp,ch7,ch2,ch3,ch5,is_pause
timestamp,ch7,ch2,ch3,ch5,is_pause
timestamp,ch7,ch2,ch3,ch5,is_pause
2.7534356117248535,-400000.0625,-7494.97998046875,165.99000549316406,-400000.0625,-14359.7099609375,-400000.0625,-2121.110107421875,-400000.0625
timestamp,ch7,ch2,ch3,ch5,is_pause
2.7586214542388916,-400000.0625,-7489.68017578125,170.17999267578125,-400000.0625,-14355.849609375,-400000.0625,-2114.340087890625,-400000.0625
2.763359546661377,-400000.0625,-7474.27978515625,185.3000030517578,-400000.0625,-14344.650390625,-400000.0625,-2100.280029296875,-400000.0625
2.763367176055908,-400000.0625,-7472.66015625,184.35000610351562,-400000.0625,-14347.1298828125,-400000.0625,-2096.3701171875,-400000.0625
2.763371467590332,-400000.0625,-7484.10009765625,171.8000030517578,-400000.0625,-14362.580078125,-400000.0625,-2106.669921875,-400000.0625
2.7633752822875977,-400000.0625,-7491.39990234375,166.3699951171875,-400000.0625,-14370.8701171875,-400000.0625,-2118.919921875,-400000.0625
2.7633860111236572,-400000.0625,-7486.39013671875,171.85000610351562,-400000.0625,-14359.2900390625,-400000.0625,-2111.2900390625,-400000.0625
2.7633895874023438,-400000.0625,-7473.419921875,184.5800018310547,-400000.0625,-14345.9296875,-400000.0625,-2095.27001953125,-400000.0625
2.7633931636810303,-400000.0625,-7466.89013671875,190.5399932861328,-400000.0625,-14343.9296875,-400000.0625,-2092.550048828125,-400000.0625
2.763396739959717,-400000.0625,-7477.89990234375,181.72000122070312,-400000.0625,-14354.330078125,-400000.0625,-2102.659912109375,-400000.0625
2.7634003162384033,-400000.0625,-7488.490234375,171.47000122070312,-400000.0625,-14365.48046875,-400000.0625,-2115.389892578125,-400000.0625
2.7634050846099854,-400000.0625,-7480.91015625,177.6699981689453,-400000.0625,-14359.08984375,-400000.0625,-2108.719970703125,-400000.0625
2.763408660888672,-400000.0625,-7464.7900390625,189.5,-400000.0625,-14346.5498046875,-400000.0625,-2092.550048828125,-400000.0625
2.7634122371673584,-400000.0625,-7460.93017578125,190.92999267578125,-400000.0625,-14337.4501953125,-400000.0625,-2091.739990234375,-400000.0625
2.763416051864624,-400000.0625,-7474.759765625,181.6699981689453,-400000.0625,-14348.83984375,-400000.0625,-2100.56005859375,-400000.0625
2.7634196281433105,-400000.0625,-7485.06005859375,174.6199951171875,-400000.0625,-14362.76953125,-400000.0625,-2110.669921875,-400000.0625
timestamp,ch7,ch2,ch3,ch5,is_pause
timestamp,ch7,ch2,ch3,ch5,is_pause
timestamp,ch7,ch2,ch3,ch5,is_pause
2.793591022491455,-400000.0625,-7474.7998046875,182.49000549316406,-400000.0625,-14360.4296875,-400000.0625,-2105.280029296875,-400000.0625
2.804654598236084,-400000.0625,-7463.89013671875,192.8800048828125,-400000.0625,-14347.4599609375,-400000.0625,-2087.31005859375,-400000.0625
timestamp,ch7,ch2,ch3,ch5,is_pause
2.810548782348633,-400000.0625,-7458.5,196.97999572753906,-400000.0625,-14343.5498046875,-400000.0625,-2081.389892578125,-400000.0625
2.815089702606201,-400000.0625,-7458.77978515625,193.30999755859375,-400000.0625,-14353.419921875,-400000.0625,-2094.7900390625,-400000.0625
2.8150992393493652,-400000.0625,-7470.080078125,179.14999389648438,-400000.0625,-14368.76953125,-400000.0625,-2108.18994140625,-400000.0625
2.815103530883789,-400000.0625,-7469.3701171875,179.52999877929688,-400000.0625,-14367.490234375,-400000.0625,-2106.909912109375,-400000.0625
2.8151073455810547,-400000.0625,-7457.35009765625,191.8800048828125,-400000.0625,-14346.080078125,-400000.0625,-2091.260009765625,-400000.0625
2.8151113986968994,-400000.0625,-7455.16015625,194.30999755859375,-400000.0625,-14343.6904296875,-400000.0625,-2090.409912109375,-400000.0625
2.815114974975586,-400000.0625,-7468.4599609375,184.9199981689453,-400000.0625,-14354.0400390625,-400000.0625,-2105.090087890625,-400000.0625
2.8151252269744873,-400000.0625,-7476.759765625,178.6699981689453,-400000.0625,-14359.240234375,-400000.0625,-2111.14990234375,-400000.0625
2.815129041671753,-400000.0625,-7472.3701171875,184.5399932861328,-400000.0625,-14355.51953125,-400000.0625,-2107.10009765625,-400000.0625
2.8151326179504395,-400000.0625,-7459.31005859375,196.27000427246094,-400000.0625,-14346.650390625,-400000.0625,-2090.840087890625,-400000.0625
2.815136194229126,-400000.0625,-7457.02001953125,195.8800048828125,-400000.0625,-14345.1201171875,-400000.0625,-2091.97998046875,-400000.0625
2.8151397705078125,-400000.0625,-7470.0400390625,184.67999267578125,-400000.0625,-14357.66015625,-400000.0625,-2105.139892578125,-400000.0625
2.815143585205078,-400000.0625,-7475.9501953125,178.52999877929688,-400000.0625,-14360.240234375,-400000.0625,-2113.8701171875,-400000.0625
2.8151473999023438,-400000.0625,-7468.080078125,185.35000610351562,-400000.0625,-14352.9404296875,-400000.0625,-2105.429931640625,-400000.0625
timestamp,ch7,ch2,ch3,ch5,is_pause
timestamp,ch7,ch2,ch3,ch5,is_pause
timestamp,ch7,ch2,ch3,ch5,is_pause
timestamp,ch7,ch2,ch3,ch5,is_pause
timestamp,ch7,ch2,ch3,ch5,is_pause
2.8660011291503906,-400000.0625,-7460.35986328125,192.36000061035156,-400000.0625,-14343.83984375,-400000.0625,-2093.840087890625,-400000.0625
2.871181011199951,-400000.0625,-7457.10986328125,195.7899932861328,-400000.0625,-14340.400390625,-400000.0625,-2092.7900390625,-400000.0625
2.8767919540405273,-400000.0625,-7468.3701171875,185.3000030517578,-400000.0625,-14355.0400390625,-400000.0625,-2107.530029296875,-400000.0625
timestamp,ch7,ch2,ch3,ch5,is_pause
2.88332200050354,-400000.0625,-7480.47998046875,174.57000732421875,-400000.0625,-14359.330078125,-400000.0625,-2118.679931640625,-400000.0625
2.8874080181121826,-400000.0625,-7474.66015625,180.1999969482422,-400000.0625,-14352.2802734375,-400000.0625,-2112.10009765625,-400000.0625
2.887416362762451,-400000.0625,-7464.1201171875,189.4499969482422,-400000.0625,-14342.41015625,-400000.0625,-2096.27001953125,-400000.0625
2.887430429458618,-400000.0625,-7463.27001953125,192.30999755859375,-400000.0625,-14338.5400390625,-400000.0625,-2094.1298828125,-400000.0625
2.887434482574463,-400000.0625,-7470.56005859375,185.8699951171875,-400000.0625,-14349.5595703125,-400000.0625,-2106.669921875,-400000.0625
2.8874382972717285,-400000.0625,-7479.85986328125,176.13999938964844,-400000.0625,-14363.669921875,-400000.0625,-2115.25,-400000.0625
2.887441873550415,-400000.0625,-7474.85009765625,184.77000427246094,-400000.0625,-14353.6103515625,-400000.0625,-2108.860107421875,-400000.0625
2.8874452114105225,-400000.0625,-7463.02978515625,196.27000427246094,-400000.0625,-14338.16015625,-400000.0625,-2099.1298828125,-400000.0625
2.887448787689209,-400000.0625,-7462.5498046875,196.60000610351562,-400000.0625,-14336.16015625,-400000.0625,-2096.27001953125,-400000.0625
2.8874521255493164,-400000.0625,-7472.56005859375,189.3000030517578,-400000.0625,-14345.1201171875,-400000.0625,-2109.81005859375,-400000.0625
2.887455701828003,-400000.0625,-7476.85986328125,185.72999572753906,-400000.0625,-14351.7001953125,-400000.0625,-2122.969970703125,-400000.0625
2.8874590396881104,-400000.0625,-7475.9501953125,185.9199981689453,-400000.0625,-14345.740234375,-400000.0625,-2114.340087890625,-400000.0625
2.887462854385376,-400000.0625,-7468.22021484375,194.36000061035156,-400000.0625,-14337.8798828125,-400000.0625,-2103.280029296875,-400000.0625
timestamp,ch7,ch2,ch3,ch5,is_pause
timestamp,ch7,ch2,ch3,ch5,is_pause
timestamp,ch7,ch2,ch3,ch5,is_pause
timestamp,ch7,ch2,ch3,ch5,is_pause
timestamp,ch7,ch2,ch3,ch5,is_pause
2.9437432289123535,-400000.0625,-7470.22998046875,194.69000244140625,-400000.0625,-14337.400390625,-400000.0625,-2101.0400390625,-400000.0625
timestamp,ch7,ch2,ch3,ch5,is_pause
2.9549872875213623,-400000.0625,-7480.72021484375,184.5800018310547,-400000.0625,-14351.0400390625,-400000.0625,-2116.159912109375,-400000.0625
2.9594533443450928,-400000.0625,-7486.490234375,180.52999877929688,-400000.0625,-14357.1396484375,-400000.0625,-2127.030029296875,-400000.0625
2.9594626426696777,-400000.0625,-7482.9599609375,184.8699951171875,-400000.0625,-14346.169921875,-400000.0625,-2120.39990234375,-400000.0625
2.9594669342041016,-400000.0625,-7478.330078125,188.39999389648438,-400000.0625,-14337.349609375,-400000.0625,-2110.669921875,-400000.0625
2.959470748901367,-400000.0625,-7475.419921875,190.63999938964844,-400000.0625,-14335.490234375,-400000.0625,-2106.2900390625,-400000.0625
2.959477186203003,-400000.0625,-7483.52978515625,182.5800018310547,-400000.0625,-14345.83984375,-400000.0625,-2115.110107421875,-400000.0625
2.9594807624816895,-400000.0625,-7492.72998046875,173.57000732421875,-400000.0625,-14360.51953125,-400000.0625,-2125.449951171875,-400000.0625
2.959484577178955,-400000.0625,-7491.16015625,174.47000122070312,-400000.0625,-14351.5595703125,-400000.0625,-2122.31005859375,-400000.0625
2.9594881534576416,-400000.0625,-7476.56982421875,190.2100067138672,-400000.0625,-14336.830078125,-400000.0625,-2105.239990234375,-400000.0625
2.959491729736328,-400000.0625,-7474.14013671875,191.63999938964844,-400000.0625,-14335.349609375,-400000.0625,-2103.330078125,-400000.0625
2.9594955444335938,-400000.0625,-7487.39013671875,179.24000549316406,-400000.0625,-14341.98046875,-400000.0625,-2117.010009765625,-400000.0625
2.9594993591308594,-400000.0625,-7495.4501953125,169.4199981689453,-400000.0625,-14349.650390625,-400000.0625,-2123.590087890625,-400000.0625
2.959503412246704,-400000.0625,-7491.39990234375,174.3300018310547,-400000.0625,-14343.83984375,-400000.0625,-2117.43994140625,-400000.0625
2.959517240524292,-400000.0625,-7485.919921875,184.6300048828125,-400000.0625,-14334.16015625,-400000.0625,-2106.760009765625,-400000.0625
2.9595210552215576,-400000.0625,-7481.43017578125,187.5399932861328,-400000.0625,-14333.1103515625,-400000.0625,-2105.6201171875,-400000.0625
timestamp,ch7,ch2,ch3,ch5,is_pause
timestamp,ch7,ch2,ch3,ch5,is_pause
timestamp,ch7,ch2,ch3,ch5,is_pause
timestamp,ch7,ch2,ch3,ch5,is_pause
timestamp,ch7,ch2,ch3,ch5,is_pause
timestamp,ch7,ch2,ch3,ch5,is_pause
3.026442527770996,-400000.0625,-7488.009765625,181.33999633789062,-400000.0625,-14342.259765625,-400000.0625,-2121.39990234375,-400000.0625
timestamp,ch7,ch2,ch3,ch5,is_pause
3.033554792404175,-400000.0625,-7500.64990234375,168.47000122070312,-400000.0625,-14355.0400390625,-400000.0625,-2130.840087890625,-400000.0625
3.03813099861145,-400000.0625,-7498.41015625,172.4199981689453,-400000.0625,-14347.41015625,-400000.0625,-2124.8798828125,-400000.0625
3.038139820098877,-400000.0625,-7486.9599609375,182.91000366210938,-400000.0625,-14332.5302734375,-400000.0625,-2113.77001953125,-400000.0625
3.03814435005188,-400000.0625,-7485.06005859375,186.00999450683594,-400000.0625,-14331.3896484375,-400000.0625,-2106.2900390625,-400000.0625
3.0381481647491455,-400000.0625,-7491.77978515625,180.24000549316406,-400000.0625,-14343.3095703125,-400000.0625,-2114.010009765625,-400000.0625
3.038151741027832,-400000.0625,-7503.080078125,169.55999755859375,-400000.0625,-14351.7001953125,-400000.0625,-2130.56005859375,-400000.0625
3.0381553173065186,-400000.0625,-7502.22021484375,170.4199981689453,-400000.0625,-14345.169921875,-400000.0625,-2123.739990234375,-400000.0625
3.038158655166626,-400000.0625,-7489.009765625,185.38999938964844,-400000.0625,-14330.7197265625,-400000.0625,-2108.239990234375,-400000.0625
3.0381617546081543,-400000.0625,-7485.10009765625,190.4499969482422,-400000.0625,-14326.8095703125,-400000.0625,-2103.419921875,-400000.0625
3.038165807723999,-400000.0625,-7494.31005859375,179.72000122070312,-400000.0625,-14337.349609375,-400000.0625,-2114.25,-400000.0625
3.0381693840026855,-400000.0625,-7501.56005859375,170.0399932861328,-400000.0625,-14349.3203125,-400000.0625,-2121.5400390625,-400000.0625
3.038172721862793,-400000.0625,-7499.080078125,172.47000122070312,-400000.0625,-14342.7900390625,-400000.0625,-2114.43994140625,-400000.0625
3.0381762981414795,-400000.0625,-7490.25,181.77000427246094,-400000.0625,-14328.8203125,-400000.0625,-2105.52001953125,-400000.0625
3.038179874420166,-400000.0625,-7487.6298828125,185.44000244140625,-400000.0625,-14325.8095703125,-400000.0625,-2101.330078125,-400000.0625
3.0381882190704346,-400000.0625,-7495.830078125,178.77000427246094,-400000.0625,-14336.2099609375,-400000.0625,-2111.860107421875,-400000.0625
timestamp,ch7,ch2,ch3,ch5,is_pause
timestamp,ch7,ch2,ch3,ch5,is_pause
timestamp,ch7,ch2,ch3,ch5,is_pause
timestamp,ch7,ch2,ch3,ch5,is_pause
timestamp,ch7,ch2,ch3,ch5,is_pause
3.0909812450408936,-400000.0625,-7505.22998046875,172.89999389648438,-400000.0625,-14344.650390625,-400000.0625,-2120.919921875,-400000.0625
timestamp,ch7,ch2,ch3,ch5,is_pause
3.101886749267578,-400000.0625,-7499.5498046875,178.0,-400000.0625,-14337.6396484375,-400000.0625,-2114.530029296875,-400000.0625
3.1065914630889893,-400000.0625,-7488.2001953125,183.33999633789062,-400000.0625,-14331.9599609375,-400000.0625,-2106.3798828125,-400000.0625
3.1065995693206787,-400000.0625,-7491.77978515625,183.11000061035156,-400000.0625,-14329.33984375,-400000.0625,-2105.52001953125,-400000.0625
3.1066040992736816,-400000.0625,-7500.22021484375,172.57000732421875,-400000.0625,-14339.6904296875,-400000.0625,-2119.39990234375,-400000.0625
3.1066079139709473,-400000.0625,-7508.7998046875,166.4199981689453,-400000.0625,-14342.7900390625,-400000.0625,-2127.840087890625,-400000.0625
3.106611728668213,-400000.0625,-7506.22998046875,172.08999633789062,-400000.0625,-14336.7802734375,-400000.0625,-2123.070068359375,-400000.0625
3.1066153049468994,-400000.0625,-7492.02001953125,186.05999755859375,-400000.0625,-14329.0498046875,-400000.0625,-2101.989990234375,-400000.0625
3.106618642807007,-400000.0625,-7492.2998046875,185.82000732421875,-400000.0625,-14328.0498046875,-400000.0625,-2103.139892578125,-400000.0625
3.1066224575042725,-400000.0625,-7502.56005859375,176.6699981689453,-400000.0625,-14336.7802734375,-400000.0625,-2114.25,-400000.0625
3.106626033782959,-400000.0625,-7514.10009765625,168.3699951171875,-400000.0625,-14348.2197265625,-400000.0625,-2126.97998046875,-400000.0625
3.1066296100616455,-400000.0625,-7507.75,173.52000427246094,-400000.0625,-14338.0703125,-400000.0625,-2122.31005859375,-400000.0625
3.106632947921753,-400000.0625,-7491.97021484375,186.3000030517578,-400000.0625,-14321.0400390625,-400000.0625,-2106.139892578125,-400000.0625
3.1066479682922363,-400000.0625,-7490.64013671875,189.58999633789062,-400000.0625,-14320.419921875,-400000.0625,-2104.429931640625,-400000.0625
3.106651544570923,-400000.0625,-7505.66015625,175.0500030517578,-400000.0625,-14340.9296875,-400000.0625,-2117.919921875,-400000.0625
3.1066551208496094,-400000.0625,-7512.759765625,164.7899932861328,-400000.0625,-14351.1796875,-400000.0625,-2127.60009765625,-400000.0625
timestamp,ch7,ch2,ch3,ch5,is_pause
timestamp,ch7,ch2,ch3,ch5,is_pause
timestamp,ch7,ch2,ch3,ch5,is_pause
3.1430602073669434,-400000.0625,-7513.18994140625,166.32000732421875,-400000.0625,-14342.6396484375,-400000.0625,-2125.5,-400000.0625
3.147893190383911,-400000.0625,-7503.7001953125,174.3300018310547,-400000.0625,-14335.1103515625,-400000.0625,-2112.580078125,-400000.0625
3.1479015350341797,-400000.0625,-7502.22021484375,177.10000610351562,-400000.0625,-14329.7197265625,-400000.0625,-2114.6298828125,-400000.0625
3.1479060649871826,-400000.0625,-7516.81005859375,165.41000366210938,-400000.0625,-14338.58984375,-400000.0625,-2127.889892578125,-400000.0625
3.147909641265869,-400000.0625,-7525.8701171875,157.30999755859375,-400000.0625,-14350.0302734375,-400000.0625,-2133.989990234375,-400000.0625
3.1479134559631348,-400000.0625,-7521.2001953125,161.74000549316406,-400000.0625,-14343.7900390625,-400000.0625,-2132.3701171875,-400000.0625
3.147916793823242,-400000.0625,-7510.6201171875,173.57000732421875,-400000.0625,-14331.0595703125,-400000.0625,-2119.489990234375,-400000.0625
3.1479203701019287,-400000.0625,-7502.7001953125,181.38999938964844,-400000.0625,-14328.669921875,-400000.0625,-2116.389892578125,-400000.0625
3.1479239463806152,-400000.0625,-7517.14990234375,166.61000061035156,-400000.0625,-14345.1201171875,-400000.0625,-2129.97998046875,-400000.0625
3.1479272842407227,-400000.0625,-7528.259765625,155.97000122070312,-400000.0625,-14356.900390625,-400000.0625,-2137.179931640625,-400000.0625
3.147930860519409,-400000.0625,-7521.43994140625,159.8800048828125,-400000.0625,-14348.8896484375,-400000.0625,-2134.510009765625,-400000.0625
3.1479403972625732,-400000.0625,-7517.39013671875,168.85000610351562,-400000.0625,-14333.76953125,-400000.0625,-2123.2099609375,-400000.0625
3.1479439735412598,-400000.0625,-7513.56982421875,172.66000366210938,-400000.0625,-14334.4404296875,-400000.0625,-2119.110107421875,-400000.0625
3.1479477882385254,-400000.0625,-7523.06005859375,162.27000427246094,-400000.0625,-14348.650390625,-400000.0625,-2132.4599609375,-400000.0625
3.147951364517212,-400000.0625,-7537.080078125,148.9199981689453,-400000.0625,-14354.330078125,-400000.0625,-2147.47998046875,-400000.0625
3.1479549407958984,-400000.0625,-7534.4599609375,152.02000427246094,-400000.0625,-14352.7998046875,-400000.0625,-2143.81005859375,-400000.0625
timestamp,ch7,ch2,ch3,ch5,is_pause
timestamp,ch7,ch2,ch3,ch5,is_pause
timestamp,ch7,ch2,ch3,ch5,is_pause
3.177518844604492,-400000.0625,-7521.8701171875,165.61000061035156,-400000.0625,-14334.2998046875,-400000.0625,-2128.93994140625,-400000.0625
3.1822023391723633,-400000.0625,-7518.240234375,168.55999755859375,-400000.0625,-14328.580078125,-400000.0625,-2123.68994140625,-400000.0625
