time,ch1,ch2,ch3,ch4,ch5,ch6,ch7,ch8
164.998197555542,-400000.0625,-6711.8701171875,4751.68017578125,-400000.0625,-400000.0625,-400000.0625,-2385.659912109375,-400000.0625
165.01646494865417,-400000.0625,-6744.39013671875,4714.919921875,-400000.0625,-400000.0625,-400000.0625,-2415.989990234375,-400000.0625
165.02570009231567,-400000.0625,-6748.490234375,4709.43994140625,-400000.0625,-400000.0625,-400000.0625,-2418.330078125,-400000.0625
165.03889918327332,-400000.0625,-6731.83984375,4731.4599609375,-400000.0625,-400000.0625,-400000.0625,-2400.72998046875,-400000.0625
165.05256485939026,-400000.0625,-6710.33984375,4756.02001953125,-400000.0625,-400000.0625,-400000.0625,-2379.27001953125,-400000.0625
165.08589243888855,-400000.0625,-6715.2001953125,4747.52978515625,-400000.0625,-400000.0625,-400000.0625,-2384.85009765625,-400000.0625
165.09593391418457,-400000.0625,-6749.580078125,4711.91015625,-400000.0625,-400000.0625,-400000.0625,-2415.7099609375,-400000.0625
165.10869145393372,-400000.0625,-6764.169921875,4698.89990234375,-400000.0625,-400000.0625,-400000.0625,-2429.340087890625,-400000.0625
165.11788177490234,-400000.0625,-6754.490234375,4714.10986328125,-400000.0625,-400000.0625,-400000.0625,-2413.030029296875,-400000.0625
165.12632989883423,-400000.0625,-6719.39990234375,4745.2900390625,-400000.0625,-400000.0625,-400000.0625,-2388.760009765625,-400000.0625
165.14131021499634,-400000.0625,-6722.16015625,4741.56982421875,-400000.0625,-400000.0625,-400000.0625,-2397.679931640625,-400000.0625
165.1540172100067,-400000.0625,-6758.169921875,4703.9501953125,-400000.0625,-400000.0625,-400000.0625,-2431.580078125,-400000.0625
165.18470811843872,-400000.0625,-6767.7998046875,4693.22021484375,-400000.0625,-400000.0625,-400000.0625,-2436.919921875,-400000.0625
165.19303274154663,-400000.0625,-6755.58984375,4711.6298828125,-400000.0625,-400000.0625,-400000.0625,-2417.760009765625,-400000.0625
165.20676040649414,-400000.0625,-6730.1298828125,4739.81005859375,-400000.0625,-400000.0625,-400000.0625,-2394.199951171875,-400000.0625
165.21710872650146,-400000.0625,-6730.75,4735.7099609375,-400000.0625,-400000.0625,-400000.0625,-2399.5400390625,-400000.0625
165.22560954093933,-400000.0625,-6759.5,4704.14013671875,-400000.0625,-400000.0625,-400000.0625,-2430.77001953125,-400000.0625
165.23834896087646,-400000.0625,-6767.509765625,4698.08984375,-400000.0625,-400000.0625,-400000.0625,-2440.02001953125,-400000.0625
165.2471194267273,-400000.0625,-6751.5400390625,4712.68017578125,-400000.0625,-400000.0625,-400000.0625,-2419.760009765625,-400000.0625
165.255437374115,-400000.0625,-6718.490234375,4745.77001953125,-400000.0625,-400000.0625,-400000.0625,-2388.10009765625,-400000.0625
165.28458261489868,-400000.0625,-6726.169921875,4739.9501953125,-400000.0625,-400000.0625,-400000.0625,-2397.6298828125,-400000.0625
165.2924497127533,-400000.0625,-6765.18017578125,4704.330078125,-400000.0625,-400000.0625,-400000.0625,-2430.489990234375,-400000.0625
165.30880427360535,-400000.0625,-6777.0,4693.93994140625,-400000.0625,-400000.0625,-400000.0625,-2435.39990234375,-400000.0625
165.31718373298645,-400000.0625,-6759.1201171875,4712.2001953125,-400000.0625,-400000.0625,-400000.0625,-2422.52001953125,-400000.0625
165.32480931282043,-400000.0625,-6730.1298828125,4741.91015625,-400000.0625,-400000.0625,-400000.0625,-2397.159912109375,-400000.0625
165.33725571632385,-400000.0625,-6727.740234375,4742.47998046875,-400000.0625,-400000.0625,-400000.0625,-2398.25,-400000.0625
165.34857082366943,-400000.0625,-6756.35009765625,4709.2001953125,-400000.0625,-400000.0625,-400000.0625,-2426.47998046875,-400000.0625
165.35734009742737,-400000.0625,-6762.5498046875,4702.81005859375,-400000.0625,-400000.0625,-400000.0625,-2432.010009765625,-400000.0625
165.38865280151367,-400000.0625,-6748.14990234375,4719.77978515625,-400000.0625,-400000.0625,-400000.0625,-2411.93994140625,-400000.0625
165.4062328338623,-400000.0625,-6728.97998046875,4742.91015625,-400000.0625,-400000.0625,-400000.0625,-2389.669921875,-400000.0625
165.420343875885,-400000.0625,-6735.1298828125,4738.89990234375,-400000.0625,-400000.0625,-400000.0625,-2393.820068359375,-400000.0625
165.4321141242981,-400000.0625,-6770.9501953125,4703.43017578125,-400000.0625,-400000.0625,-400000.0625,-2424.669921875,-400000.0625
165.4442174434662,-400000.0625,-6771.56982421875,4694.89013671875,-400000.0625,-400000.0625,-400000.0625,-2433.159912109375,-400000.0625
165.45356678962708,-400000.0625,-6752.830078125,4711.25,-400000.0625,-400000.0625,-400000.0625,-2417.56005859375,-400000.0625
165.4655511379242,-400000.0625,-6726.64990234375,4741.43017578125,-400000.0625,-400000.0625,-400000.0625,-2394.389892578125,-400000.0625
165.49389696121216,-400000.0625,-6725.93017578125,4742.0498046875,-400000.0625,-400000.0625,-400000.0625,-2395.489990234375,-400000.0625
165.5081193447113,-400000.0625,-6754.68994140625,4712.39013671875,-400000.0625,-400000.0625,-400000.0625,-2418.7099609375,-400000.0625
165.5185582637787,-400000.0625,-6769.47021484375,4699.9501953125,-400000.0625,-400000.0625,-400000.0625,-2427.669921875,-400000.0625
165.53667950630188,-400000.0625,-6751.43994140625,4717.06005859375,-400000.0625,-400000.0625,-400000.0625,-2420.3798828125,-400000.0625
165.55339097976685,-400000.0625,-6724.97998046875,4747.68017578125,-400000.0625,-400000.0625,-400000.0625,-2391.77001953125,-400000.0625
165.57037615776062,-400000.0625,-6730.89013671875,4743.52978515625,-400000.0625,-400000.0625,-400000.0625,-2395.919921875,-400000.0625
165.6111180782318,-400000.0625,-6761.5,4708.9599609375,-400000.0625,-400000.0625,-400000.0625,-2425.0,-400000.0625
165.6226086616516,-400000.0625,-6764.83984375,4703.47021484375,-400000.0625,-400000.0625,-400000.0625,-2424.719970703125,-400000.0625
165.63782501220703,-400000.0625,-6746.47998046875,4723.41015625,-400000.0625,-400000.0625,-400000.0625,-2409.4599609375,-400000.0625
165.65131902694702,-400000.0625,-6720.58984375,4750.16015625,-400000.0625,-400000.0625,-400000.0625,-2385.429931640625,-400000.0625
165.66260957717896,-400000.0625,-6721.58984375,4745.10009765625,-400000.0625,-400000.0625,-400000.0625,-2392.6298828125,-400000.0625
165.67423129081726,-400000.0625,-6759.93017578125,4705.81005859375,-400000.0625,-400000.0625,-400000.0625,-2425.18994140625,-400000.0625
165.70764088630676,-400000.0625,-6772.3798828125,4694.990234375,-400000.0625,-400000.0625,-400000.0625,-2430.530029296875,-400000.0625
165.7199251651764,-400000.0625,-6753.58984375,4717.06005859375,-400000.0625,-400000.0625,-400000.0625,-2412.610107421875,-400000.0625
165.73154664039612,-400000.0625,-6730.64990234375,4744.009765625,-400000.0625,-400000.0625,-400000.0625,-2386.949951171875,-400000.0625
165.74533009529114,-400000.0625,-6734.22998046875,4739.56982421875,-400000.0625,-400000.0625,-400000.0625,-2391.389892578125,-400000.0625
165.75540971755981,-400000.0625,-6756.259765625,4712.06005859375,-400000.0625,-400000.0625,-400000.0625,-2418.179931640625,-400000.0625
165.76696610450745,-400000.0625,-6755.02001953125,4710.580078125,-400000.0625,-400000.0625,-400000.0625,-2419.6201171875,-400000.0625
165.78027510643005,-400000.0625,-6746.669921875,4719.4501953125,-400000.0625,-400000.0625,-400000.0625,-2411.080078125,-400000.0625
165.81059455871582,-400000.0625,-6731.3701171875,4735.52001953125,-400000.0625,-400000.0625,-400000.0625,-2396.14990234375,-400000.0625
165.819397687912,-400000.0625,-6729.169921875,4738.89990234375,-400000.0625,-400000.0625,-400000.0625,-2397.590087890625,-400000.0625
165.8282344341278,-400000.0625,-6759.5,4709.14990234375,-400000.0625,-400000.0625,-400000.0625,-2422.909912109375,-400000.0625
165.84083557128906,-400000.0625,-6765.64990234375,4700.7099609375,-400000.0625,-400000.0625,-400000.0625,-2433.39990234375,-400000.0625
165.85166954994202,-400000.0625,-6747.39013671875,4723.35986328125,-400000.0625,-400000.0625,-400000.0625,-2417.3701171875,-400000.0625
165.86170053482056,-400000.0625,-6716.35009765625,4756.1201171875,-400000.0625,-400000.0625,-400000.0625,-2386.760009765625,-400000.0625
165.87628698349,-400000.0625,-6719.77978515625,4752.4501953125,-400000.0625,-400000.0625,-400000.0625,-2387.139892578125,-400000.0625
165.88593745231628,-400000.0625,-6748.919921875,4720.39990234375,-400000.0625,-400000.0625,-400000.0625,-2417.179931640625,-400000.0625
165.91489148139954,-400000.0625,-6752.72998046875,4710.39013671875,-400000.0625,-400000.0625,-400000.0625,-2423.330078125,-400000.0625
165.9233798980713,-400000.0625,-6743.77001953125,4722.93017578125,-400000.0625,-400000.0625,-400000.0625,-2407.97998046875,-400000.0625
165.93737626075745,-400000.0625,-6721.93017578125,4749.580078125,-400000.0625,-400000.0625,-400000.0625,-2391.050048828125,-400000.0625
165.94932293891907,-400000.0625,-6729.169921875,4743.85986328125,-400000.0625,-400000.0625,-400000.0625,-2395.9599609375,-400000.0625
165.95879983901978,-400000.0625,-6755.31005859375,4713.35009765625,-400000.0625,-400000.0625,-400000.0625,-2423.139892578125,-400000.0625
165.98192167282104,-400000.0625,-6761.89013671875,4704.669921875,-400000.0625,-400000.0625,-400000.0625,-2433.35009765625,-400000.0625
165.99086570739746,-400000.0625,-6745.669921875,4722.02001953125,-400000.0625,-400000.0625,-400000.0625,-2416.93994140625,-400000.0625
166.02030086517334,-400000.0625,-6712.490234375,4753.490234375,-400000.0625,-400000.0625,-400000.0625,-2387.669921875,-400000.0625
166.038104057312,-400000.0625,-6724.740234375,4746.33984375,-400000.0625,-400000.0625,-400000.0625,-2392.9599609375,-400000.0625
166.04967856407166,-400000.0625,-6758.169921875,4714.16015625,-400000.0625,-400000.0625,-400000.0625,-2421.239990234375,-400000.0625
166.06113457679749,-400000.0625,-6768.66015625,4703.52001953125,-400000.0625,-400000.0625,-400000.0625,-2424.570068359375,-400000.0625
166.08079838752747,-400000.0625,-6756.5,4717.39990234375,-400000.0625,-400000.0625,-400000.0625,-2415.7099609375,-400000.0625
166.09126377105713,-400000.0625,-6726.68994140625,4747.52978515625,-400000.0625,-400000.0625,-400000.0625,-2389.719970703125,-400000.0625
166.12485122680664,-400000.0625,-6729.41015625,4741.85986328125,-400000.0625,-400000.0625,-400000.0625,-2392.909912109375,-400000.0625
166.1387300491333,-400000.0625,-6761.41015625,4704.7099609375,-400000.0625,-400000.0625,-400000.0625,-2426.820068359375,-400000.0625
166.1484019756317,-400000.0625,-6770.08984375,4695.27001953125,-400000.0625,-400000.0625,-400000.0625,-2434.35009765625,-400000.0625
166.15740060806274,-400000.0625,-6747.81982421875,4718.830078125,-400000.0625,-400000.0625,-400000.0625,-2411.56005859375,-400000.0625
166.1752851009369,-400000.0625,-6722.68994140625,4746.77001953125,-400000.0625,-400000.0625,-400000.0625,-2388.760009765625,-400000.0625
166.18487453460693,-400000.0625,-6728.7001953125,4741.85986328125,-400000.0625,-400000.0625,-400000.0625,-2395.199951171875,-400000.0625
166.19378924369812,-400000.0625,-6756.93017578125,4710.47998046875,-400000.0625,-400000.0625,-400000.0625,-2419.85009765625,-400000.0625
166.22677278518677,-400000.0625,-6762.31005859375,4704.91015625,-400000.0625,-400000.0625,-400000.0625,-2425.669921875,-400000.0625
166.23950815200806,-400000.0625,-6748.919921875,4721.97998046875,-400000.0625,-400000.0625,-400000.0625,-2413.179931640625,-400000.0625
166.24957060813904,-400000.0625,-6721.77978515625,4748.25,-400000.0625,-400000.0625,-400000.0625,-2386.860107421875,-400000.0625
166.25853037834167,-400000.0625,-6728.75,4739.9501953125,-400000.0625,-400000.0625,-400000.0625,-2389.860107421875,-400000.0625
166.27035975456238,-400000.0625,-6763.509765625,4704.2900390625,-400000.0625,-400000.0625,-400000.0625,-2417.179931640625,-400000.0625
166.28003644943237,-400000.0625,-6763.5498046875,4699.14013671875,-400000.0625,-400000.0625,-400000.0625,-2424.81005859375,-400000.0625
166.28871178627014,-400000.0625,-6743.72021484375,4719.5400390625,-400000.0625,-400000.0625,-400000.0625,-2405.830078125,-400000.0625
166.2990448474884,-400000.0625,-6720.830078125,4748.14990234375,-400000.0625,-400000.0625,-400000.0625,-2383.139892578125,-400000.0625
166.3331482410431,-400000.0625,-6730.22021484375,4739.18994140625,-400000.0625,-400000.0625,-400000.0625,-2395.110107421875,-400000.0625
166.34348154067993,-400000.0625,-6761.169921875,4703.52001953125,-400000.0625,-400000.0625,-400000.0625,-2423.429931640625,-400000.0625
166.351891040802,-400000.0625,-6769.509765625,4696.7998046875,-400000.0625,-400000.0625,-400000.0625,-2431.919921875,-400000.0625
166.35975074768066,-400000.0625,-6756.740234375,4714.919921875,-400000.0625,-400000.0625,-400000.0625,-2412.889892578125,-400000.0625
166.37378811836243,-400000.0625,-6727.080078125,4743.2900390625,-400000.0625,-400000.0625,-400000.0625,-2388.10009765625,-400000.0625
166.38238716125488,-400000.0625,-6730.60009765625,4744.009765625,-400000.0625,-400000.0625,-400000.0625,-2392.010009765625,-400000.0625
166.39058923721313,-400000.0625,-6762.1201171875,4706.759765625,-400000.0625,-400000.0625,-400000.0625,-2421.949951171875,-400000.0625
166.40031576156616,-400000.0625,-6776.18994140625,4690.97998046875,-400000.0625,-400000.0625,-400000.0625,-2429.909912109375,-400000.0625
166.42956495285034,-400000.0625,-6755.16015625,4714.009765625,-400000.0625,-400000.0625,-400000.0625,-2418.949951171875,-400000.0625
166.44091129302979,-400000.0625,-6725.35986328125,4743.81982421875,-400000.0625,-400000.0625,-400000.0625,-2391.530029296875,-400000.0625
166.4492325782776,-400000.0625,-6732.27001953125,4738.81005859375,-400000.0625,-400000.0625,-400000.0625,-2395.489990234375,-400000.0625
166.45702743530273,-400000.0625,-6762.22021484375,4707.240234375,-400000.0625,-400000.0625,-400000.0625,-2424.530029296875,-400000.0625
166.46966862678528,-400000.0625,-6779.72021484375,4695.1298828125,-400000.0625,-400000.0625,-400000.0625,-2437.2099609375,-400000.0625
166.4808316230774,-400000.0625,-6764.080078125,4712.06005859375,-400000.0625,-400000.0625,-400000.0625,-2422.3798828125,-400000.0625
166.48949337005615,-400000.0625,-6731.56005859375,4735.990234375,-400000.0625,-400000.0625,-400000.0625,-2387.570068359375,-400000.0625
166.50287628173828,-400000.0625,-6746.43994140625,4725.1201171875,-400000.0625,-400000.0625,-400000.0625,-2391.669921875,-400000.0625
166.52568650245667,-400000.0625,-6775.56982421875,4692.02978515625,-400000.0625,-400000.0625,-400000.0625,-2418.469970703125,-400000.0625
166.5372874736786,-400000.0625,-6782.14990234375,4680.81982421875,-400000.0625,-400000.0625,-400000.0625,-2424.669921875,-400000.0625
166.54597115516663,-400000.0625,-6764.169921875,4699.18017578125,-400000.0625,-400000.0625,-400000.0625,-2410.97998046875,-400000.0625
166.5538444519043,-400000.0625,-6744.2900390625,4725.83984375,-400000.0625,-400000.0625,-400000.0625,-2381.989990234375,-400000.0625
166.56267762184143,-400000.0625,-6740.669921875,4722.169921875,-400000.0625,-400000.0625,-400000.0625,-2385.0,-400000.0625
166.57528829574585,-400000.0625,-6769.3701171875,4688.4501953125,-400000.0625,-400000.0625,-400000.0625,-2414.56005859375,-400000.0625
166.5839138031006,-400000.0625,-6783.72021484375,4680.16015625,-400000.0625,-400000.0625,-400000.0625,-2420.760009765625,-400000.0625
166.59152483940125,-400000.0625,-6771.60986328125,4696.60986328125,-400000.0625,-400000.0625,-400000.0625,-2405.739990234375,-400000.0625
166.60630202293396,-400000.0625,-6741.72021484375,4724.1201171875,-400000.0625,-400000.0625,-400000.0625,-2381.56005859375,-400000.0625
166.62946963310242,-400000.0625,-6746.52978515625,4720.97021484375,-400000.0625,-400000.0625,-400000.0625,-2389.050048828125,-400000.0625
166.64349365234375,-400000.0625,-6776.18994140625,4687.31005859375,-400000.0625,-400000.0625,-400000.0625,-2422.330078125,-400000.0625
166.6520221233368,-400000.0625,-6786.2998046875,4672.77001953125,-400000.0625,-400000.0625,-400000.0625,-2433.110107421875,-400000.0625
166.6598174571991,-400000.0625,-6767.0400390625,4693.41015625,-400000.0625,-400000.0625,-400000.0625,-2417.330078125,-400000.0625
166.67303657531738,-400000.0625,-6740.14013671875,4725.83984375,-400000.0625,-400000.0625,-400000.0625,-2385.949951171875,-400000.0625
166.68183851242065,-400000.0625,-6746.580078125,4720.93017578125,-400000.0625,-400000.0625,-400000.0625,-2391.909912109375,-400000.0625
166.68994450569153,-400000.0625,-6778.0,4685.97021484375,-400000.0625,-400000.0625,-400000.0625,-2422.81005859375,-400000.0625
166.70087265968323,-400000.0625,-6785.39013671875,4673.2900390625,-400000.0625,-400000.0625,-400000.0625,-2427.389892578125,-400000.0625
166.71104311943054,-400000.0625,-6763.5498046875,4694.89013671875,-400000.0625,-400000.0625,-400000.0625,-2410.030029296875,-400000.0625
166.74079012870789,-400000.0625,-6733.66015625,4728.89013671875,-400000.0625,-400000.0625,-400000.0625,-2378.93994140625,-400000.0625
166.7500569820404,-400000.0625,-6747.43994140625,4715.25,-400000.0625,-400000.0625,-400000.0625,-2391.340087890625,-400000.0625
166.75870060920715,-400000.0625,-6778.77001953125,4680.58984375,-400000.0625,-400000.0625,-400000.0625,-2427.2900390625,-400000.0625
166.77148127555847,-400000.0625,-6790.919921875,4667.9501953125,-400000.0625,-400000.0625,-400000.0625,-2435.39990234375,-400000.0625
166.78093886375427,-400000.0625,-6776.43017578125,4682.72998046875,-400000.0625,-400000.0625,-400000.0625,-2421.280029296875,-400000.0625
166.78909373283386,-400000.0625,-6749.43994140625,4717.259765625,-400000.0625,-400000.0625,-400000.0625,-2396.820068359375,-400000.0625
166.80046725273132,-400000.0625,-6752.77978515625,4717.58984375,-400000.0625,-400000.0625,-400000.0625,-2396.72998046875,-400000.0625
166.81042003631592,-400000.0625,-6773.47021484375,4690.31005859375,-400000.0625,-400000.0625,-400000.0625,-2424.429931640625,-400000.0625
166.8192744255066,-400000.0625,-6779.72021484375,4681.02001953125,-400000.0625,-400000.0625,-400000.0625,-2432.25,-400000.0625
166.8472282886505,-400000.0625,-6768.31982421875,4696.1298828125,-400000.0625,-400000.0625,-400000.0625,-2411.7900390625,-400000.0625
166.85480618476868,-400000.0625,-6738.85009765625,4729.60986328125,-400000.0625,-400000.0625,-400000.0625,-2382.949951171875,-400000.0625
166.86788249015808,-400000.0625,-6742.18994140625,4724.93017578125,-400000.0625,-400000.0625,-400000.0625,-2387.6201171875,-400000.0625
166.87970614433289,-400000.0625,-6777.72021484375,4685.5498046875,-400000.0625,-400000.0625,-400000.0625,-2420.760009765625,-400000.0625
166.8882761001587,-400000.0625,-6787.009765625,4672.10009765625,-400000.0625,-400000.0625,-400000.0625,-2430.77001953125,-400000.0625
166.8995668888092,-400000.0625,-6774.52001953125,4690.22021484375,-400000.0625,-400000.0625,-400000.0625,-2418.85009765625,-400000.0625
166.91056609153748,-400000.0625,-6755.5,4716.8701171875,-400000.0625,-400000.0625,-400000.0625,-2396.06005859375,-400000.0625
166.9195294380188,-400000.0625,-6753.5400390625,4717.2998046875,-400000.0625,-400000.0625,-400000.0625,-2395.14990234375,-400000.0625
166.94738960266113,-400000.0625,-6774.27978515625,4690.93017578125,-400000.0625,-400000.0625,-400000.0625,-2417.659912109375,-400000.0625
166.9550120830536,-400000.0625,-6785.43994140625,4675.47998046875,-400000.0625,-400000.0625,-400000.0625,-2426.9599609375,-400000.0625
166.96487760543823,-400000.0625,-6777.9501953125,4687.5,-400000.0625,-400000.0625,-400000.0625,-2412.080078125,-400000.0625
166.97713136672974,-400000.0625,-6749.490234375,4720.31005859375,-400000.0625,-400000.0625,-400000.0625,-2385.659912109375,-400000.0625
166.98608899116516,-400000.0625,-6751.16015625,4716.43994140625,-400000.0625,-400000.0625,-400000.0625,-2392.6298828125,-400000.0625
166.995441198349,-400000.0625,-6784.5400390625,4680.35009765625,-400000.0625,-400000.0625,-400000.0625,-2424.570068359375,-400000.0625
167.00752472877502,-400000.0625,-6790.4501953125,4674.33984375,-400000.0625,-400000.0625,-400000.0625,-2428.389892578125,-400000.0625
167.01700496673584,-400000.0625,-6770.18017578125,4694.18017578125,-400000.0625,-400000.0625,-400000.0625,-2411.510009765625,-400000.0625
167.02551174163818,-400000.0625,-6747.52978515625,4721.4501953125,-400000.0625,-400000.0625,-400000.0625,-2390.81005859375,-400000.0625
167.05746865272522,-400000.0625,-6753.72998046875,4715.97021484375,-400000.0625,-400000.0625,-400000.0625,-2396.5400390625,-400000.0625
167.06848096847534,-400000.0625,-6788.2099609375,4681.25,-400000.0625,-400000.0625,-400000.0625,-2422.2900390625,-400000.0625
167.07923221588135,-400000.0625,-6798.60009765625,4672.14990234375,-400000.0625,-400000.0625,-400000.0625,-2431.969970703125,-400000.0625
167.08800959587097,-400000.0625,-6775.08984375,4694.89013671875,-400000.0625,-400000.0625,-400000.0625,-2412.699951171875,-400000.0625
167.1002607345581,-400000.0625,-6742.240234375,4725.740234375,-400000.0625,-400000.0625,-400000.0625,-2383.0400390625,-400000.0625
167.11164951324463,-400000.0625,-6746.25,4720.35009765625,-400000.0625,-400000.0625,-400000.0625,-2385.469970703125,-400000.0625
167.12058782577515,-400000.0625,-6779.43017578125,4686.8798828125,-400000.0625,-400000.0625,-400000.0625,-2418.85009765625,-400000.0625
167.12997269630432,-400000.0625,-6793.5498046875,4677.580078125,-400000.0625,-400000.0625,-400000.0625,-2427.43994140625,-400000.0625
167.15610694885254,-400000.0625,-6775.27978515625,4694.93994140625,-400000.0625,-400000.0625,-400000.0625,-2406.8798828125,-400000.0625
167.1670641899109,-400000.0625,-6747.52978515625,4722.02001953125,-400000.0625,-400000.0625,-400000.0625,-2380.1298828125,-400000.0625
167.17768239974976,-400000.0625,-6755.72998046875,4718.68994140625,-400000.0625,-400000.0625,-400000.0625,-2386.669921875,-400000.0625
167.18686866760254,-400000.0625,-6785.43994140625,4690.60009765625,-400000.0625,-400000.0625,-400000.0625,-2415.510009765625,-400000.0625
167.19615364074707,-400000.0625,-6791.31005859375,4679.16015625,-400000.0625,-400000.0625,-400000.0625,-2420.89990234375,-400000.0625
167.20949149131775,-400000.0625,-6775.47998046875,4692.27001953125,-400000.0625,-400000.0625,-400000.0625,-2408.699951171875,-400000.0625
167.2180781364441,-400000.0625,-6746.14990234375,4723.41015625,-400000.0625,-400000.0625,-400000.0625,-2386.570068359375,-400000.0625
167.2310655117035,-400000.0625,-6751.6298828125,4719.31005859375,-400000.0625,-400000.0625,-400000.0625,-2387.570068359375,-400000.0625
167.26163148880005,-400000.0625,-6781.2900390625,4685.830078125,-400000.0625,-400000.0625,-400000.0625,-2415.1298828125,-400000.0625
167.27539825439453,-400000.0625,-6789.72998046875,4674.72021484375,-400000.0625,-400000.0625,-400000.0625,-2428.06005859375,-400000.0625
167.2839798927307,-400000.0625,-6778.33984375,4689.68994140625,-400000.0625,-400000.0625,-400000.0625,-2417.52001953125,-400000.0625
167.29205513000488,-400000.0625,-6758.02001953125,4713.77001953125,-400000.0625,-400000.0625,-400000.0625,-2392.6298828125,-400000.0625
167.30539774894714,-400000.0625,-6759.02001953125,4713.68017578125,-400000.0625,-400000.0625,-400000.0625,-2393.010009765625,-400000.0625
167.31413173675537,-400000.0625,-6778.81005859375,4687.68994140625,-400000.0625,-400000.0625,-400000.0625,-2421.81005859375,-400000.0625
167.32273840904236,-400000.0625,-6786.77978515625,4676.490234375,-400000.0625,-400000.0625,-400000.0625,-2428.530029296875,-400000.0625
167.33742594718933,-400000.0625,-6779.77001953125,4692.02978515625,-400000.0625,-400000.0625,-400000.0625,-2416.52001953125,-400000.0625
167.36357021331787,-400000.0625,-6748.2998046875,4722.7900390625,-400000.0625,-400000.0625,-400000.0625,-2391.719970703125,-400000.0625
167.37485718727112,-400000.0625,-6752.2998046875,4716.77978515625,-400000.0625,-400000.0625,-400000.0625,-2396.35009765625,-400000.0625
167.38486862182617,-400000.0625,-6778.56982421875,4686.7900390625,-400000.0625,-400000.0625,-400000.0625,-2424.340087890625,-400000.0625
167.3927834033966,-400000.0625,-6789.5400390625,4676.25,-400000.0625,-400000.0625,-400000.0625,-2430.25,-400000.0625
167.40867567062378,-400000.0625,-6773.6201171875,4694.60986328125,-400000.0625,-400000.0625,-400000.0625,-2415.22998046875,-400000.0625
167.41814661026,-400000.0625,-6751.77978515625,4723.97998046875,-400000.0625,-400000.0625,-400000.0625,-2391.14990234375,-400000.0625
167.42844104766846,-400000.0625,-6755.68994140625,4720.97021484375,-400000.0625,-400000.0625,-400000.0625,-2394.489990234375,-400000.0625
167.44060587882996,-400000.0625,-6774.52001953125,4694.3701171875,-400000.0625,-400000.0625,-400000.0625,-2418.3798828125,-400000.0625
167.46477031707764,-400000.0625,-6785.97021484375,4682.5400390625,-400000.0625,-400000.0625,-400000.0625,-2427.050048828125,-400000.0625
167.4763216972351,-400000.0625,-6775.9501953125,4694.1298828125,-400000.0625,-400000.0625,-400000.0625,-2414.800048828125,-400000.0625
167.4850823879242,-400000.0625,-6749.33984375,4722.97998046875,-400000.0625,-400000.0625,-400000.0625,-2391.6201171875,-400000.0625
167.4940345287323,-400000.0625,-6751.58984375,4720.39990234375,-400000.0625,-400000.0625,-400000.0625,-2396.77001953125,-400000.0625
167.50593972206116,-400000.0625,-6780.0498046875,4687.31005859375,-400000.0625,-400000.0625,-400000.0625,-2425.14990234375,-400000.0625
167.51524090766907,-400000.0625,-6791.68994140625,4673.0,-400000.0625,-400000.0625,-400000.0625,-2430.9599609375,-400000.0625
167.52340078353882,-400000.0625,-6772.60986328125,4697.31982421875,-400000.0625,-400000.0625,-400000.0625,-2410.75,-400000.0625
167.5387885570526,-400000.0625,-6742.240234375,4729.4599609375,-400000.0625,-400000.0625,-400000.0625,-2384.6201171875,-400000.0625
167.54938220977783,-400000.0625,-6753.35009765625,4717.8798828125,-400000.0625,-400000.0625,-400000.0625,-2391.669921875,-400000.0625
167.57774782180786,-400000.0625,-6782.580078125,4687.259765625,-400000.0625,-400000.0625,-400000.0625,-2418.419921875,-400000.0625
167.5865433216095,-400000.0625,-6784.919921875,4680.5400390625,-400000.0625,-400000.0625,-400000.0625,-2424.9599609375,-400000.0625
167.59703993797302,-400000.0625,-6773.330078125,4693.89013671875,-400000.0625,-400000.0625,-400000.0625,-2409.1201171875,-400000.0625
167.6102728843689,-400000.0625,-6744.18994140625,4723.259765625,-400000.0625,-400000.0625,-400000.0625,-2384.7099609375,-400000.0625
167.61937522888184,-400000.0625,-6750.490234375,4717.39990234375,-400000.0625,-400000.0625,-400000.0625,-2392.050048828125,-400000.0625
167.62901949882507,-400000.0625,-6786.2001953125,4683.68994140625,-400000.0625,-400000.0625,-400000.0625,-2418.949951171875,-400000.0625
167.64083862304688,-400000.0625,-6795.22021484375,4674.2001953125,-400000.0625,-400000.0625,-400000.0625,-2425.719970703125,-400000.0625
167.64922547340393,-400000.0625,-6777.72021484375,4691.83984375,-400000.0625,-400000.0625,-400000.0625,-2407.64990234375,-400000.0625
167.65691661834717,-400000.0625,-6748.490234375,4727.7900390625,-400000.0625,-400000.0625,-400000.0625,-2379.93994140625,-400000.0625
167.68307638168335,-400000.0625,-6748.2998046875,4723.4501953125,-400000.0625,-400000.0625,-400000.0625,-2382.610107421875,-400000.0625
167.69058465957642,-400000.0625,-6774.27978515625,4690.5,-400000.0625,-400000.0625,-400000.0625,-2411.179931640625,-400000.0625
167.70361399650574,-400000.0625,-6785.16015625,4681.43994140625,-400000.0625,-400000.0625,-400000.0625,-2421.6201171875,-400000.0625
167.71436023712158,-400000.0625,-6771.18017578125,4696.7998046875,-400000.0625,-400000.0625,-400000.0625,-2407.68994140625,-400000.0625
167.72199034690857,-400000.0625,-6744.47998046875,4724.22021484375,-400000.0625,-400000.0625,-400000.0625,-2384.139892578125,-400000.0625
167.73481965065002,-400000.0625,-6753.25,4718.10986328125,-400000.0625,-400000.0625,-400000.0625,-2392.10009765625,-400000.0625
167.74435377120972,-400000.0625,-6780.2001953125,4690.60009765625,-400000.0625,-400000.0625,-400000.0625,-2414.56005859375,-400000.0625
167.752783536911,-400000.0625,-6785.5400390625,4681.06005859375,-400000.0625,-400000.0625,-400000.0625,-2420.18994140625,-400000.0625
167.7621660232544,-400000.0625,-6766.18017578125,4698.93994140625,-400000.0625,-400000.0625,-400000.0625,-2405.1201171875,-400000.0625
167.7893843650818,-400000.0625,-6744.91015625,4727.75,-400000.0625,-400000.0625,-400000.0625,-2382.419921875,-400000.0625
167.80032658576965,-400000.0625,-6751.35009765625,4722.06982421875,-400000.0625,-400000.0625,-400000.0625,-2392.9599609375,-400000.0625
167.8111550807953,-400000.0625,-6785.43994140625,4687.68994140625,-400000.0625,-400000.0625,-400000.0625,-2422.669921875,-400000.0625
167.81996893882751,-400000.0625,-6794.8798828125,4675.43994140625,-400000.0625,-400000.0625,-400000.0625,-2426.199951171875,-400000.0625
167.82950806617737,-400000.0625,-6778.0498046875,4690.64990234375,-400000.0625,-400000.0625,-400000.0625,-2411.7900390625,-400000.0625
167.84115505218506,-400000.0625,-6756.2099609375,4717.06005859375,-400000.0625,-400000.0625,-400000.0625,-2392.010009765625,-400000.0625
167.8501055240631,-400000.0625,-6752.06005859375,4719.77978515625,-400000.0625,-400000.0625,-400000.0625,-2391.909912109375,-400000.0625
167.85813069343567,-400000.0625,-6776.18994140625,4692.97998046875,-400000.0625,-400000.0625,-400000.0625,-2417.139892578125,-400000.0625
167.87143659591675,-400000.0625,-6784.919921875,4680.8701171875,-400000.0625,-400000.0625,-400000.0625,-2426.14990234375,-400000.0625
167.8973834514618,-400000.0625,-6770.52001953125,4696.66015625,-400000.0625,-400000.0625,-400000.0625,-2415.1298828125,-400000.0625
167.90978503227234,-400000.0625,-6754.35009765625,4718.06982421875,-400000.0625,-400000.0625,-400000.0625,-2396.6298828125,-400000.0625
167.91886568069458,-400000.0625,-6754.68994140625,4718.72998046875,-400000.0625,-400000.0625,-400000.0625,-2395.25,-400000.0625
167.92796230316162,-400000.0625,-6790.16015625,4685.16015625,-400000.0625,-400000.0625,-400000.0625,-2421.949951171875,-400000.0625
167.93978881835938,-400000.0625,-6793.5498046875,4675.6298828125,-400000.0625,-400000.0625,-400000.0625,-2431.919921875,-400000.0625
167.9490990638733,-400000.0625,-6769.990234375,4695.4599609375,-400000.0625,-400000.0625,-400000.0625,-2411.75,-400000.0625
167.95725774765015,-400000.0625,-6744.43017578125,4724.169921875,-400000.0625,-400000.0625,-400000.0625,-2383.89990234375,-400000.0625
167.97544836997986,-400000.0625,-6747.77001953125,4725.169921875,-400000.0625,-400000.0625,-400000.0625,-2386.469970703125,-400000.0625
168.0130259990692,-400000.0625,-6785.25,4689.60009765625,-400000.0625,-400000.0625,-400000.0625,-2419.85009765625,-400000.0625
168.02220249176025,-400000.0625,-6799.169921875,4672.43017578125,-400000.0625,-400000.0625,-400000.0625,-2434.39990234375,-400000.0625
168.03714966773987,-400000.0625,-6782.39013671875,4689.259765625,-400000.0625,-400000.0625,-400000.0625,-2414.0400390625,-400000.0625
168.0483853816986,-400000.0625,-6754.97021484375,4716.8701171875,-400000.0625,-400000.0625,-400000.0625,-2391.14990234375,-400000.0625
168.05623173713684,-400000.0625,-6765.41015625,4712.490234375,-400000.0625,-400000.0625,-400000.0625,-2398.820068359375,-400000.0625
168.0658712387085,-400000.0625,-6789.16015625,4686.4501953125,-400000.0625,-400000.0625,-400000.0625,-2419.949951171875,-400000.0625
168.07571172714233,-400000.0625,-6792.5,4679.81982421875,-400000.0625,-400000.0625,-400000.0625,-2425.14990234375,-400000.0625
168.10025191307068,-400000.0625,-6773.52001953125,4699.14013671875,-400000.0625,-400000.0625,-400000.0625,-2409.699951171875,-400000.0625
168.10992002487183,-400000.0625,-6746.669921875,4726.83984375,-400000.0625,-400000.0625,-400000.0625,-2387.330078125,-400000.0625
168.11853051185608,-400000.0625,-6752.97021484375,4721.31005859375,-400000.0625,-400000.0625,-400000.0625,-2393.8701171875,-400000.0625
168.12718725204468,-400000.0625,-6784.009765625,4689.169921875,-400000.0625,-400000.0625,-400000.0625,-2423.330078125,-400000.0625
168.13897728919983,-400000.0625,-6797.64990234375,4679.5400390625,-400000.0625,-400000.0625,-400000.0625,-2431.14990234375,-400000.0625
168.14767837524414,-400000.0625,-6779.85986328125,4696.1298828125,-400000.0625,-400000.0625,-400000.0625,-2416.7099609375,-400000.0625
168.15586400032043,-400000.0625,-6753.2099609375,4723.4501953125,-400000.0625,-400000.0625,-400000.0625,-2389.2900390625,-400000.0625
168.1723473072052,-400000.0625,-6755.39990234375,4720.8798828125,-400000.0625,-400000.0625,-400000.0625,-2389.530029296875,-400000.0625
168.18195867538452,-400000.0625,-6787.25,4691.7001953125,-400000.0625,-400000.0625,-400000.0625,-2413.800048828125,-400000.0625
168.20926642417908,-400000.0625,-6792.259765625,4683.5400390625,-400000.0625,-400000.0625,-400000.0625,-2420.330078125,-400000.0625
168.21938228607178,-400000.0625,-6777.81005859375,4698.7099609375,-400000.0625,-400000.0625,-400000.0625,-2407.5,-400000.0625
168.2325563430786,-400000.0625,-6756.8798828125,4721.5498046875,-400000.0625,-400000.0625,-400000.0625,-2384.6201171875,-400000.0625
168.24355936050415,-400000.0625,-6761.60009765625,4717.490234375,-400000.0625,-400000.0625,-400000.0625,-2391.47998046875,-400000.0625
168.25206398963928,-400000.0625,-6788.35009765625,4685.5,-400000.0625,-400000.0625,-400000.0625,-2418.949951171875,-400000.0625
168.25965642929077,-400000.0625,-6795.8798828125,4676.8701171875,-400000.0625,-400000.0625,-400000.0625,-2427.820068359375,-400000.0625
168.27154278755188,-400000.0625,-6776.669921875,4698.18017578125,-400000.0625,-400000.0625,-400000.0625,-2416.179931640625,-400000.0625
168.28205704689026,-400000.0625,-6750.97021484375,4727.31982421875,-400000.0625,-400000.0625,-400000.0625,-2386.52001953125,-400000.0625
168.3133146762848,-400000.0625,-6751.490234375,4725.5498046875,-400000.0625,-400000.0625,-400000.0625,-2383.280029296875,-400000.0625
168.32233595848083,-400000.0625,-6779.240234375,4696.66015625,-400000.0625,-400000.0625,-400000.0625,-2406.68994140625,-400000.0625
168.33910369873047,-400000.0625,-6783.490234375,4688.60009765625,-400000.0625,-400000.0625,-400000.0625,-2413.56005859375,-400000.0625
168.351416349411,-400000.0625,-6773.81005859375,4696.89013671875,-400000.0625,-400000.0625,-400000.0625,-2403.8798828125,-400000.0625
168.36216187477112,-400000.0625,-6750.06005859375,4720.64013671875,-400000.0625,-400000.0625,-400000.0625,-2380.179931640625,-400000.0625
168.3730592727661,-400000.0625,-6751.68017578125,4719.35009765625,-400000.0625,-400000.0625,-400000.0625,-2384.18994140625,-400000.0625
168.3819661140442,-400000.0625,-6781.25,4691.509765625,-400000.0625,-400000.0625,-400000.0625,-2411.64990234375,-400000.0625
168.38982939720154,-400000.0625,-6798.7900390625,4676.490234375,-400000.0625,-400000.0625,-400000.0625,-2421.469970703125,-400000.0625
168.42031812667847,-400000.0625,-6779.240234375,4695.22998046875,-400000.0625,-400000.0625,-400000.0625,-2407.219970703125,-400000.0625
168.42969059944153,-400000.0625,-6747.52978515625,4725.35986328125,-400000.0625,-400000.0625,-400000.0625,-2381.22998046875,-400000.0625
168.44323205947876,-400000.0625,-6749.43994140625,4723.83984375,-400000.0625,-400000.0625,-400000.0625,-2385.239990234375,-400000.0625
168.453369140625,-400000.0625,-6778.0,4692.56005859375,-400000.0625,-400000.0625,-400000.0625,-2412.510009765625,-400000.0625
168.46805238723755,-400000.0625,-6788.2998046875,4681.8701171875,-400000.0625,-400000.0625,-400000.0625,-2416.22998046875,-400000.0625
168.47849869728088,-400000.0625,-6772.85009765625,4698.27978515625,-400000.0625,-400000.0625,-400000.0625,-2400.06005859375,-400000.0625
168.48773741722107,-400000.0625,-6753.06005859375,4720.740234375,-400000.0625,-400000.0625,-400000.0625,-2383.800048828125,-400000.0625
168.49777483940125,-400000.0625,-6760.169921875,4715.43994140625,-400000.0625,-400000.0625,-400000.0625,-2388.429931640625,-400000.0625
168.529278755188,-400000.0625,-6785.2001953125,4686.02001953125,-400000.0625,-400000.0625,-400000.0625,-2411.889892578125,-400000.0625
168.53950834274292,-400000.0625,-6789.16015625,4680.25,-400000.0625,-400000.0625,-400000.0625,-2417.179931640625,-400000.0625
168.5486879348755,-400000.0625,-6773.89990234375,4699.0400390625,-400000.0625,-400000.0625,-400000.0625,-2402.590087890625,-400000.0625
168.55751132965088,-400000.0625,-6751.97021484375,4727.41015625,-400000.0625,-400000.0625,-400000.0625,-2377.4599609375,-400000.0625
168.56909942626953,-400000.0625,-6754.58984375,4722.169921875,-400000.0625,-400000.0625,-400000.0625,-2379.75,-400000.0625
168.5786211490631,-400000.0625,-6780.33984375,4693.64990234375,-400000.0625,-400000.0625,-400000.0625,-2404.7900390625,-400000.0625
168.58766055107117,-400000.0625,-6785.77978515625,4685.8798828125,-400000.0625,-400000.0625,-400000.0625,-2410.510009765625,-400000.0625
168.5971555709839,-400000.0625,-6775.43017578125,4699.27978515625,-400000.0625,-400000.0625,-400000.0625,-2396.25,-400000.0625
168.6142258644104,-400000.0625,-6755.8798828125,4722.02001953125,-400000.0625,-400000.0625,-400000.0625,-2376.60009765625,-400000.0625
168.64184761047363,-400000.0625,-6765.18017578125,4715.16015625,-400000.0625,-400000.0625,-400000.0625,-2383.419921875,-400000.0625
168.65111637115479,-400000.0625,-6786.58984375,4686.740234375,-400000.0625,-400000.0625,-400000.0625,-2407.169921875,-400000.0625
168.65956282615662,-400000.0625,-6792.06982421875,4681.39990234375,-400000.0625,-400000.0625,-400000.0625,-2415.7099609375,-400000.0625
168.67110872268677,-400000.0625,-6776.18994140625,4698.27978515625,-400000.0625,-400000.0625,-400000.0625,-2401.2099609375,-400000.0625
168.6805341243744,-400000.0625,-6752.2998046875,4724.169921875,-400000.0625,-400000.0625,-400000.0625,-2373.5,-400000.0625
168.69052290916443,-400000.0625,-6753.06005859375,4722.41015625,-400000.0625,-400000.0625,-400000.0625,-2376.219970703125,-400000.0625
168.70061898231506,-400000.0625,-6781.0498046875,4688.31005859375,-400000.0625,-400000.0625,-400000.0625,-2408.4599609375,-400000.0625
168.70999002456665,-400000.0625,-6796.02978515625,4674.10009765625,-400000.0625,-400000.0625,-400000.0625,-2417.139892578125,-400000.0625
168.71836924552917,-400000.0625,-6780.91015625,4692.7001953125,-400000.0625,-400000.0625,-400000.0625,-2402.02001953125,-400000.0625
168.744562625885,-400000.0625,-6756.64013671875,4718.10986328125,-400000.0625,-400000.0625,-400000.0625,-2377.800048828125,-400000.0625
168.7527356147766,-400000.0625,-6761.93017578125,4715.39990234375,-400000.0625,-400000.0625,-400000.0625,-2378.179931640625,-400000.0625
168.76145839691162,-400000.0625,-6790.02001953125,4684.06982421875,-400000.0625,-400000.0625,-400000.0625,-2408.64990234375,-400000.0625
168.77311420440674,-400000.0625,-6795.22021484375,4674.669921875,-400000.0625,-400000.0625,-400000.0625,-2416.320068359375,-400000.0625
168.78149890899658,-400000.0625,-6776.18994140625,4692.41015625,-400000.0625,-400000.0625,-400000.0625,-2397.35009765625,-400000.0625
168.78943252563477,-400000.0625,-6748.52978515625,4721.97998046875,-400000.0625,-400000.0625,-400000.0625,-2371.169921875,-400000.0625
168.79992151260376,-400000.0625,-6752.2998046875,4719.72998046875,-400000.0625,-400000.0625,-400000.0625,-2374.510009765625,-400000.0625
168.810551404953,-400000.0625,-6785.580078125,4685.2099609375,-400000.0625,-400000.0625,-400000.0625,-2404.639892578125,-400000.0625
168.8196530342102,-400000.0625,-6795.68994140625,4669.56982421875,-400000.0625,-400000.0625,-400000.0625,-2416.7099609375,-400000.0625
168.84566140174866,-400000.0625,-6785.72998046875,4680.97021484375,-400000.0625,-400000.0625,-400000.0625,-2403.159912109375,-400000.0625
168.8544020652771,-400000.0625,-6769.1298828125,4708.85986328125,-400000.0625,-400000.0625,-400000.0625,-2379.1298828125,-400000.0625
168.86419582366943,-400000.0625,-6771.990234375,4706.0498046875,-400000.0625,-400000.0625,-400000.0625,-2383.52001953125,-400000.0625
168.87434577941895,-400000.0625,-6793.5498046875,4679.6298828125,-400000.0625,-400000.0625,-400000.0625,-2406.070068359375,-400000.0625
168.88287663459778,-400000.0625,-6802.31982421875,4671.2900390625,-400000.0625,-400000.0625,-400000.0625,-2419.659912109375,-400000.0625
168.89049696922302,-400000.0625,-6791.5400390625,4683.5400390625,-400000.0625,-400000.0625,-400000.0625,-2407.360107421875,-400000.0625
168.90135097503662,-400000.0625,-6770.60986328125,4706.33984375,-400000.0625,-400000.0625,-400000.0625,-2384.090087890625,-400000.0625
168.91232085227966,-400000.0625,-6768.7998046875,4708.0,-400000.0625,-400000.0625,-400000.0625,-2387.570068359375,-400000.0625
168.92112255096436,-400000.0625,-6791.77978515625,4681.8701171875,-400000.0625,-400000.0625,-400000.0625,-2410.219970703125,-400000.0625
168.9464840888977,-400000.0625,-6806.14013671875,4666.27978515625,-400000.0625,-400000.0625,-400000.0625,-2421.429931640625,-400000.0625
168.95434832572937,-400000.0625,-6799.64990234375,4677.25,-400000.0625,-400000.0625,-400000.0625,-2412.030029296875,-400000.0625
168.96460843086243,-400000.0625,-6766.89013671875,4711.68017578125,-400000.0625,-400000.0625,-400000.0625,-2382.56005859375,-400000.0625
168.98610973358154,-400000.0625,-6765.4599609375,4712.33984375,-400000.0625,-400000.0625,-400000.0625,-2386.139892578125,-400000.0625
168.9958474636078,-400000.0625,-6800.93994140625,4676.009765625,-400000.0625,-400000.0625,-400000.0625,-2418.3798828125,-400000.0625
169.0096845626831,-400000.0625,-6809.56982421875,4666.759765625,-400000.0625,-400000.0625,-400000.0625,-2426.909912109375,-400000.0625
169.01832127571106,-400000.0625,-6787.009765625,4686.169921875,-400000.0625,-400000.0625,-400000.0625,-2412.409912109375,-400000.0625
169.02639818191528,-400000.0625,-6763.35986328125,4710.8701171875,-400000.0625,-400000.0625,-400000.0625,-2386.89990234375,-400000.0625
169.05359840393066,-400000.0625,-6763.93994140625,4713.72998046875,-400000.0625,-400000.0625,-400000.0625,-2382.760009765625,-400000.0625
169.06201887130737,-400000.0625,-6785.77978515625,4693.60009765625,-400000.0625,-400000.0625,-400000.0625,-2402.070068359375,-400000.0625
169.07247924804688,-400000.0625,-6793.93017578125,4681.16015625,-400000.0625,-400000.0625,-400000.0625,-2414.1298828125,-400000.0625
169.08127808570862,-400000.0625,-6793.1201171875,4683.259765625,-400000.0625,-400000.0625,-400000.0625,-2414.22998046875,-400000.0625
169.08931159973145,-400000.0625,-6774.52001953125,4706.0498046875,-400000.0625,-400000.0625,-400000.0625,-2395.820068359375,-400000.0625
169.09824109077454,-400000.0625,-6773.14013671875,4705.9501953125,-400000.0625,-400000.0625,-400000.0625,-2393.2900390625,-400000.0625
169.11279773712158,-400000.0625,-6794.4501953125,4684.16015625,-400000.0625,-400000.0625,-400000.0625,-2418.090087890625,-400000.0625
169.12230157852173,-400000.0625,-6802.1298828125,4670.81005859375,-400000.0625,-400000.0625,-400000.0625,-2424.9599609375,-400000.0625
169.13111066818237,-400000.0625,-6792.1201171875,4681.97021484375,-400000.0625,-400000.0625,-400000.0625,-2413.080078125,-400000.0625
169.16156649589539,-400000.0625,-6765.56005859375,4714.490234375,-400000.0625,-400000.0625,-400000.0625,-2383.0400390625,-400000.0625
169.1748960018158,-400000.0625,-6759.169921875,4718.58984375,-400000.0625,-400000.0625,-400000.0625,-2378.56005859375,-400000.0625
169.18378853797913,-400000.0625,-6785.009765625,4691.5498046875,-400000.0625,-400000.0625,-400000.0625,-2404.639892578125,-400000.0625
169.1917371749878,-400000.0625,-6806.14013671875,4671.52978515625,-400000.0625,-400000.0625,-400000.0625,-2419.3798828125,-400000.0625
169.20654392242432,-400000.0625,-6795.31005859375,4683.64013671875,-400000.0625,-400000.0625,-400000.0625,-2410.4599609375,-400000.0625
169.2171175479889,-400000.0625,-6765.7001953125,4717.259765625,-400000.0625,-400000.0625,-400000.0625,-2381.179931640625,-400000.0625
169.22515201568604,-400000.0625,-6761.27001953125,4717.2998046875,-400000.0625,-400000.0625,-400000.0625,-2379.889892578125,-400000.0625
169.2379286289215,-400000.0625,-6788.58984375,4686.06982421875,-400000.0625,-400000.0625,-400000.0625,-2409.219970703125,-400000.0625
169.26300811767578,-400000.0625,-6797.4599609375,4673.43017578125,-400000.0625,-400000.0625,-400000.0625,-2421.280029296875,-400000.0625
169.27439403533936,-400000.0625,-6786.68017578125,4688.68994140625,-400000.0625,-400000.0625,-400000.0625,-2405.360107421875,-400000.0625
169.28311777114868,-400000.0625,-6756.16015625,4720.16015625,-400000.0625,-400000.0625,-400000.0625,-2375.320068359375,-400000.0625
169.29107928276062,-400000.0625,-6762.64990234375,4716.72998046875,-400000.0625,-400000.0625,-400000.0625,-2379.22998046875,-400000.0625
169.30225086212158,-400000.0625,-6791.06982421875,4685.31005859375,-400000.0625,-400000.0625,-400000.0625,-2411.64990234375,-400000.0625
169.31340384483337,-400000.0625,-6808.81005859375,4666.18994140625,-400000.0625,-400000.0625,-400000.0625,-2422.909912109375,-400000.0625
169.32242274284363,-400000.0625,-6798.7900390625,4674.14990234375,-400000.0625,-400000.0625,-400000.0625,-2416.320068359375,-400000.0625
169.33329272270203,-400000.0625,-6768.56005859375,4710.009765625,-400000.0625,-400000.0625,-400000.0625,-2385.81005859375,-400000.0625
169.343323469162,-400000.0625,-6767.080078125,4713.35009765625,-400000.0625,-400000.0625,-400000.0625,-2379.610107421875,-400000.0625
169.36914610862732,-400000.0625,-6789.39990234375,4685.93017578125,-400000.0625,-400000.0625,-400000.0625,-2403.02001953125,-400000.0625
169.37892317771912,-400000.0625,-6799.7900390625,4675.47998046875,-400000.0625,-400000.0625,-400000.0625,-2412.510009765625,-400000.0625
169.38786506652832,-400000.0625,-6789.97021484375,4690.41015625,-400000.0625,-400000.0625,-400000.0625,-2402.35009765625,-400000.0625
169.39653515815735,-400000.0625,-6766.83984375,4715.10986328125,-400000.0625,-400000.0625,-400000.0625,-2379.699951171875,-400000.0625
169.40734791755676,-400000.0625,-6768.66015625,4712.33984375,-400000.0625,-400000.0625,-400000.0625,-2383.419921875,-400000.0625
169.4170126914978,-400000.0625,-6794.740234375,4681.39990234375,-400000.0625,-400000.0625,-400000.0625,-2410.320068359375,-400000.0625
169.42535710334778,-400000.0625,-6803.93994140625,4672.81005859375,-400000.0625,-400000.0625,-400000.0625,-2418.090087890625,-400000.0625
169.43692088127136,-400000.0625,-6786.16015625,4692.1298828125,-400000.0625,-400000.0625,-400000.0625,-2401.68994140625,-400000.0625
169.44639897346497,-400000.0625,-6765.7998046875,4719.77978515625,-400000.0625,-400000.0625,-400000.0625,-2373.64990234375,-400000.0625
169.47534465789795,-400000.0625,-6765.56005859375,4716.830078125,-400000.0625,-400000.0625,-400000.0625,-2375.699951171875,-400000.0625
169.48371362686157,-400000.0625,-6786.43994140625,4686.02001953125,-400000.0625,-400000.0625,-400000.0625,-2402.929931640625,-400000.0625
169.49140763282776,-400000.0625,-6801.89013671875,4674.240234375,-400000.0625,-400000.0625,-400000.0625,-2409.889892578125,-400000.0625
169.5038604736328,-400000.0625,-6785.06005859375,4694.18017578125,-400000.0625,-400000.0625,-400000.0625,-2396.72998046875,-400000.0625
169.5144464969635,-400000.0625,-6757.68994140625,4721.93017578125,-400000.0625,-400000.0625,-400000.0625,-2376.510009765625,-400000.0625
169.52302885055542,-400000.0625,-6760.5498046875,4722.8798828125,-400000.0625,-400000.0625,-400000.0625,-2377.080078125,-400000.0625
169.53803086280823,-400000.0625,-6783.06005859375,4696.7001953125,-400000.0625,-400000.0625,-400000.0625,-2402.639892578125,-400000.0625
169.54737091064453,-400000.0625,-6790.39990234375,4684.72998046875,-400000.0625,-400000.0625,-400000.0625,-2410.56005859375,-400000.0625
169.57712030410767,-400000.0625,-6782.47998046875,4697.56005859375,-400000.0625,-400000.0625,-400000.0625,-2398.06005859375,-400000.0625
169.5853180885315,-400000.0625,-6753.5400390625,4728.83984375,-400000.0625,-400000.0625,-400000.0625,-2370.929931640625,-400000.0625
169.59297251701355,-400000.0625,-6755.31005859375,4726.31982421875,-400000.0625,-400000.0625,-400000.0625,-2375.56005859375,-400000.0625
169.60560083389282,-400000.0625,-6787.009765625,4694.02978515625,-400000.0625,-400000.0625,-400000.0625,-2403.2099609375,-400000.0625
169.61428833007812,-400000.0625,-6808.7099609375,4672.85986328125,-400000.0625,-400000.0625,-400000.0625,-2414.080078125,-400000.0625
169.622474193573,-400000.0625,-6794.8798828125,4686.259765625,-400000.0625,-400000.0625,-400000.0625,-2403.2099609375,-400000.0625
169.63739323616028,-400000.0625,-6760.31005859375,4718.97021484375,-400000.0625,-400000.0625,-400000.0625,-2375.080078125,-400000.0625
169.64579105377197,-400000.0625,-6754.830078125,4722.31005859375,-400000.0625,-400000.0625,-400000.0625,-2366.39990234375,-400000.0625
169.65405654907227,-400000.0625,-6788.5400390625,4691.41015625,-400000.0625,-400000.0625,-400000.0625,-2398.2099609375,-400000.0625
169.68256068229675,-400000.0625,-6799.64990234375,4676.490234375,-400000.0625,-400000.0625,-400000.0625,-2409.510009765625,-400000.0625
169.69080018997192,-400000.0625,-6784.72998046875,4689.41015625,-400000.0625,-400000.0625,-400000.0625,-2396.43994140625,-400000.0625
169.70635271072388,-400000.0625,-6751.490234375,4726.740234375,-400000.0625,-400000.0625,-400000.0625,-2369.97998046875,-400000.0625
169.7150797843933,-400000.0625,-6758.06982421875,4725.740234375,-400000.0625,-400000.0625,-400000.0625,-2371.64990234375,-400000.0625
169.72323846817017,-400000.0625,-6791.35009765625,4689.259765625,-400000.0625,-400000.0625,-400000.0625,-2403.639892578125,-400000.0625
169.73357319831848,-400000.0625,-6800.75,4678.2001953125,-400000.0625,-400000.0625,-400000.0625,-2413.85009765625,-400000.0625
169.7445273399353,-400000.0625,-6785.25,4697.7998046875,-400000.0625,-400000.0625,-400000.0625,-2398.2099609375,-400000.0625
169.75376224517822,-400000.0625,-6755.68994140625,4725.64990234375,-400000.0625,-400000.0625,-400000.0625,-2375.080078125,-400000.0625
169.76595664024353,-400000.0625,-6760.31005859375,4719.93017578125,-400000.0625,-400000.0625,-400000.0625,-2375.699951171875,-400000.0625
169.78880643844604,-400000.0625,-6788.68017578125,4689.169921875,-400000.0625,-400000.0625,-400000.0625,-2403.780029296875,-400000.0625
169.80196452140808,-400000.0625,-6799.02978515625,4675.39013671875,-400000.0625,-400000.0625,-400000.0625,-2417.989990234375,-400000.0625
169.81206393241882,-400000.0625,-6788.830078125,4687.93017578125,-400000.0625,-400000.0625,-400000.0625,-2401.969970703125,-400000.0625
169.82064080238342,-400000.0625,-6763.02978515625,4715.97021484375,-400000.0625,-400000.0625,-400000.0625,-2374.219970703125,-400000.0625
169.8297028541565,-400000.0625,-6764.83984375,4715.10986328125,-400000.0625,-400000.0625,-400000.0625,-2379.1298828125,-400000.0625
169.839417219162,-400000.0625,-6787.39990234375,4688.41015625,-400000.0625,-400000.0625,-400000.0625,-2402.449951171875,-400000.0625
169.84761428833008,-400000.0625,-6800.4599609375,4675.580078125,-400000.0625,-400000.0625,-400000.0625,-2411.320068359375,-400000.0625
169.85614824295044,-400000.0625,-6794.02001953125,4685.1201171875,-400000.0625,-400000.0625,-400000.0625,-2403.929931640625,-400000.0625
169.87347507476807,-400000.0625,-6766.27001953125,4714.6298828125,-400000.0625,-400000.0625,-400000.0625,-2378.080078125,-400000.0625
169.89591789245605,-400000.0625,-6763.41015625,4713.580078125,-400000.0625,-400000.0625,-400000.0625,-2380.22998046875,-400000.0625
169.90829968452454,-400000.0625,-6793.1201171875,4683.5400390625,-400000.0625,-400000.0625,-400000.0625,-2404.68994140625,-400000.0625
169.91755318641663,-400000.0625,-6801.1298828125,4675.9599609375,-400000.0625,-400000.0625,-400000.0625,-2409.360107421875,-400000.0625
169.9253740310669,-400000.0625,-6779.39013671875,4696.66015625,-400000.0625,-400000.0625,-400000.0625,-2393.580078125,-400000.0625
169.93766736984253,-400000.0625,-6756.77978515625,4723.35986328125,-400000.0625,-400000.0625,-400000.0625,-2375.93994140625,-400000.0625
169.94616031646729,-400000.0625,-6765.64990234375,4713.97021484375,-400000.0625,-400000.0625,-400000.0625,-2385.429931640625,-400000.0625
169.95410704612732,-400000.0625,-6795.4501953125,4682.16015625,-400000.0625,-400000.0625,-400000.0625,-2414.179931640625,-400000.0625
169.96713995933533,-400000.0625,-6808.0,4671.240234375,-400000.0625,-400000.0625,-400000.0625,-2424.530029296875,-400000.0625
169.99235081672668,-400000.0625,-6887.6298828125,4641.81982421875,-400000.0625,-400000.0625,-400000.0625,-2451.3701171875,-400000.0625
169.99239039421082,-400000.0625,-6855.2998046875,4678.5400390625,-400000.0625,-400000.0625,-400000.0625,-2420.280029296875,-400000.0625
169.99240159988403,-400000.0625,-6841.60986328125,4693.1298828125,-400000.0625,-400000.0625,-400000.0625,-2407.929931640625,-400000.0625
169.992413520813,-400000.0625,-6873.0400390625,4661.7001953125,-400000.0625,-400000.0625,-400000.0625,-2436.39990234375,-400000.0625
169.99242424964905,-400000.0625,-6898.4501953125,4634.0498046875,-400000.0625,-400000.0625,-400000.0625,-2466.010009765625,-400000.0625
169.99243330955505,-400000.0625,-6899.169921875,4634.7099609375,-400000.0625,-400000.0625,-400000.0625,-2462.43994140625,-400000.0625
169.99243998527527,-400000.0625,-6878.330078125,4661.990234375,-400000.0625,-400000.0625,-400000.0625,-2435.110107421875,-400000.0625
169.99244618415833,-400000.0625,-6858.4501953125,4681.06005859375,-400000.0625,-400000.0625,-400000.0625,-2421.7099609375,-400000.0625
169.99245262145996,-400000.0625,-6876.22998046875,4659.41015625,-400000.0625,-400000.0625,-400000.0625,-2437.72998046875,-400000.0625
169.99245977401733,-400000.0625,-6900.22021484375,4632.3798828125,-400000.0625,-400000.0625,-400000.0625,-2458.719970703125,-400000.0625
169.9924669265747,-400000.0625,-6884.33984375,4644.58984375,-400000.0625,-400000.0625,-400000.0625,-2447.56005859375,-400000.0625
169.99247431755066,-400000.0625,-6857.009765625,4675.9599609375,-400000.0625,-400000.0625,-400000.0625,-2423.330078125,-400000.0625
169.99248147010803,-400000.0625,-6851.33984375,4683.97021484375,-400000.0625,-400000.0625,-400000.0625,-2415.419921875,-400000.0625
169.9924898147583,-400000.0625,-6868.27001953125,4660.60986328125,-400000.0625,-400000.0625,-400000.0625,-2438.39990234375,-400000.0625
169.99249577522278,-400000.0625,-6891.009765625,4634.7099609375,-400000.0625,-400000.0625,-400000.0625,-2462.580078125,-400000.0625
169.9925022125244,-400000.0625,-6887.52978515625,4642.8701171875,-400000.0625,-400000.0625,-400000.0625,-2455.85009765625,-400000.0625
169.99250888824463,-400000.0625,-6865.5,4669.669921875,-400000.0625,-400000.0625,-400000.0625,-2435.06005859375,-400000.0625
169.99251532554626,-400000.0625,-6853.77001953125,4680.919921875,-400000.0625,-400000.0625,-400000.0625,-2424.18994140625,-400000.0625
169.99252200126648,-400000.0625,-6875.22998046875,4658.7900390625,-400000.0625,-400000.0625,-400000.0625,-2443.1201171875,-400000.0625
169.992529630661,-400000.0625,-6893.72998046875,4634.2900390625,-400000.0625,-400000.0625,-400000.0625,-2462.43994140625,-400000.0625
169.99253630638123,-400000.0625,-6882.2900390625,4645.25,-400000.0625,-400000.0625,-400000.0625,-2448.1298828125,-400000.0625
170.00022077560425,-400000.0625,-6894.2998046875,4659.1298828125,-400000.0625,-400000.0625,-400000.0625,-2435.159912109375,-400000.0625
170.0003318786621,-400000.0625,-6875.27978515625,4679.72998046875,-400000.0625,-400000.0625,-400000.0625,-2419.85009765625,-400000.0625
170.00034141540527,-400000.0625,-6898.169921875,4656.7001953125,-400000.0625,-400000.0625,-400000.0625,-2439.449951171875,-400000.0625
170.00034928321838,-400000.0625,-6921.33984375,4629.89990234375,-400000.0625,-400000.0625,-400000.0625,-2460.429931640625,-400000.0625
170.00035643577576,-400000.0625,-6915.89990234375,4634.0,-400000.0625,-400000.0625,-400000.0625,-2458.239990234375,-400000.0625
170.00036358833313,-400000.0625,-6892.97021484375,4658.990234375,-400000.0625,-400000.0625,-400000.0625,-2438.35009765625,-400000.0625
170.00119519233704,-400000.0625,-6881.14013671875,4673.0,-400000.0625,-400000.0625,-400000.0625,-2422.669921875,-400000.0625
170.00121212005615,-400000.0625,-6919.81005859375,4631.3798828125,-400000.0625,-400000.0625,-400000.0625,-2447.409912109375,-400000.0625
170.00122117996216,-400000.0625,-6943.56005859375,4599.91015625,-400000.0625,-400000.0625,-400000.0625,-2478.4599609375,-400000.0625
170.00122928619385,-400000.0625,-6938.27001953125,4611.2099609375,-400000.0625,-400000.0625,-400000.0625,-2467.06005859375,-400000.0625
170.00123763084412,-400000.0625,-6916.669921875,4637.91015625,-400000.0625,-400000.0625,-400000.0625,-2440.739990234375,-400000.0625
170.0012457370758,-400000.0625,-6907.89013671875,4648.8798828125,-400000.0625,-400000.0625,-400000.0625,-2433.35009765625,-400000.0625
170.00125455856323,-400000.0625,-6924.490234375,4628.7998046875,-400000.0625,-400000.0625,-400000.0625,-2453.760009765625,-400000.0625
170.00126266479492,-400000.0625,-6948.0,4601.9599609375,-400000.0625,-400000.0625,-400000.0625,-2477.4599609375,-400000.0625
170.00127005577087,-400000.0625,-6943.56005859375,4607.8701171875,-400000.0625,-400000.0625,-400000.0625,-2471.830078125,-400000.0625
170.00127696990967,-400000.0625,-6917.759765625,4635.81005859375,-400000.0625,-400000.0625,-400000.0625,-2449.3701171875,-400000.0625
170.00128436088562,-400000.0625,-6899.259765625,4654.5498046875,-400000.0625,-400000.0625,-400000.0625,-2434.780029296875,-400000.0625
170.00129199028015,-400000.0625,-6918.3798828125,4632.14013671875,-400000.0625,-400000.0625,-400000.0625,-2454.949951171875,-400000.0625
170.0012993812561,-400000.0625,-6945.419921875,4603.81982421875,-400000.0625,-400000.0625,-400000.0625,-2481.93994140625,-400000.0625
170.00130701065063,-400000.0625,-6942.27001953125,4610.2998046875,-400000.0625,-400000.0625,-400000.0625,-2474.97998046875,-400000.0625
170.00131464004517,-400000.0625,-6918.52978515625,4637.91015625,-400000.0625,-400000.0625,-400000.0625,-2447.840087890625,-400000.0625
170.00132155418396,-400000.0625,-6897.06982421875,4660.75,-400000.0625,-400000.0625,-400000.0625,-2431.679931640625,-400000.0625
170.00132966041565,-400000.0625,-6915.3798828125,4639.669921875,-400000.0625,-400000.0625,-400000.0625,-2451.93994140625,-400000.0625
170.00133681297302,-400000.0625,-6936.41015625,4612.97021484375,-400000.0625,-400000.0625,-400000.0625,-2475.02001953125,-400000.0625
170.00134468078613,-400000.0625,-6934.5,4614.06982421875,-400000.0625,-400000.0625,-400000.0625,-2470.2099609375,-400000.0625
170.00135231018066,-400000.0625,-6914.56982421875,4636.47998046875,-400000.0625,-400000.0625,-400000.0625,-2448.85009765625,-400000.0625
170.00136017799377,-400000.0625,-6899.06982421875,4655.27001953125,-400000.0625,-400000.0625,-400000.0625,-2434.830078125,-400000.0625
170.00136756896973,-400000.0625,-6912.89990234375,4638.9599609375,-400000.0625,-400000.0625,-400000.0625,-2448.989990234375,-400000.0625
170.00137495994568,-400000.0625,-6938.22021484375,4605.9599609375,-400000.0625,-400000.0625,-400000.0625,-2476.929931640625,-400000.0625
170.00138235092163,-400000.0625,-6935.4501953125,4613.259765625,-400000.0625,-400000.0625,-400000.0625,-2471.39990234375,-400000.0625
170.00139045715332,-400000.0625,-6913.3798828125,4639.669921875,-400000.0625,-400000.0625,-400000.0625,-2450.800048828125,-400000.0625
170.0013976097107,-400000.0625,-6899.830078125,4651.5,-400000.0625,-400000.0625,-400000.0625,-2438.969970703125,-400000.0625
170.00140523910522,-400000.0625,-6916.6201171875,4629.22998046875,-400000.0625,-400000.0625,-400000.0625,-2460.909912109375,-400000.0625
170.00141286849976,-400000.0625,-6943.0400390625,4603.52978515625,-400000.0625,-400000.0625,-400000.0625,-2483.22998046875,-400000.0625
170.0014202594757,-400000.0625,-6939.1298828125,4611.77978515625,-400000.0625,-400000.0625,-400000.0625,-2474.830078125,-400000.0625
170.00142788887024,-400000.0625,-6914.47021484375,4638.0498046875,-400000.0625,-400000.0625,-400000.0625,-2449.93994140625,-400000.0625
170.00143575668335,-400000.0625,-6897.2099609375,4654.5,-400000.0625,-400000.0625,-400000.0625,-2434.639892578125,-400000.0625
170.0014431476593,-400000.0625,-6909.66015625,4637.0498046875,-400000.0625,-400000.0625,-400000.0625,-2451.610107421875,-400000.0625
170.00145077705383,-400000.0625,-6938.509765625,4608.77001953125,-400000.0625,-400000.0625,-400000.0625,-2477.169921875,-400000.0625
170.00145769119263,-400000.0625,-6942.89013671875,4609.919921875,-400000.0625,-400000.0625,-400000.0625,-2471.5400390625,-400000.0625
170.00146484375,-400000.0625,-6919.47998046875,4636.81005859375,-400000.0625,-400000.0625,-400000.0625,-2453.419921875,-400000.0625
170.00147223472595,-400000.0625,-6903.31982421875,4650.259765625,-400000.0625,-400000.0625,-400000.0625,-2443.889892578125,-400000.0625
170.00147938728333,-400000.0625,-6921.580078125,4627.85009765625,-400000.0625,-400000.0625,-400000.0625,-2463.199951171875,-400000.0625
170.00148701667786,-400000.0625,-6944.22998046875,4602.43017578125,-400000.0625,-400000.0625,-400000.0625,-2483.75,-400000.0625
170.0014944076538,-400000.0625,-6932.02001953125,4613.4501953125,-400000.0625,-400000.0625,-400000.0625,-2472.2099609375,-400000.0625
170.00150179862976,-400000.0625,-6907.31982421875,4639.10009765625,-400000.0625,-400000.0625,-400000.0625,-2448.610107421875,-400000.0625
170.00150895118713,-400000.0625,-6894.2099609375,4654.35986328125,-400000.0625,-400000.0625,-400000.0625,-2439.929931640625,-400000.0625
170.0015163421631,-400000.0625,-6913.9501953125,4631.0,-400000.0625,-400000.0625,-400000.0625,-2459.10009765625,-400000.0625
170.00152564048767,-400000.0625,-6941.22021484375,4604.10009765625,-400000.0625,-400000.0625,-400000.0625,-2484.1298828125,-400000.0625
170.00153279304504,-400000.0625,-6937.35986328125,4611.06005859375,-400000.0625,-400000.0625,-400000.0625,-2471.830078125,-400000.0625
170.001540184021,-400000.0625,-6915.759765625,4632.3798828125,-400000.0625,-400000.0625,-400000.0625,-2452.3701171875,-400000.0625
170.00154733657837,-400000.0625,-6900.64990234375,4647.68017578125,-400000.0625,-400000.0625,-400000.0625,-2440.60009765625,-400000.0625
170.00155448913574,-400000.0625,-6916.43017578125,4632.18994140625,-400000.0625,-400000.0625,-400000.0625,-2458.330078125,-400000.0625
170.00156164169312,-400000.0625,-6943.080078125,4603.580078125,-400000.0625,-400000.0625,-400000.0625,-2482.4599609375,-400000.0625
170.00156831741333,-400000.0625,-6942.990234375,4604.52978515625,-400000.0625,-400000.0625,-400000.0625,-2472.72998046875,-400000.0625
170.00157618522644,-400000.0625,-6924.10986328125,4624.080078125,-400000.0625,-400000.0625,-400000.0625,-2457.2900390625,-400000.0625
170.00158309936523,-400000.0625,-6912.52001953125,4639.6298828125,-400000.0625,-400000.0625,-400000.0625,-2445.7900390625,-400000.0625
170.0015904903412,-400000.0625,-6928.72998046875,4623.080078125,-400000.0625,-400000.0625,-400000.0625,-2459.239990234375,-400000.0625
170.00159764289856,-400000.0625,-6952.18994140625,4595.7099609375,-400000.0625,-400000.0625,-400000.0625,-2484.85009765625,-400000.0625
170.00160455703735,-400000.0625,-6944.419921875,4601.6201171875,-400000.0625,-400000.0625,-400000.0625,-2482.3701171875,-400000.0625
170.00161170959473,-400000.0625,-6922.06005859375,4629.14013671875,-400000.0625,-400000.0625,-400000.0625,-2456.18994140625,-400000.0625
170.00161910057068,-400000.0625,-6903.4599609375,4646.8701171875,-400000.0625,-400000.0625,-400000.0625,-2440.8798828125,-400000.0625
170.0016257762909,-400000.0625,-6921.39013671875,4628.330078125,-400000.0625,-400000.0625,-400000.0625,-2454.7099609375,-400000.0625
170.001633644104,-400000.0625,-6951.52001953125,4596.3798828125,-400000.0625,-400000.0625,-400000.0625,-2479.169921875,-400000.0625
170.0016405582428,-400000.0625,-6948.759765625,4600.2900390625,-400000.0625,-400000.0625,-400000.0625,-2475.31005859375,-400000.0625
170.0016474723816,-400000.0625,-6928.97021484375,4623.56005859375,-400000.0625,-400000.0625,-400000.0625,-2458.330078125,-400000.0625
170.00165438652039,-400000.0625,-6911.3701171875,4641.580078125,-400000.0625,-400000.0625,-400000.0625,-2445.93994140625,-400000.0625
170.00166201591492,-400000.0625,-6930.2099609375,4620.1201171875,-400000.0625,-400000.0625,-400000.0625,-2463.10009765625,-400000.0625
170.00166940689087,-400000.0625,-6957.8701171875,4590.7998046875,-400000.0625,-400000.0625,-400000.0625,-2485.85009765625,-400000.0625
170.00167655944824,-400000.0625,-6950.52001953125,4596.0400390625,-400000.0625,-400000.0625,-400000.0625,-2478.27001953125,-400000.0625
170.00168323516846,-400000.0625,-6926.35009765625,4622.56005859375,-400000.0625,-400000.0625,-400000.0625,-2451.93994140625,-400000.0625
170.00169038772583,-400000.0625,-6907.02978515625,4643.39013671875,-400000.0625,-400000.0625,-400000.0625,-2433.39990234375,-400000.0625
170.00169777870178,-400000.0625,-6918.56982421875,4628.18017578125,-400000.0625,-400000.0625,-400000.0625,-2449.56005859375,-400000.0625
170.00170469284058,-400000.0625,-6944.22998046875,4601.669921875,-400000.0625,-400000.0625,-400000.0625,-2474.5,-400000.0625
170.0017123222351,-400000.0625,-6946.990234375,4602.52978515625,-400000.0625,-400000.0625,-400000.0625,-2474.550048828125,-400000.0625
170.0017192363739,-400000.0625,-6928.2998046875,4622.509765625,-400000.0625,-400000.0625,-400000.0625,-2457.860107421875,-400000.0625
170.001727104187,-400000.0625,-6911.85009765625,4637.669921875,-400000.0625,-400000.0625,-400000.0625,-2444.550048828125,-400000.0625
170.00173425674438,-400000.0625,-6925.77001953125,4624.64990234375,-400000.0625,-400000.0625,-400000.0625,-2459.860107421875,-400000.0625
170.00174164772034,-400000.0625,-6950.56982421875,4596.0400390625,-400000.0625,-400000.0625,-400000.0625,-2485.56005859375,-400000.0625
170.00174856185913,-400000.0625,-6944.89990234375,4598.43017578125,-400000.0625,-400000.0625,-400000.0625,-2478.27001953125,-400000.0625
170.0017557144165,-400000.0625,-6918.52978515625,4627.18017578125,-400000.0625,-400000.0625,-400000.0625,-2454.7099609375,-400000.0625
170.00176310539246,-400000.0625,-6893.830078125,4654.5498046875,-400000.0625,-400000.0625,-400000.0625,-2435.72998046875,-400000.0625
170.0017704963684,-400000.0625,-6914.89990234375,4632.56982421875,-400000.0625,-400000.0625,-400000.0625,-2451.93994140625,-400000.0625
170.00177836418152,-400000.0625,-6943.66015625,4602.85986328125,-400000.0625,-400000.0625,-400000.0625,-2477.97998046875,-400000.0625
170.0017855167389,-400000.0625,-6939.4599609375,4605.81982421875,-400000.0625,-400000.0625,-400000.0625,-2478.409912109375,-400000.0625
170.001793384552,-400000.0625,-6919.580078125,4630.330078125,-400000.0625,-400000.0625,-400000.0625,-2455.760009765625,-400000.0625
170.0018002986908,-400000.0625,-6907.990234375,4643.43994140625,-400000.0625,-400000.0625,-400000.0625,-2445.75,-400000.0625
170.0018072128296,-400000.0625,-6923.6298828125,4625.75,-400000.0625,-400000.0625,-400000.0625,-2464.8701171875,-400000.0625
170.00181436538696,-400000.0625,-6948.9501953125,4598.89990234375,-400000.0625,-400000.0625,-400000.0625,-2489.330078125,-400000.0625
170.00182151794434,-400000.0625,-6949.0400390625,4603.33984375,-400000.0625,-400000.0625,-400000.0625,-2481.219970703125,-400000.0625
170.00182843208313,-400000.0625,-6920.77001953125,4631.89990234375,-400000.0625,-400000.0625,-400000.0625,-2456.469970703125,-400000.0625
170.0018355846405,-400000.0625,-6894.68017578125,4651.64013671875,-400000.0625,-400000.0625,-400000.0625,-2440.639892578125,-400000.0625
170.0018424987793,-400000.0625,-6909.47021484375,4633.6201171875,-400000.0625,-400000.0625,-400000.0625,-2456.7099609375,-400000.0625
170.00184965133667,-400000.0625,-6938.93994140625,4606.6298828125,-400000.0625,-400000.0625,-400000.0625,-2482.030029296875,-400000.0625
170.00185656547546,-400000.0625,-6935.41015625,4610.58984375,-400000.0625,-400000.0625,-400000.0625,-2482.610107421875,-400000.0625
170.00186347961426,-400000.0625,-6906.4599609375,4637.33984375,-400000.0625,-400000.0625,-400000.0625,-2459.10009765625,-400000.0625
170.00187039375305,-400000.0625,-6895.259765625,4648.72998046875,-400000.0625,-400000.0625,-400000.0625,-2444.699951171875,-400000.0625
170.001877784729,-400000.0625,-6910.89990234375,4633.27978515625,-400000.0625,-400000.0625,-400000.0625,-2456.239990234375,-400000.0625
170.00188517570496,-400000.0625,-6935.97998046875,4604.9599609375,-400000.0625,-400000.0625,-400000.0625,-2478.889892578125,-400000.0625
170.00189232826233,-400000.0625,-6930.58984375,4609.5400390625,-400000.0625,-400000.0625,-400000.0625,-2475.070068359375,-400000.0625
170.0018994808197,-400000.0625,-6913.419921875,4634.56982421875,-400000.0625,-400000.0625,-400000.0625,-2456.52001953125,-400000.0625
170.00190663337708,-400000.0625,-6896.35009765625,4649.93017578125,-400000.0625,-400000.0625,-400000.0625,-2439.169921875,-400000.0625
170.00191378593445,-400000.0625,-6912.18017578125,4629.3701171875,-400000.0625,-400000.0625,-400000.0625,-2456.89990234375,-400000.0625
170.00192070007324,-400000.0625,-6940.4599609375,4601.56982421875,-400000.0625,-400000.0625,-400000.0625,-2482.3701171875,-400000.0625
170.00192761421204,-400000.0625,-6936.5498046875,4606.6298828125,-400000.0625,-400000.0625,-400000.0625,-2477.550048828125,-400000.0625
170.00193691253662,-400000.0625,-6917.56982421875,4630.52001953125,-400000.0625,-400000.0625,-400000.0625,-2456.669921875,-400000.0625
170.001944065094,-400000.0625,-6896.259765625,4650.1201171875,-400000.0625,-400000.0625,-400000.0625,-2440.97998046875,-400000.0625
170.00195145606995,-400000.0625,-6912.0400390625,4634.14013671875,-400000.0625,-400000.0625,-400000.0625,-2453.659912109375,-400000.0625
170.00195837020874,-400000.0625,-6939.64990234375,4602.85986328125,-400000.0625,-400000.0625,-400000.0625,-2479.889892578125,-400000.0625
170.0019657611847,-400000.0625,-6933.259765625,4605.06005859375,-400000.0625,-400000.0625,-400000.0625,-2474.739990234375,-400000.0625
170.00197315216064,-400000.0625,-6909.47021484375,4632.66015625,-400000.0625,-400000.0625,-400000.0625,-2452.610107421875,-400000.0625
170.00198006629944,-400000.0625,-6898.35986328125,4649.259765625,-400000.0625,-400000.0625,-400000.0625,-2439.7900390625,-400000.0625
170.00198888778687,-400000.0625,-6921.240234375,4629.27978515625,-400000.0625,-400000.0625,-400000.0625,-2457.52001953125,-400000.0625
170.00199604034424,-400000.0625,-6946.7099609375,4602.0498046875,-400000.0625,-400000.0625,-400000.0625,-2482.27001953125,-400000.0625
170.00200366973877,-400000.0625,-6938.169921875,4609.06005859375,-400000.0625,-400000.0625,-400000.0625,-2476.449951171875,-400000.0625
170.0020112991333,-400000.0625,-6914.0400390625,4636.47998046875,-400000.0625,-400000.0625,-400000.0625,-2453.469970703125,-400000.0625
170.0020191669464,-400000.0625,-6898.97998046875,4650.35009765625,-400000.0625,-400000.0625,-400000.0625,-2442.169921875,-400000.0625
170.00202679634094,-400000.0625,-6915.7099609375,4628.66015625,-400000.0625,-400000.0625,-400000.0625,-2461.14990234375,-400000.0625
170.00203371047974,-400000.0625,-6942.31982421875,4602.33984375,-400000.0625,-400000.0625,-400000.0625,-2482.889892578125,-400000.0625
170.0020408630371,-400000.0625,-6937.02978515625,4609.06005859375,-400000.0625,-400000.0625,-400000.0625,-2482.3701171875,-400000.0625
170.00204801559448,-400000.0625,-6920.91015625,4628.52001953125,-400000.0625,-400000.0625,-400000.0625,-2462.669921875,-400000.0625
170.00205516815186,-400000.0625,-6902.5498046875,4647.5400390625,-400000.0625,-400000.0625,-400000.0625,-2443.360107421875,-400000.0625
170.0020625591278,-400000.0625,-6919.10009765625,4629.0400390625,-400000.0625,-400000.0625,-400000.0625,-2458.81005859375,-400000.0625
170.00206971168518,-400000.0625,-6945.93994140625,4601.240234375,-400000.0625,-400000.0625,-400000.0625,-2481.889892578125,-400000.0625
170.00207662582397,-400000.0625,-6936.740234375,4605.47998046875,-400000.0625,-400000.0625,-400000.0625,-2475.8798828125,-400000.0625
170.00208377838135,-400000.0625,-6918.33984375,4631.22998046875,-400000.0625,-400000.0625,-400000.0625,-2455.570068359375,-400000.0625
170.00209164619446,-400000.0625,-6908.22998046875,4645.8701171875,-400000.0625,-400000.0625,-400000.0625,-2442.68994140625,-400000.0625
170.00210332870483,-400000.0625,-6924.25,4627.89990234375,-400000.0625,-400000.0625,-400000.0625,-2459.860107421875,-400000.0625
170.0021104812622,-400000.0625,-6952.240234375,4600.43017578125,-400000.0625,-400000.0625,-400000.0625,-2487.139892578125,-400000.0625
170.00211763381958,-400000.0625,-6954.43017578125,4601.56982421875,-400000.0625,-400000.0625,-400000.0625,-2479.60009765625,-400000.0625
170.00212478637695,-400000.0625,-6923.14990234375,4628.18017578125,-400000.0625,-400000.0625,-400000.0625,-2457.3798828125,-400000.0625
170.00213193893433,-400000.0625,-6903.740234375,4646.35009765625,-400000.0625,-400000.0625,-400000.0625,-2444.169921875,-400000.0625
170.00213885307312,-400000.0625,-6920.39013671875,4629.52001953125,-400000.0625,-400000.0625,-400000.0625,-2460.18994140625,-400000.0625
170.0021460056305,-400000.0625,-6949.85009765625,4597.81005859375,-400000.0625,-400000.0625,-400000.0625,-2486.179931640625,-400000.0625
170.00215315818787,-400000.0625,-6948.66015625,4600.759765625,-400000.0625,-400000.0625,-400000.0625,-2480.64990234375,-400000.0625
170.00216031074524,-400000.0625,-6927.81982421875,4625.1298828125,-400000.0625,-400000.0625,-400000.0625,-2459.18994140625,-400000.0625
170.00216722488403,-400000.0625,-6911.08984375,4641.580078125,-400000.0625,-400000.0625,-400000.0625,-2442.1201171875,-400000.0625
170.0021743774414,-400000.0625,-6915.9501953125,4631.419921875,-400000.0625,-400000.0625,-400000.0625,-2453.469970703125,-400000.0625
170.0021812915802,-400000.0625,-6944.89990234375,4603.2001953125,-400000.0625,-400000.0625,-400000.0625,-2481.3701171875,-400000.0625
170.00218868255615,-400000.0625,-6943.0400390625,4606.43994140625,-400000.0625,-400000.0625,-400000.0625,-2477.60009765625,-400000.0625
170.00219583511353,-400000.0625,-6920.39013671875,4631.81005859375,-400000.0625,-400000.0625,-400000.0625,-2459.239990234375,-400000.0625
170.00220274925232,-400000.0625,-6909.3701171875,4643.5400390625,-400000.0625,-400000.0625,-400000.0625,-2446.64990234375,-400000.0625
170.0022099018097,-400000.0625,-6925.919921875,4624.60986328125,-400000.0625,-400000.0625,-400000.0625,-2461.050048828125,-400000.0625
170.0022168159485,-400000.0625,-6948.60986328125,4598.669921875,-400000.0625,-400000.0625,-400000.0625,-2486.659912109375,-400000.0625
170.00222373008728,-400000.0625,-6945.47021484375,4601.18994140625,-400000.0625,-400000.0625,-400000.0625,-2480.7900390625,-400000.0625
170.0022313594818,-400000.0625,-6924.43994140625,4624.02978515625,-400000.0625,-400000.0625,-400000.0625,-2458.239990234375,-400000.0625
170.0022382736206,-400000.0625,-6905.02978515625,4643.580078125,-400000.0625,-400000.0625,-400000.0625,-2444.1201171875,-400000.0625
170.00224494934082,-400000.0625,-6921.6298828125,4625.419921875,-400000.0625,-400000.0625,-400000.0625,-2460.2900390625,-400000.0625
170.0022521018982,-400000.0625,-6945.7998046875,4596.6201171875,-400000.0625,-400000.0625,-400000.0625,-2483.889892578125,-400000.0625
170.00225925445557,-400000.0625,-6945.56005859375,4599.52001953125,-400000.0625,-400000.0625,-400000.0625,-2483.85009765625,-400000.0625
170.00226616859436,-400000.0625,-6921.669921875,4628.22998046875,-400000.0625,-400000.0625,-400000.0625,-2458.81005859375,-400000.0625
170.00227332115173,-400000.0625,-6906.41015625,4645.009765625,-400000.0625,-400000.0625,-400000.0625,-2444.080078125,-400000.0625
170.00228023529053,-400000.0625,-6921.10009765625,4628.330078125,-400000.0625,-400000.0625,-400000.0625,-2461.0,-400000.0625
170.00228714942932,-400000.0625,-6945.1298828125,4599.52001953125,-400000.0625,-400000.0625,-400000.0625,-2483.85009765625,-400000.0625
170.0022943019867,-400000.0625,-6942.22998046875,4600.18994140625,-400000.0625,-400000.0625,-400000.0625,-2481.4599609375,-400000.0625
170.0023012161255,-400000.0625,-6918.2900390625,4626.56005859375,-400000.0625,-400000.0625,-400000.0625,-2461.0,-400000.0625
170.00230813026428,-400000.0625,-6903.22021484375,4643.39013671875,-400000.0625,-400000.0625,-400000.0625,-2444.1201171875,-400000.0625
170.00231504440308,-400000.0625,-6921.240234375,4624.75,-400000.0625,-400000.0625,-400000.0625,-2461.530029296875,-400000.0625
170.00232219696045,-400000.0625,-6943.56005859375,4600.2900390625,-400000.0625,-400000.0625,-400000.0625,-2485.0400390625,-400000.0625
170.00232934951782,-400000.0625,-6939.56005859375,4603.77001953125,-400000.0625,-400000.0625,-400000.0625,-2480.75,-400000.0625
170.00233626365662,-400000.0625,-6920.2001953125,4625.419921875,-400000.0625,-400000.0625,-400000.0625,-2459.239990234375,-400000.0625
170.0023431777954,-400000.0625,-6901.93017578125,4645.10986328125,-400000.0625,-400000.0625,-400000.0625,-2445.64990234375,-400000.0625
170.00235033035278,-400000.0625,-6915.52001953125,4628.3701171875,-400000.0625,-400000.0625,-400000.0625,-2455.81005859375,-400000.0625
170.00235748291016,-400000.0625,-6938.02978515625,4601.81005859375,-400000.0625,-400000.0625,-400000.0625,-2474.590087890625,-400000.0625
170.00236439704895,-400000.0625,-6938.83984375,4604.240234375,-400000.0625,-400000.0625,-400000.0625,-2473.590087890625,-400000.0625
170.00237131118774,-400000.0625,-6916.669921875,4628.7998046875,-400000.0625,-400000.0625,-400000.0625,-2453.659912109375,-400000.0625
170.00237894058228,-400000.0625,-6905.1298828125,4644.06005859375,-400000.0625,-400000.0625,-400000.0625,-2436.72998046875,-400000.0625
170.00238585472107,-400000.0625,-6918.72021484375,4627.22998046875,-400000.0625,-400000.0625,-400000.0625,-2454.330078125,-400000.0625
170.00239300727844,-400000.0625,-6950.6201171875,4592.56005859375,-400000.0625,-400000.0625,-400000.0625,-2490.81005859375,-400000.0625
170.00240015983582,-400000.0625,-6949.7099609375,4594.7099609375,-400000.0625,-400000.0625,-400000.0625,-2487.989990234375,-400000.0625
170.00240755081177,-400000.0625,-6921.77001953125,4624.89013671875,-400000.0625,-400000.0625,-400000.0625,-2457.570068359375,-400000.0625
170.00241470336914,-400000.0625,-6899.31005859375,4646.68017578125,-400000.0625,-400000.0625,-400000.0625,-2439.830078125,-400000.0625
170.0024218559265,-400000.0625,-6918.2900390625,4627.47021484375,-400000.0625,-400000.0625,-400000.0625,-2458.909912109375,-400000.0625
170.0024287700653,-400000.0625,-6950.08984375,4593.56005859375,-400000.0625,-400000.0625,-400000.0625,-2486.52001953125,-400000.0625
170.00243616104126,-400000.0625,-6948.81005859375,4595.7998046875,-400000.0625,-400000.0625,-400000.0625,-2481.080078125,-400000.0625
170.00244283676147,-400000.0625,-6923.33984375,4623.7998046875,-400000.0625,-400000.0625,-400000.0625,-2457.81005859375,-400000.0625
170.00244975090027,-400000.0625,-6906.7001953125,4641.14990234375,-400000.0625,-400000.0625,-400000.0625,-2445.27001953125,-400000.0625
170.00245714187622,-400000.0625,-6916.3798828125,4626.60986328125,-400000.0625,-400000.0625,-400000.0625,-2455.81005859375,-400000.0625
170.0024642944336,-400000.0625,-6941.080078125,4596.419921875,-400000.0625,-400000.0625,-400000.0625,-2480.840087890625,-400000.0625
170.0024712085724,-400000.0625,-6942.02978515625,4600.43017578125,-400000.0625,-400000.0625,-400000.0625,-2479.840087890625,-400000.0625
170.00247812271118,-400000.0625,-6922.33984375,4626.419921875,-400000.0625,-400000.0625,-400000.0625,-2459.719970703125,-400000.0625
170.00248527526855,-400000.0625,-6907.56005859375,4640.10009765625,-400000.0625,-400000.0625,-400000.0625,-2444.550048828125,-400000.0625
170.0024926662445,-400000.0625,-6923.9599609375,4619.68994140625,-400000.0625,-400000.0625,-400000.0625,-2462.10009765625,-400000.0625
170.00249981880188,-400000.0625,-6954.3798828125,4589.4599609375,-400000.0625,-400000.0625,-400000.0625,-2490.090087890625,-400000.0625
170.00251054763794,-400000.0625,-6952.0,4592.93994140625,-400000.0625,-400000.0625,-400000.0625,-2485.179931640625,-400000.0625
170.00251746177673,-400000.0625,-6932.259765625,4618.93017578125,-400000.0625,-400000.0625,-400000.0625,-2459.760009765625,-400000.0625
170.0025246143341,-400000.0625,-6912.08984375,4642.2001953125,-400000.0625,-400000.0625,-400000.0625,-2443.409912109375,-400000.0625
170.00253200531006,-400000.0625,-6927.58984375,4623.64990234375,-400000.0625,-400000.0625,-400000.0625,-2456.949951171875,-400000.0625
170.00253891944885,-400000.0625,-6955.14990234375,4591.509765625,-400000.0625,-400000.0625,-400000.0625,-2482.510009765625,-400000.0625
170.0025463104248,-400000.0625,-6950.89990234375,4594.47021484375,-400000.0625,-400000.0625,-400000.0625,-2483.56005859375,-400000.0625
170.00255346298218,-400000.0625,-6926.58984375,4621.89013671875,-400000.0625,-400000.0625,-400000.0625,-2461.530029296875,-400000.0625
170.00256037712097,-400000.0625,-6908.85009765625,4640.68017578125,-400000.0625,-400000.0625,-400000.0625,-2445.889892578125,-400000.0625
170.00256776809692,-400000.0625,-6922.8701171875,4625.7001953125,-400000.0625,-400000.0625,-400000.0625,-2463.909912109375,-400000.0625
170.00257468223572,-400000.0625,-6946.330078125,4599.85986328125,-400000.0625,-400000.0625,-400000.0625,-2485.3701171875,-400000.0625
170.0025818347931,-400000.0625,-6945.47021484375,4602.33984375,-400000.0625,-400000.0625,-400000.0625,-2480.4599609375,-400000.0625
170.00258874893188,-400000.0625,-6920.6201171875,4626.18017578125,-400000.0625,-400000.0625,-400000.0625,-2461.47998046875,-400000.0625
170.00259566307068,-400000.0625,-6910.85009765625,4640.2900390625,-400000.0625,-400000.0625,-400000.0625,-2448.85009765625,-400000.0625
170.00260257720947,-400000.0625,-6935.02978515625,4620.27001953125,-400000.0625,-400000.0625,-400000.0625,-2464.580078125,-400000.0625
170.00260949134827,-400000.0625,-6958.52978515625,4595.419921875,-400000.0625,-400000.0625,-400000.0625,-2489.0400390625,-400000.0625
170.00261688232422,-400000.0625,-6950.0498046875,4602.47998046875,-400000.0625,-400000.0625,-400000.0625,-2479.1201171875,-400000.0625
170.002623796463,-400000.0625,-6929.77978515625,4625.509765625,-400000.0625,-400000.0625,-400000.0625,-2463.389892578125,-400000.0625
170.00263094902039,-400000.0625,-6914.0,4641.81982421875,-400000.0625,-400000.0625,-400000.0625,-2448.800048828125,-400000.0625
170.00263833999634,-400000.0625,-6929.2998046875,4624.41015625,-400000.0625,-400000.0625,-400000.0625,-2462.9599609375,-400000.0625
170.0026454925537,-400000.0625,-6952.330078125,4596.419921875,-400000.0625,-400000.0625,-400000.0625,-2489.090087890625,-400000.0625
170.00265288352966,-400000.0625,-6951.2900390625,4597.56982421875,-400000.0625,-400000.0625,-400000.0625,-2483.75,-400000.0625
170.00266003608704,-400000.0625,-6926.72998046875,4625.89013671875,-400000.0625,-400000.0625,-400000.0625,-2460.530029296875,-400000.0625
170.0026671886444,-400000.0625,-6907.56005859375,4645.77978515625,-400000.0625,-400000.0625,-400000.0625,-2447.64990234375,-400000.0625
170.0026741027832,-400000.0625,-6927.10986328125,4627.509765625,-400000.0625,-400000.0625,-400000.0625,-2464.43994140625,-400000.0625
170.002681016922,-400000.0625,-6952.10009765625,4596.759765625,-400000.0625,-400000.0625,-400000.0625,-2491.89990234375,-400000.0625
170.0026879310608,-400000.0625,-6953.33984375,4596.52001953125,-400000.0625,-400000.0625,-400000.0625,-2488.659912109375,-400000.0625
170.00269508361816,-400000.0625,-6930.10986328125,4621.93994140625,-400000.0625,-400000.0625,-400000.0625,-2466.25,-400000.0625
170.00270199775696,-400000.0625,-6913.66015625,4644.25,-400000.0625,-400000.0625,-400000.0625,-2451.93994140625,-400000.0625
170.00270915031433,-400000.0625,-6934.68994140625,4622.4599609375,-400000.0625,-400000.0625,-400000.0625,-2468.43994140625,-400000.0625
170.00271606445312,-400000.0625,-6962.2001953125,4590.18017578125,-400000.0625,-400000.0625,-400000.0625,-2498.909912109375,-400000.0625
170.00272345542908,-400000.0625,-6952.56982421875,4593.330078125,-400000.0625,-400000.0625,-400000.0625,-2494.669921875,-400000.0625
170.00273036956787,-400000.0625,-6928.02001953125,4621.64990234375,-400000.0625,-400000.0625,-400000.0625,-2468.820068359375,-400000.0625
170.00273752212524,-400000.0625,-6915.85986328125,4639.0498046875,-400000.0625,-400000.0625,-400000.0625,-2450.800048828125,-400000.0625
170.00274443626404,-400000.0625,-6933.02001953125,4620.02978515625,-400000.0625,-400000.0625,-400000.0625,-2466.969970703125,-400000.0625
170.00275182724,-400000.0625,-6962.77978515625,4587.080078125,-400000.0625,-400000.0625,-400000.0625,-2495.10009765625,-400000.0625
170.00275874137878,-400000.0625,-6953.52978515625,4593.419921875,-400000.0625,-400000.0625,-400000.0625,-2487.52001953125,-400000.0625
170.00276565551758,-400000.0625,-6927.6298828125,4619.02978515625,-400000.0625,-400000.0625,-400000.0625,-2463.389892578125,-400000.0625
170.00277256965637,-400000.0625,-6915.85986328125,4636.56982421875,-400000.0625,-400000.0625,-400000.0625,-2448.030029296875,-400000.0625
170.00277948379517,-400000.0625,-6935.8798828125,4618.35986328125,-400000.0625,-400000.0625,-400000.0625,-2467.489990234375,-400000.0625
170.00278639793396,-400000.0625,-6963.68017578125,4585.41015625,-400000.0625,-400000.0625,-400000.0625,-2493.719970703125,-400000.0625
170.00279331207275,-400000.0625,-6961.580078125,4586.41015625,-400000.0625,-400000.0625,-400000.0625,-2490.81005859375,-400000.0625
170.00280022621155,-400000.0625,-6941.1298828125,4613.2998046875,-400000.0625,-400000.0625,-400000.0625,-2468.590087890625,-400000.0625
170.00280737876892,-400000.0625,-6920.43017578125,4634.669921875,-400000.0625,-400000.0625,-400000.0625,-2449.610107421875,-400000.0625
170.0028145313263,-400000.0625,-6932.58984375,4619.5498046875,-400000.0625,-400000.0625,-400000.0625,-2462.580078125,-400000.0625
170.0028214454651,-400000.0625,-6960.919921875,4589.419921875,-400000.0625,-400000.0625,-400000.0625,-2493.239990234375,-400000.0625
170.00282859802246,-400000.0625,-6959.68017578125,4589.4599609375,-400000.0625,-400000.0625,-400000.0625,-2489.659912109375,-400000.0625
170.00283551216125,-400000.0625,-6939.1298828125,4613.72998046875,-400000.0625,-400000.0625,-400000.0625,-2469.300048828125,-400000.0625
170.00284242630005,-400000.0625,-6923.490234375,4628.93994140625,-400000.0625,-400000.0625,-400000.0625,-2455.18994140625,-400000.0625
170.00285005569458,-400000.0625,-6941.3701171875,4611.68017578125,-400000.0625,-400000.0625,-400000.0625,-2470.919921875,-400000.0625
170.00285720825195,-400000.0625,-6962.6298828125,4586.35986328125,-400000.0625,-400000.0625,-400000.0625,-2500.06005859375,-400000.0625
170.0028645992279,-400000.0625,-6965.5400390625,4584.60009765625,-400000.0625,-400000.0625,-400000.0625,-2496.199951171875,-400000.0625
170.00287175178528,-400000.0625,-6944.27978515625,4610.35009765625,-400000.0625,-400000.0625,-400000.0625,-2471.070068359375,-400000.0625
170.00287890434265,-400000.0625,-6921.580078125,4633.6201171875,-400000.0625,-400000.0625,-400000.0625,-2450.320068359375,-400000.0625
170.00288653373718,-400000.0625,-6937.5,4617.02001953125,-400000.0625,-400000.0625,-400000.0625,-2464.199951171875,-400000.0625
170.00289368629456,-400000.0625,-6961.68017578125,4591.85009765625,-400000.0625,-400000.0625,-400000.0625,-2489.0400390625,-400000.0625
170.00290060043335,-400000.0625,-6959.06005859375,4591.85009765625,-400000.0625,-400000.0625,-400000.0625,-2488.090087890625,-400000.0625
170.00290775299072,-400000.0625,-6941.7998046875,4613.4501953125,-400000.0625,-400000.0625,-400000.0625,-2471.5400390625,-400000.0625
170.00291514396667,-400000.0625,-6924.6298828125,4633.08984375,-400000.0625,-400000.0625,-400000.0625,-2454.81005859375,-400000.0625
170.00292205810547,-400000.0625,-6938.740234375,4616.4501953125,-400000.0625,-400000.0625,-400000.0625,-2471.02001953125,-400000.0625
170.00292897224426,-400000.0625,-6963.25,4588.7998046875,-400000.0625,-400000.0625,-400000.0625,-2495.340087890625,-400000.0625
170.00293612480164,-400000.0625,-6956.91015625,4592.22998046875,-400000.0625,-400000.0625,-400000.0625,-2487.179931640625,-400000.0625
170.00294303894043,-400000.0625,-6938.7001953125,4617.259765625,-400000.0625,-400000.0625,-400000.0625,-2465.199951171875,-400000.0625
170.00294995307922,-400000.0625,-6926.2998046875,4628.85009765625,-400000.0625,-400000.0625,-400000.0625,-2454.949951171875,-400000.0625
170.00295686721802,-400000.0625,-6936.8798828125,4618.1201171875,-400000.0625,-400000.0625,-400000.0625,-2464.820068359375,-400000.0625
170.0029640197754,-400000.0625,-6964.259765625,4588.83984375,-400000.0625,-400000.0625,-400000.0625,-2490.81005859375,-400000.0625
170.00297093391418,-400000.0625,-6961.5400390625,4589.27001953125,-400000.0625,-400000.0625,-400000.0625,-2490.22998046875,-400000.0625
170.00297784805298,-400000.0625,-6937.41015625,4619.5,-400000.0625,-400000.0625,-400000.0625,-2463.2900390625,-400000.0625
170.00298523902893,-400000.0625,-6919.0,4638.240234375,-400000.0625,-400000.0625,-400000.0625,-2449.610107421875,-400000.0625
170.00299215316772,-400000.0625,-6933.31005859375,4620.22021484375,-400000.0625,-400000.0625,-400000.0625,-2464.14990234375,-400000.0625
170.0029993057251,-400000.0625,-6960.68017578125,4589.22021484375,-400000.0625,-400000.0625,-400000.0625,-2489.659912109375,-400000.0625
170.00300645828247,-400000.0625,-6957.47998046875,4591.990234375,-400000.0625,-400000.0625,-400000.0625,-2486.800048828125,-400000.0625
170.00301337242126,-400000.0625,-6931.64013671875,4621.169921875,-400000.0625,-400000.0625,-400000.0625,-2461.239990234375,-400000.0625
170.00302028656006,-400000.0625,-6913.0,4639.85986328125,-400000.0625,-400000.0625,-400000.0625,-2445.7900390625,-400000.0625
170.00302743911743,-400000.0625,-6927.97021484375,4624.509765625,-400000.0625,-400000.0625,-400000.0625,-2457.330078125,-400000.0625
170.00303435325623,-400000.0625,-6950.85986328125,4597.14013671875,-400000.0625,-400000.0625,-400000.0625,-2482.030029296875,-400000.0625
170.00304126739502,-400000.0625,-6950.81005859375,4598.0,-400000.0625,-400000.0625,-400000.0625,-2481.409912109375,-400000.0625
170.0030481815338,-400000.0625,-6935.22021484375,4619.169921875,-400000.0625,-400000.0625,-400000.0625,-2463.2900390625,-400000.0625
170.00305581092834,-400000.0625,-6921.39013671875,4634.2900390625,-400000.0625,-400000.0625,-400000.0625,-2448.27001953125,-400000.0625
170.00306272506714,-400000.0625,-6935.64013671875,4618.06982421875,-400000.0625,-400000.0625,-400000.0625,-2465.580078125,-400000.0625
170.00306963920593,-400000.0625,-6962.39990234375,4586.740234375,-400000.0625,-400000.0625,-400000.0625,-2490.85009765625,-400000.0625
170.0030791759491,-400000.0625,-6960.39013671875,4589.419921875,-400000.0625,-400000.0625,-400000.0625,-2482.93994140625,-400000.0625
170.00308656692505,-400000.0625,-6939.35986328125,4613.68994140625,-400000.0625,-400000.0625,-400000.0625,-2458.52001953125,-400000.0625
170.00309443473816,-400000.0625,-6924.009765625,4631.0,-400000.0625,-400000.0625,-400000.0625,-2440.2099609375,-400000.0625
170.0031054019928,-400000.0625,-6933.93017578125,4621.02978515625,-400000.0625,-400000.0625,-400000.0625,-2451.989990234375,-400000.0625
170.0031132698059,-400000.0625,-6959.6298828125,4592.66015625,-400000.0625,-400000.0625,-400000.0625,-2481.840087890625,-400000.0625
170.00312042236328,-400000.0625,-6960.490234375,4592.08984375,-400000.0625,-400000.0625,-400000.0625,-2484.510009765625,-400000.0625
170.00312733650208,-400000.0625,-6935.259765625,4617.169921875,-400000.0625,-400000.0625,-400000.0625,-2463.669921875,-400000.0625
170.00313448905945,-400000.0625,-6920.2001953125,4631.47021484375,-400000.0625,-400000.0625,-400000.0625,-2451.93994140625,-400000.0625
170.00314140319824,-400000.0625,-6946.85009765625,4607.06005859375,-400000.0625,-400000.0625,-400000.0625,-2472.5,-400000.0625
170.00314831733704,-400000.0625,-6969.31005859375,4581.35986328125,-400000.0625,-400000.0625,-400000.0625,-2496.10009765625,-400000.0625
170.0031554698944,-400000.0625,-6964.2998046875,4588.080078125,-400000.0625,-400000.0625,-400000.0625,-2488.469970703125,-400000.0625
170.00316214561462,-400000.0625,-6938.509765625,4615.8798828125,-400000.0625,-400000.0625,-400000.0625,-2463.909912109375,-400000.0625
170.003169298172,-400000.0625,-6919.0498046875,4636.33984375,-400000.0625,-400000.0625,-400000.0625,-2449.469970703125,-400000.0625
170.00317645072937,-400000.0625,-6936.31005859375,4618.02978515625,-400000.0625,-400000.0625,-400000.0625,-2469.02001953125,-400000.0625
170.00318336486816,-400000.0625,-6963.25,4582.60009765625,-400000.0625,-400000.0625,-400000.0625,-2497.389892578125,-400000.0625
170.00319051742554,-400000.0625,-6964.97021484375,4582.93017578125,-400000.0625,-400000.0625,-400000.0625,-2489.89990234375,-400000.0625
170.00319743156433,-400000.0625,-6938.93994140625,4613.830078125,-400000.0625,-400000.0625,-400000.0625,-2466.489990234375,-400000.0625
170.0032045841217,-400000.0625,-6925.35009765625,4633.08984375,-400000.0625,-400000.0625,-400000.0625,-2448.3701171875,-400000.0625
170.0032114982605,-400000.0625,-6939.22021484375,4614.259765625,-400000.0625,-400000.0625,-400000.0625,-2464.06005859375,-400000.0625
170.0032184123993,-400000.0625,-6967.77978515625,4581.830078125,-400000.0625,-400000.0625,-400000.0625,-2496.14990234375,-400000.0625
170.00322556495667,-400000.0625,-6962.68017578125,4588.18017578125,-400000.0625,-400000.0625,-400000.0625,-2493.239990234375,-400000.0625
170.00323247909546,-400000.0625,-6939.97998046875,4610.2099609375,-400000.0625,-400000.0625,-400000.0625,-2469.590087890625,-400000.0625
170.00323939323425,-400000.0625,-6921.33984375,4627.990234375,-400000.0625,-400000.0625,-400000.0625,-2455.090087890625,-400000.0625
170.00324630737305,-400000.0625,-6933.8798828125,4614.259765625,-400000.0625,-400000.0625,-400000.0625,-2467.6298828125,-400000.0625
170.00325322151184,-400000.0625,-6965.02001953125,4583.7900390625,-400000.0625,-400000.0625,-400000.0625,-2492.139892578125,-400000.0625
170.00326013565063,-400000.0625,-6964.2998046875,4586.64990234375,-400000.0625,-400000.0625,-400000.0625,-2493.429931640625,-400000.0625
170.00326704978943,-400000.0625,-6940.27001953125,4614.02001953125,-400000.0625,-400000.0625,-400000.0625,-2472.02001953125,-400000.0625
170.00327396392822,-400000.0625,-6920.91015625,4633.759765625,-400000.0625,-400000.0625,-400000.0625,-2456.81005859375,-400000.0625
170.00328087806702,-400000.0625,-6937.1201171875,4616.169921875,-400000.0625,-400000.0625,-400000.0625,-2472.8798828125,-400000.0625
170.00328755378723,-400000.0625,-6959.39013671875,4589.27001953125,-400000.0625,-400000.0625,-400000.0625,-2497.010009765625,-400000.0625
170.0032947063446,-400000.0625,-6949.9501953125,4596.759765625,-400000.0625,-400000.0625,-400000.0625,-2490.85009765625,-400000.0625
170.00330138206482,-400000.0625,-6937.22021484375,4616.169921875,-400000.0625,-400000.0625,-400000.0625,-2474.2099609375,-400000.0625
170.00330805778503,-400000.0625,-6930.72998046875,4628.990234375,-400000.0625,-400000.0625,-400000.0625,-2461.820068359375,-400000.0625
170.0033152103424,-400000.0625,-6940.93994140625,4614.5,-400000.0625,-400000.0625,-400000.0625,-2476.639892578125,-400000.0625
170.0033221244812,-400000.0625,-6969.64013671875,4584.22021484375,-400000.0625,-400000.0625,-400000.0625,-2505.159912109375,-400000.0625
170.00332927703857,-400000.0625,-6966.8798828125,4585.64990234375,-400000.0625,-400000.0625,-400000.0625,-2499.10009765625,-400000.0625
170.00333619117737,-400000.0625,-6939.93994140625,4612.35009765625,-400000.0625,-400000.0625,-400000.0625,-2475.550048828125,-400000.0625
170.00334334373474,-400000.0625,-6917.2900390625,4632.240234375,-400000.0625,-400000.0625,-400000.0625,-2456.81005859375,-400000.0625
170.00335025787354,-400000.0625,-6933.169921875,4613.919921875,-400000.0625,-400000.0625,-400000.0625,-2470.35009765625,-400000.0625
170.00335717201233,-400000.0625,-6969.35986328125,4580.93017578125,-400000.0625,-400000.0625,-400000.0625,-2500.389892578125,-400000.0625
170.00336408615112,-400000.0625,-6970.7900390625,4584.5,-400000.0625,-400000.0625,-400000.0625,-2494.340087890625,-400000.0625
170.0033712387085,-400000.0625,-6942.18017578125,4609.2998046875,-400000.0625,-400000.0625,-400000.0625,-2474.31005859375,-400000.0625
170.0033781528473,-400000.0625,-6919.72021484375,4629.330078125,-400000.0625,-400000.0625,-400000.0625,-2457.7099609375,-400000.0625
170.00338506698608,-400000.0625,-6937.22021484375,4609.72998046875,-400000.0625,-400000.0625,-400000.0625,-2471.5400390625,-400000.0625
170.0033917427063,-400000.0625,-6967.64013671875,4581.02001953125,-400000.0625,-400000.0625,-400000.0625,-2498.47998046875,-400000.0625
170.0033984184265,-400000.0625,-6964.64013671875,4585.1201171875,-400000.0625,-400000.0625,-400000.0625,-2496.050048828125,-400000.0625
170.0034053325653,-400000.0625,-6942.4599609375,4609.39013671875,-400000.0625,-400000.0625,-400000.0625,-2475.02001953125,-400000.0625
170.0034122467041,-400000.0625,-6928.5400390625,4627.60986328125,-400000.0625,-400000.0625,-400000.0625,-2460.580078125,-400000.0625
170.00341892242432,-400000.0625,-6942.31982421875,4610.39990234375,-400000.0625,-400000.0625,-400000.0625,-2478.5,-400000.0625
170.0034258365631,-400000.0625,-6966.5,4584.35986328125,-400000.0625,-400000.0625,-400000.0625,-2501.110107421875,-400000.0625
170.0034327507019,-400000.0625,-6957.72021484375,4590.56005859375,-400000.0625,-400000.0625,-400000.0625,-2489.610107421875,-400000.0625
170.00343990325928,-400000.0625,-6939.75,4609.5400390625,-400000.0625,-400000.0625,-400000.0625,-2472.929931640625,-400000.0625
170.00344729423523,-400000.0625,-6921.85986328125,4629.85009765625,-400000.0625,-400000.0625,-400000.0625,-2462.2900390625,-400000.0625
170.00345420837402,-400000.0625,-6938.740234375,4613.35009765625,-400000.0625,-400000.0625,-400000.0625,-2475.68994140625,-400000.0625
170.00346112251282,-400000.0625,-6966.93017578125,4581.68994140625,-400000.0625,-400000.0625,-400000.0625,-2501.72998046875,-400000.0625
170.0034682750702,-400000.0625,-6964.4501953125,4584.740234375,-400000.0625,-400000.0625,-400000.0625,-2497.909912109375,-400000.0625
170.00347518920898,-400000.0625,-6942.60986328125,4612.5400390625,-400000.0625,-400000.0625,-400000.0625,-2472.830078125,-400000.0625
170.00348258018494,-400000.0625,-6923.43994140625,4632.89990234375,-400000.0625,-400000.0625,-400000.0625,-2454.610107421875,-400000.0625
170.00348925590515,-400000.0625,-6932.4501953125,4617.259765625,-400000.0625,-400000.0625,-400000.0625,-2471.39990234375,-400000.0625
170.00349617004395,-400000.0625,-6962.81982421875,4589.4599609375,-400000.0625,-400000.0625,-400000.0625,-2494.050048828125,-400000.0625
170.00350308418274,-400000.0625,-6963.64013671875,4587.75,-400000.0625,-400000.0625,-400000.0625,-2495.239990234375,-400000.0625
170.00350999832153,-400000.0625,-6943.3701171875,4607.490234375,-400000.0625,-400000.0625,-400000.0625,-2478.030029296875,-400000.0625
170.00351667404175,-400000.0625,-6928.64013671875,4625.89013671875,-400000.0625,-400000.0625,-400000.0625,-2461.429931640625,-400000.0625
170.00352358818054,-400000.0625,-6948.81005859375,4605.25,-400000.0625,-400000.0625,-400000.0625,-2478.889892578125,-400000.0625
170.00353074073792,-400000.0625,-6976.7998046875,4574.35009765625,-400000.0625,-400000.0625,-400000.0625,-2505.449951171875,-400000.0625
170.0035376548767,-400000.0625,-6971.740234375,4578.2998046875,-400000.0625,-400000.0625,-400000.0625,-2502.010009765625,-400000.0625
170.00354528427124,-400000.0625,-6943.56005859375,4608.2998046875,-400000.0625,-400000.0625,-400000.0625,-2473.449951171875,-400000.0625
170.0035526752472,-400000.0625,-6921.009765625,4630.14013671875,-400000.0625,-400000.0625,-400000.0625,-2457.330078125,-400000.0625
170.0035605430603,-400000.0625,-6937.169921875,4617.41015625,-400000.0625,-400000.0625,-400000.0625,-2470.8798828125,-400000.0625
170.00357103347778,-400000.0625,-6969.68994140625,4583.41015625,-400000.0625,-400000.0625,-400000.0625,-2498.10009765625,-400000.0625
170.00358128547668,-400000.0625,-6964.5400390625,4584.22021484375,-400000.0625,-400000.0625,-400000.0625,-2497.860107421875,-400000.0625
170.00359082221985,-400000.0625,-6945.47021484375,4605.8701171875,-400000.0625,-400000.0625,-400000.0625,-2477.68994140625,-400000.0625
170.0036017894745,-400000.0625,-6931.97021484375,4624.990234375,-400000.0625,-400000.0625,-400000.0625,-2461.719970703125,-400000.0625
170.00361227989197,-400000.0625,-6948.89990234375,4607.10986328125,-400000.0625,-400000.0625,-400000.0625,-2477.260009765625,-400000.0625
170.00362348556519,-400000.0625,-6978.27001953125,4575.5400390625,-400000.0625,-400000.0625,-400000.0625,-2503.72998046875,-400000.0625
170.0036346912384,-400000.0625,-6970.06982421875,4580.740234375,-400000.0625,-400000.0625,-400000.0625,-2500.820068359375,-400000.0625
170.00364518165588,-400000.0625,-6944.3701171875,4607.14990234375,-400000.0625,-400000.0625,-400000.0625,-2478.169921875,-400000.0625
170.00365614891052,-400000.0625,-6931.06982421875,4623.31982421875,-400000.0625,-400000.0625,-400000.0625,-2463.9599609375,-400000.0625
170.003666639328,-400000.0625,-6941.7001953125,4609.6298828125,-400000.0625,-400000.0625,-400000.0625,-2479.739990234375,-400000.0625
170.0036780834198,-400000.0625,-6965.830078125,4586.41015625,-400000.0625,-400000.0625,-400000.0625,-2501.679931640625,-400000.0625
170.0036895275116,-400000.0625,-6969.02001953125,4587.4599609375,-400000.0625,-400000.0625,-400000.0625,-2499.199951171875,-400000.0625
170.00370049476624,-400000.0625,-6943.080078125,4614.5,-400000.0625,-400000.0625,-400000.0625,-2478.889892578125,-400000.0625
170.00371098518372,-400000.0625,-6926.25,4632.0400390625,-400000.0625,-400000.0625,-400000.0625,-2462.909912109375,-400000.0625
170.00372076034546,-400000.0625,-6946.56005859375,4611.97021484375,-400000.0625,-400000.0625,-400000.0625,-2477.840087890625,-400000.0625
170.00373101234436,-400000.0625,-6970.97998046875,4584.41015625,-400000.0625,-400000.0625,-400000.0625,-2506.35009765625,-400000.0625
170.0037407875061,-400000.0625,-6967.830078125,4588.18017578125,-400000.0625,-400000.0625,-400000.0625,-2495.6201171875,-400000.0625
170.00375175476074,-400000.0625,-6944.47021484375,4613.830078125,-400000.0625,-400000.0625,-400000.0625,-2473.8798828125,-400000.0625
170.00376224517822,-400000.0625,-6924.009765625,4632.81005859375,-400000.0625,-400000.0625,-400000.0625,-2461.0,-400000.0625
170.00377678871155,-400000.0625,-6946.7099609375,4612.259765625,-400000.0625,-400000.0625,-400000.0625,-2476.97998046875,-400000.0625
170.0037877559662,-400000.0625,-6974.97998046875,4580.740234375,-400000.0625,-400000.0625,-400000.0625,-2502.35009765625,-400000.0625
170.00379872322083,-400000.0625,-6972.35986328125,4576.72998046875,-400000.0625,-400000.0625,-400000.0625,-2500.919921875,-400000.0625
170.00380873680115,-400000.0625,-6952.81005859375,4600.9501953125,-400000.0625,-400000.0625,-400000.0625,-2482.510009765625,-400000.0625
170.00381898880005,-400000.0625,-6931.8798828125,4623.83984375,-400000.0625,-400000.0625,-400000.0625,-2465.300048828125,-400000.0625
170.00382924079895,-400000.0625,-6947.14013671875,4607.919921875,-400000.0625,-400000.0625,-400000.0625,-2479.27001953125,-400000.0625
170.00383949279785,-400000.0625,-6978.509765625,4574.6298828125,-400000.0625,-400000.0625,-400000.0625,-2505.639892578125,-400000.0625
170.00384974479675,-400000.0625,-6974.7900390625,4576.5400390625,-400000.0625,-400000.0625,-400000.0625,-2501.199951171875,-400000.0625
170.00386142730713,-400000.0625,-6955.43017578125,4602.9599609375,-400000.0625,-400000.0625,-400000.0625,-2481.030029296875,-400000.0625
170.00387239456177,-400000.0625,-6937.89013671875,4622.64990234375,-400000.0625,-400000.0625,-400000.0625,-2466.14990234375,-400000.0625
170.0038845539093,-400000.0625,-6952.72021484375,4606.10009765625,-400000.0625,-400000.0625,-400000.0625,-2480.360107421875,-400000.0625
170.00389552116394,-400000.0625,-6976.22021484375,4578.10986328125,-400000.0625,-400000.0625,-400000.0625,-2503.919921875,-400000.0625
170.00390648841858,-400000.0625,-6974.7001953125,4575.490234375,-400000.0625,-400000.0625,-400000.0625,-2503.010009765625,-400000.0625
170.00391697883606,-400000.0625,-6952.56982421875,4599.47998046875,-400000.0625,-400000.0625,-400000.0625,-2481.320068359375,-400000.0625
170.00392866134644,-400000.0625,-6938.97998046875,4618.83984375,-400000.0625,-400000.0625,-400000.0625,-2467.5400390625,-400000.0625
170.00393962860107,-400000.0625,-6953.759765625,4603.2001953125,-400000.0625,-400000.0625,-400000.0625,-2480.080078125,-400000.0625
170.00395011901855,-400000.0625,-6971.22021484375,4578.39990234375,-400000.0625,-400000.0625,-400000.0625,-2502.489990234375,-400000.0625
170.0039610862732,-400000.0625,-6967.4501953125,4582.259765625,-400000.0625,-400000.0625,-400000.0625,-2499.389892578125,-400000.0625
170.00397181510925,-400000.0625,-6950.18994140625,4603.009765625,-400000.0625,-400000.0625,-400000.0625,-2479.739990234375,-400000.0625
170.00398302078247,-400000.0625,-6932.8798828125,4621.35986328125,-400000.0625,-400000.0625,-400000.0625,-2465.77001953125,-400000.0625
170.00399446487427,-400000.0625,-6949.27978515625,4603.33984375,-400000.0625,-400000.0625,-400000.0625,-2480.840087890625,-400000.0625
170.00400519371033,-400000.0625,-6978.93994140625,4569.39013671875,-400000.0625,-400000.0625,-400000.0625,-2507.02001953125,-400000.0625
170.0040192604065,-400000.0625,-6983.330078125,4570.06005859375,-400000.0625,-400000.0625,-400000.0625,-2507.639892578125,-400000.0625
170.0040307044983,-400000.0625,-6960.580078125,4596.9501953125,-400000.0625,-400000.0625,-400000.0625,-2485.280029296875,-400000.0625
170.00404167175293,-400000.0625,-6933.93017578125,4624.18017578125,-400000.0625,-400000.0625,-400000.0625,-2464.25,-400000.0625
170.004052400589,-400000.0625,-6948.52001953125,4605.6298828125,-400000.0625,-400000.0625,-400000.0625,-2479.510009765625,-400000.0625
170.0040624141693,-400000.0625,-6979.89990234375,4573.490234375,-400000.0625,-400000.0625,-400000.0625,-2504.830078125,-400000.0625
170.00407338142395,-400000.0625,-6972.64990234375,4579.5400390625,-400000.0625,-400000.0625,-400000.0625,-2501.580078125,-400000.0625
170.0040843486786,-400000.0625,-6949.08984375,4608.2998046875,-400000.0625,-400000.0625,-400000.0625,-2479.64990234375,-400000.0625
170.0040955543518,-400000.0625,-6933.31005859375,4625.85009765625,-400000.0625,-400000.0625,-400000.0625,-2462.340087890625,-400000.0625
170.00410652160645,-400000.0625,-6946.22998046875,4612.2998046875,-400000.0625,-400000.0625,-400000.0625,-2472.02001953125,-400000.0625
170.00411701202393,-400000.0625,-6974.35986328125,4583.5,-400000.0625,-400000.0625,-400000.0625,-2499.6298828125,-400000.0625
170.0041286945343,-400000.0625,-6977.31982421875,4582.259765625,-400000.0625,-400000.0625,-400000.0625,-2501.580078125,-400000.0625
170.00414061546326,-400000.0625,-6955.2001953125,4605.43994140625,-400000.0625,-400000.0625,-400000.0625,-2478.4599609375,-400000.0625
170.0041525363922,-400000.0625,-6935.41015625,4622.7900390625,-400000.0625,-400000.0625,-400000.0625,-2459.47998046875,-400000.0625
170.0041642189026,-400000.0625,-6951.81005859375,4610.35009765625,-400000.0625,-400000.0625,-400000.0625,-2473.68994140625,-400000.0625
170.00417637825012,-400000.0625,-6981.759765625,4578.97021484375,-400000.0625,-400000.0625,-400000.0625,-2499.2900390625,-400000.0625
170.00418710708618,-400000.0625,-6975.75,4581.31005859375,-400000.0625,-400000.0625,-400000.0625,-2498.8701171875,-400000.0625
170.00419783592224,-400000.0625,-6959.72998046875,4604.009765625,-400000.0625,-400000.0625,-400000.0625,-2486.75,-400000.0625
170.00420832633972,-400000.0625,-6959.81982421875,4615.4501953125,-400000.0625,-400000.0625,-400000.0625,-2481.1298828125,-400000.0625
170.00422024726868,-400000.0625,-6982.18017578125,4599.56982421875,-400000.0625,-400000.0625,-400000.0625,-2496.10009765625,-400000.0625
170.00423073768616,-400000.0625,-7002.5498046875,4567.43017578125,-400000.0625,-400000.0625,-400000.0625,-2510.169921875,-400000.0625
170.00424098968506,-400000.0625,-7005.5,4557.75,-400000.0625,-400000.0625,-400000.0625,-2507.8798828125,-400000.0625
170.0042519569397,-400000.0625,-6999.8701171875,4575.6298828125,-400000.0625,-400000.0625,-400000.0625,-2495.580078125,-400000.0625
170.0042634010315,-400000.0625,-6987.2900390625,4587.60009765625,-400000.0625,-400000.0625,-400000.0625,-2482.510009765625,-400000.0625
170.00427412986755,-400000.0625,-7017.89990234375,4559.7998046875,-400000.0625,-400000.0625,-400000.0625,-2503.6298828125,-400000.0625
170.00428557395935,-400000.0625,-7063.52978515625,4516.5498046875,-400000.0625,-400000.0625,-400000.0625,-2537.780029296875,-400000.0625
170.0042974948883,-400000.0625,-7063.2900390625,4511.740234375,-400000.0625,-400000.0625,-400000.0625,-2535.77001953125,-400000.0625
170.00430846214294,-400000.0625,-7055.240234375,4521.509765625,-400000.0625,-400000.0625,-400000.0625,-2524.0400390625,-400000.0625
170.00431990623474,-400000.0625,-7053.419921875,4531.52978515625,-400000.0625,-400000.0625,-400000.0625,-2517.800048828125,-400000.0625
170.00433039665222,-400000.0625,-7074.31005859375,4512.83984375,-400000.0625,-400000.0625,-400000.0625,-2536.340087890625,-400000.0625
170.00434136390686,-400000.0625,-7109.60009765625,4477.41015625,-400000.0625,-400000.0625,-400000.0625,-2568.580078125,-400000.0625
170.0043523311615,-400000.0625,-7116.89013671875,4473.5,-400000.0625,-400000.0625,-400000.0625,-2569.340087890625,-400000.0625
170.00436329841614,-400000.0625,-7105.830078125,4488.7998046875,-400000.0625,-400000.0625,-400000.0625,-2552.60009765625,-400000.0625
170.00437426567078,-400000.0625,-7092.18994140625,4501.2001953125,-400000.0625,-400000.0625,-400000.0625,-2540.679931640625,-400000.0625
170.00438475608826,-400000.0625,-7111.93017578125,4482.27001953125,-400000.0625,-400000.0625,-400000.0625,-2563.669921875,-400000.0625
170.00439715385437,-400000.0625,-7138.919921875,4452.18017578125,-400000.0625,-400000.0625,-400000.0625,-2589.4599609375,-400000.0625
170.00440788269043,-400000.0625,-7131.52978515625,4455.419921875,-400000.0625,-400000.0625,-400000.0625,-2582.31005859375,-400000.0625
170.00441932678223,-400000.0625,-7106.5,4482.080078125,-400000.0625,-400000.0625,-400000.0625,-2557.75,-400000.0625
170.0044300556183,-400000.0625,-7086.7099609375,4504.2001953125,-400000.0625,-400000.0625,-400000.0625,-2541.590087890625,-400000.0625
170.0044403076172,-400000.0625,-7097.77001953125,4491.330078125,-400000.0625,-400000.0625,-400000.0625,-2554.510009765625,-400000.0625
170.0044515132904,-400000.0625,-7119.509765625,4462.81005859375,-400000.0625,-400000.0625,-400000.0625,-2576.780029296875,-400000.0625
170.00446152687073,-400000.0625,-7114.509765625,4465.91015625,-400000.0625,-400000.0625,-400000.0625,-2571.14990234375,-400000.0625
170.00447344779968,-400000.0625,-7075.8798828125,4500.43994140625,-400000.0625,-400000.0625,-400000.0625,-2541.02001953125,-400000.0625
170.00448369979858,-400000.0625,-7057.240234375,4519.419921875,-400000.0625,-400000.0625,-400000.0625,-2523.570068359375,-400000.0625
170.00449442863464,-400000.0625,-7074.68994140625,4501.39013671875,-400000.0625,-400000.0625,-400000.0625,-2537.06005859375,-400000.0625
170.00450539588928,-400000.0625,-7096.9599609375,4475.77978515625,-400000.0625,-400000.0625,-400000.0625,-2561.139892578125,-400000.0625
170.00451707839966,-400000.0625,-7088.08984375,4480.97998046875,-400000.0625,-400000.0625,-400000.0625,-2557.659912109375,-400000.0625
170.00452876091003,-400000.0625,-7058.9599609375,4509.97021484375,-400000.0625,-400000.0625,-400000.0625,-2529.719970703125,-400000.0625
170.00453925132751,-400000.0625,-7045.22021484375,4525.7099609375,-400000.0625,-400000.0625,-400000.0625,-2518.610107421875,-400000.0625
170.004549741745,-400000.0625,-7056.56982421875,4510.31005859375,-400000.0625,-400000.0625,-400000.0625,-2532.429931640625,-400000.0625
170.00455927848816,-400000.0625,-7081.02978515625,4479.83984375,-400000.0625,-400000.0625,-400000.0625,-2554.27001953125,-400000.0625
170.00456976890564,-400000.0625,-7079.64990234375,4482.4599609375,-400000.0625,-400000.0625,-400000.0625,-2552.840087890625,-400000.0625
170.00458121299744,-400000.0625,-7060.39013671875,4509.39990234375,-400000.0625,-400000.0625,-400000.0625,-2528.18994140625,-400000.0625
170.00459146499634,-400000.0625,-7045.7900390625,4528.330078125,-400000.0625,-400000.0625,-400000.0625,-2508.550048828125,-400000.0625
170.00460290908813,-400000.0625,-7055.89990234375,4514.64990234375,-400000.0625,-400000.0625,-400000.0625,-2523.469970703125,-400000.0625
170.00461387634277,-400000.0625,-7081.509765625,4485.4599609375,-400000.0625,-400000.0625,-400000.0625,-2554.0400390625,-400000.0625
170.0046248435974,-400000.0625,-7075.02001953125,4491.14013671875,-400000.0625,-400000.0625,-400000.0625,-2547.070068359375,-400000.0625
170.00463557243347,-400000.0625,-7044.89013671875,4518.02978515625,-400000.0625,-400000.0625,-400000.0625,-2520.89990234375,-400000.0625
170.00464725494385,-400000.0625,-7022.85986328125,4543.77978515625,-400000.0625,-400000.0625,-400000.0625,-2497.239990234375,-400000.0625
170.0046579837799,-400000.0625,-7037.5,4529.56982421875,-400000.0625,-400000.0625,-400000.0625,-2511.1201171875,-400000.0625
170.00466871261597,-400000.0625,-7066.35009765625,4492.85986328125,-400000.0625,-400000.0625,-400000.0625,-2542.929931640625,-400000.0625
170.00467920303345,-400000.0625,-7070.06982421875,4487.75,-400000.0625,-400000.0625,-400000.0625,-2543.5,-400000.0625
170.00469064712524,-400000.0625,-7052.0400390625,4512.35986328125,-400000.0625,-400000.0625,-400000.0625,-2522.800048828125,-400000.0625
170.00470280647278,-400000.0625,-7026.9599609375,4535.580078125,-400000.0625,-400000.0625,-400000.0625,-2502.969970703125,-400000.0625
170.00471329689026,-400000.0625,-7040.60009765625,4521.7998046875,-400000.0625,-400000.0625,-400000.0625,-2511.409912109375,-400000.0625
170.00472402572632,-400000.0625,-7078.22021484375,4488.0400390625,-400000.0625,-400000.0625,-400000.0625,-2538.199951171875,-400000.0625
170.00473499298096,-400000.0625,-7081.60009765625,4492.0,-400000.0625,-400000.0625,-400000.0625,-2536.8701171875,-400000.0625
170.0047459602356,-400000.0625,-7043.7001953125,4524.89990234375,-400000.0625,-400000.0625,-400000.0625,-2511.219970703125,-400000.0625
170.00475668907166,-400000.0625,-7012.56005859375,4547.7900390625,-400000.0625,-400000.0625,-400000.0625,-2497.429931640625,-400000.0625
170.00476717948914,-400000.0625,-7032.06005859375,4531.77001953125,-400000.0625,-400000.0625,-400000.0625,-2519.610107421875,-400000.0625
170.00477814674377,-400000.0625,-7064.25,4504.35009765625,-400000.0625,-400000.0625,-400000.0625,-2543.830078125,-400000.0625
170.00478959083557,-400000.0625,-7064.72021484375,4508.97021484375,-400000.0625,-400000.0625,-400000.0625,-2545.39990234375,-400000.0625
170.00480008125305,-400000.0625,-7042.740234375,4538.009765625,-400000.0625,-400000.0625,-400000.0625,-2526.81005859375,-400000.0625
170.0048108100891,-400000.0625,-7018.89990234375,4560.89990234375,-400000.0625,-400000.0625,-400000.0625,-2515.510009765625,-400000.0625
170.00482273101807,-400000.0625,-7032.2998046875,4551.41015625,-400000.0625,-400000.0625,-400000.0625,-2532.47998046875,-400000.0625
170.0048336982727,-400000.0625,-7058.43017578125,4525.3798828125,-400000.0625,-400000.0625,-400000.0625,-2557.22998046875,-400000.0625
170.00484490394592,-400000.0625,-7054.6201171875,4532.47998046875,-400000.0625,-400000.0625,-400000.0625,-2554.56005859375,-400000.0625
170.00485563278198,-400000.0625,-7039.259765625,4552.64990234375,-400000.0625,-400000.0625,-400000.0625,-2534.06005859375,-400000.0625
170.00486636161804,-400000.0625,-7022.85986328125,4570.25,-400000.0625,-400000.0625,-400000.0625,-2518.22998046875,-400000.0625
170.00488114356995,-400000.0625,-7037.35009765625,4551.93994140625,-400000.0625,-400000.0625,-400000.0625,-2532.239990234375,-400000.0625
170.00489258766174,-400000.0625,-7067.25,4521.1298828125,-400000.0625,-400000.0625,-400000.0625,-2560.090087890625,-400000.0625
170.00490379333496,-400000.0625,-7066.35009765625,4522.89990234375,-400000.0625,-400000.0625,-400000.0625,-2560.330078125,-400000.0625
170.00491499900818,-400000.0625,-7046.41015625,4543.72998046875,-400000.0625,-400000.0625,-400000.0625,-2539.969970703125,-400000.0625
170.00492596626282,-400000.0625,-7024.580078125,4567.18994140625,-400000.0625,-400000.0625,-400000.0625,-2520.699951171875,-400000.0625
170.00493836402893,-400000.0625,-7034.68017578125,4554.89013671875,-400000.0625,-400000.0625,-400000.0625,-2531.0,-400000.0625
170.00494861602783,-400000.0625,-7065.33984375,4519.18017578125,-400000.0625,-400000.0625,-400000.0625,-2562.090087890625,-400000.0625
170.00495982170105,-400000.0625,-7067.2001953125,4517.83984375,-400000.0625,-400000.0625,-400000.0625,-2563.429931640625,-400000.0625
170.0049705505371,-400000.0625,-7042.5,4543.5,-400000.0625,-400000.0625,-400000.0625,-2539.639892578125,-400000.0625
170.00498127937317,-400000.0625,-7021.47998046875,4569.72021484375,-400000.0625,-400000.0625,-400000.0625,-2517.320068359375,-400000.0625
170.00499272346497,-400000.0625,-7035.2099609375,4558.89990234375,-400000.0625,-400000.0625,-400000.0625,-2528.949951171875,-400000.0625
170.00500297546387,-400000.0625,-7062.10009765625,4529.0498046875,-400000.0625,-400000.0625,-400000.0625,-2558.760009765625,-400000.0625
170.0050172805786,-400000.0625,-7062.14990234375,4525.27978515625,-400000.0625,-400000.0625,-400000.0625,-2560.469970703125,-400000.0625
170.00502753257751,-400000.0625,-7041.31005859375,4546.5,-400000.0625,-400000.0625,-400000.0625,-2539.489990234375,-400000.0625
170.0051715373993,-400000.0625,-7025.9599609375,4566.56982421875,-400000.0625,-400000.0625,-400000.0625,-2521.22998046875,-400000.0625
170.00523233413696,-400000.0625,-7038.830078125,4466.68017578125,-400000.0625,-400000.0625,-400000.0625,-2497.389892578125,-400000.0625
170.02119421958923,-400000.0625,-7113.31005859375,4487.93994140625,-400000.0625,-400000.0625,-400000.0625,-2611.02001953125,-400000.0625
170.0643026828766,-400000.0625,-7137.6298828125,4493.3798828125,-400000.0625,-400000.0625,-400000.0625,-2635.530029296875,-400000.0625
170.12921857833862,-400000.0625,-7110.35986328125,4526.47021484375,-400000.0625,-400000.0625,-400000.0625,-2614.929931640625,-400000.0625
170.26180982589722,-400000.0625,-7114.89013671875,4467.919921875,-400000.0625,-400000.0625,-400000.0625,-2549.219970703125,-400000.0625
170.44784331321716,-400000.0625,-7176.919921875,4405.97998046875,-400000.0625,-400000.0625,-400000.0625,-2603.340087890625,-400000.0625
170.57404160499573,-400000.0625,-7181.31005859375,4411.080078125,-400000.0625,-400000.0625,-400000.0625,-2593.610107421875,-400000.0625
170.65397906303406,-400000.0625,-7183.5498046875,4439.5,-400000.0625,-400000.0625,-400000.0625,-2665.469970703125,-400000.0625
170.80088567733765,-400000.0625,-7134.72021484375,4513.60009765625,-400000.0625,-400000.0625,-400000.0625,-2637.10009765625,-400000.0625
170.8343722820282,-400000.0625,-7165.77001953125,4486.93994140625,-400000.0625,-400000.0625,-400000.0625,-2663.7099609375,-400000.0625
170.958913564682,-400000.0625,-7182.35986328125,4471.39990234375,-400000.0625,-400000.0625,-400000.0625,-2664.3798828125,-400000.0625
171.1716411113739,-400000.0625,-7174.68017578125,4479.89013671875,-400000.0625,-400000.0625,-400000.0625,-2657.510009765625,-400000.0625
171.23346138000488,-400000.0625,-7207.490234375,4437.68994140625,-400000.0625,-400000.0625,-400000.0625,-2684.39990234375,-400000.0625
171.3449192047119,-400000.0625,-7193.47021484375,4473.02001953125,-400000.0625,-400000.0625,-400000.0625,-2660.419921875,-400000.0625
171.40779280662537,-400000.0625,-7186.83984375,4463.2001953125,-400000.0625,-400000.0625,-400000.0625,-2653.1201171875,-400000.0625
171.47192883491516,-400000.0625,-7204.33984375,4446.41015625,-400000.0625,-400000.0625,-400000.0625,-2673.909912109375,-400000.0625
171.61148023605347,-400000.0625,-7218.27001953125,4424.56982421875,-400000.0625,-400000.0625,-400000.0625,-2685.360107421875,-400000.0625
171.66422128677368,-400000.0625,-7207.81982421875,4437.35009765625,-400000.0625,-400000.0625,-400000.0625,-2672.340087890625,-400000.0625
