time,ch1,ch2,ch3,ch4,ch5,ch6,ch7,ch8
30.884868621826172,-172396.296875,4914.08984375,17935.0390625,400000.0,155664.515625,146126.671875,-109663.9765625,173744.03125
30.89415168762207,-169550.296875,23228.41015625,26987.41015625,400000.0,169867.875,145398.34375,-98779.6875,118976.703125
30.901525735855103,-169059.484375,19787.599609375,26427.26953125,400000.0,174875.46875,148308.875,-102126.46875,146205.921875
30.910917043685913,-172455.046875,-2349.570068359375,15734.099609375,400000.0,161346.65625,149355.5625,-116148.90625,217243.03125
30.91744112968445,-175012.9375,-13197.759765625,9260.23046875,400000.0,146083.703125,145798.265625,-121631.453125,232772.4375
30.93234133720398,-173393.84375,1364.280029296875,15467.2197265625,400000.0,148761.34375,141488.09375,-111317.6015625,170332.015625
30.93878722190857,-170548.546875,19680.9296875,24519.01953125,400000.0,162975.0,140755.046875,-100437.84375,115575.609375
30.94594430923462,-170068.765625,16220.6201171875,23939.80078125,400000.0,167962.953125,143647.9375,-103807.3671875,142819.5625
30.95196557044983,-173473.140625,-5930.7099609375,13231.66015625,400000.0,154413.765625,144682.046875,-117842.78125,213850.140625
30.9586341381073,-176039.34375,-16800.41015625,6741.85986328125,400000.0,139123.265625,141114.6875,-123337.859375,229392.703125
30.965991497039795,-174431.390625,-2247.570068359375,12940.0302734375,400000.0,141783.453125,136793.4375,-113030.8828125,166944.671875
30.972116947174072,-171591.25,16091.73046875,22009.279296875,400000.0,156013.890625,136057.734375,-102130.8515625,112092.3203125
30.97881817817688,-171097.0625,12667.3203125,21469.689453125,400000.0,161056.921875,138975.6875,-105474.578125,139328.5
30.984886407852173,-174493.1875,-9464.9296875,10768.1796875,400000.0,147532.578125,140018.53125,-119498.4609375,210324.453125
30.9920973777771,-177069.015625,-20358.279296875,4256.8701171875,400000.0,132234.40625,136448.734375,-125011.1328125,225906.875
30.99842929840088,-175462.359375,-5812.60009765625,10451.599609375,400000.0,134900.875,132140.03125,-114707.90625,163514.40625
31.0047607421875,-172613.546875,12544.400390625,19540.359375,400000.0,149164.734375,131434.265625,-103804.03125,108741.1484375
31.01230788230896,-172108.046875,9154.0302734375,19023.0390625,400000.0,154255.3125,134374.296875,-107130.59375,135968.03125
31.01858425140381,-175521.734375,-13002.58984375,8302.6396484375,400000.0,140724.578125,135415.859375,-121175.2578125,206997.65625
31.034021615982056,-178137.3125,-23931.599609375,1743.27001953125,400000.0,125357.3125,131797.0,-126716.4375,222412.09375
31.042705059051514,-176547.171875,-9394.6904296875,7926.66015625,400000.0,128004.3828125,127469.546875,-116424.859375,159981.890625
31.04975914955139,-173673.265625,8995.6298828125,17053.029296875,400000.0,142329.140625,126797.2109375,-105499.5703125,105299.1484375
31.05732750892639,-173154.90625,5624.2001953125,16559.98046875,400000.0,147471.828125,129764.1875,-108818.2578125,132606.328125
31.065162420272827,-176578.921875,-16543.009765625,5824.89990234375,400000.0,133924.875,130800.40625,-122873.6484375,203602.90625
31.072750091552734,-179189.609375,-27461.060546875,-722.5,400000.0,118576.7265625,127202.0,-128411.6875,219075.125
31.080209016799927,-177588.4375,-12895.8701171875,5483.9599609375,400000.0,121265.28125,122894.5390625,-118105.46875,156630.8125
31.086398363113403,-174722.0625,5504.27978515625,14614.3896484375,400000.0,135616.375,122220.53125,-107179.890625,101886.3828125
31.09406805038452,-174215.765625,2126.169921875,14118.9599609375,400000.0,140765.015625,125179.109375,-110506.2578125,129123.4609375
31.102635383605957,-177636.453125,-20026.16015625,3394.080078125,400000.0,127236.328125,126215.2265625,-124556.7890625,200068.9375
31.11049199104309,-180224.765625,-30908.349609375,-3128.239990234375,400000.0,111941.921875,122642.4375,-130076.1875,215552.0625
31.120843410491943,-178605.8125,-16314.080078125,3097.489990234375,400000.0,114697.7109375,118371.5,-119756.46875,153173.125
31.136346578598022,-175748.703125,2086.969970703125,12219.240234375,400000.0,129071.7265625,117701.5390625,-108837.953125,98393.171875
31.144901514053345,-175265.375,-1319.5,11700.580078125,400000.0,134200.296875,120634.953125,-112192.2109375,125564.15625
31.15207862854004,-178674.4375,-23462.8203125,986.8599853515625,400000.0,120704.140625,121686.328125,-126244.3671875,196548.71875
31.160019874572754,-181259.609375,-34359.078125,-5544.3798828125,397524.125,105423.75,118127.84375,-131780.5,212148.125
31.166738271713257,-179659.953125,-19798.330078125,644.8300170898438,400000.0,108139.71875,113844.359375,-121485.4375,149804.1875
31.173933506011963,-176830.03125,-1423.6500244140625,9736.58984375,400000.0,122457.7109375,113143.9296875,-110583.84375,94946.7265625
31.181105852127075,-176330.59375,-4783.490234375,9262.2802734375,400000.0,127643.703125,116104.6171875,-113904.4375,122114.6328125
31.187334537506104,-179711.546875,-26895.859375,-1412.6800537109375,400000.0,114226.546875,117204.15625,-127939.4296875,193276.375
31.195428371429443,-182255.625,-37725.87890625,-7892.31982421875,391060.84375,99053.6796875,113710.609375,-133436.171875,209016.296875
31.202282667160034,-180672.234375,-23160.029296875,-1718.5699462890625,400000.0,101777.46875,109415.3125,-123149.1171875,146546.90625
31.211294889450073,-177944.59375,-4939.18017578125,7211.5400390625,400000.0,115884.6015625,108572.5390625,-112366.0234375,91413.6015625
31.21874165534973,-177579.046875,-8491.990234375,6543.77978515625,400000.0,120756.7421875,111331.09375,-115829.8203125,118283.953125
31.231521368026733,-180926.484375,-30506.66015625,-4020.929931640625,400000.0,107415.7421875,112485.953125,-129779.2109375,189541.359375
31.246192932128906,-183314.0625,-41064.9296875,-10212.51953125,384547.71875,92643.703125,109243.21875,-135057.3125,205631.46875
31.253501892089844,-181620.515625,-26350.689453125,-3890.7099609375,396238.375,95660.359375,105125.25,-124657.21875,143411.703125
31.262105226516724,-178898.546875,-8143.0,5009.7900390625,400000.0,109808.7421875,104293.8828125,-113901.1484375,88259.65625
31.269291162490845,-178543.78125,-11721.7099609375,4315.81005859375,400000.0,114704.1015625,107065.546875,-117396.2734375,115216.078125
31.277034521102905,-181905.015625,-33728.078125,-6271.22021484375,394159.65625,101406.3984375,108226.03125,-131351.4375,186476.875
31.2841157913208,-184318.375,-44307.48046875,-12501.91015625,378321.5,86635.890625,104974.328125,-136659.203125,202605.40625
31.291998624801636,-182638.484375,-29628.849609375,-6209.47021484375,389937.3125,89622.75,100842.6796875,-126295.203125,140432.5625
31.299314260482788,-179911.4375,-11435.4599609375,2682.5,400000.0,103755.34375,100006.8828125,-115555.8203125,85286.53125
31.30650305747986,-179575.078125,-14998.25,1983.97998046875,400000.0,108655.703125,102753.7890625,-119045.9375,112071.71875
31.31467890739441,-182960.71875,-37011.6796875,-8616.0703125,387796.6875,95355.859375,103902.6875,-133009.125,183304.09375
31.326159715652466,-185367.078125,-47565.98828125,-14826.8203125,371981.34375,80628.1171875,100673.2578125,-138304.390625,199464.109375
31.33350968360901,-183665.875,-32850.6484375,-8506.349609375,383633.5625,83678.15625,96578.1328125,-127923.4609375,137355.734375
31.347208261489868,-180955.15625,-14673.900390625,365.3500061035156,400000.0,97804.40625,95727.6015625,-117205.7265625,82193.1015625
31.35707449913025,-180652.96875,-18273.640625,-378.4700012207031,400000.0,102652.9921875,98430.359375,-120731.609375,108919.3515625
31.364145517349243,-184067.9375,-40311.1484375,-11005.1201171875,381362.1875,89314.7109375,99544.96875,-134713.484375,180076.625
31.371113061904907,-186469.671875,-50875.37890625,-17212.6796875,365544.78125,74597.5625,96328.171875,-140003.03125,196300.8125
31.378390789031982,-184753.953125,-36155.98828125,-10879.2802734375,377225.4375,77679.1171875,92255.078125,-129612.890625,134247.453125
31.38527512550354,-182033.3125,-17947.630859375,-1991.800048828125,397324.21875,91851.6328125,91417.28125,-118880.3828125,79046.7421875
31.39471673965454,-181756.328125,-21567.869140625,-2758.1201171875,397481.3125,96687.7578125,94101.8203125,-122432.8203125,105742.8515625
31.40190315246582,-185197.1875,-43639.140625,-13421.1103515625,374930.125,83301.4609375,95187.8671875,-136438.765625,176844.28125
31.41289258003235,-187610.265625,-54219.3984375,-19646.689453125,359093.71875,68560.5625,91959.5390625,-141736.5625,193058.1875
31.419808626174927,-185889.21875,-39484.73828125,-13301.7099609375,370796.34375,71664.90625,87897.5,-131333.5625,131017.1796875
31.427839279174805,-183147.3125,-21240.330078125,-4374.7900390625,390958.15625,85912.140625,87097.796875,-120579.3515625,75897.9375
31.435312271118164,-182864.640625,-24830.73046875,-5121.56982421875,391166.71875,90799.9609375,89801.65625,-124116.1484375,102558.203125
31.4532527923584,-186340.40625,-46942.2890625,-15835.240234375,368580.0625,77362.6875,90859.28125,-138157.0,173617.859375
31.464184045791626,-188799.203125,-57556.2109375,-22124.33984375,352704.75,62529.08984375,87566.671875,-143485.046875,189602.734375
31.47318744659424,-187082.734375,-42790.46875,-15760.8095703125,364444.125,65662.296875,83502.4921875,-133065.90625,127463.640625
31.482518196105957,-184256.1875,-24398.849609375,-6651.06982421875,384760.0,80175.890625,82865.109375,-122203.359375,72675.046875
31.490092277526855,-183831.4375,-27797.990234375,-7169.2998046875,385234.40625,85448.1796875,85819.7265625,-125598.0234375,99903.640625
31.499748945236206,-187342.046875,-49976.55078125,-17982.150390625,362657.40625,71971.46875,86838.296875,-139704.578125,170844.296875
31.51273822784424,-190006.90625,-60896.98046875,-24627.16015625,346442.03125,56686.69140625,83237.796875,-145283.296875,186258.34375
31.520585298538208,-188431.328125,-46317.33984375,-18469.4296875,357880.875,59480.1015625,78949.6015625,-135013.734375,123739.640625
31.531257390975952,-185610.40625,-27926.310546875,-9345.48046875,378129.46875,73948.203125,78288.2265625,-124147.953125,68983.8515625
31.53912091255188,-185203.8125,-31350.900390625,-9879.490234375,378533.3125,79157.6015625,81211.1484375,-127554.6171875,96204.0078125
31.557109355926514,-188745.46875,-53560.30859375,-20724.5390625,355885.5,65595.6796875,82190.0,-141665.1875,167062.25
31.564877033233643,-191401.84375,-64457.23046875,-27341.939453125,339690.8125,50297.41015625,78600.703125,-147207.75,182466.1875
31.572242736816406,-189792.84375,-49838.640625,-21117.830078125,351199.46875,53144.6484375,74367.34375,-136902.6875,120104.1796875
31.579823970794678,-186933.109375,-31396.19921875,-11928.990234375,371533.0,67702.640625,73759.65625,-126003.140625,65444.140625
31.586807250976562,-186501.4375,-34759.140625,-12409.4501953125,372036.0625,73004.78125,76724.5390625,-129366.1328125,92625.53125
31.594563961029053,-190051.765625,-56959.87109375,-23261.98046875,349421.71875,59437.37890625,77706.0625,-143467.96875,163383.21875
31.601750135421753,-192736.890625,-67902.4296875,-29909.66015625,333175.96875,44082.21875,74107.5625,-149039.140625,178817.8125
31.6130952835083,-191115.40625,-53300.4296875,-23670.060546875,344670.28125,46942.62109375,69901.953125,-138746.5625,116634.1875
31.62064266204834,-188248.84375,-34866.671875,-14481.6396484375,365013.9375,61513.1484375,69290.03125,-127863.953125,62008.8203125
31.62867498397827,-187842.4375,-38248.0703125,-15002.6298828125,365493.09375,66765.21875,72207.890625,-131252.96875,89040.671875
31.635971784591675,-191422.71875,-60469.78125,-25888.16015625,342839.34375,53130.30078125,73168.2890625,-145366.640625,159750.484375
31.644277811050415,-194101.546875,-71371.8984375,-32513.91015625,326613.8125,37768.55859375,69592.2890625,-150915.125,175193.46875
31.658960580825806,-192455.125,-56697.80078125,-26231.009765625,338179.09375,40683.69921875,65409.140625,-140598.59375,112981.4765625
31.666056632995605,-189556.53125,-38208.05859375,-17001.580078125,358601.40625,55340.8203125,64833.4609375,-129705.78125,58434.3984375
31.67356014251709,-189149.125,-41604.5703125,-17534.2109375,359073.6875,60597.62109375,67763.3828125,-133121.078125,85583.171875
31.680956602096558,-192724.4375,-63820.46875,-28418.259765625,336412.375,46945.4296875,68745.1875,-147234.359375,156335.421875
31.68827795982361,-195401.015625,-74693.3125,-35027.7890625,320217.21875,31587.75,65178.26171875,-152764.765625,171685.625
31.696343421936035,-193771.8125,-59998.19140625,-28728.73046875,331822.09375,34529.3984375,61000.78125,-142441.71875,109430.7109375
31.70697283744812,-190909.734375,-41524.75,-19505.119140625,352224.3125,49172.12109375,60398.87109375,-131565.40625,54802.66015625
31.714314699172974,-190476.921875,-44899.140625,-20007.609375,352729.96875,54467.96875,63335.23828125,-134964.09375,81885.6796875
31.721036195755005,-194021.484375,-67094.0,-30869.580078125,330110.53125,40859.75,64316.08984375,-149066.84375,152507.46875
31.728381872177124,-196685.34375,-77975.4296875,-37461.62109375,313925.21875,25543.650390625,60779.19921875,-154606.171875,167970.15625
31.735223293304443,-195073.484375,-63326.4609375,-31182.009765625,325483.40625,28463.080078125,56611.9296875,-144308.0625,105842.6484375
31.74288511276245,-192225.671875,-44889.171875,-21978.08984375,345830.90625,43071.078125,56006.71875,-133447.703125,51277.69140625
31.750200986862183,-191813.203125,-48282.48828125,-22479.390625,346297.84375,48330.0703125,58910.62109375,-136856.1875,78239.640625
31.76558828353882,-195333.21875,-70477.59375,-33286.33984375,323701.375,34762.578125,59897.859375,-150961.3125,148901.90625
31.772920608520508,-197934.3125,-81296.7890625,-39785.1015625,307632.34375,19601.400390625,56427.1015625,-156458.484375,164482.09375
31.78044295310974,-196288.1875,-66581.5,-33457.5703125,319295.40625,22655.16015625,52330.26171875,-146099.6875,102380.90625
31.787164449691772,-193479.125,-48181.3984375,-24291.08984375,339629.75,37237.6015625,51727.2109375,-135234.984375,47701.12890625
31.798980236053467,-193125.375,-51707.23046875,-24858.91015625,339972.34375,42377.859375,54569.16015625,-138721.296875,74616.8203125
31.808634757995605,-196639.1875,-73928.890625,-35650.109375,317362.96875,28840.9296875,55525.6015625,-152852.84375,145369.5
31.816287994384766,-199238.84375,-84728.8203125,-42169.390625,301336.21875,13713.740234375,52026.609375,-158350.53125,160959.5
31.825145959854126,-197654.078125,-70044.2890625,-35946.1796875,312944.6875,16650.630859375,47862.19921875,-148018.65625,98636.3125
31.83309507369995,-194954.9375,-51746.98828125,-26918.609375,333099.125,30998.419921875,47135.98046875,-137224.359375,43590.359375
31.841257333755493,-194689.4375,-55351.21875,-27548.599609375,333293.46875,35984.08984375,49884.1796875,-140746.703125,70341.7890625
31.848515510559082,-198211.65625,-77535.3515625,-38265.328125,310703.875,22503.7109375,50870.46875,-154825.90625,141245.90625
31.856388807296753,-200700.9375,-88159.4765625,-44589.859375,294899.625,7660.52978515625,47550.16015625,-160182.640625,157209.421875
31.874107837677002,-199012.640625,-73369.890625,-38261.94140625,306680.625,10793.1103515625,43530.7109375,-149770.609375,95112.34375
31.881165504455566,-196292.28125,-55098.48828125,-29257.830078125,326831.28125,25136.619140625,42827.7109375,-138996.703125,40079.87890625
31.888338804244995,-196016.140625,-58714.828125,-29888.25,327032.3125,30150.69921875,45597.609375,-142523.734375,66911.9921875
31.896097660064697,-199522.234375,-80895.71875,-40607.41015625,304516.0625,16754.150390625,46614.078125,-156599.59375,137954.6875
31.904207706451416,-202036.9375,-91567.9609375,-47012.48046875,288686.78125,1878.1700439453125,43257.37890625,-162006.484375,153883.0
31.913374662399292,-200385.546875,-76817.859375,-40751.26953125,300340.59375,4915.0498046875,39191.78125,-151649.34375,91661.8515625
31.92078733444214,-197674.96875,-58540.87890625,-31748.16015625,320345.4375,19236.759765625,38480.80859375,-140887.984375,36566.171875
31.9288170337677,-197425.4375,-62201.55859375,-32420.779296875,320367.90625,24203.779296875,41209.55859375,-144451.734375,63339.53125
31.936089277267456,-200946.78125,-84430.28125,-43185.91015625,297723.21875,10746.0498046875,42201.19140625,-158554.375,134384.453125
31.944156408309937,-203436.453125,-95050.6796875,-49562.51171875,281966.0,-4094.4599609375,38877.44140625,-163922.421875,150307.09375
31.95396327972412,-201740.0,-80193.90625,-43217.80859375,293826.03125,-915.719970703125,34896.140625,-153500.296875,88201.90625
31.962966918945312,-199000.625,-61859.76171875,-34153.421875,314062.34375,13538.599609375,34266.328125,-142713.234375,33344.94140625
31.981725692749023,-198755.484375,-65540.703125,-34843.640625,314239.21875,18528.849609375,37004.28125,-146298.234375,60145.53125
31.991546869277954,-202331.375,-87839.46875,-45720.33984375,291579.28125,4958.39013671875,37910.51171875,-160462.96875,130945.21875
32.00054311752319,-204879.265625,-98513.46875,-52200.0390625,275702.5625,-10021.01953125,34514.1484375,-165886.09375,146756.484375
32.01386618614197,-203199.265625,-83625.7578125,-45859.76953125,287518.71875,-6878.81005859375,30520.58984375,-155473.578125,84729.15625
32.02338767051697,-200449.25,-65238.671875,-36755.7109375,307799.40625,7623.52978515625,29894.44921875,-144674.75,29927.919921875
32.032163858413696,-200196.046875,-68887.2890625,-37445.6015625,308005.875,12629.650390625,32629.640625,-148253.796875,56770.671875
32.04116225242615,-203767.515625,-91144.7578125,-48337.1796875,285365.0,-982.9500122070312,33544.3984375,-162395.546875,127526.7265625
32.04938864707947,-206292.453125,-101734.4609375,-54745.87109375,269554.46875,-15918.349609375,30217.83984375,-167762.015625,143383.953125
32.058943033218384,-204588.296875,-86806.453125,-48328.73828125,281464.0,-12658.169921875,26285.83984375,-157324.484375,81472.546875
32.06764459609985,-201847.09375,-68453.3671875,-39227.48828125,301756.21875,1879.4100341796875,25634.240234375,-146564.796875,26684.189453125
32.08444046974182,-201541.546875,-72054.15625,-39850.05078125,302040.9375,6994.52978515625,28431.08984375,-150110.203125,53647.91015625
32.0946991443634,-205119.921875,-94410.140625,-50821.6015625,279365.375,-6693.31982421875,29325.060546875,-164314.53125,124378.6015625
32.10320711135864,-207874.046875,-105377.96875,-57641.46875,263171.3125,-22212.939453125,25609.970703125,-169959.515625,139362.484375
32.11165428161621,-206378.203125,-90616.28125,-51437.0,274806.875,-19385.33984375,21336.939453125,-159641.0,76366.578125
32.11887502670288,-203595.515625,-72119.7734375,-42142.921875,295165.96875,-4672.669921875,20781.140625,-148758.4375,21755.029296875
32.12715005874634,-203156.6875,-75582.796875,-42557.05078125,295643.65625,734.7100219726562,23793.080078125,-152179.34375,49305.87109375
32.134182929992676,-206657.390625,-97901.3984375,-53448.05859375,273069.5625,-12846.5703125,24805.5,-166341.09375,120375.7890625
32.14182186126709,-209351.765625,-108814.203125,-60164.171875,256965.0,-28230.76953125,21219.830078125,-171932.8125,135720.703125
32.14905524253845,-207848.140625,-94131.1015625,-53965.62109375,268545.21875,-25370.9296875,17012.7890625,-161661.734375,73273.6171875
32.15695786476135,-205096.3125,-75704.4375,-44735.25,288874.0,-10741.4296875,16399.580078125,-150824.1875,18585.01953125
32.164918422698975,-204695.0625,-79211.046875,-45205.9296875,289308.96875,-5437.419921875,19333.220703125,-154281.484375,45917.66015625
32.172438621520996,-208210.78125,-101503.4296875,-56096.1796875,266741.25,-19050.169921875,20309.310546875,-168429.6875,116757.546875
32.18642711639404,-210898.8125,-112380.8984375,-62776.76171875,250678.1875,-34398.80078125,16745.279296875,-173989.65625,132058.203125
32.19438719749451,-209394.046875,-97692.640625,-56570.390625,262296.375,-31524.470703125,12547.830078125,-163711.625,69604.2109375
32.20327949523926,-206633.0625,-79262.40625,-47329.0,282653.03125,-16869.880859375,11950.6904296875,-152873.8125,14970.1103515625
32.21177840232849,-206234.53125,-82748.140625,-47792.73046875,283116.84375,-11549.4697265625,14882.51953125,-156323.875,42227.03125
32.219369888305664,-209785.25,-105085.71875,-58734.23046875,260501.03125,-25233.939453125,15825.419921875,-170505.34375,113031.828125
32.22773766517639,-212545.515625,-116059.40625,-65541.3203125,244328.765625,-40777.55078125,12141.08984375,-176138.140625,128054.5390625
32.23478841781616,-211068.453125,-101410.3515625,-59387.98046875,255891.265625,-38010.3203125,7872.77001953125,-165893.046875,65397.75
32.24237680435181,-208260.125,-82922.46875,-50071.53125,276306.625,-23272.94921875,7331.47021484375,-155014.296875,10865.400390625
32.24967408180237,-207806.796875,-86340.0625,-50447.66015625,276881.0,-17812.2109375,10371.349609375,-158408.609375,38398.890625
32.25676941871643,-211391.90625,-108707.5390625,-61425.69140625,254254.9375,-31534.2890625,11316.9697265625,-172597.4375,109205.78125
32.26484823226929,-214183.875,-119686.4296875,-68269.6875,238033.28125,-47150.28125,7616.9501953125,-178245.140625,124142.7109375
32.27783155441284,-212688.90625,-104979.2890625,-62103.55859375,249579.796875,-44385.05859375,3359.93994140625,-168013.203125,61551.1484375
32.300952196121216,-209833.40625,-86400.953125,-52751.87890625,270054.28125,-29582.599609375,2841.659912109375,-157133.265625,7149.740234375
32.310619831085205,-209388.375,-89772.28125,-53146.6484375,270646.9375,-24128.25,5872.14990234375,-160540.796875,34688.2890625
32.322630643844604,-213011.09375,-112110.25,-64155.19921875,248009.515625,-37900.98046875,6815.77001953125,-174720.640625,105361.1875
32.33073973655701,-215828.734375,-123093.4296875,-70998.4921875,231787.65625,-53542.80859375,3125.2900390625,-180347.9375,120181.2421875
32.33884286880493,-214311.4375,-108371.84375,-64791.96875,243411.328125,-50726.0390625,-1114.1300048828125,-170100.765625,57591.109375
32.3490686416626,-211420.375,-89745.6328125,-55411.19921875,263973.125,-35839.12890625,-1594.72998046875,-159236.5,3410.010009765625
32.35854244232178,-210977.4375,-93098.1328125,-55827.671875,264577.5625,-30379.490234375,1449.9200439453125,-162672.15625,31079.33984375
32.36606454849243,-214644.171875,-115466.46875,-66823.6796875,241911.203125,-44210.9609375,2362.06005859375,-176843.625,101579.25
32.377280950546265,-217487.40625,-126487.5625,-73580.703125,225689.296875,-59877.01953125,-1354.4599609375,-182448.453125,116270.890625
32.38447022438049,-215933.546875,-111694.15625,-67316.25,237406.765625,-56969.26953125,-5576.60986328125,-172195.734375,53920.46875
32.40025615692139,-212991.59375,-92897.8125,-57948.7890625,258045.796875,-41991.671875,-6082.77001953125,-161345.359375,-10.0600004196167
32.41183876991272,-212531.3125,-96147.7421875,-58282.94921875,258704.546875,-36456.2109375,-3058.77001953125,-164776.765625,27637.630859375
32.4196298122406,-216254.3125,-118636.8125,-69147.3125,236003.5625,-50316.19921875,-2141.860107421875,-178970.640625,97901.9296875
32.42753052711487,-219151.28125,-129762.140625,-75900.3671875,219753.953125,-66050.6328125,-5851.02978515625,-184590.890625,112400.3125
32.434882164001465,-217588.6875,-114911.140625,-69765.046875,231466.03125,-63186.12890625,-10086.009765625,-174340.796875,50152.73828125
32.44289708137512,-214600.921875,-96000.0625,-60485.8515625,252137.875,-48177.390625,-10582.01953125,-163484.546875,-3516.47998046875
32.45035529136658,-214139.6875,-99259.90625,-60851.6796875,252783.046875,-42651.55859375,-7542.419921875,-166934.3125,24155.94921875
32.45760941505432,-217892.765625,-121817.171875,-71749.890625,230049.78125,-56559.140625,-6615.68994140625,-181137.953125,94202.9609375
32.46459078788757,-220796.09375,-132969.109375,-78547.0625,213804.078125,-72324.4765625,-10302.8798828125,-186747.1875,108588.9921875
32.473029375076294,-219223.140625,-118103.3828125,-72431.6171875,225547.203125,-69449.53125,-14508.4404296875,-176481.796875,46345.859375
32.48164772987366,-216231.609375,-99190.34375,-63149.890625,246243.453125,-54405.98046875,-14966.4404296875,-165622.296875,-7321.5
32.49006271362305,-215791.34375,-102474.421875,-63578.1796875,246855.953125,-48915.6796875,-11928.7998046875,-169094.390625,20316.220703125
32.507142305374146,-219528.1875,-124976.75,-74549.6796875,224151.34375,-62839.55859375,-10998.5400390625,-183287.359375,90388.5
32.5174355506897,-222403.59375,-136063.734375,-81369.7890625,207950.328125,-78575.8125,-14660.6904296875,-188876.65625,104849.0234375
32.526458978652954,-220815.640625,-121229.28125,-75201.5703125,219728.6875,-75649.21875,-18801.55078125,-178596.234375,42626.9609375
32.534284830093384,-217845.1875,-102454.25,-65884.21875,240425.328125,-60597.328125,-19198.990234375,-167740.84375,-11109.7802734375
32.54331135749817,-217402.8125,-105774.3203125,-66352.09375,241084.453125,-55080.0390625,-16116.91015625,-171199.0625,16566.900390625
32.5519745349884,-221107.5625,-128194.5390625,-77415.8125,218418.203125,-68970.96875,-15178.0595703125,-185391.5,86907.6796875
32.56415057182312,-223949.796875,-139188.40625,-84215.21875,202259.765625,-84650.3828125,-18842.890625,-190977.453125,101459.0390625
32.57649230957031,-222411.125,-124421.5234375,-77957.2109375,214006.828125,-81732.0,-23031.330078125,-180720.0625,38930.23046875
32.58381938934326,-219516.875,-105808.6015625,-68584.546875,234605.046875,-66740.5703125,-23486.51953125,-169900.484375,-15078.2099609375
32.59314489364624,-219048.1875,-109176.1171875,-68970.0703125,235292.609375,-61139.16015625,-20350.650390625,-173340.53125,12858.8203125
32.61138916015625,-222644.40625,-131494.390625,-79878.71875,212808.109375,-74779.0390625,-19248.630859375,-187464.875,83789.0234375
32.61923933029175,-225441.296875,-142399.703125,-86604.5625,196795.203125,-90304.8125,-22834.58984375,-193010.734375,98522.25
32.62776207923889,-223974.921875,-127677.7421875,-80418.0234375,208473.1875,-87483.5078125,-27113.439453125,-182800.984375,35693.6015625
32.63533401489258,-221160.875,-109157.4765625,-71133.8125,228926.734375,-72643.34375,-27684.55078125,-172052.984375,-18529.69921875
32.643683671951294,-220635.625,-112512.03125,-71467.9296875,229641.65625,-66965.8671875,-24473.0,-175469.515625,9811.349609375
32.65368628501892,-224066.515625,-134667.890625,-82201.78125,207430.765625,-80288.2265625,-23140.240234375,-189463.296875,81340.1796875
32.66340208053589,-226800.328125,-145471.296875,-88852.3671875,191610.9375,-95624.6015625,-26608.80078125,-194945.359375,96196.8984375
32.67162013053894,-225503.28125,-130863.6796875,-82843.9765625,203110.0,-93034.5625,-31103.23046875,-184861.4375,32662.919921875
32.68266224861145,-222865.1875,-112476.9296875,-73745.0703125,223281.546875,-78493.5625,-31943.7109375,-174250.1875,-22247.509765625
32.68982982635498,-222295.546875,-115795.578125,-74022.8671875,223992.90625,-72767.21875,-28705.599609375,-177640.265625,6282.27978515625
32.69729781150818,-225501.65625,-137747.015625,-84457.03125,202125.09375,-85663.609375,-27051.259765625,-191449.625,78594.6875
32.71130299568176,-228157.203125,-148466.890625,-90951.3125,186539.0,-100737.203125,-30343.6796875,-196851.84375,93721.109375
32.718273639678955,-227016.09375,-133947.671875,-85108.34375,197870.09375,-98332.5625,-35038.5703125,-186889.375,29655.029296875
32.725913763046265,-224550.234375,-115633.546875,-76242.0703125,217685.921875,-84129.25,-36215.5,-176447.3125,-25809.19921875
32.7330105304718,-223931.390625,-118839.8515625,-76417.6875,218375.609375,-78362.1875,-33009.6796875,-179810.546875,2801.659912109375
32.7403724193573,-226988.015625,-140718.8125,-86538.1328125,196749.28125,-90929.65625,-31089.740234375,-193486.328125,75676.15625
32.74785804748535,-229619.90625,-151465.296875,-92923.5078125,181311.296875,-105858.390625,-34251.26171875,-198830.8125,90854.5625
32.75462865829468,-228601.8125,-136970.765625,-87305.4609375,192523.546875,-103646.859375,-39129.98046875,-188957.1875,26365.140625
32.76612687110901,-226212.578125,-118614.5390625,-78642.8125,212191.65625,-89619.6875,-40509.80078125,-178603.671875,-29353.4296875
32.77460241317749,-225561.84375,-121823.5234375,-78763.3515625,212853.3125,-83818.0234375,-37272.9296875,-181970.375,-530.2000122070312
32.78225231170654,-228561.140625,-143739.5625,-88679.5078125,191313.34375,-96234.953125,-35180.91015625,-195580.84375,72587.3984375
32.790387868881226,-231218.9375,-154543.90625,-95057.9296875,175885.265625,-111178.21875,-38318.3515625,-200925.90625,87674.2890625
32.79788017272949,-230330.40625,-140104.734375,-89720.0703125,186915.703125,-109235.3984375,-43422.46875,-191162.75,22612.529296875
32.8139111995697,-228023.984375,-121719.1796875,-81254.109375,206403.1875,-95386.09375,-44971.08984375,-180887.671875,-33431.01171875
32.82379722595215,-227277.734375,-124797.6484375,-81208.046875,207156.828125,-89393.578125,-41566.94921875,-184170.03125,-4158.35009765625
32.83190965652466,-230088.984375,-146541.796875,-90781.75,185955.734375,-101390.0390625,-39121.48828125,-197602.296875,69648.2265625
32.83936524391174,-232727.796875,-157321.765625,-97124.3984375,170663.90625,-116217.1484375,-42158.8515625,-202924.3125,84747.2265625
32.84707999229431,-232032.046875,-143036.71875,-92121.65625,181420.109375,-114609.828125,-47535.37890625,-193332.984375,19009.740234375
32.85670042037964,-229892.703125,-124800.5078125,-83951.4375,200556.40625,-101128.2578125,-49384.9296875,-183210.875,-37624.03125
32.871246337890625,-229086.703125,-127823.03125,-83818.0625,201328.59375,-95069.2265625,-45929.9609375,-186436.625,-8148.0498046875
32.87871527671814,-231693.34375,-149391.71875,-93083.8671875,180458.046875,-106676.78125,-43143.37109375,-199692.515625,66466.859375
32.885496377944946,-234244.90625,-160061.234375,-99306.546875,165406.34375,-121280.640625,-45988.66015625,-204927.703125,81853.3515625
32.89291572570801,-233694.15625,-145880.34375,-94535.4609375,176009.015625,-119899.6171875,-51558.5,-195449.703125,15453.48046875
32.89993333816528,-231718.65625,-127816.3125,-86611.8515625,194833.4375,-106739.6328125,-53659.109375,-185477.328125,-41735.26953125
32.915300369262695,-230846.671875,-130821.046875,-86416.109375,195613.171875,-100623.328125,-50115.3984375,-188668.515625,-11860.900390625
32.92298102378845,-233258.1875,-152196.046875,-95449.21875,175068.921875,-111871.640625,-47019.30078125,-201760.171875,63492.87890625
32.930662631988525,-235737.921875,-162762.46875,-101609.4296875,160235.375,-126288.1015625,-49725.48828125,-206923.078125,79010.5390625
32.93779754638672,-235284.875,-148661.25,-96975.71875,170761.125,-125038.109375,-55407.53125,-197520.5625,12154.6298828125
32.94629907608032,-233402.703125,-130677.046875,-89167.9921875,189460.015625,-112027.8515625,-57638.078125,-187615.9375,-45485.26171875
32.95583128929138,-232534.53125,-133683.03125,-89013.96875,190208.84375,-105922.3828125,-54097.1796875,-190813.609375,-15619.419921875
32.96359205245972,-234881.953125,-154982.203125,-98060.046875,169746.125,-117089.4765625,-50917.921875,-203858.78125,59958.0390625
32.97083377838135,-237328.796875,-165522.40625,-104245.0078125,154979.578125,-131461.921875,-53569.98828125,-209006.4375,75601.3984375
32.978474140167236,-236966.109375,-151543.296875,-99688.3984375,165377.296875,-130344.7421875,-59345.19921875,-199681.5,8408.830078125
32.98498010635376,-235230.515625,-133761.515625,-92001.3515625,183792.328125,-117600.6484375,-61752.23046875,-189898.9375,-49704.3203125
32.991790771484375,-234280.84375,-136708.421875,-91794.0703125,184609.15625,-111403.5703125,-58101.140625,-193021.125,-19482.810546875
32.998340368270874,-236367.15625,-157734.890625,-100666.390625,164551.84375,-122124.3125,-54558.94921875,-205869.5625,57192.328125
33.00479197502136,-238768.125,-168192.6875,-106861.171875,149934.546875,-136372.296875,-57128.25,-210991.734375,72941.84375
33.017707109451294,-238712.671875,-154522.765625,-102562.6328125,159914.84375,-135748.15625,-63303.5703125,-201895.984375,4416.47021484375
33.02480959892273,-237198.234375,-136998.859375,-94981.25,177933.1875,-123379.9609375,-65983.5390625,-192243.796875,-54522.19140625
33.03129744529724,-236034.421875,-139746.203125,-94544.8984375,178982.90625,-116851.4375,-62047.19921875,-195184.203125,-23383.5703125
33.03771424293518,-237685.84375,-160343.625,-103085.046875,159586.265625,-126855.0078125,-57950.26953125,-207741.953125,54949.48046875
33.04501152038574,-240042.90625,-170773.234375,-109311.78125,145166.5625,-140966.71875,-60451.80078125,-212886.40625,70839.4609375
33.051260232925415,-240501.484375,-157632.65625,-105472.859375,154450.4375,-141131.421875,-67282.0625,-204186.984375,413.17999267578125
33.06150412559509,-239460.203125,-140620.109375,-98282.5390625,171643.75,-129614.1796875,-70631.3203125,-194867.25,-60224.48828125
33.06822919845581,-238164.40625,-143307.703125,-97703.9921875,172668.046875,-123038.59375,-66621.6875,-197706.4375,-28495.69921875
33.07566952705383,-239315.484375,-163418.796875,-105743.28125,153958.625,-132271.40625,-61912.3515625,-209897.96875,51680.94921875
33.08268928527832,-241526.484375,-173640.03125,-111786.0,139930.6875,-146031.34375,-64186.2890625,-214923.453125,67970.4296875
33.0894079208374,-242480.828125,-160948.953125,-108404.84375,148605.265625,-146944.546875,-71651.3203125,-206581.46875,-4305.7900390625
33.09644341468811,-241947.0625,-144468.5625,-101721.3515625,164879.484375,-136426.890625,-75778.15625,-197644.78125,-66731.84375
33.104265213012695,-240483.125,-147040.8125,-100941.5703125,165916.703125,-129768.4765625,-71668.0078125,-200354.453125,-34339.62109375
33.11272120475769,-241007.171875,-166534.25,-108244.3828125,148165.90625,-137915.203125,-66106.8515625,-212049.703125,48090.94140625
33.12602782249451,-242958.375,-176449.5625,-113929.4296875,134784.859375,-151012.6875,-67894.28125,-216851.59375,65370.23046875
33.132901668548584,-244286.28125,-164086.078125,-110948.390625,143051.59375,-152454.59375,-75809.6328125,-208795.515625,-8219.669921875
33.13992238044739,-244189.8125,-148068.96875,-104792.9375,158548.046875,-142806.359375,-80613.1875,-200232.390625,-72127.2109375
33.146596908569336,-242650.015625,-150633.15625,-103942.84375,159500.671875,-136196.953125,-76485.9765625,-202909.484375,-39328.33984375
33.153677225112915,-242737.5625,-169715.5625,-110700.8125,142419.875,-143587.125,-70292.4296875,-214250.34375,44787.55859375
33.16067409515381,-244524.59375,-179419.734375,-116163.078125,129493.6328125,-156266.84375,-71772.390625,-218893.453125,62548.171875
33.16695761680603,-246098.265625,-167234.109375,-113481.390625,137519.90625,-158075.640625,-80011.4296875,-211018.6875,-12116.48046875
33.17349720001221,-246189.34375,-151352.234375,-107547.8671875,152680.609375,-148792.0,-85114.5390625,-202596.5,-76789.90625
33.17988300323486,-244504.09375,-153758.125,-106493.6328125,153790.734375,-141925.59375,-80783.46875,-205153.390625,-43319.28125
33.18652582168579,-244378.40625,-172642.78125,-112980.328125,137088.9375,-148873.0625,-74236.7421875,-216328.453125,41736.0390625
33.19339346885681,-246117.296875,-182298.96875,-118410.3203125,124349.0390625,-161407.203125,-75607.59375,-220937.046875,59632.359375
33.19984269142151,-247791.265625,-170213.484375,-115895.328125,132254.046875,-163378.125,-83983.2421875,-213162.546875,-15477.23046875
33.206175804138184,-247997.125,-154489.921875,-110142.203125,147170.421875,-154330.703125,-89258.296875,-204873.40625,-80451.2578125
33.21279168128967,-246391.328125,-157016.0625,-109206.8828125,148107.734375,-147656.65625,-85035.4296875,-207508.828125,-47103.12109375
33.22444701194763,-246292.09375,-175892.234375,-115712.46875,131379.09375,-154656.0,-78509.4375,-218675.265625,37889.62890625
33.23049473762512,-248045.28125,-185539.359375,-121166.203125,118608.96875,-167237.109375,-79903.421875,-223281.734375,55706.171875
33.23627042770386,-249692.09375,-173462.078125,-118632.953125,126497.328125,-169215.3125,-88263.046875,-215498.28125,-19353.919921875
33.243000984191895,-249850.6875,-157728.828125,-112810.9609375,141479.40625,-160092.515625,-93457.65625,-207169.984375,-84187.9921875
33.24907732009888,-248318.03125,-160322.734375,-111959.421875,142350.828125,-153515.015625,-89301.3125,-209845.65625,-51063.01953125
33.25498127937317,-248401.625,-179352.5,-118721.7421875,125331.3671875,-160868.90625,-83060.703125,-221149.703125,33283.51953125
33.26182961463928,-250233.734375,-189047.453125,-124297.59375,112378.28125,-173687.09375,-84644.8984375,-225809.890625,50656.12890625
33.26775860786438,-251721.125,-176821.0625,-121541.28125,120484.21875,-175436.09375,-92811.2109375,-217884.796875,-23982.4296875
33.27428388595581,-251724.84375,-160976.765625,-115486.3515625,135766.1875,-165989.90625,-97739.9921875,-209432.953125,-88210.1171875
33.281150341033936,-250307.546875,-163709.609375,-114804.65625,136513.4375,-159590.6875,-93715.9609375,-212220.21875,-55369.23828125
33.28716158866882,-250668.75,-182982.75,-121965.7578125,119023.2890625,-167505.703125,-87924.296875,-223754.234375,27996.640625
33.293920040130615,-252560.84375,-192723.6875,-127630.578125,105846.5625,-180569.15625,-89691.9765625,-228460.34375,45105.6484375
33.300124406814575,-253842.4375,-180340.796875,-124569.90625,114201.8515625,-182026.5,-97594.890625,-220372.078125,-28745.69921875
33.306487798690796,-253667.90625,-164395.546875,-118247.5234375,129797.140625,-172248.953125,-102220.2578125,-211787.765625,-92174.640625
33.313106298446655,-252318.984375,-167205.9375,-117647.5703125,130523.359375,-165942.875,-98255.4609375,-214631.6875,-59498.21875
33.326640367507935,-252864.921875,-186619.78125,-125049.5625,112744.296875,-174221.25,-92749.1796875,-226309.375,23193.69921875
33.332669258117676,-254764.6875,-196322.3125,-130714.1015625,99508.0078125,-187377.8125,-94590.0078125,-231006.03125,40160.7109375
33.342344522476196,-255863.984375,-183764.09375,-127392.1171875,108152.453125,-188533.84375,-102252.8828125,-222761.234375,-33103.80078125
33.350414514541626,-255605.15625,-167776.5625,-120945.5625,123957.890625,-178570.015625,-106731.953125,-214124.90625,-96179.3515625
33.36119794845581,-254396.515625,-170783.15625,-120537.71875,124477.7421875,-172536.78125,-102952.921875,-217129.828125,-63831.62109375
33.36790490150452,-255075.6875,-190281.65625,-128056.0234375,106457.0625,-181081.125,-97658.546875,-228892.15625,18296.48046875
33.37519645690918,-256865.34375,-199786.6875,-133497.546875,93390.140625,-194019.296875,-99356.8125,-233430.59375,35494.37890625
33.382590770721436,-257725.84375,-186955.328125,-129868.046875,102468.1171875,-194701.0625,-106683.1171875,-224978.515625,-36935.05078125
33.390127658843994,-257342.9375,-170863.703125,-123327.21875,118526.1875,-184484.171875,-110987.53125,-216300.375,-99446.359375
33.3971209526062,-256216.078125,-173950.984375,-123024.4296875,118970.84375,-178557.046875,-107307.59375,-219404.953125,-67382.7734375
33.40530729293823,-257017.5,-193583.3125,-130633.65625,100767.203125,-187280.015625,-102144.25,-231261.609375,14335.6796875
33.41180753707886,-258817.890625,-203082.6875,-136047.90625,87694.9921875,-200211.125,-103836.6015625,-235776.734375,31427.05078125
33.417718172073364,-259558.984375,-190087.203125,-132298.6875,96985.640625,-200663.6875,-111007.75,-227212.984375,-40637.69140625
33.430195331573486,-259079.25,-173889.609375,-125688.1875,113217.078125,-190251.09375,-115182.703125,-218484.953125,-102724.8515625
33.43613266944885,-257952.90625,-177013.703125,-125408.0,113670.890625,-184303.828125,-111476.578125,-221628.171875,-70526.703125
33.44677233695984,-258821.421875,-196716.140625,-133065.0,95397.8671875,-193096.703125,-106363.3125,-233531.0625,10909.1796875
33.453638553619385,-260620.4375,-206168.484375,-138444.15625,82379.2109375,-205970.265625,-108030.7578125,-238008.859375,27860.310546875
33.4627730846405,-261304.078125,-193085.546875,-134640.609375,91799.40625,-206272.015625,-115107.9765625,-229392.84375,-44003.73046875
33.46855187416077,-260789.953125,-176852.53125,-128019.2109375,108094.65625,-195756.796875,-119221.796875,-220658.953125,-105884.1796875
33.47488260269165,-259675.15625,-179990.984375,-127754.5078125,108535.2578125,-189787.65625,-115513.53125,-223824.625,-73691.0
33.48097229003906,-260551.09375,-199681.265625,-135393.109375,90283.6015625,-198536.046875,-110393.8203125,-235720.046875,7627.43994140625
33.486733198165894,-262346.8125,-209126.015625,-140769.15625,77301.1328125,-211362.203125,-112032.28125,-240189.390625,24584.19921875
33.49345517158508,-263024.9375,-196028.96875,-136981.40625,86750.8984375,-211621.3125,-119081.9375,-231571.796875,-47236.2109375
33.49939846992493,-262523.6875,-179796.4375,-130389.796875,103035.3671875,-201088.453125,-123200.5703125,-222858.875,-109133.59375
33.50536561012268,-261410.65625,-182930.875,-130128.109375,103476.4375,-195087.40625,-119482.578125,-226032.0,-76942.7421875
33.51257038116455,-262257.46875,-202611.90625,-137734.484375,85243.5234375,-203757.5,-114294.4921875,-237914.5,4581.68994140625
33.51844763755798,-264036.6875,-212016.796875,-143090.796875,72317.3203125,-216505.890625,-115881.703125,-242358.90625,21555.51953125
33.53300881385803,-264786.0,-198960.65625,-139382.09375,81699.046875,-216834.953125,-123009.5078125,-233785.234375,-50570.5390625
33.540501832962036,-264364.03125,-182798.21875,-132877.40625,97859.3515625,-206415.875,-127239.578125,-225133.15625,-112757.7890625
33.54762387275696,-263186.71875,-185899.609375,-132555.59375,98337.8515625,-200313.546875,-123430.6015625,-228274.90625,-80171.6875
33.55426239967346,-263826.84375,-205378.265625,-139933.65625,80428.2265625,-208585.328125,-117930.0390625,-240002.234375,2192.260009765625
33.562193870544434,-265589.9375,-214748.453125,-145282.703125,67621.671875,-221224.328125,-119458.6875,-244435.671875,19151.689453125
33.56822991371155,-266629.5,-201957.8125,-141906.515625,76604.2265625,-222015.875,-126980.1328125,-236084.4375,-54159.55078125
33.57535457611084,-266460.15625,-186048.578125,-135672.546875,92277.6796875,-212069.734375,-131585.234375,-227627.6875,-117231.1015625
33.58158087730408,-265220.0,-189105.71875,-135272.609375,92711.359375,-205938.078125,-127739.78125,-230721.015625,-84358.9375
33.58772611618042,-265677.0,-208395.3125,-142438.140625,75059.7578125,-213909.796875,-122019.78125,-242298.25,-1429.1300048828125
33.59660220146179,-267407.625,-217709.765625,-147743.578125,62380.12890625,-226453.8125,-123496.2578125,-246689.203125,15522.5302734375
33.60254192352295,-268590.25,-205034.953125,-144507.46875,71216.640625,-227439.1875,-131180.40625,-238435.578125,-58261.5390625
33.60928249359131,-268549.1875,-189256.875,-138405.671875,86655.8203125,-217728.265625,-135962.59375,-230082.15625,-121664.4921875
33.615262269973755,-267269.75,-192307.109375,-137976.953125,87056.9296875,-211600.375,-132106.75,-233164.0,-88615.3828125
33.62124490737915,-267594.0,-211513.59375,-145015.109375,69542.8515625,-219407.8125,-126236.2578125,-244665.125,-5244.06005859375
33.63391160964966,-269285.28125,-220768.8125,-150256.453125,56984.53125,-231845.359375,-127627.9609375,-249007.734375,11827.6103515625
33.640316009521484,-270560.8125,-208133.4375,-147089.203125,65764.390625,-232918.15625,-135393.546875,-240792.640625,-62215.71875
33.64699411392212,-270576.09375,-192393.1875,-141044.734375,81116.15625,-223294.234375,-140258.234375,-232484.796875,-125714.171875
33.65436792373657,-269217.4375,-195399.984375,-140554.296875,81566.1484375,-217094.265625,-136335.296875,-235540.28125,-92383.8203125
33.661672830581665,-269418.3125,-214496.015625,-147440.78125,64241.4609375,-224678.734375,-130294.2421875,-246951.46875,-8645.1103515625
33.66816711425781,-271078.875,-223701.125,-152622.09375,51817.28125,-236993.09375,-131597.203125,-251252.25,8507.6298828125
33.67510962486267,-272439.125,-211115.234375,-149548.3125,60534.53125,-238160.34375,-139443.265625,-243089.9375,-65784.796875
33.68195652961731,-272537.78125,-195454.953125,-143622.453125,75731.328125,-228695.90625,-144434.703125,-234863.0625,-129506.7890625
33.68852996826172,-271164.53125,-198492.59375,-143123.359375,76122.578125,-222514.84375,-140515.015625,-237936.90625,-96024.6171875
33.69848322868347,-271270.125,-217531.125,-149869.265625,58915.9609375,-229938.109375,-134336.546875,-249280.4375,-11911.16015625
33.705538511276245,-272878.625,-226663.65625,-154951.828125,46639.96875,-242107.703125,-135527.203125,-253516.1875,5425.35986328125
33.71334981918335,-274242.15625,-214022.84375,-151892.25,55436.62109375,-243226.125,-143357.25,-245339.375,-68885.2421875
33.720216274261475,-274351.59375,-198322.75,-146002.359375,70629.3203125,-233756.90625,-148377.34375,-237129.34375,-132624.359375
33.729796171188354,-272967.65625,-201323.71875,-145471.484375,71019.8984375,-227538.5625,-144450.875,-240209.703125,-99095.9296875
33.744171380996704,-273117.78125,-220421.046875,-152196.140625,53763.5390625,-234991.859375,-138317.453125,-251586.1875,-15219.5498046875
33.7501859664917,-274801.125,-229667.875,-157352.75,41373.640625,-247292.984375,-139606.640625,-255883.484375,1850.989990234375
33.75635290145874,-276189.46875,-217028.171875,-154381.875,50102.140625,-248511.953125,-147499.203125,-247730.671875,-72505.2890625
33.76530337333679,-276223.3125,-201177.625,-148443.0,65388.96875,-238937.84375,-152428.453125,-239460.546875,-135993.6875
33.77143311500549,-274819.5,-204130.484375,-147831.546875,65844.59375,-232632.859375,-148439.1875,-242514.109375,-102507.890625
33.77807283401489,-275061.0625,-223367.8125,-154546.375,48472.03125,-240172.609375,-142357.3125,-253953.390625,-18925.2890625
33.784018754959106,-276820.5625,-232684.5,-159744.234375,35987.328125,-252590.59375,-143727.21875,-258285.171875,-2190.070068359375
33.79062604904175,-278136.8125,-219916.46875,-156768.484375,44808.109375,-253723.75,-151547.015625,-250074.890625,-76308.828125
33.796924352645874,-278063.8125,-203904.75,-150793.625,60237.69921875,-243978.671875,-156362.21875,-241748.453125,-139355.484375
33.80281066894531,-276680.3125,-206883.3125,-150176.6875,60656.98046875,-237666.59375,-152382.203125,-244839.703125,-105826.1015625
33.81152820587158,-277091.0625,-226319.34375,-156994.078125,43035.0390625,-245467.21875,-146506.46875,-256399.703125,-22900.5390625
33.817543268203735,-278934.09375,-235742.546875,-162286.0625,30383.01953125,-258086.90625,-148004.453125,-260788.375,-6526.7099609375
33.82447004318237,-280141.46875,-222846.0625,-159290.8125,39333.58984375,-259107.90625,-155713.046875,-252499.234375,-80272.4921875
33.83130764961243,-279928.09375,-206671.546875,-153221.234375,54987.25,-249099.234375,-160330.84375,-244069.21875,-142763.109375
33.845606327056885,-278592.25,-209724.125,-152645.609375,55362.94921875,-242819.484375,-156358.9375,-247201.65625,-109290.46875
33.851956367492676,-279158.96875,-229320.59375,-159602.90625,37517.890625,-250890.1875,-150667.484375,-258858.90625,-26993.470703125
33.859015703201294,-281053.375,-238773.234375,-164956.640625,24766.349609375,-263638.96875,-152250.828125,-263262.875,-10934.3095703125
33.864985704422,-282135.90625,-225744.078125,-161861.734375,33877.23046875,-264476.125,-159807.3125,-254877.5,-84282.6875
33.87317609786987,-281817.71875,-209495.5625,-155705.09375,49704.26953125,-254269.53125,-164255.96875,-246390.234375,-146315.5
33.879616022109985,-280526.28125,-212593.4375,-155187.046875,50070.01171875,-248033.359375,-160304.984375,-249558.375,-112980.5703125
33.885499000549316,-281205.21875,-232301.3125,-162279.953125,32057.720703125,-256301.90625,-154742.3125,-261302.546875,-30985.55078125
33.8952739238739,-283105.03125,-241740.546875,-167662.78125,19275.810546875,-269106.46875,-156357.96875,-265700.03125,-15051.8896484375
33.90548801422119,-284104.4375,-228630.625,-164471.5,28507.759765625,-269802.3125,-163798.203125,-257249.671875,-88161.90625
33.9131395816803,-283732.5,-212358.265625,-158241.484375,44420.05859375,-259476.40625,-168131.234375,-248732.546875,-149899.359375
33.91948962211609,-282481.40625,-215520.3125,-157785.484375,44731.33984375,-253293.5,-164191.84375,-251945.625,-116504.296875
33.92750144004822,-283240.4375,-235283.203125,-165006.234375,26599.9296875,-261721.3125,-158754.453125,-263745.90625,-34832.05078125
33.93529176712036,-285146.59375,-244698.21875,-170421.4375,13805.9599609375,-274585.09375,-160420.203125,-268138.875,-19061.470703125
33.95095634460449,-286069.0,-231520.875,-167115.140625,23156.9296875,-275158.96875,-167758.203125,-259628.421875,-91984.6171875
33.96133899688721,-285627.53125,-215210.75,-160757.265625,39211.46875,-264652.125,-171940.296875,-251053.40625,-153402.390625
33.968520402908325,-284392.3125,-218407.46875,-160324.3125,39550.6015625,-258442.53125,-167963.1875,-254269.6875,-119960.46875
33.978567123413086,-285208.0625,-238205.75,-167660.109375,21362.400390625,-266948.0625,-162595.71875,-266108.21875,-38463.69140625
33.98580479621887,-287130.0625,-247615.453125,-173112.65625,8542.58984375,-279840.59375,-164302.796875,-270507.84375,-22832.5390625
33.993961572647095,-287992.8125,-234387.765625,-169695.640625,17980.669921875,-280292.34375,-171566.40625,-261948.375,-95646.0078125
34.00127553939819,-287517.90625,-218065.4375,-163268.875,34114.6484375,-269695.96875,-175684.1875,-253358.203125,-156968.28125
34.00872325897217,-286354.28125,-221338.15625,-162955.96875,34357.890625,-263602.96875,-171785.234375,-256653.390625,-123622.671875
34.01607918739319,-287247.5625,-241160.09375,-170412.84375,16050.580078125,-272239.78125,-166533.109375,-268542.8125,-42384.01171875
34.02392220497131,-289153.0,-250514.484375,-175832.484375,3236.06005859375,-285105.84375,-168241.46875,-272910.875,-26788.669921875
34.031304359436035,-289931.53125,-237225.796875,-172273.65625,12785.099609375,-285393.1875,-175393.125,-264290.6875,-99341.6015625
34.0375120639801,-289412.5,-220914.203125,-165763.40625,28976.73046875,-274680.5,-179417.921875,-255689.21875,-160347.1875
34.050838470458984,-288287.96875,-224219.78125,-165502.1875,29195.689453125,-268620.71875,-175553.015625,-259010.0625,-127094.5234375
34.05740809440613,-289282.0625,-244111.515625,-173102.96875,10738.5595703125,-277429.0,-170443.3125,-270972.5625,-46191.078125
34.06620717048645,-291188.03125,-253439.5,-178541.40625,-2093.739990234375,-290331.90625,-172193.265625,-275335.5,-30726.009765625
34.072542905807495,-291872.375,-240071.84375,-174849.234375,7595.43994140625,-290459.71875,-179232.328125,-266644.46875,-103022.0625
34.079456090927124,-291280.5,-223708.046875,-168215.25,23940.380859375,-279564.46875,-183129.28125,-257984.234375,-163745.234375
34.085593461990356,-290202.59375,-227063.484375,-168012.96875,24124.8203125,-273530.84375,-179288.9375,-261347.421875,-130473.1484375
34.094196796417236,-291257.8125,-246971.96875,-175722.375,5574.419921875,-282444.84375,-174277.28125,-273353.3125,-49747.76171875
34.101261138916016,-293113.6875,-256188.515625,-181103.0625,-7174.35009765625,-295258.65625,-175993.03125,-277653.96875,-34276.05859375
34.10927391052246,-293680.875,-242712.953125,-177233.53125,2750.780029296875,-295126.03125,-182874.984375,-268855.28125,-106405.2734375
34.11586952209473,-293106.90625,-226491.34375,-170611.5,19132.900390625,-284194.5,-186751.4375,-260238.25,-167183.046875
34.12516665458679,-292177.03125,-230098.609375,-170623.1875,19098.5703125,-278408.75,-183054.140625,-263745.53125,-134159.765625
34.13173246383667,-293336.75,-250050.625,-178484.078125,383.4200134277344,-287504.03125,-178178.140625,-275807.1875,-53694.87109375
34.13782548904419,-295168.65625,-259199.65625,-183857.21875,-12377.5498046875,-300307.03125,-179891.75,-280078.3125,-38132.62109375
34.149433612823486,-295673.3125,-245741.0625,-179878.640625,-2404.360107421875,-300067.5,-186673.703125,-271248.28125,-110005.6328125
34.15657043457031,-295068.3125,-229585.953125,-173152.09375,14030.3203125,-289031.125,-190421.984375,-262602.46875,-170530.671875
34.16275095939636,-294168.46875,-233197.234375,-173213.796875,14011.2900390625,-283272.125,-186724.203125,-266103.53125,-137535.78125
34.16844987869263,-295366.375,-253095.984375,-181205.390625,-4774.27978515625,-292475.34375,-181960.5625,-278201.9375,-57135.109375
34.17467999458313,-297202.28125,-262161.71875,-186583.484375,-17554.4296875,-305294.15625,-183783.890625,-282481.5625,-41825.01171875
34.18054389953613,-297640.40625,-248676.515625,-182433.765625,-7460.60009765625,-304874.6875,-190483.453125,-273588.96875,-113625.3515625
34.18615961074829,-296993.15625,-232605.0625,-175564.640625,9083.3203125,-293663.8125,-194109.75,-264892.71875,-173961.5625
34.19248294830322,-296127.96875,-236325.390625,-175593.96875,9056.1904296875,-287847.9375,-190389.375,-268412.90625,-140837.5
34.19843769073486,-297408.46875,-256268.90625,-183621.375,-9803.490234375,-297100.65625,-185729.375,-280567.4375,-60630.76171875
34.206798791885376,-299226.0,-265279.28125,-188989.09375,-22545.529296875,-309901.875,-187575.703125,-284833.28125,-45349.03125
34.21298432350159,-299600.03125,-251737.71875,-184793.453125,-12362.5302734375,-309398.78125,-194227.953125,-275892.25,-117058.4765625
34.218661069869995,-298901.21875,-235620.53125,-177854.515625,4272.990234375,-298069.84375,-197766.421875,-267146.4375,-177185.40625
34.225507497787476,-298031.40625,-239322.796875,-177837.8125,4288.91015625,-292172.03125,-193986.6875,-270658.53125,-143876.765625
34.23126983642578,-299360.40625,-259307.703125,-185919.734375,-14634.51953125,-301469.5,-189380.1875,-282886.59375,-63730.8203125
34.23756289482117,-301286.90625,-268466.5625,-191488.234375,-27598.720703125,-314528.78125,-191419.4375,-287306.34375,-48736.53125
34.24430298805237,-301692.875,-254999.765625,-187392.59375,-17575.119140625,-314210.625,-198174.5,-278415.75,-120556.078125
34.25567364692688,-300954.5625,-238857.109375,-180381.890625,-920.25,-302847.5625,-201658.125,-269604.75,-180568.671875
34.261839866638184,-300085.1875,-242540.484375,-180309.59375,-857.6400146484375,-296900.5625,-197843.8125,-273072.21875,-147295.25
34.26750159263611,-301465.75,-262542.09375,-188413.9375,-19798.66015625,-306228.53125,-193277.1875,-285315.25,-67252.2109375
34.273728370666504,-303378.125,-271625.84375,-193956.828125,-32706.359375,-319254.8125,-195320.953125,-289702.3125,-52352.1484375
34.28073859214783,-303715.96875,-258068.453125,-189808.015625,-22561.029296875,-318830.34375,-202026.8125,-280758.875,-124163.2578125
34.286455392837524,-302958.0,-241920.640625,-182781.046875,-5865.56982421875,-307404.46875,-205478.171875,-271939.375,-184129.59375
34.29271149635315,-302122.34375,-245632.0625,-182711.625,-5846.2099609375,-301465.5625,-201655.984375,-275433.53125,-150703.875
34.30052661895752,-303542.96875,-265640.09375,-190820.34375,-24829.30078125,-310821.65625,-197119.15625,-287706.28125,-70662.3203125
34.30668878555298,-305445.71875,-274711.6875,-196375.921875,-37717.05859375,-323842.34375,-199189.40625,-292093.75,-55854.37109375
34.31369662284851,-305752.28125,-261144.375,-192234.625,-27533.19921875,-323395.375,-205889.4375,-283127.71875,-127754.890625
34.31958866119385,-304975.375,-245000.4375,-185189.703125,-10823.2998046875,-311939.0,-209303.734375,-274295.375,-187624.328125
34.32621908187866,-304156.65625,-248751.484375,-185117.171875,-10817.580078125,-305979.25,-205456.46875,-277805.78125,-154021.375
34.33300065994263,-305601.1875,-268788.6875,-193243.375,-29842.4296875,-315336.9375,-200927.375,-290107.09375,-73839.390625
34.339473485946655,-307501.90625,-277833.5,-198813.796875,-42719.94140625,-328356.6875,-203013.015625,-294488.375,-59111.69921875
34.34595966339111,-307802.34375,-264245.59375,-194678.90625,-32530.7890625,-327911.125,-209726.796875,-285510.125,-131149.828125
34.35822319984436,-307021.84375,-248080.765625,-187615.1875,-15811.25,-316437.5625,-213139.234375,-276661.53125,-191083.40625
34.36647176742554,-306206.78125,-251815.78125,-187524.09375,-15800.5703125,-310466.125,-209288.09375,-280170.46875,-157437.625
34.372530937194824,-307658.9375,-271815.875,-195649.65625,-34787.12890625,-319806.46875,-204784.9375,-292470.1875,-77402.1171875
34.37867093086243,-309572.78125,-280848.8125,-201258.875,-47664.30859375,-332847.21875,-206914.34375,-296877.0,-62808.328125
34.38484287261963,-309869.03125,-267249.53125,-197140.296875,-37473.25,-332414.375,-213623.40625,-287896.75,-134834.546875
34.39225649833679,-309083.625,-251086.359375,-190049.1875,-20764.400390625,-320920.09375,-216983.6875,-279037.84375,-194564.3125
34.39840316772461,-308248.3125,-254776.59375,-189899.421875,-20721.099609375,-314876.75,-213076.1875,-282525.4375,-160755.21875
34.405186891555786,-309679.59375,-274754.09375,-197991.59375,-39672.859375,-324148.78125,-208547.4375,-294833.5625,-80572.8125
34.4142906665802,-311591.9375,-283799.3125,-203626.9375,-52523.51953125,-337190.46875,-210704.203125,-299247.25,-66108.8984375
34.421045541763306,-311907.40625,-270235.90625,-199556.140625,-42351.5390625,-336800.34375,-217450.0625,-290271.5,-138315.40625
34.42756247520447,-311136.90625,-254109.796875,-192481.546875,-25659.1796875,-325323.71875,-220811.0625,-281408.90625,-198086.5625
34.43317723274231,-310323.5625,-257859.40625,-192332.09375,-25639.109375,-319284.75,-216894.984375,-284915.78125,-164192.359375
34.43915939331055,-311735.28125,-277796.40625,-200363.046875,-44537.87890625,-328466.3125,-212327.796875,-297202.4375,-83930.3125
34.44540858268738,-313598.25,-286736.9375,-205933.546875,-57283.12109375,-341371.59375,-214426.6875,-301566.21875,-69415.53125
34.45090460777283,-313892.6875,-273128.3125,-201860.796875,-47051.1015625,-340923.53125,-221145.421875,-292563.09375,-141662.703125
34.46281719207764,-313153.53125,-257035.046875,-194833.828125,-30390.080078125,-329488.9375,-224531.765625,-283723.65625,-201526.8125
34.46832776069641,-312355.5,-260794.34375,-194688.578125,-30385.740234375,-323447.21875,-220614.75,-287244.9375,-167573.8125
34.47441077232361,-313762.125,-280714.5,-202703.59375,-49273.3984375,-332579.125,-216036.15625,-299538.125,-87275.5234375
34.480122566223145,-315605.0625,-289633.84375,-208280.296875,-61979.5390625,-345445.25,-218129.796875,-303895.40625,-72798.2578125
34.485626459121704,-315917.0625,-276047.5625,-204260.421875,-51767.2109375,-345037.15625,-224880.578125,-294911.3125,-145151.390625
34.49186038970947,-315205.46875,-259986.71875,-197259.546875,-35167.171875,-333644.0625,-228281.953125,-286096.09375,-204976.203125
34.49764370918274,-314415.3125,-263744.25,-197098.46875,-35184.9609375,-327592.5,-224350.4375,-289618.46875,-170938.046875
34.50336194038391,-315800.9375,-283647.90625,-205086.78125,-54051.5,-336677.21875,-219735.3125,-301903.09375,-90497.1171875
34.511688232421875,-317644.71875,-292542.59375,-210678.3125,-66735.3203125,-349542.21875,-221856.953125,-306256.53125,-76213.9375
34.518073320388794,-317963.40625,-278941.71875,-206682.5625,-56522.28125,-349159.71875,-228643.6875,-297268.375,-148771.34375
34.52498722076416,-317259.125,-262890.40625,-199692.03125,-39928.1484375,-337774.96875,-232049.25,-288457.65625,-208589.015625
34.53179335594177,-316468.0,-266669.59375,-199518.796875,-39960.76953125,-331703.28125,-228076.296875,-291991.09375,-174302.3125
34.54000735282898,-317840.40625,-286542.5625,-207468.921875,-58791.12109375,-340728.375,-223423.59375,-304256.34375,-93773.421875
34.55033779144287,-319666.75,-295404.0,-213045.5625,-71430.0703125,-353554.0625,-225529.984375,-308589.625,-79543.1171875
34.55805277824402,-319996.59375,-281822.0625,-209089.546875,-61241.58984375,-353201.1875,-232342.3125,-299620.71875,-152199.09375
34.570101737976074,-319319.09375,-265827.5,-202142.453125,-44733.48046875,-341870.15625,-235775.125,-290846.46875,-211997.578125
34.57683348655701,-318523.40625,-269613.0625,-201954.390625,-44778.5,-335782.53125,-231782.265625,-294376.28125,-177553.34375
34.58276677131653,-319905.1875,-289475.5625,-209899.875,-63604.078125,-344807.625,-227133.734375,-306635.75,-97054.96875
34.58853197097778,-321765.40625,-298333.0625,-215518.6875,-76257.328125,-357700.96875,-229309.734375,-310971.375,-83171.4296875
34.59695887565613,-322109.4375,-284748.21875,-211581.109375,-66078.578125,-357373.21875,-236161.5,-302004.34375,-156040.5
34.602943897247314,-321401.34375,-268740.625,-204597.34375,-49547.578125,-345981.03125,-239545.796875,-293222.8125,-215626.9375
34.611634254455566,-320618.0,-272557.0625,-204427.890625,-49622.05859375,-339913.03125,-235557.6875,-296775.09375,-181125.46875
34.61794114112854,-322033.96875,-292431.1875,-212396.9375,-68484.84375,-348987.125,-230949.8125,-309043.21875,-100776.7265625
34.62451124191284,-323868.46875,-301236.28125,-217974.78125,-81079.921875,-361830.40625,-233082.984375,-313341.375,-86838.5390625
34.630959272384644,-324155.5625,-287601.96875,-213985.75,-70812.65625,-361411.46875,-239858.75,-304341.78125,-159509.203125
34.63697171211243,-323437.53125,-271602.9375,-207015.6875,-54267.12890625,-350004.4375,-243238.5625,-295576.03125,-219080.375
34.6441605091095,-322688.5625,-275461.90625,-206888.59375,-54395.109375,-343979.25,-239276.625,-299166.0625,-184584.125
34.65001726150513,-324145.40625,-295373.34375,-214895.125,-73324.1171875,-353119.21875,-234699.234375,-311461.3125,-104265.1796875
34.6563937664032,-325977.40625,-304151.09375,-220460.6875,-85905.3203125,-365966.46875,-236833.890625,-315737.46875,-90411.71875
34.662867069244385,-326217.625,-290458.28125,-216422.484375,-75566.109375,-365474.75,-243567.6875,-306699.84375,-163059.0625
34.675204277038574,-325461.125,-274446.125,-209419.234375,-58974.69921875,-353987.5625,-246891.0,-297927.6875,-222389.6875
34.68149280548096,-324726.75,-278345.8125,-209322.1875,-59135.48828125,-347982.625,-242932.546875,-301549.1875,-187791.796875
34.68733763694763,-326221.6875,-298279.1875,-217361.4375,-78111.1796875,-357181.21875,-238393.140625,-313862.03125,-107596.03125
34.69398093223572,-328067.78125,-307036.28125,-222928.734375,-90683.5234375,-370053.875,-240547.109375,-318121.21875,-93919.9609375
34.699936628341675,-328291.25,-293317.15625,-218866.1875,-80298.53125,-369518.75,-247258.9375,-309069.71875,-166523.296875
34.70956563949585,-327527.46875,-277322.90625,-211862.40625,-63720.421875,-358012.0625,-250564.703125,-300320.8125,-225682.4375
34.71546745300293,-326788.5,-281242.03125,-211773.046875,-63906.6796875,-352007.0625,-246588.34375,-303959.96875,-190889.4375
34.721391916275024,-328291.5,-301170.15625,-219810.609375,-82886.9921875,-361214.78125,-242048.859375,-316259.9375,-110741.4921875
34.72788333892822,-330143.6875,-309906.21875,-225367.375,-95437.8203125,-374092.46875,-244202.734375,-320499.03125,-97179.0
34.73374533653259,-330367.3125,-296171.75,-221295.484375,-85035.2421875,-373545.6875,-250913.125,-311445.375,-169819.5625
34.74005126953125,-329583.5,-280163.0,-214280.921875,-68424.7109375,-362001.75,-254205.296875,-302700.40625,-228898.890625
34.74648666381836,-328843.25,-284082.15625,-214195.515625,-68594.2734375,-355983.625,-250227.71875,-306341.5,-194131.453125
34.75256133079529,-330356.71875,-304014.09375,-222229.453125,-87581.40625,-365192.65625,-245684.40625,-318639.65625,-114007.7734375
34.75953006744385,-332215.96875,-312726.78125,-227777.59375,-100108.3515625,-378064.5,-247839.4375,-322861.03125,-100580.5078125
34.76574087142944,-332450.375,-298978.3125,-223710.515625,-89697.2265625,-377515.5625,-254567.9375,-313810.71875,-173348.96875
34.7795352935791,-331666.8125,-282980.28125,-216706.640625,-73103.0078125,-365965.5,-257862.6875,-305087.65625,-232340.59375
34.78596591949463,-330937.375,-286932.6875,-216648.21875,-73326.828125,-359975.65625,-253892.015625,-308763.59375,-197423.34375
34.794007301330566,-332452.78125,-306825.8125,-224674.296875,-92321.21875,-369187.34375,-249344.625,-321049.78125,-117306.203125
34.8006854057312,-334299.40625,-315462.34375,-230196.21875,-104786.890625,-382033.59375,-251491.71875,-325232.125,-104024.2265625
34.80705547332764,-334510.875,-301656.5625,-226102.328125,-94294.8515625,-381418.8125,-258192.09375,-316159.53125,-176819.203125
34.81439781188965,-333750.125,-285706.65625,-219130.59375,-77754.7890625,-369887.125,-261500.8125,-307483.9375,-235743.59375
34.82051157951355,-333039.5,-289715.1875,-219104.65625,-78061.3984375,-363954.0625,-257545.875,-311200.75,-200698.265625
34.82716226577759,-334580.125,-309643.59375,-227142.21875,-97101.3671875,-373218.375,-253024.65625,-323496.125,-120637.2890625
34.83385348320007,-336436.125,-318283.375,-232664.140625,-109568.9375,-386085.375,-255183.0625,-327670.1875,-107438.7734375
34.8406400680542,-336649.75,-304473.96875,-228572.78125,-99075.421875,-385482.21875,-261893.109375,-318595.03125,-180316.65625
34.84730625152588,-335827.59375,-288443.15625,-221518.015625,-82429.75,-373828.96875,-265115.625,-309859.75,-239082.796875
34.853471517562866,-335067.5625,-292371.59375,-221401.671875,-82604.65625,-367740.71875,-261061.078125,-313519.28125,-203864.84375
34.860328912734985,-336633.78125,-312341.0,-229482.765625,-101655.8828125,-377033.0,-256564.453125,-325848.4375,-123848.0234375
34.86673140525818,-338581.9375,-321072.65625,-235146.65625,-114243.8515625,-390098.125,-258883.453125,-330105.5,-111136.0703125
34.883753299713135,-338826.40625,-307291.9375,-231102.484375,-103826.8203125,-389575.15625,-265655.40625,-321062.15625,-184165.0625
34.89031982421875,-337977.75,-291245.4375,-224018.453125,-87180.71875,-377875.40625,-268834.25,-312322.8125,-242703.515625
34.89714002609253,-337209.46875,-295194.625,-223900.296875,-87375.9375,-371791.03125,-264752.21875,-315994.90625,-207244.28125
34.90314269065857,-338808.78125,-315175.65625,-231992.125,-106457.390625,-381147.5625,-260294.953125,-328326.6875,-127381.671875
34.911813497543335,-340752.96875,-323865.25,-237626.296875,-119002.828125,-394205.5625,-262613.625,-332547.28125,-114815.6796875
34.91841101646423,-340968.28125,-310041.875,-233551.203125,-108511.7890625,-393618.15625,-269347.5,-323479.96875,-187813.78125
34.926255226135254,-340112.125,-294027.40625,-226478.5625,-91873.75,-381897.78125,-272498.0625,-314767.4375,-246132.453125
34.933122634887695,-339378.96875,-298049.90625,-226411.125,-92156.140625,-375891.53125,-268453.34375,-318491.6875,-210636.203125
34.940630197525024,-341021.1875,-318062.3125,-234525.953125,-111309.296875,-385323.28125,-264051.09375,-330839.0,-130959.671875
34.94845986366272,-342967.9375,-326720.125,-240138.65625,-123836.203125,-398388.375,-266380.34375,-335030.3125,-118560.8984375
34.95597958564758,-343123.75,-312813.6875,-235995.984375,-113228.046875,-397692.78125,-273043.90625,-325903.78125,-191482.515625
34.964356660842896,-342208.71875,-296728.9375,-228857.34375,-96472.1328125,-385837.3125,-276106.375,-317149.96875,-249609.9375
34.97212767601013,-341461.5625,-300727.5625,-228756.796875,-96687.5234375,-379752.40625,-272013.21875,-320858.1875,-214004.546875
34.989786863327026,-343151.125,-320784.09375,-236908.515625,-115877.3125,-389239.4375,-267658.0625,-333239.75,-134491.3125
34.997631549835205,-345138.6875,-329491.3125,-242580.15625,-128478.7265625,-400000.0625,-270050.125,-337471.09375,-122271.6484375
35.00699996948242,-345304.25,-315609.40625,-238470.734375,-117920.21875,-400000.0625,-276732.09375,-328369.375,-195166.9375
35.014230728149414,-344387.46875,-299545.09375,-231356.9375,-101194.8671875,-389908.5625,-279800.53125,-319636.8125,-253175.625
35.02263140678406,-343670.3125,-303575.5625,-231299.5625,-101470.6328125,-383896.90625,-275754.8125,-323379.28125,-217627.5
35.030240058898926,-345387.59375,-323654.84375,-239462.5,-120727.6484375,-393442.15625,-271431.34375,-335771.40625,-138202.78125
35.03699851036072,-347349.3125,-332296.5,-245072.203125,-133254.59375,-400000.0625,-273794.96875,-339943.0625,-126080.3828125
35.04505395889282,-347479.90625,-318347.90625,-240914.328125,-122584.640625,-400000.0625,-280439.75,-330791.28125,-199016.9375
35.05192160606384,-346557.0,-302303.625,-233804.0625,-105850.8984375,-393928.1875,-283480.375,-322075.5625,-256843.796875
35.05974745750427,-345862.25,-306414.59375,-233784.5625,-106218.640625,-387973.15625,-279440.78125,-325871.28125,-221111.703125
35.066524028778076,-347586.25,-326499.125,-241941.4375,-125498.2578125,-397546.28125,-275120.875,-338262.21875,-141685.453125
35.07394790649414,-349549.875,-335094.53125,-247541.65625,-137984.8125,-400000.0625,-277507.15625,-342405.9375,-129800.3828125
35.08693313598633,-349664.59375,-321103.65625,-243364.65625,-127259.40625,-400000.0625,-284137.625,-333229.375,-202794.390625
35.09613370895386,-348722.875,-305036.4375,-236232.359375,-110475.6015625,-397949.46875,-287144.40625,-324496.59375,-260561.546875
35.10245490074158,-348014.21875,-309152.9375,-236190.390625,-110824.9296875,-391943.03125,-283051.875,-328295.125,-224587.046875
35.10974931716919,-349744.40625,-329228.625,-244348.21875,-130095.3125,-400000.0625,-278740.5,-340688.6875,-145234.9375
35.11705660820007,-351716.5625,-337821.1875,-249961.265625,-142576.65625,-400000.0625,-281139.75,-344831.84375,-133436.703125
35.12340807914734,-351828.90625,-323834.5625,-245789.796875,-131851.734375,-400000.0625,-287758.65625,-335656.53125,-206378.0625
35.130053997039795,-350869.96875,-307772.0625,-238640.859375,-115074.40625,-400000.0625,-290725.46875,-326924.21875,-263932.40625
35.13609838485718,-350143.09375,-311863.28125,-238571.15625,-115387.8828125,-395823.71875,-286604.0,-330702.3125,-227917.984375
35.14513373374939,-351894.71875,-331963.53125,-246751.234375,-134679.703125,-400000.0625,-282315.125,-343115.6875,-148626.578125
35.152015209198,-353896.90625,-340565.09375,-252419.59375,-147164.890625,-400000.0625,-284788.375,-347274.25,-137153.78125
35.16148829460144,-354027.03125,-326570.40625,-248269.40625,-136439.578125,-400000.0625,-291443.375,-338103.625,-210277.4375
35.1682665348053,-353035.125,-310468.40625,-241054.28125,-119630.8828125,-400000.0625,-294329.375,-329339.71875,-267572.375
35.17555379867554,-352258.4375,-314521.53125,-240903.6875,-119889.5625,-399612.09375,-290100.09375,-333079.9375,-231177.40625
35.187458515167236,-354003.34375,-334626.125,-249085.546875,-139159.984375,-400000.0625,-285793.28125,-345497.125,-151823.109375
35.19715142250061,-356044.71875,-343263.625,-254819.09375,-151690.9375,-400000.0625,-288331.59375,-349695.0625,-140544.34375
35.20356893539429,-356182.71875,-329270.34375,-250693.59375,-140987.125,-400000.0625,-295014.0,-340534.1875,-213750.90625
35.210482597351074,-355183.875,-313174.46875,-243482.484375,-124174.421875,-400000.0625,-297892.0,-331773.75,-270960.46875
35.21629524230957,-354417.40625,-317267.5,-243345.15625,-124470.296875,-400000.0625,-293651.1875,-335537.03125,-234404.0625
35.222289085388184,-356191.5,-337392.8125,-251551.515625,-143791.171875,-400000.0625,-289383.5,-347969.0625,-155168.984375
35.22832012176514,-358262.6875,-346035.75,-257311.796875,-156360.125,-400000.0625,-291978.8125,-352172.84375,-144130.578125
35.2340931892395,-358412.25,-332038.96875,-253198.375,-145670.953125,-400000.0625,-298692.75,-343010.3125,-217453.84375
35.24015998840332,-357392.3125,-315931.96875,-245962.9375,-128843.078125,-400000.0625,-301539.78125,-334236.46875,-274505.6875
35.24619460105896,-356603.0625,-320007.65625,-245793.984375,-129106.296875,-400000.0625,-297257.28125,-337984.6875,-237779.125
35.251893758773804,-358366.875,-340109.375,-253967.984375,-148390.265625,-400000.0625,-292958.34375,-350394.34375,-158508.75
35.25806283950806,-360399.46875,-348679.1875,-259665.0,-160855.40625,-400000.0625,-295499.875,-354538.09375,-147473.453125
35.26388955116272,-360504.96875,-334622.0,-255496.296875,-150051.1875,-400000.0625,-302134.96875,-345334.0625,-220658.515625
35.26957106590271,-359461.53125,-318497.46875,-248229.8125,-133183.59375,-400000.0625,-304917.0,-336553.1875,-277481.59375
35.277170181274414,-358613.96875,-322506.8125,-247979.765625,-133339.234375,-400000.0625,-300523.15625,-340253.59375,-240451.359375
35.29475808143616,-360391.8125,-342630.375,-256178.359375,-152621.671875,-400000.0625,-296232.78125,-352683.3125,-161230.6875
35.301634550094604,-362486.96875,-351256.9375,-261974.3125,-165157.859375,-400000.0625,-298876.9375,-356885.90625,-150544.84375
35.30778908729553,-362637.1875,-337219.09375,-257870.3125,-154411.1875,-400000.0625,-305597.25,-347713.0,-224020.890625
35.313486099243164,-361588.09375,-321090.125,-250598.125,-137541.546875,-400000.0625,-308366.28125,-338931.21875,-280761.5625
35.31894636154175,-360771.21875,-325166.5625,-250384.9375,-137792.515625,-400000.0625,-303994.0625,-342676.78125,-243656.375
35.32494020462036,-362560.75,-345288.09375,-258584.234375,-157110.90625,-400000.0625,-299729.8125,-355104.0,-164558.234375
35.330641984939575,-364647.875,-353853.65625,-264357.9375,-169586.953125,-400000.0625,-302380.40625,-359268.125,-154079.6875
35.3363151550293,-364805.03125,-339810.9375,-260259.125,-158834.328125,-400000.0625,-309102.875,-350098.15625,-227586.109375
35.342464447021484,-363770.625,-323727.5,-253016.171875,-142020.09375,-400000.0625,-311880.53125,-341350.59375,-284195.5
35.349777936935425,-362954.09375,-327836.59375,-252815.375,-142310.453125,-400000.0625,-307511.9375,-345116.125,-246975.3125
35.355650901794434,-364737.125,-347944.5,-260996.75,-161617.25,-400000.0625,-303238.0,-357530.5,-167883.453125
35.36166596412659,-366821.5625,-356494.8125,-266761.375,-174079.734375,-400000.0625,-305885.78125,-361684.09375,-157455.3125
35.36739730834961,-366987.5625,-342444.3125,-262675.03125,-163312.03125,-400000.0625,-312625.96875,-352512.53125,-231072.359375
35.37320804595947,-365982.90625,-326400.03125,-255465.015625,-146552.0625,-400000.0625,-315439.21875,-343789.0625,-287766.25
35.3798930644989,-365166.46875,-330519.53125,-255251.4375,-146861.703125,-400000.0625,-311064.1875,-347553.09375,-250494.9375
35.39237928390503,-366926.9375,-350615.625,-263398.0625,-166154.828125,-400000.0625,-306756.0625,-359956.15625,-171252.3125
35.398285150527954,-368997.8125,-359113.25,-269139.03125,-178551.078125,-400000.0625,-309397.34375,-364076.5,-160934.9375
35.404207706451416,-369180.59375,-345043.5625,-265067.75,-167762.96875,-400000.0625,-316167.4375,-354896.59375,-234779.8125
35.41119909286499,-368164.90625,-329003.1875,-257850.875,-150976.953125,-400000.0625,-318949.9375,-346175.375,-291317.9375
35.41735816001892,-367326.25,-333149.09375,-257624.375,-151287.375,-400000.0625,-314516.90625,-349954.5625,-253706.625
35.42431116104126,-369061.8125,-353226.5,-265741.125,-170554.28125,-400000.0625,-310163.6875,-362341.96875,-174334.640625
35.43117809295654,-371144.8125,-361700.09375,-271490.8125,-182929.59375,-400000.0625,-312835.125,-366451.875,-164261.890625
35.43688917160034,-371363.53125,-347639.9375,-267451.6875,-172163.59375,-400000.0625,-319651.0625,-357284.90625,-238278.1875
35.44403910636902,-370373.875,-331630.65625,-260269.859375,-155424.46875,-400000.0625,-322468.875,-348588.28125,-294868.125
35.45026731491089,-369499.90625,-335772.5625,-260010.984375,-155722.203125,-400000.0625,-317982.75,-352358.75,-257004.8125
35.45723581314087,-371170.5625,-355776.0625,-268049.1875,-174876.765625,-400000.0625,-313542.4375,-364688.3125,-177483.09375
35.46485209465027,-373230.125,-364178.9375,-273754.6875,-187135.4375,-400000.0625,-316172.40625,-368752.09375,-167496.65625
35.47033667564392,-373521.90625,-350160.84375,-269794.9375,-176417.3125,-400000.0625,-323073.75,-359633.4375,-241850.59375
35.479029178619385,-372625.25,-334281.59375,-262726.15625,-159878.5625,-400000.0625,-326002.3125,-351034.25,-298551.875
35.48462677001953,-371707.09375,-338410.84375,-262422.40625,-160183.78125,-400000.0625,-321467.28125,-354782.1875,-260432.890625
35.49650430679321,-373226.40625,-358267.34375,-270287.03125,-179117.5625,-400000.0625,-316814.28125,-366997.8125,-180348.9375
35.50239038467407,-375238.28125,-366570.125,-275925.25,-191209.34375,-400000.0625,-319358.59375,-371004.25,-170357.09375
35.50884461402893,-375726.84375,-352701.09375,-272180.3125,-180720.0625,-400000.0625,-326524.1875,-362021.8125,-245561.578125
35.51443815231323,-374965.46875,-336974.75,-265270.78125,-164447.421875,-400000.0625,-329653.96875,-353533.5625,-302657.4375
35.5198290348053,-373916.875,-341036.5625,-264835.0625,-164660.09375,-400000.0625,-324949.34375,-357211.96875,-263854.53125
35.52609467506409,-375221.96875,-360685.71875,-272465.0625,-183260.796875,-400000.0625,-320006.28125,-369269.03125,-183055.375
35.53167653083801,-377215.8125,-368917.03125,-278068.78125,-195205.515625,-400000.0625,-322495.84375,-373242.125,-173145.984375
35.53718614578247,-377879.0,-355175.78125,-274493.6875,-184902.875,-400000.0625,-329852.75,-364371.6875,-248945.796875
35.54423189163208,-377275.84375,-339619.78125,-267773.125,-168908.1875,-400000.0625,-333212.65625,-356013.875,-306567.5
35.55040693283081,-376126.8125,-343637.75,-267254.34375,-169088.90625,-400000.0625,-328420.25,-359643.59375,-267360.0
35.558432817459106,-377074.625,-362897.5,-274443.75,-187148.9375,-400000.0625,-322965.8125,-371397.59375,-185301.984375
35.56547927856445,-378718.5625,-370569.65625,-279482.71875,-198294.46875,-400000.0625,-324833.0,-374959.65625,-174394.6875
35.57130408287048,-379491.125,-356813.09375,-275967.125,-187852.5,-400000.0625,-332225.21875,-366126.625,-250799.546875
35.57850217819214,-379336.84375,-341859.625,-269928.59375,-172599.90625,-400000.0625,-336247.09375,-358277.65625,-309779.5
35.58419442176819,-378364.3125,-346255.0625,-269811.71875,-173361.65625,-400000.0625,-331839.875,-362209.78125,-270923.03125
35.5901038646698,-379038.8125,-365234.6875,-276698.65625,-191140.484375,-400000.0625,-326050.9375,-373740.5625,-187932.796875
35.60453200340271,-380618.0,-372751.21875,-281594.375,-202069.453125,-400000.0625,-327760.125,-377184.46875,-176894.015625
35.612597942352295,-381732.59375,-359285.25,-278415.34375,-192062.453125,-400000.0625,-335568.09375,-368580.375,-254483.6875
35.619123220443726,-381880.53125,-344654.6875,-272717.3125,-177376.34375,-400000.0625,-340050.84375,-360965.15625,-314499.03125
35.625760555267334,-380706.125,-348893.71875,-272386.5,-178016.453125,-400000.0625,-335454.15625,-364748.25,-274936.5625
35.63455104827881,-380889.1875,-367409.8125,-278722.5,-195078.4375,-400000.0625,-328996.3125,-375906.875,-190175.40625
35.64166593551636,-382330.5625,-374714.90625,-283426.46875,-205578.828125,-400000.0625,-330430.96875,-379209.65625,-178789.453125
35.6482617855072,-383881.46875,-361601.125,-280693.9375,-196046.421875,-400000.0625,-338760.40625,-370907.03125,-258027.921875
35.654439210891724,-384385.4375,-347350.84375,-275408.125,-182005.0,-400000.0625,-343768.3125,-363581.9375,-319216.0625
35.66326665878296,-383003.21875,-351481.8125,-274898.375,-182556.59375,-400000.0625,-338973.71875,-367259.75,-278740.53125
35.66973543167114,-382791.65625,-369637.96875,-280818.125,-199078.6875,-400000.0625,-332003.34375,-378135.375,-192611.234375
35.67652487754822,-384190.8125,-376823.9375,-285438.625,-209336.34375,-400000.0625,-333321.03125,-381366.15625,-181242.578125
35.68325853347778,-385992.65625,-363877.28125,-282923.875,-200017.09375,-400000.0625,-341900.15625,-373206.71875,-261273.890625
35.68978548049927,-386651.21875,-349798.28125,-277796.03125,-186240.171875,-400000.0625,-347083.1875,-366009.71875,-322712.03125
35.69599008560181,-385187.65625,-353947.4375,-277263.96875,-186846.09375,-400000.0625,-342244.0,-369689.875,-281856.34375
35.7113561630249,-384830.625,-371998.9375,-283081.65625,-203239.265625,-400000.0625,-335160.0,-380488.3125,-195469.5
35.7172110080719,-386240.0,-379137.40625,-287685.46875,-213432.09375,-400000.0625,-336474.75,-383690.9375,-184293.234375
35.7238392829895,-388165.65625,-366234.0625,-285229.4375,-204170.6875,-400000.0625,-345134.1875,-375568.0,-264600.125
35.73032331466675,-388859.09375,-352164.375,-280094.1875,-190411.875,-400000.0625,-350319.0625,-368370.65625,-325970.25
35.73615574836731,-387280.875,-356243.625,-279468.375,-190924.625,-400000.0625,-345363.90625,-371998.78125,-284743.0625
35.74321794509888,-386822.15625,-374261.03125,-285266.0,-207246.328125,-400000.0625,-338216.53125,-382782.21875,-198184.9375
35.74950695037842,-388280.90625,-381422.28125,-289929.90625,-217452.125,-400000.0625,-339591.5,-386016.0,-187274.1875
35.75989770889282,-390361.5,-368581.28125,-287555.8125,-208290.734375,-400000.0625,-348380.6875,-377940.8125,-268044.78125
35.766133546829224,-391104.375,-354540.71875,-282421.96875,-194593.0625,-400000.0625,-353587.34375,-370757.28125,-329379.21875
35.77197051048279,-389434.8125,-358580.625,-281748.5625,-195069.15625,-400000.0625,-348566.53125,-374361.625,-287856.125
35.77816414833069,-388890.40625,-376544.09375,-287510.9375,-211326.203125,-400000.0625,-341357.46875,-385119.0,-201157.546875
35.78375005722046,-390381.0625,-383710.53125,-292205.84375,-221512.296875,-400000.0625,-342775.65625,-388353.6875,-190549.34375
35.78934979438782,-392554.125,-370926.65625,-289873.4375,-212395.59375,-400000.0625,-351623.28125,-380309.78125,-271504.46875
35.795546531677246,-393368.4375,-356963.3125,-284794.75,-198815.421875,-400000.0625,-356885.875,-373181.71875,-332819.9375
35.80132436752319,-391685.4375,-361037.1875,-284139.46875,-199375.796875,-400000.0625,-351877.3125,-376816.125,-291124.65625
35.81432604789734,-391078.03125,-378974.875,-289880.03125,-215625.40625,-400000.0625,-344655.59375,-387553.5625,-204409.671875
35.81994414329529,-392557.28125,-386109.25,-294550.625,-225770.640625,-400000.0625,-346067.40625,-390760.71875,-193911.859375
35.82615375518799,-394811.53125,-373348.34375,-292245.375,-216684.796875,-400000.0625,-354967.21875,-382727.53125,-275057.875
35.83191967010498,-395693.15625,-359446.8125,-287209.34375,-203170.421875,-400000.0625,-360273.5,-375636.1875,-336341.75
35.837459325790405,-393973.6875,-363545.40625,-286545.125,-203752.484375,-400000.0625,-355252.75,-379277.84375,-294501.34375
35.84373927116394,-393261.5625,-381408.4375,-292207.8125,-219890.765625,-400000.0625,-347965.8125,-389958.375,-207727.171875
35.85080909729004,-394716.625,-388483.90625,-296827.40625,-229939.34375,-400000.0625,-349339.5625,-393124.25,-197316.765625
35.859591007232666,-397057.78125,-375755.34375,-294562.46875,-220889.875,-400000.0625,-358290.90625,-385112.75,-278661.625
35.86564826965332,-398001.90625,-361929.59375,-289596.9375,-207469.109375,-400000.0625,-363671.15625,-378070.21875,-340062.5625
35.87128686904907,-396251.125,-366046.90625,-288927.34375,-208058.234375,-400000.0625,-358645.0,-381719.21875,-298129.96875
35.939464807510376,-400000.0625,-400000.0625,-400000.0625,-400000.0625,-400000.0625,-400000.0625,-400000.0625,-400000.0625
36.0659236907959,-400000.0625,-400000.0625,-400000.0625,-400000.0625,-400000.0625,-400000.0625,-400000.0625,-400000.0625
36.13093304634094,-400000.0625,-400000.0625,-400000.0625,-400000.0625,-400000.0625,-400000.0625,-400000.0625,-400000.0625
36.20626401901245,-400000.0625,-400000.0625,-400000.0625,-400000.0625,-400000.0625,-400000.0625,-400000.0625,-400000.0625
36.257553577423096,-400000.0625,-400000.0625,-400000.0625,-400000.0625,-400000.0625,-400000.0625,-400000.0625,-400000.0625
36.387189626693726,-400000.0625,-400000.0625,-400000.0625,-400000.0625,-400000.0625,-400000.0625,-400000.0625,-400000.0625
36.471991300582886,-400000.0625,-400000.0625,-400000.0625,-400000.0625,-400000.0625,-400000.0625,-400000.0625,-400000.0625
36.55645155906677,-400000.0625,-400000.0625,-400000.0625,-400000.0625,-400000.0625,-400000.0625,-400000.0625,-400000.0625
36.586400270462036,-400000.0625,-400000.0625,-400000.0625,-400000.0625,-400000.0625,-400000.0625,-400000.0625,-400000.0625
36.64562916755676,-400000.0625,-400000.0625,-400000.0625,-400000.0625,-400000.0625,-400000.0625,-400000.0625,-400000.0625
36.70985269546509,-400000.0625,-400000.0625,-400000.0625,-400000.0625,-400000.0625,-400000.0625,-400000.0625,-400000.0625
36.77204084396362,-400000.0625,-400000.0625,-400000.0625,-400000.0625,-400000.0625,-400000.0625,-400000.0625,-400000.0625
36.84349989891052,-400000.0625,-400000.0625,-400000.0625,-400000.0625,-400000.0625,-400000.0625,-400000.0625,-400000.0625
37.16259789466858,-400000.0625,-400000.0625,-400000.0625,-400000.0625,-400000.0625,-400000.0625,-400000.0625,-400000.0625
37.21734356880188,-400000.0625,-400000.0625,-400000.0625,-400000.0625,-400000.0625,-400000.0625,-400000.0625,-400000.0625
37.32614874839783,-400000.0625,-400000.0625,-400000.0625,-400000.0625,-400000.0625,-400000.0625,-400000.0625,-400000.0625
37.34347987174988,-400000.0625,-400000.0625,-400000.0625,-400000.0625,-400000.0625,-400000.0625,-400000.0625,-400000.0625
37.412264585494995,-400000.0625,-400000.0625,-400000.0625,-400000.0625,-400000.0625,-400000.0625,-400000.0625,-400000.0625
37.53732085227966,-400000.0625,-400000.0625,-400000.0625,-400000.0625,-400000.0625,-400000.0625,-400000.0625,-400000.0625
37.62167286872864,-400000.0625,-400000.0625,-400000.0625,-400000.0625,-400000.0625,-400000.0625,-400000.0625,-400000.0625
37.72976064682007,-400000.0625,-400000.0625,-400000.0625,-400000.0625,-400000.0625,-400000.0625,-400000.0625,-400000.0625
37.8070068359375,-400000.0625,-400000.0625,-400000.0625,-400000.0625,-400000.0625,-400000.0625,-400000.0625,-400000.0625
37.85864043235779,-400000.0625,-400000.0625,-400000.0625,-400000.0625,-400000.0625,-400000.0625,-400000.0625,-400000.0625
37.93232297897339,-400000.0625,-400000.0625,-400000.0625,-400000.0625,-400000.0625,-400000.0625,-400000.0625,-400000.0625
38.01974534988403,-400000.0625,-400000.0625,-400000.0625,-400000.0625,-400000.0625,-400000.0625,-400000.0625,-400000.0625
38.047322034835815,-400000.0625,-400000.0625,-400000.0625,-400000.0625,-400000.0625,-400000.0625,-400000.0625,-400000.0625
38.180092573165894,-400000.0625,-400000.0625,-400000.0625,-400000.0625,-400000.0625,-400000.0625,-400000.0625,-400000.0625
38.25621581077576,-400000.0625,-400000.0625,-400000.0625,-400000.0625,-400000.0625,-400000.0625,-400000.0625,-400000.0625
38.308637857437134,-400000.0625,-400000.0625,-400000.0625,-400000.0625,-400000.0625,-400000.0625,-400000.0625,-400000.0625
38.405874490737915,-400000.0625,-400000.0625,-400000.0625,-400000.0625,-400000.0625,-400000.0625,-400000.0625,-400000.0625
38.405970335006714,-400000.0625,-400000.0625,-400000.0625,-400000.0625,-400000.0625,-400000.0625,-400000.0625,-400000.0625
38.405980825424194,-400000.0625,-400000.0625,-400000.0625,-400000.0625,-400000.0625,-400000.0625,-400000.0625,-400000.0625
38.40598964691162,-400000.0625,-400000.0625,-400000.0625,-400000.0625,-400000.0625,-400000.0625,-400000.0625,-400000.0625
38.405999183654785,-400000.0625,-400000.0625,-400000.0625,-400000.0625,-400000.0625,-400000.0625,-400000.0625,-400000.0625
38.406007289886475,-400000.0625,-400000.0625,-400000.0625,-400000.0625,-400000.0625,-400000.0625,-400000.0625,-400000.0625
38.40601563453674,-400000.0625,-400000.0625,-400000.0625,-400000.0625,-400000.0625,-400000.0625,-400000.0625,-400000.0625
38.40602374076843,-400000.0625,-400000.0625,-400000.0625,-400000.0625,-400000.0625,-400000.0625,-400000.0625,-400000.0625
38.40603256225586,-400000.0625,-400000.0625,-400000.0625,-400000.0625,-400000.0625,-400000.0625,-400000.0625,-400000.0625
38.40604114532471,-400000.0625,-400000.0625,-400000.0625,-400000.0625,-400000.0625,-400000.0625,-400000.0625,-400000.0625
38.406049489974976,-400000.0625,-400000.0625,-400000.0625,-400000.0625,-400000.0625,-400000.0625,-400000.0625,-400000.0625
38.40606164932251,-400000.0625,-400000.0625,-400000.0625,-400000.0625,-400000.0625,-400000.0625,-400000.0625,-400000.0625
38.40606951713562,-400000.0625,-400000.0625,-400000.0625,-400000.0625,-400000.0625,-400000.0625,-400000.0625,-400000.0625
38.40607738494873,-400000.0625,-400000.0625,-400000.0625,-400000.0625,-400000.0625,-400000.0625,-400000.0625,-400000.0625
38.40608525276184,-400000.0625,-400000.0625,-400000.0625,-400000.0625,-400000.0625,-400000.0625,-400000.0625,-400000.0625
38.40609335899353,-400000.0625,-400000.0625,-400000.0625,-400000.0625,-400000.0625,-400000.0625,-400000.0625,-400000.0625
38.43880915641785,-400000.0625,-400000.0625,-400000.0625,-400000.0625,-400000.0625,-400000.0625,-400000.0625,-400000.0625
38.44180965423584,-400000.0625,-400000.0625,-400000.0625,-400000.0625,-400000.0625,-400000.0625,-400000.0625,-400000.0625
38.441829204559326,-400000.0625,-400000.0625,-400000.0625,-400000.0625,-400000.0625,-400000.0625,-400000.0625,-400000.0625
38.441834449768066,-400000.0625,-400000.0625,-400000.0625,-400000.0625,-400000.0625,-400000.0625,-400000.0625,-400000.0625
38.44183874130249,-400000.0625,-400000.0625,-400000.0625,-400000.0625,-400000.0625,-400000.0625,-400000.0625,-400000.0625
38.441843032836914,-400000.0625,-400000.0625,-400000.0625,-400000.0625,-400000.0625,-400000.0625,-400000.0625,-400000.0625
38.44184684753418,-400000.0625,-400000.0625,-400000.0625,-400000.0625,-400000.0625,-400000.0625,-400000.0625,-400000.0625
38.441850423812866,-400000.0625,-400000.0625,-400000.0625,-400000.0625,-400000.0625,-400000.0625,-400000.0625,-400000.0625
38.441893100738525,-400000.0625,-400000.0625,-400000.0625,-400000.0625,-400000.0625,-400000.0625,-400000.0625,-400000.0625
38.44189763069153,-400000.0625,-400000.0625,-400000.0625,-400000.0625,-400000.0625,-400000.0625,-400000.0625,-400000.0625
38.441901445388794,-400000.0625,-400000.0625,-400000.0625,-400000.0625,-400000.0625,-400000.0625,-400000.0625,-400000.0625
38.44190502166748,-400000.0625,-400000.0625,-400000.0625,-400000.0625,-400000.0625,-400000.0625,-400000.0625,-400000.0625
38.441908836364746,-400000.0625,-400000.0625,-400000.0625,-400000.0625,-400000.0625,-400000.0625,-400000.0625,-400000.0625
38.44191241264343,-400000.0625,-400000.0625,-400000.0625,-400000.0625,-400000.0625,-400000.0625,-400000.0625,-400000.0625
38.44191575050354,-400000.0625,-400000.0625,-400000.0625,-400000.0625,-400000.0625,-400000.0625,-400000.0625,-400000.0625
38.44191908836365,-400000.0625,-400000.0625,-400000.0625,-400000.0625,-400000.0625,-400000.0625,-400000.0625,-400000.0625
38.50645399093628,-400000.0625,-400000.0625,-400000.0625,-400000.0625,-400000.0625,-400000.0625,-400000.0625,-400000.0625
38.512948513031006,-400000.0625,-400000.0625,-400000.0625,-400000.0625,-400000.0625,-400000.0625,-400000.0625,-400000.0625
38.517831802368164,-400000.0625,-400000.0625,-400000.0625,-400000.0625,-400000.0625,-400000.0625,-400000.0625,-400000.0625
38.51784038543701,-400000.0625,-400000.0625,-400000.0625,-400000.0625,-400000.0625,-400000.0625,-400000.0625,-400000.0625
38.517844676971436,-400000.0625,-400000.0625,-400000.0625,-400000.0625,-400000.0625,-400000.0625,-400000.0625,-400000.0625
38.51784896850586,-400000.0625,-400000.0625,-400000.0625,-400000.0625,-400000.0625,-400000.0625,-400000.0625,-400000.0625
38.517852783203125,-400000.0625,-400000.0625,-400000.0625,-400000.0625,-400000.0625,-400000.0625,-400000.0625,-400000.0625
38.51785659790039,-400000.0625,-400000.0625,-400000.0625,-400000.0625,-400000.0625,-400000.0625,-400000.0625,-400000.0625
38.517860412597656,-400000.0625,-400000.0625,-400000.0625,-400000.0625,-400000.0625,-400000.0625,-400000.0625,-400000.0625
38.517863750457764,-400000.0625,-400000.0625,-400000.0625,-400000.0625,-400000.0625,-400000.0625,-400000.0625,-400000.0625
38.51786732673645,-400000.0625,-400000.0625,-400000.0625,-400000.0625,-400000.0625,-400000.0625,-400000.0625,-400000.0625
38.51787066459656,-400000.0625,-400000.0625,-400000.0625,-400000.0625,-400000.0625,-400000.0625,-400000.0625,-400000.0625
38.517874240875244,-400000.0625,-400000.0625,-400000.0625,-400000.0625,-400000.0625,-400000.0625,-400000.0625,-400000.0625
38.51787757873535,-400000.0625,-400000.0625,-400000.0625,-400000.0625,-400000.0625,-400000.0625,-400000.0625,-400000.0625
38.51788115501404,-400000.0625,-400000.0625,-400000.0625,-400000.0625,-400000.0625,-400000.0625,-400000.0625,-400000.0625
38.517884731292725,-400000.0625,-400000.0625,-400000.0625,-400000.0625,-400000.0625,-400000.0625,-400000.0625,-400000.0625
38.56712508201599,-400000.0625,-400000.0625,-400000.0625,-400000.0625,-400000.0625,-400000.0625,-400000.0625,-400000.0625
38.57737755775452,-400000.0625,-400000.0625,-400000.0625,-400000.0625,-400000.0625,-400000.0625,-400000.0625,-400000.0625
38.58242416381836,-400000.0625,-400000.0625,-400000.0625,-400000.0625,-400000.0625,-400000.0625,-400000.0625,-400000.0625
38.58700633049011,-400000.0625,-400000.0625,-400000.0625,-400000.0625,-400000.0625,-400000.0625,-400000.0625,-400000.0625
38.587013959884644,-400000.0625,-400000.0625,-400000.0625,-400000.0625,-400000.0625,-400000.0625,-400000.0625,-400000.0625
38.58701825141907,-400000.0625,-400000.0625,-400000.0625,-400000.0625,-400000.0625,-400000.0625,-400000.0625,-400000.0625
38.58702206611633,-400000.0625,-400000.0625,-400000.0625,-400000.0625,-400000.0625,-400000.0625,-400000.0625,-400000.0625
38.58702611923218,-400000.0625,-400000.0625,-400000.0625,-400000.0625,-400000.0625,-400000.0625,-400000.0625,-400000.0625
38.587029695510864,-400000.0625,-400000.0625,-400000.0625,-400000.0625,-400000.0625,-400000.0625,-400000.0625,-400000.0625
38.58703374862671,-400000.0625,-400000.0625,-400000.0625,-400000.0625,-400000.0625,-400000.0625,-400000.0625,-400000.0625
38.587037801742554,-400000.0625,-400000.0625,-400000.0625,-400000.0625,-400000.0625,-400000.0625,-400000.0625,-400000.0625
38.5870418548584,-400000.0625,-400000.0625,-400000.0625,-400000.0625,-400000.0625,-400000.0625,-400000.0625,-400000.0625
38.587045431137085,-400000.0625,-400000.0625,-400000.0625,-400000.0625,-400000.0625,-400000.0625,-400000.0625,-400000.0625
38.58704948425293,-400000.0625,-400000.0625,-400000.0625,-400000.0625,-400000.0625,-400000.0625,-400000.0625,-400000.0625
38.587053298950195,-400000.0625,-400000.0625,-400000.0625,-400000.0625,-400000.0625,-400000.0625,-400000.0625,-400000.0625
38.58705687522888,-400000.0625,-400000.0625,-400000.0625,-400000.0625,-400000.0625,-400000.0625,-400000.0625,-400000.0625
38.623671531677246,-400000.0625,-400000.0625,-400000.0625,-400000.0625,-400000.0625,-400000.0625,-400000.0625,-400000.0625
38.629173040390015,-400000.0625,-400000.0625,-400000.0625,-400000.0625,-400000.0625,-400000.0625,-400000.0625,-400000.0625
38.63381767272949,-400000.0625,-400000.0625,-400000.0625,-400000.0625,-400000.0625,-400000.0625,-400000.0625,-400000.0625
38.6338255405426,-400000.0625,-400000.0625,-400000.0625,-400000.0625,-400000.0625,-400000.0625,-400000.0625,-400000.0625
38.633830547332764,-400000.0625,-400000.0625,-400000.0625,-400000.0625,-400000.0625,-400000.0625,-400000.0625,-400000.0625
38.63383436203003,-400000.0625,-400000.0625,-400000.0625,-400000.0625,-400000.0625,-400000.0625,-400000.0625,-400000.0625
38.633838415145874,-400000.0625,-400000.0625,-400000.0625,-400000.0625,-400000.0625,-400000.0625,-400000.0625,-400000.0625
38.63384246826172,-400000.0625,-400000.0625,-400000.0625,-400000.0625,-400000.0625,-400000.0625,-400000.0625,-400000.0625
38.63384652137756,-400000.0625,-400000.0625,-400000.0625,-400000.0625,-400000.0625,-400000.0625,-400000.0625,-400000.0625
38.63385057449341,-400000.0625,-400000.0625,-400000.0625,-400000.0625,-400000.0625,-400000.0625,-400000.0625,-400000.0625
38.633854389190674,-400000.0625,-400000.0625,-400000.0625,-400000.0625,-400000.0625,-400000.0625,-400000.0625,-400000.0625
38.63385796546936,-400000.0625,-400000.0625,-400000.0625,-400000.0625,-400000.0625,-400000.0625,-400000.0625,-400000.0625
38.633861780166626,-400000.0625,-400000.0625,-400000.0625,-400000.0625,-400000.0625,-400000.0625,-400000.0625,-400000.0625
38.63386559486389,-400000.0625,-400000.0625,-400000.0625,-400000.0625,-400000.0625,-400000.0625,-400000.0625,-400000.0625
38.63386940956116,-400000.0625,-400000.0625,-400000.0625,-400000.0625,-400000.0625,-400000.0625,-400000.0625,-400000.0625
38.633872985839844,-400000.0625,-400000.0625,-400000.0625,-400000.0625,-400000.0625,-400000.0625,-400000.0625,-400000.0625
38.691147804260254,-400000.0625,-400000.0625,-400000.0625,-400000.0625,-400000.0625,-400000.0625,-400000.0625,-400000.0625
38.70042562484741,-400000.0625,-400000.0625,-400000.0625,-400000.0625,-400000.0625,-400000.0625,-400000.0625,-400000.0625
38.704771280288696,-400000.0625,-400000.0625,-400000.0625,-400000.0625,-400000.0625,-400000.0625,-400000.0625,-400000.0625
38.70478010177612,-400000.0625,-400000.0625,-400000.0625,-400000.0625,-400000.0625,-400000.0625,-400000.0625,-400000.0625
38.70478439331055,-400000.0625,-400000.0625,-400000.0625,-400000.0625,-400000.0625,-400000.0625,-400000.0625,-400000.0625
38.70478940010071,-400000.0625,-400000.0625,-400000.0625,-400000.0625,-400000.0625,-400000.0625,-400000.0625,-400000.0625
38.70479345321655,-400000.0625,-400000.0625,-400000.0625,-400000.0625,-400000.0625,-400000.0625,-400000.0625,-400000.0625
38.70479774475098,-400000.0625,-400000.0625,-400000.0625,-400000.0625,-400000.0625,-400000.0625,-400000.0625,-400000.0625
38.70480179786682,-400000.0625,-400000.0625,-400000.0625,-400000.0625,-400000.0625,-400000.0625,-400000.0625,-400000.0625
38.704806089401245,-400000.0625,-400000.0625,-400000.0625,-400000.0625,-400000.0625,-400000.0625,-400000.0625,-400000.0625
38.70481014251709,-400000.0625,-400000.0625,-400000.0625,-400000.0625,-400000.0625,-400000.0625,-400000.0625,-400000.0625
38.704813957214355,-400000.0625,-400000.0625,-400000.0625,-400000.0625,-400000.0625,-400000.0625,-400000.0625,-400000.0625
38.7048180103302,-400000.0625,-400000.0625,-400000.0625,-400000.0625,-400000.0625,-400000.0625,-400000.0625,-400000.0625
38.704821825027466,-400000.0625,-400000.0625,-400000.0625,-400000.0625,-400000.0625,-400000.0625,-400000.0625,-400000.0625
38.70482563972473,-400000.0625,-400000.0625,-400000.0625,-400000.0625,-400000.0625,-400000.0625,-400000.0625,-400000.0625
38.704829692840576,-400000.0625,-400000.0625,-400000.0625,-400000.0625,-400000.0625,-400000.0625,-400000.0625,-400000.0625
38.77221488952637,-400000.0625,-400000.0625,-400000.0625,-400000.0625,-400000.0625,-400000.0625,-400000.0625,-400000.0625
38.777462005615234,-400000.0625,-400000.0625,-400000.0625,-400000.0625,-400000.0625,-400000.0625,-400000.0625,-400000.0625
38.781816720962524,-400000.0625,-400000.0625,-400000.0625,-400000.0625,-400000.0625,-400000.0625,-400000.0625,-400000.0625
38.78182864189148,-400000.0625,-400000.0625,-400000.0625,-400000.0625,-400000.0625,-400000.0625,-400000.0625,-400000.0625
38.78183364868164,-400000.0625,-400000.0625,-400000.0625,-400000.0625,-400000.0625,-400000.0625,-400000.0625,-400000.0625
38.781837701797485,-400000.0625,-400000.0625,-400000.0625,-400000.0625,-400000.0625,-400000.0625,-400000.0625,-400000.0625
38.78184223175049,-400000.0625,-400000.0625,-400000.0625,-400000.0625,-400000.0625,-400000.0625,-400000.0625,-400000.0625
38.78184676170349,-400000.0625,-400000.0625,-400000.0625,-400000.0625,-400000.0625,-400000.0625,-400000.0625,-400000.0625
38.78185153007507,-400000.0625,-400000.0625,-400000.0625,-400000.0625,-400000.0625,-400000.0625,-400000.0625,-400000.0625
38.78185558319092,-400000.0625,-400000.0625,-400000.0625,-400000.0625,-400000.0625,-400000.0625,-400000.0625,-400000.0625
38.78185963630676,-400000.0625,-400000.0625,-400000.0625,-400000.0625,-400000.0625,-400000.0625,-400000.0625,-400000.0625
38.78186392784119,-400000.0625,-400000.0625,-400000.0625,-400000.0625,-400000.0625,-400000.0625,-400000.0625,-400000.0625
38.78186845779419,-400000.0625,-400000.0625,-400000.0625,-400000.0625,-400000.0625,-400000.0625,-400000.0625,-400000.0625
38.781872510910034,-400000.0625,-400000.0625,-400000.0625,-400000.0625,-400000.0625,-400000.0625,-400000.0625,-400000.0625
38.7818763256073,-400000.0625,-400000.0625,-400000.0625,-400000.0625,-400000.0625,-400000.0625,-400000.0625,-400000.0625
38.781880378723145,-400000.0625,-400000.0625,-400000.0625,-400000.0625,-400000.0625,-400000.0625,-400000.0625,-400000.0625
38.82473659515381,-400000.0625,-400000.0625,-400000.0625,-400000.0625,-400000.0625,-400000.0625,-400000.0625,-400000.0625
38.83569073677063,-400000.0625,-400000.0625,-400000.0625,-400000.0625,-400000.0625,-400000.0625,-400000.0625,-400000.0625
38.84355115890503,-400000.0625,-400000.0625,-400000.0625,-400000.0625,-400000.0625,-400000.0625,-400000.0625,-400000.0625
38.84836792945862,-400000.0625,-400000.0625,-400000.0625,-400000.0625,-400000.0625,-400000.0625,-400000.0625,-400000.0625
38.84838008880615,-400000.0625,-400000.0625,-400000.0625,-400000.0625,-400000.0625,-400000.0625,-400000.0625,-400000.0625
38.84838581085205,-400000.0625,-400000.0625,-400000.0625,-400000.0625,-400000.0625,-400000.0625,-400000.0625,-400000.0625
38.84839105606079,-400000.0625,-400000.0625,-400000.0625,-400000.0625,-400000.0625,-400000.0625,-400000.0625,-400000.0625
38.84839582443237,-400000.0625,-400000.0625,-400000.0625,-400000.0625,-400000.0625,-400000.0625,-400000.0625,-400000.0625
38.848400831222534,-400000.0625,-400000.0625,-400000.0625,-400000.0625,-400000.0625,-400000.0625,-400000.0625,-400000.0625
38.84840512275696,-400000.0625,-400000.0625,-400000.0625,-400000.0625,-400000.0625,-400000.0625,-400000.0625,-400000.0625
38.848411560058594,-400000.0625,-400000.0625,-400000.0625,-400000.0625,-400000.0625,-400000.0625,-400000.0625,-400000.0625
38.84841799736023,-400000.0625,-400000.0625,-400000.0625,-400000.0625,-400000.0625,-400000.0625,-400000.0625,-400000.0625
38.848424196243286,-400000.0625,-400000.0625,-400000.0625,-400000.0625,-400000.0625,-400000.0625,-400000.0625,-400000.0625
38.84843111038208,-400000.0625,-400000.0625,-400000.0625,-400000.0625,-400000.0625,-400000.0625,-400000.0625,-400000.0625
38.84843707084656,-400000.0625,-400000.0625,-400000.0625,-400000.0625,-400000.0625,-400000.0625,-400000.0625,-400000.0625
38.848443269729614,-400000.0625,-400000.0625,-400000.0625,-400000.0625,-400000.0625,-400000.0625,-400000.0625,-400000.0625
38.88010382652283,-400000.0625,-400000.0625,-400000.0625,-400000.0625,-400000.0625,-400000.0625,-400000.0625,-400000.0625
38.885000228881836,-400000.0625,-400000.0625,-400000.0625,-400000.0625,-400000.0625,-400000.0625,-400000.0625,-400000.0625
38.88500952720642,-400000.0625,-400000.0625,-400000.0625,-400000.0625,-400000.0625,-400000.0625,-400000.0625,-400000.0625
38.885014295578,-400000.0625,-400000.0625,-400000.0625,-400000.0625,-400000.0625,-400000.0625,-400000.0625,-400000.0625
38.885018825531006,-400000.0625,-400000.0625,-400000.0625,-400000.0625,-400000.0625,-400000.0625,-400000.0625,-400000.0625
38.88502335548401,-400000.0625,-400000.0625,-400000.0625,-400000.0625,-400000.0625,-400000.0625,-400000.0625,-400000.0625
38.88502764701843,-400000.0625,-400000.0625,-400000.0625,-400000.0625,-400000.0625,-400000.0625,-400000.0625,-400000.0625
38.88503170013428,-400000.0625,-400000.0625,-400000.0625,-400000.0625,-400000.0625,-400000.0625,-400000.0625,-400000.0625
38.88503551483154,-400000.0625,-400000.0625,-400000.0625,-400000.0625,-400000.0625,-400000.0625,-400000.0625,-400000.0625
38.88503980636597,-400000.0625,-400000.0625,-400000.0625,-400000.0625,-400000.0625,-400000.0625,-400000.0625,-400000.0625
38.88504362106323,-400000.0625,-400000.0625,-400000.0625,-400000.0625,-400000.0625,-400000.0625,-400000.0625,-400000.0625
38.8850474357605,-400000.0625,-400000.0625,-400000.0625,-400000.0625,-400000.0625,-400000.0625,-400000.0625,-400000.0625
38.885051250457764,-400000.0625,-400000.0625,-400000.0625,-400000.0625,-400000.0625,-400000.0625,-400000.0625,-400000.0625
38.88505530357361,-400000.0625,-400000.0625,-400000.0625,-400000.0625,-400000.0625,-400000.0625,-400000.0625,-400000.0625
38.885059118270874,-400000.0625,-400000.0625,-400000.0625,-400000.0625,-400000.0625,-400000.0625,-400000.0625,-400000.0625
38.88506293296814,-400000.0625,-400000.0625,-400000.0625,-400000.0625,-400000.0625,-400000.0625,-400000.0625,-400000.0625
38.95996618270874,-400000.0625,-400000.0625,-400000.0625,-400000.0625,-400000.0625,-400000.0625,-400000.0625,-400000.0625
39.01250243186951,-400000.0625,-400000.0625,-400000.0625,-400000.0625,-400000.0625,-400000.0625,-400000.0625,-400000.0625
39.07417130470276,-400000.0625,-400000.0625,-400000.0625,-400000.0625,-400000.0625,-400000.0625,-400000.0625,-400000.0625
39.1363410949707,-400000.0625,-400000.0625,-400000.0625,-400000.0625,-400000.0625,-400000.0625,-400000.0625,-400000.0625
39.2034330368042,-400000.0625,-400000.0625,-400000.0625,-400000.0625,-400000.0625,-400000.0625,-400000.0625,-400000.0625
39.329880475997925,-400000.0625,-400000.0625,-400000.0625,-400000.0625,-400000.0625,-400000.0625,-400000.0625,-400000.0625
39.40628719329834,-400000.0625,-400000.0625,-400000.0625,-400000.0625,-400000.0625,-400000.0625,-400000.0625,-400000.0625
39.50526428222656,-400000.0625,-400000.0625,-400000.0625,-400000.0625,-400000.0625,-400000.0625,-400000.0625,-400000.0625
39.52038598060608,-400000.0625,-400000.0625,-400000.0625,-400000.0625,-400000.0625,-400000.0625,-400000.0625,-400000.0625
39.590370893478394,-400000.0625,-400000.0625,-400000.0625,-400000.0625,-400000.0625,-400000.0625,-400000.0625,-400000.0625
39.664973735809326,-400000.0625,-400000.0625,-400000.0625,-400000.0625,-400000.0625,-400000.0625,-400000.0625,-400000.0625
39.720964193344116,-400000.0625,-400000.0625,-400000.0625,-400000.0625,-400000.0625,-400000.0625,-400000.0625,-400000.0625
39.776103019714355,-400000.0625,-400000.0625,-400000.0625,-400000.0625,-400000.0625,-400000.0625,-400000.0625,-400000.0625
39.88883876800537,-400000.0625,-400000.0625,-400000.0625,-400000.0625,-400000.0625,-400000.0625,-400000.0625,-400000.0625
39.90620470046997,-400000.0625,-400000.0625,-400000.0625,-400000.0625,-400000.0625,-400000.0625,-400000.0625,-400000.0625
40.03357672691345,-400000.0625,-400000.0625,-400000.0625,-400000.0625,-400000.0625,-400000.0625,-400000.0625,-400000.0625
40.11107158660889,-400000.0625,-400000.0625,-400000.0625,-400000.0625,-400000.0625,-400000.0625,-400000.0625,-400000.0625
40.24245882034302,-400000.0625,-400000.0625,-400000.0625,-400000.0625,-400000.0625,-400000.0625,-400000.0625,-400000.0625
40.28726625442505,-400000.0625,-400000.0625,-400000.0625,-400000.0625,-400000.0625,-400000.0625,-400000.0625,-400000.0625
40.37250471115112,-400000.0625,-42848.0703125,-400000.0625,-400000.0625,-400000.0625,-400000.0625,-400000.0625,-400000.0625
40.59618163108826,-400000.0625,-81061.2265625,-400000.0625,-400000.0625,-400000.0625,-400000.0625,-400000.0625,-400000.0625
40.615962505340576,-400000.0625,-148690.71875,-400000.0625,-400000.0625,-400000.0625,-400000.0625,-400000.0625,-400000.0625
40.672897815704346,-400000.0625,-213400.15625,-400000.0625,-400000.0625,-400000.0625,-400000.0625,-400000.0625,-400000.0625
40.73971652984619,-400000.0625,-256404.53125,-400000.0625,-400000.0625,-400000.0625,-400000.0625,-400000.0625,-400000.0625
40.807472467422485,-400000.0625,-279860.8125,-400000.0625,-400000.0625,-400000.0625,-400000.0625,-400000.0625,-400000.0625
40.97735857963562,-400000.0625,-362277.84375,-400000.0625,-400000.0625,-400000.0625,-400000.0625,-400000.0625,-400000.0625
40.99029898643494,-400000.0625,-380558.375,-400000.0625,-400000.0625,-400000.0625,-400000.0625,-400000.0625,-400000.0625
40.9964439868927,-400000.0625,-377888.625,-400000.0625,-400000.0625,-400000.0625,-400000.0625,-400000.0625,-400000.0625
41.00192999839783,-400000.0625,-361632.375,-400000.0625,-400000.0625,-400000.0625,-400000.0625,-400000.0625,-400000.0625
41.00907826423645,-400000.0625,-357291.78125,-400000.0625,-400000.0625,-400000.0625,-400000.0625,-400000.0625,-400000.0625
41.014883518218994,-400000.0625,-373154.71875,-400000.0625,-400000.0625,-400000.0625,-400000.0625,-400000.0625,-400000.0625
41.02073693275452,-400000.0625,-391376.90625,-400000.0625,-400000.0625,-400000.0625,-400000.0625,-400000.0625,-400000.0625
41.02721285820007,-400000.0625,-388641.15625,-400000.0625,-400000.0625,-400000.0625,-400000.0625,-400000.0625,-400000.0625
41.032825231552124,-400000.0625,-372307.0625,-400000.0625,-400000.0625,-400000.0625,-400000.0625,-400000.0625,-400000.0625
41.03768348693848,-400000.0625,-367950.71875,-400000.0625,-400000.0625,-400000.0625,-400000.0625,-400000.0625,-400000.0625
41.03769373893738,-400000.0625,-383788.34375,-400000.0625,-400000.0625,-400000.0625,-400000.0625,-400000.0625,-400000.0625
41.0376992225647,-400000.0625,-400000.0625,-400000.0625,-400000.0625,-400000.0625,-400000.0625,-400000.0625,-400000.0625
41.03770422935486,-400000.0625,-399133.90625,-400000.0625,-400000.0625,-400000.0625,-400000.0625,-400000.0625,-400000.0625
41.03770923614502,-400000.0625,-382773.3125,-400000.0625,-400000.0625,-400000.0625,-400000.0625,-400000.0625,-400000.0625
41.03771424293518,-400000.0625,-378360.28125,-400000.0625,-400000.0625,-400000.0625,-400000.0625,-400000.0625,-400000.0625
41.03771924972534,-400000.0625,-394173.46875,-400000.0625,-400000.0625,-400000.0625,-400000.0625,-400000.0625,-400000.0625
41.037724018096924,-400000.0625,-400000.0625,-400000.0625,-400000.0625,-400000.0625,-400000.0625,-400000.0625,-400000.0625
41.03772854804993,-400000.0625,-400000.0625,-400000.0625,-400000.0625,-400000.0625,-400000.0625,-400000.0625,-400000.0625
41.03773331642151,-400000.0625,-393016.09375,-400000.0625,-400000.0625,-400000.0625,-400000.0625,-400000.0625,-400000.0625
41.03773736953735,-400000.0625,-388583.71875,-400000.0625,-400000.0625,-400000.0625,-400000.0625,-400000.0625,-400000.0625
41.037742137908936,-400000.0625,-400000.0625,-400000.0625,-400000.0625,-400000.0625,-400000.0625,-400000.0625,-400000.0625
41.03774619102478,-400000.0625,-400000.0625,-400000.0625,-400000.0625,-400000.0625,-400000.0625,-400000.0625,-400000.0625
41.037750482559204,-400000.0625,-400000.0625,-400000.0625,-400000.0625,-400000.0625,-400000.0625,-400000.0625,-400000.0625
41.03775477409363,-400000.0625,-400000.0625,-400000.0625,-400000.0625,-400000.0625,-400000.0625,-400000.0625,-400000.0625
41.03775954246521,-400000.0625,-398400.9375,-400000.0625,-400000.0625,-400000.0625,-400000.0625,-400000.0625,-400000.0625
41.037763595581055,-400000.0625,-400000.0625,-400000.0625,-400000.0625,-400000.0625,-400000.0625,-400000.0625,-400000.0625
41.03776788711548,-400000.0625,-400000.0625,-400000.0625,-400000.0625,-400000.0625,-400000.0625,-400000.0625,-400000.0625
41.0377721786499,-400000.0625,-400000.0625,-400000.0625,-400000.0625,-400000.0625,-400000.0625,-400000.0625,-400000.0625
41.037776470184326,-400000.0625,-400000.0625,-400000.0625,-400000.0625,-400000.0625,-400000.0625,-400000.0625,-400000.0625
41.03778052330017,-400000.0625,-400000.0625,-400000.0625,-400000.0625,-400000.0625,-400000.0625,-400000.0625,-400000.0625
41.0377881526947,-400000.0625,-400000.0625,-400000.0625,-400000.0625,-400000.0625,-400000.0625,-400000.0625,-400000.0625
41.037792682647705,-400000.0625,-400000.0625,-400000.0625,-400000.0625,-400000.0625,-400000.0625,-400000.0625,-400000.0625
41.06232976913452,-400000.0625,-400000.0625,-400000.0625,-400000.0625,-400000.0625,-400000.0625,-400000.0625,-400000.0625
41.068586349487305,-400000.0625,-400000.0625,-400000.0625,-400000.0625,-400000.0625,-400000.0625,-400000.0625,-400000.0625
41.07460832595825,-400000.0625,-400000.0625,-400000.0625,-400000.0625,-400000.0625,-400000.0625,-400000.0625,-400000.0625
41.08055639266968,-400000.0625,-400000.0625,-400000.0625,-400000.0625,-400000.0625,-400000.0625,-400000.0625,-400000.0625
41.092982053756714,-400000.0625,-400000.0625,-400000.0625,-400000.0625,-400000.0625,-400000.0625,-400000.0625,-400000.0625
41.09802865982056,-400000.0625,-400000.0625,-400000.0625,-400000.0625,-400000.0625,-400000.0625,-400000.0625,-400000.0625
41.1037061214447,-400000.0625,-400000.0625,-400000.0625,-400000.0625,-400000.0625,-400000.0625,-400000.0625,-400000.0625
41.11007642745972,-400000.0625,-400000.0625,-400000.0625,-400000.0625,-400000.0625,-400000.0625,-400000.0625,-400000.0625
41.116377115249634,-400000.0625,-400000.0625,-400000.0625,-400000.0625,-400000.0625,-400000.0625,-400000.0625,-400000.0625
41.121524810791016,-400000.0625,-400000.0625,-400000.0625,-400000.0625,-400000.0625,-400000.0625,-400000.0625,-400000.0625
41.12742233276367,-400000.0625,-400000.0625,-400000.0625,-400000.0625,-400000.0625,-400000.0625,-400000.0625,-400000.0625
41.13301944732666,-400000.0625,-400000.0625,-400000.0625,-400000.0625,-400000.0625,-400000.0625,-400000.0625,-400000.0625
41.1378710269928,-400000.0625,-400000.0625,-400000.0625,-400000.0625,-400000.0625,-400000.0625,-400000.0625,-400000.0625
41.137882471084595,-400000.0625,-400000.0625,-400000.0625,-400000.0625,-400000.0625,-400000.0625,-400000.0625,-400000.0625
41.13788819313049,-400000.0625,-400000.0625,-400000.0625,-400000.0625,-400000.0625,-400000.0625,-400000.0625,-400000.0625
41.137893199920654,-400000.0625,-400000.0625,-400000.0625,-400000.0625,-400000.0625,-400000.0625,-400000.0625,-400000.0625
41.137898445129395,-400000.0625,-400000.0625,-400000.0625,-400000.0625,-400000.0625,-400000.0625,-400000.0625,-400000.0625
41.137903451919556,-400000.0625,-400000.0625,-400000.0625,-400000.0625,-400000.0625,-400000.0625,-400000.0625,-400000.0625
41.13790798187256,-400000.0625,-400000.0625,-400000.0625,-400000.0625,-400000.0625,-400000.0625,-400000.0625,-400000.0625
41.13791251182556,-400000.0625,-400000.0625,-400000.0625,-400000.0625,-400000.0625,-400000.0625,-400000.0625,-400000.0625
41.137917280197144,-400000.0625,-400000.0625,-400000.0625,-400000.0625,-400000.0625,-400000.0625,-400000.0625,-400000.0625
41.13792181015015,-400000.0625,-400000.0625,-400000.0625,-400000.0625,-400000.0625,-400000.0625,-400000.0625,-400000.0625
41.13792634010315,-400000.0625,-400000.0625,-400000.0625,-400000.0625,-400000.0625,-400000.0625,-400000.0625,-400000.0625
41.137930393218994,-400000.0625,-400000.0625,-400000.0625,-400000.0625,-400000.0625,-400000.0625,-400000.0625,-400000.0625
41.13793468475342,-400000.0625,-400000.0625,-400000.0625,-400000.0625,-400000.0625,-400000.0625,-400000.0625,-400000.0625
41.13793921470642,-400000.0625,-400000.0625,-400000.0625,-400000.0625,-400000.0625,-400000.0625,-400000.0625,-400000.0625
41.137943983078,-400000.0625,-400000.0625,-400000.0625,-400000.0625,-400000.0625,-400000.0625,-400000.0625,-400000.0625
41.13794994354248,-400000.0625,-400000.0625,-400000.0625,-400000.0625,-400000.0625,-400000.0625,-400000.0625,-400000.0625
41.13795757293701,-400000.0625,-400000.0625,-400000.0625,-400000.0625,-400000.0625,-400000.0625,-400000.0625,-400000.0625
41.13796353340149,-400000.0625,-400000.0625,-400000.0625,-400000.0625,-400000.0625,-400000.0625,-400000.0625,-400000.0625
41.1379714012146,-400000.0625,-400000.0625,-400000.0625,-400000.0625,-400000.0625,-400000.0625,-400000.0625,-400000.0625
41.137980937957764,-400000.0625,-400000.0625,-400000.0625,-400000.0625,-400000.0625,-400000.0625,-400000.0625,-400000.0625
41.18353581428528,-400000.0625,-400000.0625,-400000.0625,-400000.0625,-400000.0625,-400000.0625,-400000.0625,-400000.0625
41.19517660140991,-400000.0625,-400000.0625,-400000.0625,-400000.0625,-400000.0625,-400000.0625,-400000.0625,-400000.0625
41.200419664382935,-400000.0625,-400000.0625,-400000.0625,-400000.0625,-400000.0625,-400000.0625,-400000.0625,-400000.0625
41.20554995536804,-400000.0625,-400000.0625,-400000.0625,-400000.0625,-400000.0625,-400000.0625,-400000.0625,-400000.0625
41.211233377456665,-400000.0625,-400000.0625,-400000.0625,-400000.0625,-400000.0625,-400000.0625,-400000.0625,-400000.0625
41.21600818634033,-400000.0625,-400000.0625,-400000.0625,-400000.0625,-400000.0625,-400000.0625,-400000.0625,-400000.0625
41.21601915359497,-400000.0625,-400000.0625,-400000.0625,-400000.0625,-400000.0625,-400000.0625,-400000.0625,-400000.0625
41.21602416038513,-400000.0625,-400000.0625,-400000.0625,-400000.0625,-400000.0625,-400000.0625,-400000.0625,-400000.0625
41.216028928756714,-400000.0625,-400000.0625,-400000.0625,-400000.0625,-400000.0625,-400000.0625,-400000.0625,-400000.0625
41.21603345870972,-400000.0625,-400000.0625,-400000.0625,-400000.0625,-400000.0625,-400000.0625,-400000.0625,-400000.0625
41.21603775024414,-400000.0625,-400000.0625,-400000.0625,-400000.0625,-400000.0625,-400000.0625,-400000.0625,-400000.0625
41.216041803359985,-400000.0625,-400000.0625,-400000.0625,-400000.0625,-400000.0625,-400000.0625,-400000.0625,-400000.0625
41.21604609489441,-400000.0625,-400000.0625,-400000.0625,-400000.0625,-400000.0625,-400000.0625,-400000.0625,-400000.0625
41.21605038642883,-400000.0625,-400000.0625,-400000.0625,-400000.0625,-400000.0625,-400000.0625,-400000.0625,-400000.0625
41.2160542011261,-400000.0625,-400000.0625,-400000.0625,-400000.0625,-400000.0625,-400000.0625,-400000.0625,-400000.0625
41.21605825424194,-400000.0625,-400000.0625,-400000.0625,-400000.0625,-400000.0625,-400000.0625,-400000.0625,-400000.0625
41.261263370513916,-400000.0625,-400000.0625,-400000.0625,-400000.0625,-400000.0625,-400000.0625,-400000.0625,-400000.0625
41.26701068878174,-400000.0625,-400000.0625,-400000.0625,-400000.0625,-400000.0625,-400000.0625,-400000.0625,-400000.0625
41.274754762649536,-400000.0625,-400000.0625,-400000.0625,-400000.0625,-400000.0625,-400000.0625,-400000.0625,-400000.0625
41.281203269958496,-400000.0625,-400000.0625,-400000.0625,-400000.0625,-400000.0625,-400000.0625,-400000.0625,-400000.0625
41.286449909210205,-400000.0625,-400000.0625,-400000.0625,-400000.0625,-400000.0625,-400000.0625,-400000.0625,-400000.0625
41.29760384559631,-400000.0625,-400000.0625,-400000.0625,-400000.0625,-400000.0625,-400000.0625,-400000.0625,-400000.0625
41.302815675735474,-400000.0625,-400000.0625,-400000.0625,-400000.0625,-400000.0625,-400000.0625,-400000.0625,-400000.0625
41.308905363082886,-400000.0625,-400000.0625,-400000.0625,-400000.0625,-400000.0625,-400000.0625,-400000.0625,-400000.0625
41.31357455253601,-400000.0625,-400000.0625,-400000.0625,-400000.0625,-400000.0625,-400000.0625,-400000.0625,-400000.0625
41.31358504295349,-400000.0625,-400000.0625,-400000.0625,-400000.0625,-400000.0625,-400000.0625,-400000.0625,-400000.0625
41.31359004974365,-400000.0625,-400000.0625,-400000.0625,-400000.0625,-400000.0625,-400000.0625,-400000.0625,-400000.0625
41.313594818115234,-400000.0625,-400000.0625,-400000.0625,-400000.0625,-400000.0625,-400000.0625,-400000.0625,-400000.0625
41.31359910964966,-400000.0625,-400000.0625,-400000.0625,-400000.0625,-400000.0625,-400000.0625,-400000.0625,-400000.0625
41.3136031627655,-400000.0625,-400000.0625,-400000.0625,-400000.0625,-400000.0625,-400000.0625,-400000.0625,-400000.0625
41.31360745429993,-400000.0625,-400000.0625,-400000.0625,-400000.0625,-400000.0625,-400000.0625,-400000.0625,-400000.0625
41.31361126899719,-400000.0625,-400000.0625,-400000.0625,-400000.0625,-400000.0625,-400000.0625,-400000.0625,-400000.0625
41.33615231513977,-400000.0625,-400000.0625,-400000.0625,-400000.0625,-400000.0625,-400000.0625,-400000.0625,-400000.0625
41.342381715774536,-400000.0625,-400000.0625,-400000.0625,-400000.0625,-400000.0625,-400000.0625,-400000.0625,-400000.0625
41.34709692001343,-400000.0625,-400000.0625,-400000.0625,-400000.0625,-400000.0625,-400000.0625,-400000.0625,-400000.0625
41.34710741043091,-400000.0625,-400000.0625,-400000.0625,-400000.0625,-400000.0625,-400000.0625,-400000.0625,-400000.0625
41.34711289405823,-400000.0625,-400000.0625,-400000.0625,-400000.0625,-400000.0625,-400000.0625,-400000.0625,-400000.0625
41.34711790084839,-400000.0625,-400000.0625,-400000.0625,-400000.0625,-400000.0625,-400000.0625,-400000.0625,-400000.0625
41.34712195396423,-400000.0625,-400000.0625,-400000.0625,-400000.0625,-400000.0625,-400000.0625,-400000.0625,-400000.0625
41.347126483917236,-400000.0625,-400000.0625,-400000.0625,-400000.0625,-400000.0625,-400000.0625,-400000.0625,-400000.0625
41.34713077545166,-400000.0625,-400000.0625,-400000.0625,-400000.0625,-400000.0625,-400000.0625,-400000.0625,-400000.0625
41.347134828567505,-400000.0625,-400000.0625,-400000.0625,-400000.0625,-400000.0625,-400000.0625,-400000.0625,-400000.0625
41.34713888168335,-400000.0625,-400000.0625,-400000.0625,-400000.0625,-400000.0625,-400000.0625,-400000.0625,-400000.0625
41.347142934799194,-400000.0625,-400000.0625,-400000.0625,-400000.0625,-400000.0625,-400000.0625,-400000.0625,-400000.0625
41.34714698791504,-400000.0625,-400000.0625,-400000.0625,-400000.0625,-400000.0625,-400000.0625,-400000.0625,-400000.0625
41.34715127944946,-400000.0625,-400000.0625,-400000.0625,-400000.0625,-400000.0625,-400000.0625,-400000.0625,-400000.0625
41.34715533256531,-400000.0625,-400000.0625,-400000.0625,-400000.0625,-400000.0625,-400000.0625,-400000.0625,-400000.0625
41.34715938568115,-400000.0625,-400000.0625,-400000.0625,-400000.0625,-400000.0625,-400000.0625,-400000.0625,-400000.0625
41.37987446784973,-400000.0625,-400000.0625,-400000.0625,-400000.0625,-400000.0625,-400000.0625,-400000.0625,-400000.0625
