time,ch1,ch2,ch3,ch4,ch5,ch6,ch7,ch8
166.34984183311462,-400000.0625,3736.780029296875,2924.110107421875,-400000.0625,-4815.52978515625,-400000.0625,4936.169921875,-400000.0625
166.37015795707703,-400000.0625,3681.090087890625,2872.22998046875,-400000.0625,-4847.240234375,-400000.0625,4887.490234375,-400000.0625
166.38393759727478,-400000.0625,3623.199951171875,2823.39990234375,-400000.0625,-4881.330078125,-400000.0625,4829.5,-400000.0625
166.39954614639282,-400000.0625,3640.699951171875,2840.18994140625,-400000.0625,-4867.7001953125,-400000.0625,4846.14013671875,-400000.0625
166.41250848770142,-400000.0625,3710.510009765625,2902.219970703125,-400000.0625,-4823.16015625,-400000.0625,4913.85986328125,-400000.0625
166.42604231834412,-400000.0625,3736.68994140625,2918.77001953125,-400000.0625,-4812.77001953125,-400000.0625,4941.3701171875,-400000.0625
166.43780422210693,-400000.0625,3692.199951171875,2879.139892578125,-400000.0625,-4836.89013671875,-400000.0625,4893.35009765625,-400000.0625
166.45156264305115,-400000.0625,3633.39990234375,2833.699951171875,-400000.0625,-4871.56005859375,-400000.0625,4838.0400390625,-400000.0625
166.47708344459534,-400000.0625,3646.179931640625,2849.2900390625,-400000.0625,-4863.5498046875,-400000.0625,4855.16015625,-400000.0625
166.48950672149658,-400000.0625,3707.840087890625,2903.510009765625,-400000.0625,-4826.97998046875,-400000.0625,4914.330078125,-400000.0625
166.5005214214325,-400000.0625,3733.679931640625,2919.14990234375,-400000.0625,-4814.10009765625,-400000.0625,4933.259765625,-400000.0625
166.51199913024902,-400000.0625,3684.090087890625,2873.22998046875,-400000.0625,-4844.56982421875,-400000.0625,4886.2001953125,-400000.0625
166.52292346954346,-400000.0625,3624.9599609375,2825.1201171875,-400000.0625,-4877.3798828125,-400000.0625,4832.7001953125,-400000.0625
166.53417253494263,-400000.0625,3638.219970703125,2841.760009765625,-400000.0625,-4862.35986328125,-400000.0625,4847.91015625,-400000.0625
166.5451157093048,-400000.0625,3706.260009765625,2901.219970703125,-400000.0625,-4823.97021484375,-400000.0625,4915.18994140625,-400000.0625
166.55808472633362,-400000.0625,3732.590087890625,2921.340087890625,-400000.0625,-4811.43017578125,-400000.0625,4941.31982421875,-400000.0625
166.58622193336487,-400000.0625,3685.18994140625,2874.949951171875,-400000.0625,-4846.0498046875,-400000.0625,4891.68017578125,-400000.0625
166.59991121292114,-400000.0625,3625.820068359375,2823.8798828125,-400000.0625,-4885.6298828125,-400000.0625,4832.7001953125,-400000.0625
166.6110484600067,-400000.0625,3639.7900390625,2838.280029296875,-400000.0625,-4873.1298828125,-400000.0625,4849.009765625,-400000.0625
166.62131714820862,-400000.0625,3706.929931640625,2898.360107421875,-400000.0625,-4829.4501953125,-400000.0625,4916.85986328125,-400000.0625
166.63476371765137,-400000.0625,3734.639892578125,2921.820068359375,-400000.0625,-4810.3798828125,-400000.0625,4943.66015625,-400000.0625
166.6453983783722,-400000.0625,3687.330078125,2876.330078125,-400000.0625,-4849.10009765625,-400000.0625,4891.97021484375,-400000.0625
166.6561243534088,-400000.0625,3626.25,2825.070068359375,-400000.0625,-4880.669921875,-400000.0625,4835.990234375,-400000.0625
166.66727590560913,-400000.0625,3637.27001953125,2837.93994140625,-400000.0625,-4866.4599609375,-400000.0625,4846.52978515625,-400000.0625
166.68776941299438,-400000.0625,3709.080078125,2899.550048828125,-400000.0625,-4827.64013671875,-400000.0625,4911.60986328125,-400000.0625
166.69859504699707,-400000.0625,3734.639892578125,2922.110107421875,-400000.0625,-4817.81982421875,-400000.0625,4937.7900390625,-400000.0625
166.70985555648804,-400000.0625,3685.280029296875,2874.419921875,-400000.0625,-4846.240234375,-400000.0625,4888.77001953125,-400000.0625
166.71949076652527,-400000.0625,3627.43994140625,2826.449951171875,-400000.0625,-4879.759765625,-400000.0625,4833.41015625,-400000.0625
166.72917532920837,-400000.0625,3640.800048828125,2843.139892578125,-400000.0625,-4869.60009765625,-400000.0625,4850.33984375,-400000.0625
166.73924732208252,-400000.0625,3708.699951171875,2901.360107421875,-400000.0625,-4825.830078125,-400000.0625,4918.6201171875,-400000.0625
166.75051832199097,-400000.0625,3739.550048828125,2925.43994140625,-400000.0625,-4805.47021484375,-400000.0625,4942.1298828125,-400000.0625
166.76031875610352,-400000.0625,3686.330078125,2877.18994140625,-400000.0625,-4846.52978515625,-400000.0625,4890.009765625,-400000.0625
166.77060747146606,-400000.0625,3627.5400390625,2827.5,-400000.0625,-4886.2900390625,-400000.0625,4835.56005859375,-400000.0625
166.7890293598175,-400000.0625,3640.56005859375,2841.760009765625,-400000.0625,-4869.75,-400000.0625,4848.91015625,-400000.0625
166.79937434196472,-400000.0625,3703.7900390625,2897.8798828125,-400000.0625,-4827.93017578125,-400000.0625,4907.0400390625,-400000.0625
166.80895590782166,-400000.0625,3733.72998046875,2920.10009765625,-400000.0625,-4813.47998046875,-400000.0625,4938.02978515625,-400000.0625
166.81955432891846,-400000.0625,3684.330078125,2875.89990234375,-400000.0625,-4844.6201171875,-400000.0625,4891.490234375,-400000.0625
166.8314127922058,-400000.0625,3626.6298828125,2827.219970703125,-400000.0625,-4879.43017578125,-400000.0625,4835.990234375,-400000.0625
166.84053754806519,-400000.0625,3639.889892578125,2841.949951171875,-400000.0625,-4861.68994140625,-400000.0625,4852.2998046875,-400000.0625
166.85136365890503,-400000.0625,3711.030029296875,2902.409912109375,-400000.0625,-4819.919921875,-400000.0625,4919.6201171875,-400000.0625
166.86051559448242,-400000.0625,3739.02001953125,2921.14990234375,-400000.0625,-4817.68017578125,-400000.0625,4944.08984375,-400000.0625
166.86985278129578,-400000.0625,3685.52001953125,2874.090087890625,-400000.0625,-4849.43017578125,-400000.0625,4895.77978515625,-400000.0625
166.88048124313354,-400000.0625,3629.639892578125,2829.030029296875,-400000.0625,-4874.419921875,-400000.0625,4837.27978515625,-400000.0625
166.8998486995697,-400000.0625,3643.469970703125,2843.47998046875,-400000.0625,-4861.39990234375,-400000.0625,4848.43017578125,-400000.0625
166.9093828201294,-400000.0625,3705.929931640625,2897.1201171875,-400000.0625,-4826.2099609375,-400000.0625,4912.419921875,-400000.0625
166.91977500915527,-400000.0625,3737.8798828125,2921.77001953125,-400000.0625,-4812.85986328125,-400000.0625,4935.93017578125,-400000.0625
166.93112921714783,-400000.0625,3687.18994140625,2878.0,-400000.0625,-4845.240234375,-400000.0625,4887.33984375,-400000.0625
166.9402186870575,-400000.0625,3627.919921875,2827.409912109375,-400000.0625,-4883.39013671875,-400000.0625,4835.64990234375,-400000.0625
166.94948863983154,-400000.0625,3642.64990234375,2842.050048828125,-400000.0625,-4873.0400390625,-400000.0625,4848.77001953125,-400000.0625
166.9584035873413,-400000.0625,3708.550048828125,2902.409912109375,-400000.0625,-4825.8798828125,-400000.0625,4912.47021484375,-400000.0625
166.96877813339233,-400000.0625,3729.06005859375,2919.25,-400000.0625,-4814.33984375,-400000.0625,4935.5498046875,-400000.0625
166.98065280914307,-400000.0625,3688.3798828125,2878.89990234375,-400000.0625,-4840.85009765625,-400000.0625,4888.81982421875,-400000.0625
166.9999623298645,-400000.0625,3633.929931640625,2830.360107421875,-400000.0625,-4875.47021484375,-400000.0625,4831.97998046875,-400000.0625
167.00997972488403,-400000.0625,3638.699951171875,2839.0400390625,-400000.0625,-4870.509765625,-400000.0625,4842.08984375,-400000.0625
167.01998925209045,-400000.0625,3704.5,2897.409912109375,-400000.0625,-4827.06982421875,-400000.0625,4906.4599609375,-400000.0625
167.03007888793945,-400000.0625,3735.72998046875,2923.06005859375,-400000.0625,-4816.580078125,-400000.0625,4936.35986328125,-400000.0625
167.04005193710327,-400000.0625,3683.330078125,2875.7099609375,-400000.0625,-4855.06005859375,-400000.0625,4889.39013671875,-400000.0625
167.04996013641357,-400000.0625,3631.260009765625,2833.080078125,-400000.0625,-4877.66015625,-400000.0625,4834.02978515625,-400000.0625
167.05971837043762,-400000.0625,3644.93994140625,2848.389892578125,-400000.0625,-4862.1201171875,-400000.0625,4847.81005859375,-400000.0625
167.06971955299377,-400000.0625,3706.360107421875,2901.169921875,-400000.0625,-4826.97998046875,-400000.0625,4915.759765625,-400000.0625
167.08008313179016,-400000.0625,3738.929931640625,2927.68994140625,-400000.0625,-4809.43017578125,-400000.0625,4941.419921875,-400000.0625
167.08936071395874,-400000.0625,3693.2900390625,2883.14990234375,-400000.0625,-4845.330078125,-400000.0625,4891.10986328125,-400000.0625
167.10778832435608,-400000.0625,3630.590087890625,2831.889892578125,-400000.0625,-4882.0498046875,-400000.0625,4834.3701171875,-400000.0625
167.11837673187256,-400000.0625,3642.030029296875,2842.3798828125,-400000.0625,-4867.5498046875,-400000.0625,4846.6201171875,-400000.0625
167.12838506698608,-400000.0625,3710.510009765625,2900.64990234375,-400000.0625,-4825.1201171875,-400000.0625,4909.47021484375,-400000.0625
167.13751864433289,-400000.0625,3741.169921875,2925.159912109375,-400000.0625,-4816.72021484375,-400000.0625,4940.7998046875,-400000.0625
167.14742159843445,-400000.0625,3690.820068359375,2882.719970703125,-400000.0625,-4850.580078125,-400000.0625,4891.77978515625,-400000.0625
167.15759015083313,-400000.0625,3631.780029296875,2833.320068359375,-400000.0625,-4880.0498046875,-400000.0625,4832.89013671875,-400000.0625
167.1698658466339,-400000.0625,3642.320068359375,2845.340087890625,-400000.0625,-4866.89013671875,-400000.0625,4851.009765625,-400000.0625
167.18075585365295,-400000.0625,3706.260009765625,2903.179931640625,-400000.0625,-4823.72998046875,-400000.0625,4917.10009765625,-400000.0625
167.19123673439026,-400000.0625,3736.159912109375,2925.489990234375,-400000.0625,-4811.43017578125,-400000.0625,4941.3701171875,-400000.0625
167.2113230228424,-400000.0625,3694.25,2882.2900390625,-400000.0625,-4837.7998046875,-400000.0625,4897.39990234375,-400000.0625
167.22038531303406,-400000.0625,3635.219970703125,2831.169921875,-400000.0625,-4871.66015625,-400000.0625,4839.7099609375,-400000.0625
167.23243618011475,-400000.0625,3641.610107421875,2841.760009765625,-400000.0625,-4870.22021484375,-400000.0625,4847.9599609375,-400000.0625
167.24254035949707,-400000.0625,3701.830078125,2894.68994140625,-400000.0625,-4834.1298828125,-400000.0625,4907.85009765625,-400000.0625
167.25302577018738,-400000.0625,3734.780029296875,2921.719970703125,-400000.0625,-4816.9599609375,-400000.0625,4936.27001953125,-400000.0625
167.26294684410095,-400000.0625,3689.340087890625,2881.570068359375,-400000.0625,-4838.89990234375,-400000.0625,4889.68017578125,-400000.0625
167.27259516716003,-400000.0625,3629.39990234375,2830.929931640625,-400000.0625,-4871.18017578125,-400000.0625,4833.60009765625,-400000.0625
167.28305220603943,-400000.0625,3637.699951171875,2841.52001953125,-400000.0625,-4862.740234375,-400000.0625,4847.18994140625,-400000.0625
167.29321956634521,-400000.0625,3706.070068359375,2902.080078125,-400000.0625,-4818.490234375,-400000.0625,4912.330078125,-400000.0625
167.31247735023499,-400000.0625,3740.1201171875,2926.780029296875,-400000.0625,-4809.14013671875,-400000.0625,4939.509765625,-400000.0625
167.3224675655365,-400000.0625,3689.429931640625,2883.820068359375,-400000.0625,-4846.6201171875,-400000.0625,4892.490234375,-400000.0625
167.33475279808044,-400000.0625,3628.72998046875,2832.989990234375,-400000.0625,-4880.14013671875,-400000.0625,4836.22998046875,-400000.0625
167.34527015686035,-400000.0625,3640.27001953125,2846.719970703125,-400000.0625,-4865.97998046875,-400000.0625,4847.81005859375,-400000.0625
167.35757040977478,-400000.0625,3704.97998046875,2900.699951171875,-400000.0625,-4828.8798828125,-400000.0625,4909.66015625,-400000.0625
167.36807990074158,-400000.0625,3736.02001953125,2924.820068359375,-400000.0625,-4816.14990234375,-400000.0625,4936.02978515625,-400000.0625
167.3791275024414,-400000.0625,3688.3798828125,2880.2900390625,-400000.0625,-4843.52001953125,-400000.0625,4887.39013671875,-400000.0625
167.38918900489807,-400000.0625,3631.5400390625,2830.4599609375,-400000.0625,-4870.75,-400000.0625,4833.1298828125,-400000.0625
167.40068292617798,-400000.0625,3640.889892578125,2839.139892578125,-400000.0625,-4859.77978515625,-400000.0625,4840.7998046875,-400000.0625
167.42079949378967,-400000.0625,3703.39990234375,2898.97998046875,-400000.0625,-4827.1201171875,-400000.0625,4904.7998046875,-400000.0625
167.4311807155609,-400000.0625,3733.5400390625,2921.389892578125,-400000.0625,-4818.25,-400000.0625,4934.259765625,-400000.0625
167.4409897327423,-400000.0625,3691.860107421875,2880.47998046875,-400000.0625,-4843.66015625,-400000.0625,4890.16015625,-400000.0625
167.45092105865479,-400000.0625,3635.070068359375,2832.989990234375,-400000.0625,-4873.509765625,-400000.0625,4835.1298828125,-400000.0625
167.46240234375,-400000.0625,3640.219970703125,2840.090087890625,-400000.0625,-4874.990234375,-400000.0625,4845.2900390625,-400000.0625
167.47222805023193,-400000.0625,3703.39990234375,2895.31005859375,-400000.0625,-4833.97998046875,-400000.0625,4908.08984375,-400000.0625
167.48432636260986,-400000.0625,3733.919921875,2919.8701171875,-400000.0625,-4813.10009765625,-400000.0625,4936.7900390625,-400000.0625
167.49544835090637,-400000.0625,3688.0,2876.760009765625,-400000.0625,-4842.47021484375,-400000.0625,4893.68017578125,-400000.0625
167.50628113746643,-400000.0625,3623.300048828125,2823.159912109375,-400000.0625,-4881.56982421875,-400000.0625,4834.93994140625,-400000.0625
167.52712869644165,-400000.0625,3638.409912109375,2838.280029296875,-400000.0625,-4869.3701171875,-400000.0625,4844.3798828125,-400000.0625
167.5372371673584,-400000.0625,3707.27001953125,2896.60009765625,-400000.0625,-4829.1201171875,-400000.0625,4914.0,-400000.0625
167.5477647781372,-400000.0625,3735.590087890625,2918.860107421875,-400000.0625,-4820.77978515625,-400000.0625,4943.990234375,-400000.0625
167.5587456226349,-400000.0625,3687.81005859375,2877.6201171875,-400000.0625,-4850.72021484375,-400000.0625,4899.06982421875,-400000.0625
167.5701105594635,-400000.0625,3630.590087890625,2826.639892578125,-400000.0625,-4882.14990234375,-400000.0625,4839.419921875,-400000.0625
167.58217310905457,-400000.0625,3641.030029296875,2837.090087890625,-400000.0625,-4871.27001953125,-400000.0625,4852.33984375,-400000.0625
167.5911877155304,-400000.0625,3699.2099609375,2889.820068359375,-400000.0625,-4835.4599609375,-400000.0625,4912.18994140625,-400000.0625
167.60163164138794,-400000.0625,3731.25,2915.18994140625,-400000.0625,-4820.009765625,-400000.0625,4940.509765625,-400000.0625
167.6118175983429,-400000.0625,3686.909912109375,2871.89990234375,-400000.0625,-4847.0,-400000.0625,4894.2099609375,-400000.0625
167.6321005821228,-400000.0625,3627.830078125,2823.8798828125,-400000.0625,-4882.2900390625,-400000.0625,4835.89013671875,-400000.0625
167.64125895500183,-400000.0625,3636.169921875,2835.56005859375,-400000.0625,-4878.6201171875,-400000.0625,4848.0498046875,-400000.0625
167.6511423587799,-400000.0625,3703.7900390625,2893.110107421875,-400000.0625,-4834.56005859375,-400000.0625,4911.14013671875,-400000.0625
167.66129755973816,-400000.0625,3734.639892578125,2915.81005859375,-400000.0625,-4816.490234375,-400000.0625,4936.7900390625,-400000.0625
167.67176938056946,-400000.0625,3691.239990234375,2875.760009765625,-400000.0625,-4843.52001953125,-400000.0625,4894.77978515625,-400000.0625
167.6823992729187,-400000.0625,3628.969970703125,2826.2099609375,-400000.0625,-4880.18994140625,-400000.0625,4839.330078125,-400000.0625
167.69295525550842,-400000.0625,3637.510009765625,2836.85009765625,-400000.0625,-4870.02978515625,-400000.0625,4847.18994140625,-400000.0625
167.70256328582764,-400000.0625,3705.7900390625,2898.030029296875,-400000.0625,-4825.1201171875,-400000.0625,4910.14013671875,-400000.0625
167.71344923973083,-400000.0625,3737.969970703125,2924.489990234375,-400000.0625,-4817.68017578125,-400000.0625,4942.47021484375,-400000.0625
167.7326545715332,-400000.0625,3689.429931640625,2878.090087890625,-400000.0625,-4848.72021484375,-400000.0625,4892.06005859375,-400000.0625
167.74429059028625,-400000.0625,3628.679931640625,2826.260009765625,-400000.0625,-4877.89990234375,-400000.0625,4834.31982421875,-400000.0625
167.75578045845032,-400000.0625,3635.449951171875,2838.179931640625,-400000.0625,-4869.60009765625,-400000.0625,4843.0400390625,-400000.0625
167.7683801651001,-400000.0625,3702.35009765625,2896.31005859375,-400000.0625,-4830.22021484375,-400000.0625,4909.419921875,-400000.0625
167.77984929084778,-400000.0625,3733.35009765625,2921.10009765625,-400000.0625,-4821.490234375,-400000.0625,4937.60009765625,-400000.0625
167.78938627243042,-400000.0625,3692.530029296875,2884.050048828125,-400000.0625,-4846.759765625,-400000.0625,4892.16015625,-400000.0625
167.8007972240448,-400000.0625,3633.639892578125,2834.889892578125,-400000.0625,-4877.89990234375,-400000.0625,4836.990234375,-400000.0625
167.81157994270325,-400000.0625,3634.5,2838.52001953125,-400000.0625,-4872.31982421875,-400000.0625,4844.3798828125,-400000.0625
167.82221817970276,-400000.0625,3703.550048828125,2896.2099609375,-400000.0625,-4835.22021484375,-400000.0625,4903.41015625,-400000.0625
167.84380173683167,-400000.0625,3733.25,2921.06005859375,-400000.0625,-4817.2001953125,-400000.0625,4935.60009765625,-400000.0625
167.85479307174683,-400000.0625,3690.429931640625,2881.9599609375,-400000.0625,-4846.43017578125,-400000.0625,4889.919921875,-400000.0625
167.86735463142395,-400000.0625,3631.780029296875,2830.7900390625,-400000.0625,-4883.580078125,-400000.0625,4830.97998046875,-400000.0625
167.87752389907837,-400000.0625,3639.080078125,2840.760009765625,-400000.0625,-4871.4599609375,-400000.0625,4841.759765625,-400000.0625
167.8887643814087,-400000.0625,3702.070068359375,2895.260009765625,-400000.0625,-4832.080078125,-400000.0625,4904.31982421875,-400000.0625
167.9039614200592,-400000.0625,3732.72998046875,2920.06005859375,-400000.0625,-4814.240234375,-400000.0625,4936.64990234375,-400000.0625
167.91715168952942,-400000.0625,3688.18994140625,2878.239990234375,-400000.0625,-4844.27978515625,-400000.0625,4891.2998046875,-400000.0625
167.9274845123291,-400000.0625,3627.72998046875,2829.030029296875,-400000.0625,-4877.81005859375,-400000.0625,4830.93017578125,-400000.0625
167.94859623908997,-400000.0625,3637.4599609375,2838.949951171875,-400000.0625,-4869.080078125,-400000.0625,4837.75,-400000.0625
167.95865178108215,-400000.0625,3703.8798828125,2896.02001953125,-400000.0625,-4828.259765625,-400000.0625,4905.3701171875,-400000.0625
167.9695885181427,-400000.0625,3733.06005859375,2919.820068359375,-400000.0625,-4812.669921875,-400000.0625,4934.60009765625,-400000.0625
167.97977900505066,-400000.0625,3687.860107421875,2877.6201171875,-400000.0625,-4844.0498046875,-400000.0625,4885.91015625,-400000.0625
167.98997712135315,-400000.0625,3626.820068359375,2826.60009765625,-400000.0625,-4876.66015625,-400000.0625,4827.4501953125,-400000.0625
168.00106477737427,-400000.0625,3634.8798828125,2838.090087890625,-400000.0625,-4868.56005859375,-400000.0625,4833.89013671875,-400000.0625
168.01071786880493,-400000.0625,3700.68994140625,2894.35009765625,-400000.0625,-4829.35986328125,-400000.0625,4898.35986328125,-400000.0625
168.02078890800476,-400000.0625,3730.679931640625,2919.050048828125,-400000.0625,-4809.47998046875,-400000.0625,4930.31005859375,-400000.0625
168.0318627357483,-400000.0625,3688.0,2879.050048828125,-400000.0625,-4843.81005859375,-400000.0625,4888.5400390625,-400000.0625
168.05129218101501,-400000.0625,3628.06005859375,2830.409912109375,-400000.0625,-4881.3798828125,-400000.0625,4831.93017578125,-400000.0625
168.06132340431213,-400000.0625,3634.169921875,2835.56005859375,-400000.0625,-4873.66015625,-400000.0625,4838.0400390625,-400000.0625
168.07224988937378,-400000.0625,3697.5400390625,2892.159912109375,-400000.0625,-4834.56005859375,-400000.0625,4902.5498046875,-400000.0625
168.08286666870117,-400000.0625,3737.35009765625,2924.489990234375,-400000.0625,-4811.6201171875,-400000.0625,4933.830078125,-400000.0625
168.09344244003296,-400000.0625,3693.25,2882.18994140625,-400000.0625,-4841.52001953125,-400000.0625,4888.009765625,-400000.0625
168.10316061973572,-400000.0625,3630.639892578125,2827.68994140625,-400000.0625,-4876.47021484375,-400000.0625,4828.1201171875,-400000.0625
168.11278438568115,-400000.0625,3633.830078125,2832.7900390625,-400000.0625,-4868.93994140625,-400000.0625,4834.22021484375,-400000.0625
168.12214303016663,-400000.0625,3696.8701171875,2889.489990234375,-400000.0625,-4828.97998046875,-400000.0625,4894.5,-400000.0625
168.13218331336975,-400000.0625,3728.8701171875,2914.669921875,-400000.0625,-4816.10009765625,-400000.0625,4926.490234375,-400000.0625
168.15040755271912,-400000.0625,3685.239990234375,2877.050048828125,-400000.0625,-4842.27978515625,-400000.0625,4886.009765625,-400000.0625
168.16174602508545,-400000.0625,3625.919921875,2827.31005859375,-400000.0625,-4878.7099609375,-400000.0625,4829.68994140625,-400000.0625
168.1724133491516,-400000.0625,3637.929931640625,2837.93994140625,-400000.0625,-4872.419921875,-400000.0625,4839.22998046875,-400000.0625
168.183598279953,-400000.0625,3703.260009765625,2893.639892578125,-400000.0625,-4830.35986328125,-400000.0625,4901.02978515625,-400000.0625
168.19388055801392,-400000.0625,3732.25,2915.81005859375,-400000.0625,-4820.2001953125,-400000.0625,4935.5,-400000.0625
168.2059028148651,-400000.0625,3684.239990234375,2873.179931640625,-400000.0625,-4854.16015625,-400000.0625,4888.5400390625,-400000.0625
168.21733021736145,-400000.0625,3622.47998046875,2821.449951171875,-400000.0625,-4883.39013671875,-400000.0625,4831.83984375,-400000.0625
168.22851395606995,-400000.0625,3633.39990234375,2834.699951171875,-400000.0625,-4873.60986328125,-400000.0625,4839.7998046875,-400000.0625
168.24004578590393,-400000.0625,3698.780029296875,2896.1201171875,-400000.0625,-4828.31005859375,-400000.0625,4899.06982421875,-400000.0625
168.26013898849487,-400000.0625,3732.39990234375,2921.919921875,-400000.0625,-4808.7099609375,-400000.0625,4933.5,-400000.0625
168.27119207382202,-400000.0625,3696.010009765625,2884.909912109375,-400000.0625,-4842.85009765625,-400000.0625,4890.77978515625,-400000.0625
168.28212881088257,-400000.0625,3632.070068359375,2832.1298828125,-400000.0625,-4883.240234375,-400000.0625,4829.02978515625,-400000.0625
168.29305338859558,-400000.0625,3631.969970703125,2836.3701171875,-400000.0625,-4875.7099609375,-400000.0625,4834.75,-400000.0625
168.30357599258423,-400000.0625,3695.8701171875,2890.06005859375,-400000.0625,-4838.18017578125,-400000.0625,4895.68994140625,-400000.0625
168.31661772727966,-400000.0625,3735.2099609375,2920.530029296875,-400000.0625,-4819.35009765625,-400000.0625,4931.02001953125,-400000.0625
168.32639050483704,-400000.0625,3694.340087890625,2882.47998046875,-400000.0625,-4840.47021484375,-400000.0625,4888.2001953125,-400000.0625
168.3371467590332,-400000.0625,3626.159912109375,2825.169921875,-400000.0625,-4880.0,-400000.0625,4826.1201171875,-400000.0625
168.34731817245483,-400000.0625,3633.2099609375,2835.56005859375,-400000.0625,-4873.93994140625,-400000.0625,4835.02978515625,-400000.0625
168.367737531662,-400000.0625,3692.2900390625,2887.820068359375,-400000.0625,-4830.41015625,-400000.0625,4896.259765625,-400000.0625
168.37773251533508,-400000.0625,3727.2900390625,2916.340087890625,-400000.0625,-4817.580078125,-400000.0625,4932.830078125,-400000.0625
168.38805747032166,-400000.0625,3685.6201171875,2874.659912109375,-400000.0625,-4853.06005859375,-400000.0625,4892.919921875,-400000.0625
168.4004352092743,-400000.0625,3623.06005859375,2819.300048828125,-400000.0625,-4885.39013671875,-400000.0625,4829.31005859375,-400000.0625
168.41133546829224,-400000.0625,3626.35009765625,2826.169921875,-400000.0625,-4874.85009765625,-400000.0625,4831.7001953125,-400000.0625
168.42323303222656,-400000.0625,3691.719970703125,2886.199951171875,-400000.0625,-4829.35986328125,-400000.0625,4895.1201171875,-400000.0625
168.4359941482544,-400000.0625,3733.2099609375,2920.719970703125,-400000.0625,-4810.0498046875,-400000.0625,4934.1201171875,-400000.0625
168.4488718509674,-400000.0625,3688.77001953125,2881.18994140625,-400000.0625,-4848.77001953125,-400000.0625,4887.6298828125,-400000.0625
168.47259902954102,-400000.0625,3627.590087890625,2825.169921875,-400000.0625,-4886.72021484375,-400000.0625,4824.58984375,-400000.0625
168.48513174057007,-400000.0625,3630.300048828125,2831.93994140625,-400000.0625,-4875.47021484375,-400000.0625,4833.56005859375,-400000.0625
168.49719190597534,-400000.0625,3689.2900390625,2887.580078125,-400000.0625,-4838.419921875,-400000.0625,4895.259765625,-400000.0625
168.50825834274292,-400000.0625,3723.81005859375,2915.530029296875,-400000.0625,-4820.72998046875,-400000.0625,4928.4501953125,-400000.0625
168.52107977867126,-400000.0625,3686.330078125,2882.18994140625,-400000.0625,-4844.27978515625,-400000.0625,4893.06982421875,-400000.0625
168.5332019329071,-400000.0625,3628.110107421875,2834.030029296875,-400000.0625,-4872.60986328125,-400000.0625,4833.64990234375,-400000.0625
168.54464435577393,-400000.0625,3631.68994140625,2839.760009765625,-400000.0625,-4869.509765625,-400000.0625,4838.1298828125,-400000.0625
168.55511927604675,-400000.0625,3692.06005859375,2894.070068359375,-400000.0625,-4836.89013671875,-400000.0625,4897.35986328125,-400000.0625
168.57583498954773,-400000.0625,3729.25,2920.820068359375,-400000.0625,-4813.91015625,-400000.0625,4932.8798828125,-400000.0625
168.58678913116455,-400000.0625,3688.47998046875,2879.429931640625,-400000.0625,-4844.6201171875,-400000.0625,4890.81982421875,-400000.0625
168.5994029045105,-400000.0625,3625.300048828125,2825.7900390625,-400000.0625,-4881.10009765625,-400000.0625,4827.68994140625,-400000.0625
168.60932612419128,-400000.0625,3625.43994140625,2831.169921875,-400000.0625,-4874.7099609375,-400000.0625,4834.080078125,-400000.0625
168.61871600151062,-400000.0625,3689.0,2886.9599609375,-400000.0625,-4834.27001953125,-400000.0625,4899.22021484375,-400000.0625
168.62870502471924,-400000.0625,3729.489990234375,2918.14990234375,-400000.0625,-4813.47998046875,-400000.0625,4931.02001953125,-400000.0625
168.63818526268005,-400000.0625,3685.6201171875,2878.47998046875,-400000.0625,-4848.9599609375,-400000.0625,4889.43994140625,-400000.0625
168.64925694465637,-400000.0625,3626.25,2828.169921875,-400000.0625,-4879.18994140625,-400000.0625,4832.64990234375,-400000.0625
168.6594362258911,-400000.0625,3631.639892578125,2835.610107421875,-400000.0625,-4873.31982421875,-400000.0625,4837.31982421875,-400000.0625
168.67888855934143,-400000.0625,3694.919921875,2891.969970703125,-400000.0625,-4836.419921875,-400000.0625,4901.60009765625,-400000.0625
168.68998098373413,-400000.0625,3727.820068359375,2920.2900390625,-400000.0625,-4817.52978515625,-400000.0625,4940.7001953125,-400000.0625
168.70096230506897,-400000.0625,3685.050048828125,2878.949951171875,-400000.0625,-4843.08984375,-400000.0625,4891.77978515625,-400000.0625
168.71123147010803,-400000.0625,3620.050048828125,2823.969970703125,-400000.0625,-4878.3798828125,-400000.0625,4826.68994140625,-400000.0625
168.72204446792603,-400000.0625,3621.199951171875,2829.1201171875,-400000.0625,-4881.47998046875,-400000.0625,4832.27001953125,-400000.0625
168.73325395584106,-400000.0625,3685.0,2886.489990234375,-400000.0625,-4841.66015625,-400000.0625,4896.31005859375,-400000.0625
168.7427122592926,-400000.0625,3728.10009765625,2917.9599609375,-400000.0625,-4814.009765625,-400000.0625,4928.72998046875,-400000.0625
168.75199699401855,-400000.0625,3690.860107421875,2883.669921875,-400000.0625,-4841.0400390625,-400000.0625,4892.16015625,-400000.0625
168.7620403766632,-400000.0625,3625.489990234375,2830.7900390625,-400000.0625,-4879.89990234375,-400000.0625,4837.7998046875,-400000.0625
168.78236746788025,-400000.0625,3627.6298828125,2834.1298828125,-400000.0625,-4877.27978515625,-400000.0625,4843.6201171875,-400000.0625
168.7911548614502,-400000.0625,3689.81005859375,2889.5400390625,-400000.0625,-4840.330078125,-400000.0625,4902.83984375,-400000.0625
168.80304789543152,-400000.0625,3731.159912109375,2921.6298828125,-400000.0625,-4815.14990234375,-400000.0625,4934.97998046875,-400000.0625
168.8137435913086,-400000.0625,3691.9599609375,2885.9599609375,-400000.0625,-4841.419921875,-400000.0625,4897.169921875,-400000.0625
168.8244924545288,-400000.0625,3624.6298828125,2829.1201171875,-400000.0625,-4881.56982421875,-400000.0625,4833.93994140625,-400000.0625
168.8349027633667,-400000.0625,3625.199951171875,2835.1298828125,-400000.0625,-4874.89990234375,-400000.0625,4837.990234375,-400000.0625
168.8459484577179,-400000.0625,3689.47998046875,2891.35009765625,-400000.0625,-4835.64990234375,-400000.0625,4900.5,-400000.0625
168.85648608207703,-400000.0625,3724.18994140625,2922.14990234375,-400000.0625,-4812.33984375,-400000.0625,4936.35986328125,-400000.0625
168.86678338050842,-400000.0625,3687.669921875,2887.199951171875,-400000.0625,-4840.47021484375,-400000.0625,4895.1201171875,-400000.0625
168.88485145568848,-400000.0625,3628.639892578125,2834.419921875,-400000.0625,-4882.10009765625,-400000.0625,4831.509765625,-400000.0625
168.89482283592224,-400000.0625,3631.449951171875,2840.469970703125,-400000.0625,-4869.41015625,-400000.0625,4838.93994140625,-400000.0625
168.90444993972778,-400000.0625,3693.530029296875,2896.02001953125,-400000.0625,-4827.97998046875,-400000.0625,4901.740234375,-400000.0625
168.9149034023285,-400000.0625,3730.919921875,2927.39990234375,-400000.0625,-4813.9599609375,-400000.0625,4936.169921875,-400000.0625
168.9244635105133,-400000.0625,3691.6298828125,2891.35009765625,-400000.0625,-4841.9501953125,-400000.0625,4899.93017578125,-400000.0625
168.9349467754364,-400000.0625,3629.35009765625,2838.090087890625,-400000.0625,-4876.22998046875,-400000.0625,4836.7998046875,-400000.0625
168.94458413124084,-400000.0625,3629.300048828125,2843.280029296875,-400000.0625,-4868.02978515625,-400000.0625,4839.18017578125,-400000.0625
168.95512747764587,-400000.0625,3693.06005859375,2901.1298828125,-400000.0625,-4831.35986328125,-400000.0625,4900.60009765625,-400000.0625
168.96521592140198,-400000.0625,3730.199951171875,2926.780029296875,-400000.0625,-4815.0498046875,-400000.0625,4936.5498046875,-400000.0625
168.97446298599243,-400000.0625,3690.10009765625,2889.820068359375,-400000.0625,-4844.759765625,-400000.0625,4894.39990234375,-400000.0625
168.9957582950592,-400000.0625,3624.8701171875,2839.760009765625,-400000.0625,-4879.52001953125,-400000.0625,4832.169921875,-400000.0625
169.0055763721466,-400000.0625,3628.449951171875,2848.340087890625,-400000.0625,-4870.990234375,-400000.0625,4837.509765625,-400000.0625
169.01666069030762,-400000.0625,3689.050048828125,2902.56005859375,-400000.0625,-4831.97998046875,-400000.0625,4901.31005859375,-400000.0625
169.02673172950745,-400000.0625,3726.389892578125,2930.550048828125,-400000.0625,-4810.669921875,-400000.0625,4940.93994140625,-400000.0625
169.0371482372284,-400000.0625,3689.0,2893.260009765625,-400000.0625,-4835.080078125,-400000.0625,4898.06982421875,-400000.0625
169.04759454727173,-400000.0625,3627.110107421875,2839.570068359375,-400000.0625,-4874.990234375,-400000.0625,4833.97998046875,-400000.0625
169.0587010383606,-400000.0625,3627.590087890625,2843.330078125,-400000.0625,-4869.83984375,-400000.0625,4838.60986328125,-400000.0625
169.0688202381134,-400000.0625,3687.0,2896.449951171875,-400000.0625,-4833.75,-400000.0625,4900.64990234375,-400000.0625
169.07892966270447,-400000.0625,3725.580078125,2928.110107421875,-400000.0625,-4815.009765625,-400000.0625,4939.7001953125,-400000.0625
169.09973287582397,-400000.0625,3686.52001953125,2889.679931640625,-400000.0625,-4840.56982421875,-400000.0625,4898.31005859375,-400000.0625
169.1106731891632,-400000.0625,3623.919921875,2837.800048828125,-400000.0625,-4873.7099609375,-400000.0625,4840.990234375,-400000.0625
169.12146091461182,-400000.0625,3625.919921875,2841.280029296875,-400000.0625,-4869.7998046875,-400000.0625,4840.66015625,-400000.0625
169.13259148597717,-400000.0625,3687.429931640625,2895.39990234375,-400000.0625,-4834.64990234375,-400000.0625,4900.02978515625,-400000.0625
169.14318108558655,-400000.0625,3728.530029296875,2928.68994140625,-400000.0625,-4811.0,-400000.0625,4938.83984375,-400000.0625
169.15377283096313,-400000.0625,3687.10009765625,2893.110107421875,-400000.0625,-4837.56005859375,-400000.0625,4898.68994140625,-400000.0625
169.16388368606567,-400000.0625,3622.340087890625,2840.139892578125,-400000.0625,-4873.85009765625,-400000.0625,4834.080078125,-400000.0625
169.17565202713013,-400000.0625,3625.43994140625,2845.669921875,-400000.0625,-4870.7001953125,-400000.0625,4834.60009765625,-400000.0625
169.18608975410461,-400000.0625,3692.43994140625,2903.27001953125,-400000.0625,-4832.7900390625,-400000.0625,4898.1201171875,-400000.0625
169.20587635040283,-400000.0625,3731.580078125,2931.449951171875,-400000.0625,-4810.52001953125,-400000.0625,4935.97998046875,-400000.0625
169.21701765060425,-400000.0625,3691.10009765625,2897.449951171875,-400000.0625,-4835.7998046875,-400000.0625,4898.35986328125,-400000.0625
169.2271602153778,-400000.0625,3630.070068359375,2847.530029296875,-400000.0625,-4871.4599609375,-400000.0625,4841.759765625,-400000.0625
169.23743057250977,-400000.0625,3630.68994140625,2849.050048828125,-400000.0625,-4867.02978515625,-400000.0625,4844.7099609375,-400000.0625
169.24812531471252,-400000.0625,3695.72998046875,2902.1298828125,-400000.0625,-4825.259765625,-400000.0625,4902.740234375,-400000.0625
169.25752568244934,-400000.0625,3732.72998046875,2936.27001953125,-400000.0625,-4804.7099609375,-400000.0625,4942.7001953125,-400000.0625
169.2692675590515,-400000.0625,3690.9599609375,2897.409912109375,-400000.0625,-4842.14013671875,-400000.0625,4900.97998046875,-400000.0625
169.28004908561707,-400000.0625,3632.2099609375,2843.570068359375,-400000.0625,-4879.47998046875,-400000.0625,4835.4599609375,-400000.0625
169.29083681106567,-400000.0625,3632.02001953125,2847.860107421875,-400000.0625,-4872.1298828125,-400000.0625,4838.509765625,-400000.0625
169.30952167510986,-400000.0625,3694.489990234375,2904.889892578125,-400000.0625,-4833.4599609375,-400000.0625,4900.64990234375,-400000.0625
169.31902718544006,-400000.0625,3735.35009765625,2936.64990234375,-400000.0625,-4811.240234375,-400000.0625,4938.64990234375,-400000.0625
169.32909655570984,-400000.0625,3695.679931640625,2902.080078125,-400000.0625,-4838.60986328125,-400000.0625,4902.5498046875,-400000.0625
169.3387565612793,-400000.0625,3633.31005859375,2847.6201171875,-400000.0625,-4871.7998046875,-400000.0625,4844.89990234375,-400000.0625
169.34970116615295,-400000.0625,3629.300048828125,2850.010009765625,-400000.0625,-4872.1298828125,-400000.0625,4846.240234375,-400000.0625
169.36046528816223,-400000.0625,3693.199951171875,2905.800048828125,-400000.0625,-4831.97998046875,-400000.0625,4902.41015625,-400000.0625
169.37005805969238,-400000.0625,3730.919921875,2934.070068359375,-400000.0625,-4809.330078125,-400000.0625,4939.56005859375,-400000.0625
169.3805375099182,-400000.0625,3687.47998046875,2895.159912109375,-400000.0625,-4838.990234375,-400000.0625,4898.4501953125,-400000.0625
169.3903534412384,-400000.0625,3628.969970703125,2846.18994140625,-400000.0625,-4873.7998046875,-400000.0625,4840.7998046875,-400000.0625
169.40061140060425,-400000.0625,3628.300048828125,2849.6298828125,-400000.0625,-4869.080078125,-400000.0625,4843.14013671875,-400000.0625
169.42298412322998,-400000.0625,3691.14990234375,2903.800048828125,-400000.0625,-4828.7900390625,-400000.0625,4903.27001953125,-400000.0625
169.43327045440674,-400000.0625,3734.449951171875,2938.179931640625,-400000.0625,-4801.56005859375,-400000.0625,4937.22021484375,-400000.0625
169.44366812705994,-400000.0625,3695.969970703125,2898.5,-400000.0625,-4833.56005859375,-400000.0625,4897.259765625,-400000.0625
169.4543960094452,-400000.0625,3627.72998046875,2841.6201171875,-400000.0625,-4878.3798828125,-400000.0625,4833.27001953125,-400000.0625
169.46622252464294,-400000.0625,3629.830078125,2845.9599609375,-400000.0625,-4869.7001953125,-400000.0625,4834.990234375,-400000.0625
169.47698426246643,-400000.0625,3691.580078125,2902.169921875,-400000.0625,-4831.27001953125,-400000.0625,4894.8798828125,-400000.0625
169.4874632358551,-400000.0625,3731.010009765625,2936.60009765625,-400000.0625,-4814.669921875,-400000.0625,4939.509765625,-400000.0625
169.49849343299866,-400000.0625,3689.429931640625,2897.169921875,-400000.0625,-4840.66015625,-400000.0625,4901.7900390625,-400000.0625
169.50988459587097,-400000.0625,3623.010009765625,2841.659912109375,-400000.0625,-4878.14013671875,-400000.0625,4837.31982421875,-400000.0625
169.5292067527771,-400000.0625,3627.39990234375,2848.010009765625,-400000.0625,-4874.7099609375,-400000.0625,4842.85009765625,-400000.0625
169.53893208503723,-400000.0625,3689.81005859375,2902.080078125,-400000.0625,-4839.85009765625,-400000.0625,4904.3701171875,-400000.0625
169.5488691329956,-400000.0625,3725.10009765625,2931.070068359375,-400000.0625,-4818.39013671875,-400000.0625,4931.16015625,-400000.0625
169.55897545814514,-400000.0625,3681.89990234375,2892.110107421875,-400000.0625,-4842.14013671875,-400000.0625,4888.919921875,-400000.0625
169.56927943229675,-400000.0625,3620.340087890625,2838.89990234375,-400000.0625,-4878.66015625,-400000.0625,4831.509765625,-400000.0625
169.57946133613586,-400000.0625,3624.06005859375,2848.2900390625,-400000.0625,-4872.27001953125,-400000.0625,4833.60009765625,-400000.0625
169.58942532539368,-400000.0625,3685.760009765625,2903.179931640625,-400000.0625,-4837.47021484375,-400000.0625,4895.02001953125,-400000.0625
169.60010075569153,-400000.0625,3728.199951171875,2936.7900390625,-400000.0625,-4814.2001953125,-400000.0625,4932.5498046875,-400000.0625
169.61010718345642,-400000.0625,3689.669921875,2903.179931640625,-400000.0625,-4837.0400390625,-400000.0625,4898.68994140625,-400000.0625
169.63016939163208,-400000.0625,3627.919921875,2847.340087890625,-400000.0625,-4870.60986328125,-400000.0625,4836.1298828125,-400000.0625
169.64145708084106,-400000.0625,3627.159912109375,2849.389892578125,-400000.0625,-4867.509765625,-400000.0625,4835.18017578125,-400000.0625
169.65238094329834,-400000.0625,3690.050048828125,2905.080078125,-400000.0625,-4829.22021484375,-400000.0625,4900.89013671875,-400000.0625
169.66341638565063,-400000.0625,3726.43994140625,2931.5,-400000.0625,-4809.56982421875,-400000.0625,4935.06982421875,-400000.0625
169.67434930801392,-400000.0625,3685.89990234375,2893.260009765625,-400000.0625,-4848.43017578125,-400000.0625,4893.830078125,-400000.0625
169.6842064857483,-400000.0625,3621.77001953125,2841.139892578125,-400000.0625,-4888.6298828125,-400000.0625,4833.27001953125,-400000.0625
169.69544196128845,-400000.0625,3623.679931640625,2848.909912109375,-400000.0625,-4876.85009765625,-400000.0625,4834.75,-400000.0625
169.7054340839386,-400000.0625,3690.199951171875,2905.3701171875,-400000.0625,-4830.93017578125,-400000.0625,4893.64013671875,-400000.0625
169.71780848503113,-400000.0625,3729.300048828125,2935.60009765625,-400000.0625,-4807.81005859375,-400000.0625,4933.7900390625,-400000.0625
169.73813199996948,-400000.0625,3687.0,2894.739990234375,-400000.0625,-4834.509765625,-400000.0625,4898.60009765625,-400000.0625
169.7488067150116,-400000.0625,3629.39990234375,2844.2900390625,-400000.0625,-4874.18017578125,-400000.0625,4838.509765625,-400000.0625
169.75860452651978,-400000.0625,3626.199951171875,2846.77001953125,-400000.0625,-4878.14013671875,-400000.0625,4837.31982421875,-400000.0625
169.7829658985138,-400000.0625,3683.280029296875,2898.739990234375,-400000.0625,-4842.22998046875,-400000.0625,4898.5498046875,-400000.0625
169.8053915500641,-400000.0625,3726.669921875,2935.64990234375,-400000.0625,-4814.2001953125,-400000.0625,4936.22021484375,-400000.0625
169.82068347930908,-400000.0625,3693.6298828125,2902.409912109375,-400000.0625,-4838.75,-400000.0625,4899.22021484375,-400000.0625
169.85099387168884,-400000.0625,3625.5400390625,2843.330078125,-400000.0625,-4880.0,-400000.0625,4839.330078125,-400000.0625
169.86197185516357,-400000.0625,3619.6201171875,2841.090087890625,-400000.0625,-4877.6201171875,-400000.0625,4839.08984375,-400000.0625
169.87451481819153,-400000.0625,3684.570068359375,2898.64990234375,-400000.0625,-4833.080078125,-400000.0625,4897.97998046875,-400000.0625
169.88579273223877,-400000.0625,3723.719970703125,2933.030029296875,-400000.0625,-4809.330078125,-400000.0625,4937.1201171875,-400000.0625
169.90012216567993,-400000.0625,3685.760009765625,2894.68994140625,-400000.0625,-4839.419921875,-400000.0625,4899.4501953125,-400000.0625
169.9109447002411,-400000.0625,3622.199951171875,2841.280029296875,-400000.0625,-4872.27001953125,-400000.0625,4837.18017578125,-400000.0625
169.92225432395935,-400000.0625,3619.719970703125,2843.860107421875,-400000.0625,-4867.22021484375,-400000.0625,4835.56005859375,-400000.0625
169.94401693344116,-400000.0625,3684.469970703125,2897.639892578125,-400000.0625,-4837.66015625,-400000.0625,4895.39990234375,-400000.0625
169.955308675766,-400000.0625,3723.570068359375,2927.260009765625,-400000.0625,-4816.10009765625,-400000.0625,4933.60009765625,-400000.0625
169.9672269821167,-400000.0625,3690.10009765625,2898.260009765625,-400000.0625,-4836.3701171875,-400000.0625,4902.7001953125,-400000.0625
169.97922897338867,-400000.0625,3624.489990234375,2840.139892578125,-400000.0625,-4879.43017578125,-400000.0625,4836.3701171875,-400000.0625
169.98963952064514,-400000.0625,3615.050048828125,2838.659912109375,-400000.0625,-4876.419921875,-400000.0625,4831.509765625,-400000.0625
170.00072026252747,-400000.0625,3678.0400390625,2894.590087890625,-400000.0625,-4835.75,-400000.0625,4892.72998046875,-400000.0625
170.01145005226135,-400000.0625,3720.89990234375,2928.919921875,-400000.0625,-4811.6201171875,-400000.0625,4931.5,-400000.0625
170.02252840995789,-400000.0625,3685.239990234375,2895.449951171875,-400000.0625,-4833.3701171875,-400000.0625,4893.97021484375,-400000.0625
170.04238629341125,-400000.0625,3620.010009765625,2839.280029296875,-400000.0625,-4871.56005859375,-400000.0625,4834.56005859375,-400000.0625
170.05337500572205,-400000.0625,3619.2900390625,2842.669921875,-400000.0625,-4868.22021484375,-400000.0625,4833.27001953125,-400000.0625
170.06448197364807,-400000.0625,3683.18994140625,2899.840087890625,-400000.0625,-4835.60986328125,-400000.0625,4889.919921875,-400000.0625
170.07516765594482,-400000.0625,3722.139892578125,2930.260009765625,-400000.0625,-4815.669921875,-400000.0625,4930.64013671875,-400000.0625
170.08662343025208,-400000.0625,3683.52001953125,2893.590087890625,-400000.0625,-4835.93994140625,-400000.0625,4895.68994140625,-400000.0625
170.0973241329193,-400000.0625,3616.18994140625,2837.090087890625,-400000.0625,-4873.1298828125,-400000.0625,4832.60009765625,-400000.0625
170.10763907432556,-400000.0625,3615.280029296875,2838.56005859375,-400000.0625,-4872.89013671875,-400000.0625,4830.97998046875,-400000.0625
170.12123465538025,-400000.0625,3677.989990234375,2889.969970703125,-400000.0625,-4840.419921875,-400000.0625,4892.16015625,-400000.0625
170.13265252113342,-400000.0625,3721.18994140625,2926.489990234375,-400000.0625,-4815.669921875,-400000.0625,4930.68994140625,-400000.0625
170.15288853645325,-400000.0625,3686.860107421875,2894.449951171875,-400000.0625,-4832.60009765625,-400000.0625,4895.77978515625,-400000.0625
170.16410756111145,-400000.0625,3623.77001953125,2842.139892578125,-400000.0625,-4878.81005859375,-400000.0625,4837.419921875,-400000.0625
170.17754483222961,-400000.0625,3617.429931640625,2837.989990234375,-400000.0625,-4880.669921875,-400000.0625,4832.93994140625,-400000.0625
170.18827533721924,-400000.0625,3679.800048828125,2894.159912109375,-400000.0625,-4838.85009765625,-400000.0625,4892.77978515625,-400000.0625
170.20114970207214,-400000.0625,3722.949951171875,2928.5400390625,-400000.0625,-4817.33984375,-400000.0625,4935.22021484375,-400000.0625
170.21219491958618,-400000.0625,3693.06005859375,2897.639892578125,-400000.0625,-4837.56005859375,-400000.0625,4900.41015625,-400000.0625
170.22152042388916,-400000.0625,3623.10009765625,2839.89990234375,-400000.0625,-4876.22998046875,-400000.0625,4835.7998046875,-400000.0625
170.23186421394348,-400000.0625,3613.419921875,2836.56005859375,-400000.0625,-4878.7099609375,-400000.0625,4831.41015625,-400000.0625
170.24148225784302,-400000.0625,3675.219970703125,2889.43994140625,-400000.0625,-4836.75,-400000.0625,4893.97021484375,-400000.0625
170.26313877105713,-400000.0625,3718.659912109375,2925.780029296875,-400000.0625,-4816.68017578125,-400000.0625,4935.93017578125,-400000.0625
170.2739222049713,-400000.0625,3682.85009765625,2891.2099609375,-400000.0625,-4845.81005859375,-400000.0625,4894.68994140625,-400000.0625
170.2862033843994,-400000.0625,3621.530029296875,2836.85009765625,-400000.0625,-4878.56982421875,-400000.0625,4831.1201171875,-400000.0625
170.29875493049622,-400000.0625,3616.2900390625,2836.3701171875,-400000.0625,-4877.3798828125,-400000.0625,4830.68994140625,-400000.0625
170.31095957756042,-400000.0625,3681.85009765625,2894.159912109375,-400000.0625,-4835.64990234375,-400000.0625,4892.72998046875,-400000.0625
170.32117676734924,-400000.0625,3722.530029296875,2926.39990234375,-400000.0625,-4813.52978515625,-400000.0625,4936.83984375,-400000.0625
170.3324270248413,-400000.0625,3684.330078125,2891.919921875,-400000.0625,-4840.56982421875,-400000.0625,4901.31005859375,-400000.0625
170.3423249721527,-400000.0625,3626.010009765625,2841.659912109375,-400000.0625,-4874.52001953125,-400000.0625,4838.509765625,-400000.0625
170.36404490470886,-400000.0625,3624.14990234375,2844.52001953125,-400000.0625,-4864.5498046875,-400000.0625,4837.47021484375,-400000.0625
170.37417459487915,-400000.0625,3674.080078125,2887.580078125,-400000.0625,-4836.66015625,-400000.0625,4892.68017578125,-400000.0625
170.38478446006775,-400000.0625,3718.419921875,2923.110107421875,-400000.0625,-4825.35009765625,-400000.0625,4932.740234375,-400000.0625
170.39521956443787,-400000.0625,3685.239990234375,2891.5400390625,-400000.0625,-4847.0,-400000.0625,4899.4501953125,-400000.0625
170.40517473220825,-400000.0625,3621.14990234375,2838.0400390625,-400000.0625,-4877.66015625,-400000.0625,4837.080078125,-400000.0625
170.42004323005676,-400000.0625,3620.199951171875,2841.090087890625,-400000.0625,-4871.56005859375,-400000.0625,4835.509765625,-400000.0625
170.43101048469543,-400000.0625,3682.85009765625,2898.64990234375,-400000.0625,-4833.89013671875,-400000.0625,4897.259765625,-400000.0625
170.44091749191284,-400000.0625,3719.139892578125,2927.489990234375,-400000.0625,-4814.47998046875,-400000.0625,4935.60009765625,-400000.0625
170.45213437080383,-400000.0625,3688.77001953125,2897.929931640625,-400000.0625,-4839.75,-400000.0625,4903.35986328125,-400000.0625
170.47066259384155,-400000.0625,3626.159912109375,2844.10009765625,-400000.0625,-4874.1298828125,-400000.0625,4840.18017578125,-400000.0625
170.48064184188843,-400000.0625,3615.570068359375,2839.280029296875,-400000.0625,-4870.60986328125,-400000.0625,4838.93994140625,-400000.0625
170.49089932441711,-400000.0625,3672.550048828125,2893.159912109375,-400000.0625,-4838.990234375,-400000.0625,4899.22021484375,-400000.0625
170.5010814666748,-400000.0625,3718.090087890625,2928.780029296875,-400000.0625,-4817.2001953125,-400000.0625,4939.31982421875,-400000.0625
170.512775182724,-400000.0625,3685.52001953125,2895.159912109375,-400000.0625,-4841.85009765625,-400000.0625,4903.169921875,-400000.0625
170.5233931541443,-400000.0625,3621.719970703125,2843.429931640625,-400000.0625,-4874.60986328125,-400000.0625,4841.9501953125,-400000.0625
170.53388214111328,-400000.0625,3612.659912109375,2840.89990234375,-400000.0625,-4876.85009765625,-400000.0625,4837.22998046875,-400000.0625
170.5432584285736,-400000.0625,3676.27001953125,2897.68994140625,-400000.0625,-4834.990234375,-400000.0625,4895.35009765625,-400000.0625
170.5541718006134,-400000.0625,3718.22998046875,2930.929931640625,-400000.0625,-4812.72021484375,-400000.0625,4932.830078125,-400000.0625
170.57310032844543,-400000.0625,3683.419921875,2898.409912109375,-400000.0625,-4835.7001953125,-400000.0625,4901.35986328125,-400000.0625
170.58379459381104,-400000.0625,3620.719970703125,2842.860107421875,-400000.0625,-4877.9501953125,-400000.0625,4841.52001953125,-400000.0625
170.59317016601562,-400000.0625,3620.010009765625,2843.280029296875,-400000.0625,-4874.419921875,-400000.0625,4840.08984375,-400000.0625
170.60257816314697,-400000.0625,3678.93994140625,2896.449951171875,-400000.0625,-4834.990234375,-400000.0625,4898.2099609375,-400000.0625
170.6129446029663,-400000.0625,3726.77001953125,2934.929931640625,-400000.0625,-4805.7099609375,-400000.0625,4940.31982421875,-400000.0625
170.62204504013062,-400000.0625,3690.2900390625,2899.739990234375,-400000.0625,-4837.89990234375,-400000.0625,4906.56005859375,-400000.0625
170.63274335861206,-400000.0625,3617.429931640625,2838.800048828125,-400000.0625,-4878.6201171875,-400000.0625,4843.3798828125,-400000.0625
170.64274549484253,-400000.0625,3613.18994140625,2842.469970703125,-400000.0625,-4873.56005859375,-400000.0625,4839.56005859375,-400000.0625
170.65279746055603,-400000.0625,3680.0400390625,2900.929931640625,-400000.0625,-4832.31982421875,-400000.0625,4901.740234375,-400000.0625
170.66314101219177,-400000.0625,3725.2900390625,2935.929931640625,-400000.0625,-4806.9501953125,-400000.0625,4941.18017578125,-400000.0625
170.68235635757446,-400000.0625,3688.239990234375,2900.739990234375,-400000.0625,-4837.7998046875,-400000.0625,4904.22021484375,-400000.0625
170.6911323070526,-400000.0625,3620.580078125,2843.280029296875,-400000.0625,-4874.75,-400000.0625,4841.47021484375,-400000.0625
170.70255637168884,-400000.0625,3613.570068359375,2842.239990234375,-400000.0625,-4871.7998046875,-400000.0625,4837.89990234375,-400000.0625
170.7148039340973,-400000.0625,3672.550048828125,2891.72998046875,-400000.0625,-4842.330078125,-400000.0625,4897.39990234375,-400000.0625
170.7244963645935,-400000.0625,3721.3798828125,2930.360107421875,-400000.0625,-4815.33984375,-400000.0625,4939.60009765625,-400000.0625
170.73596477508545,-400000.0625,3685.860107421875,2898.409912109375,-400000.0625,-4836.4599609375,-400000.0625,4908.85009765625,-400000.0625
170.7474935054779,-400000.0625,3623.06005859375,2846.6201171875,-400000.0625,-4874.330078125,-400000.0625,4847.240234375,-400000.0625
170.7583315372467,-400000.0625,3618.719970703125,2843.89990234375,-400000.0625,-4868.93994140625,-400000.0625,4841.759765625,-400000.0625
170.76948833465576,-400000.0625,3673.360107421875,2893.5,-400000.0625,-4838.89990234375,-400000.0625,4900.7900390625,-400000.0625
170.78978657722473,-400000.0625,3718.419921875,2933.1201171875,-400000.0625,-4813.14990234375,-400000.0625,4943.509765625,-400000.0625
170.8006362915039,-400000.0625,3684.280029296875,2899.739990234375,-400000.0625,-4834.4599609375,-400000.0625,4911.330078125,-400000.0625
170.8115303516388,-400000.0625,3620.10009765625,2845.18994140625,-400000.0625,-4872.080078125,-400000.0625,4847.91015625,-400000.0625
170.82174253463745,-400000.0625,3616.760009765625,2844.6201171875,-400000.0625,-4874.52001953125,-400000.0625,4844.0,-400000.0625
170.831698179245,-400000.0625,3675.889892578125,2897.409912109375,-400000.0625,-4840.419921875,-400000.0625,4902.64990234375,-400000.0625
170.84281826019287,-400000.0625,3716.22998046875,2929.260009765625,-400000.0625,-4816.06005859375,-400000.0625,4940.3701171875,-400000.0625
170.85312962532043,-400000.0625,3682.0400390625,2897.739990234375,-400000.0625,-4839.330078125,-400000.0625,4904.990234375,-400000.0625
170.86487340927124,-400000.0625,3620.429931640625,2844.669921875,-400000.0625,-4871.93994140625,-400000.0625,4845.0498046875,-400000.0625
170.87426614761353,-400000.0625,3615.81005859375,2843.330078125,-400000.0625,-4872.18017578125,-400000.0625,4841.22998046875,-400000.0625
170.89238262176514,-400000.0625,3677.030029296875,2898.169921875,-400000.0625,-4841.3798828125,-400000.0625,4900.83984375,-400000.0625
170.90357041358948,-400000.0625,3721.7099609375,2936.550048828125,-400000.0625,-4812.81005859375,-400000.0625,4942.7998046875,-400000.0625
170.91469049453735,-400000.0625,3691.719970703125,2908.3701171875,-400000.0625,-4832.7900390625,-400000.0625,4912.47021484375,-400000.0625
170.92475843429565,-400000.0625,3626.820068359375,2851.340087890625,-400000.0625,-4873.56005859375,-400000.0625,4848.10009765625,-400000.0625
170.935852766037,-400000.0625,3617.18994140625,2845.10009765625,-400000.0625,-4874.7998046875,-400000.0625,4839.7099609375,-400000.0625
170.94548678398132,-400000.0625,3678.419921875,2900.60009765625,-400000.0625,-4832.5498046875,-400000.0625,4904.22021484375,-400000.0625
170.95610880851746,-400000.0625,3720.090087890625,2933.929931640625,-400000.0625,-4810.6201171875,-400000.0625,4941.89013671875,-400000.0625
170.9687418937683,-400000.0625,3686.47998046875,2899.840087890625,-400000.0625,-4831.27001953125,-400000.0625,4904.080078125,-400000.0625
170.97890639305115,-400000.0625,3623.679931640625,2842.89990234375,-400000.0625,-4871.60986328125,-400000.0625,4842.22998046875,-400000.0625
170.99847602844238,-400000.0625,3615.760009765625,2843.0,-400000.0625,-4874.7099609375,-400000.0625,4837.419921875,-400000.0625
171.00862765312195,-400000.0625,3671.4599609375,2895.68994140625,-400000.0625,-4837.85009765625,-400000.0625,4898.02001953125,-400000.0625
171.01851081848145,-400000.0625,3715.3701171875,2931.2099609375,-400000.0625,-4811.81005859375,-400000.0625,4939.89013671875,-400000.0625
171.02882289886475,-400000.0625,3684.659912109375,2903.1298828125,-400000.0625,-4832.89013671875,-400000.0625,4905.1298828125,-400000.0625
171.03876876831055,-400000.0625,3616.570068359375,2847.14990234375,-400000.0625,-4872.1298828125,-400000.0625,4841.22998046875,-400000.0625
171.04934287071228,-400000.0625,3608.22998046875,2841.760009765625,-400000.0625,-4872.990234375,-400000.0625,4836.0400390625,-400000.0625
171.05944156646729,-400000.0625,3670.219970703125,2895.360107421875,-400000.0625,-4830.02978515625,-400000.0625,4896.58984375,-400000.0625
171.07013869285583,-400000.0625,3719.22998046875,2932.68994140625,-400000.0625,-4806.66015625,-400000.0625,4938.31982421875,-400000.0625
171.08146381378174,-400000.0625,3684.239990234375,2902.27001953125,-400000.0625,-4836.7998046875,-400000.0625,4901.4599609375,-400000.0625
171.1013638973236,-400000.0625,3619.669921875,2847.6201171875,-400000.0625,-4869.18017578125,-400000.0625,4843.66015625,-400000.0625
171.11194348335266,-400000.0625,3608.510009765625,2839.89990234375,-400000.0625,-4870.83984375,-400000.0625,4837.31982421875,-400000.0625
171.1229865550995,-400000.0625,3669.830078125,2897.219970703125,-400000.0625,-4830.35986328125,-400000.0625,4895.58984375,-400000.0625
171.1336624622345,-400000.0625,3717.090087890625,2935.840087890625,-400000.0625,-4813.240234375,-400000.0625,4940.990234375,-400000.0625
171.14436078071594,-400000.0625,3690.719970703125,2908.330078125,-400000.0625,-4839.60986328125,-400000.0625,4909.52001953125,-400000.0625
171.15435099601746,-400000.0625,3625.679931640625,2852.72998046875,-400000.0625,-4871.7998046875,-400000.0625,4845.91015625,-400000.0625
171.1647264957428,-400000.0625,3617.949951171875,2848.860107421875,-400000.0625,-4861.8798828125,-400000.0625,4841.81005859375,-400000.0625
171.17471075057983,-400000.0625,3673.739990234375,2898.7900390625,-400000.0625,-4831.169921875,-400000.0625,4898.68994140625,-400000.0625
171.1850790977478,-400000.0625,3719.7099609375,2933.260009765625,-400000.0625,-4813.39013671875,-400000.0625,4940.18017578125,-400000.0625
171.20444130897522,-400000.0625,3688.10009765625,2904.1298828125,-400000.0625,-4833.64990234375,-400000.0625,4911.22998046875,-400000.0625
171.2157814502716,-400000.0625,3618.909912109375,2846.3798828125,-400000.0625,-4870.3701171875,-400000.0625,4842.22998046875,-400000.0625
171.2267985343933,-400000.0625,3608.1298828125,2840.7099609375,-400000.0625,-4873.75,-400000.0625,4830.7900390625,-400000.0625
171.2382152080536,-400000.0625,3662.72998046875,2886.719970703125,-400000.0625,-4842.330078125,-400000.0625,4889.5400390625,-400000.0625
171.24832820892334,-400000.0625,3710.080078125,2928.590087890625,-400000.0625,-4811.85986328125,-400000.0625,4939.990234375,-400000.0625
171.25775456428528,-400000.0625,3682.280029296875,2902.56005859375,-400000.0625,-4829.5,-400000.0625,4908.22998046875,-400000.0625
171.26869869232178,-400000.0625,3615.570068359375,2845.10009765625,-400000.0625,-4869.27001953125,-400000.0625,4842.47021484375,-400000.0625
171.27848267555237,-400000.0625,3607.93994140625,2839.52001953125,-400000.0625,-4872.990234375,-400000.0625,4834.89013671875,-400000.0625
171.2889039516449,-400000.0625,3670.169921875,2895.590087890625,-400000.0625,-4828.8798828125,-400000.0625,4896.4501953125,-400000.0625
171.30709671974182,-400000.0625,3719.330078125,2934.889892578125,-400000.0625,-4803.85009765625,-400000.0625,4940.4599609375,-400000.0625
171.31714129447937,-400000.0625,3686.7099609375,2903.219970703125,-400000.0625,-4834.27001953125,-400000.0625,4908.0400390625,-400000.0625
171.3277485370636,-400000.0625,3615.949951171875,2844.2900390625,-400000.0625,-4874.85009765625,-400000.0625,4842.7099609375,-400000.0625
171.33749151229858,-400000.0625,3603.97998046875,2837.090087890625,-400000.0625,-4871.22998046875,-400000.0625,4835.7001953125,-400000.0625
171.34834957122803,-400000.0625,3666.159912109375,2893.159912109375,-400000.0625,-4835.18017578125,-400000.0625,4895.68994140625,-400000.0625
171.37447452545166,-400000.0625,3682.280029296875,2931.449951171875,-400000.0625,-4801.4599609375,-400000.0625,4944.75,-400000.0625
171.37675166130066,-400000.0625,3495.840087890625,2819.590087890625,-400000.0625,-4801.990234375,-400000.0625,4875.22998046875,-400000.0625
171.37680172920227,-400000.0625,3440.330078125,2771.469970703125,-400000.0625,-4838.56005859375,-400000.0625,4820.16015625,-400000.0625
171.37681031227112,-400000.0625,3385.1201171875,2727.030029296875,-400000.0625,-4869.64990234375,-400000.0625,4768.85009765625,-400000.0625
171.37681579589844,-400000.0625,3417.2099609375,2757.449951171875,-400000.0625,-4842.7099609375,-400000.0625,4798.3701171875,-400000.0625
171.37682151794434,-400000.0625,3485.35009765625,2813.580078125,-400000.0625,-4810.56982421875,-400000.0625,4866.64990234375,-400000.0625
171.37682676315308,-400000.0625,3495.1201171875,2821.159912109375,-400000.0625,-4810.6201171875,-400000.0625,4877.22998046875,-400000.0625
171.37683200836182,-400000.0625,3440.050048828125,2772.18994140625,-400000.0625,-4839.18017578125,-400000.0625,4820.2001953125,-400000.0625
171.3768367767334,-400000.0625,3392.1201171875,2734.419921875,-400000.0625,-4859.64013671875,-400000.0625,4776.759765625,-400000.0625
171.37684202194214,-400000.0625,3421.5,2760.7900390625,-400000.0625,-4842.85009765625,-400000.0625,4808.240234375,-400000.0625
171.37684726715088,-400000.0625,3483.580078125,2813.239990234375,-400000.0625,-4811.81005859375,-400000.0625,4868.56005859375,-400000.0625
171.37685227394104,-400000.0625,3495.260009765625,2820.679931640625,-400000.0625,-4812.669921875,-400000.0625,4882.0,-400000.0625
171.37685751914978,-400000.0625,3443.3798828125,2771.760009765625,-400000.0625,-4851.43994140625,-400000.0625,4829.259765625,-400000.0625
171.37686276435852,-400000.0625,3390.64990234375,2732.179931640625,-400000.0625,-4874.990234375,-400000.0625,4781.14990234375,-400000.0625
171.37686800956726,-400000.0625,3419.110107421875,2759.360107421875,-400000.0625,-4850.669921875,-400000.0625,4806.22998046875,-400000.0625
171.376873254776,-400000.0625,3483.77001953125,2817.6298828125,-400000.0625,-4806.9501953125,-400000.0625,4870.7998046875,-400000.0625
171.37687802314758,-400000.0625,3496.1201171875,2823.39990234375,-400000.0625,-4806.22998046875,-400000.0625,4884.52978515625,-400000.0625
171.3768825531006,-400000.0625,3438.81005859375,2768.659912109375,-400000.0625,-4845.759765625,-400000.0625,4827.39990234375,-400000.0625
171.37688755989075,-400000.0625,3387.070068359375,2726.510009765625,-400000.0625,-4875.52001953125,-400000.0625,4780.2001953125,-400000.0625
171.37689208984375,-400000.0625,3418.02001953125,2753.929931640625,-400000.0625,-4851.06005859375,-400000.0625,4803.93994140625,-400000.0625
171.37689661979675,-400000.0625,3472.610107421875,2806.0,-400000.0625,-4820.39990234375,-400000.0625,4866.740234375,-400000.0625
171.3769016265869,-400000.0625,3482.06005859375,2819.199951171875,-400000.0625,-4819.16015625,-400000.0625,4879.6201171875,-400000.0625
171.3769063949585,-400000.0625,3447.43994140625,2783.969970703125,-400000.0625,-4836.419921875,-400000.0625,4816.490234375,-400000.0625
171.37691140174866,-400000.0625,3413.199951171875,2750.5400390625,-400000.0625,-4852.9599609375,-400000.0625,4761.35986328125,-400000.0625
171.37691617012024,-400000.0625,3442.570068359375,2780.10009765625,-400000.0625,-4838.509765625,-400000.0625,4778.91015625,-400000.0625
171.37692070007324,-400000.0625,3508.659912109375,2842.429931640625,-400000.0625,-4804.330078125,-400000.0625,4831.169921875,-400000.0625
171.37692546844482,-400000.0625,3521.010009765625,2858.68994140625,-400000.0625,-4801.22998046875,-400000.0625,4838.18017578125,-400000.0625
171.37692999839783,-400000.0625,3467.989990234375,2814.47998046875,-400000.0625,-4833.89013671875,-400000.0625,4777.580078125,-400000.0625
171.37693452835083,-400000.0625,3427.889892578125,2782.5400390625,-400000.0625,-4853.10986328125,-400000.0625,4718.39990234375,-400000.0625
171.3769392967224,-400000.0625,3446.9599609375,2808.760009765625,-400000.0625,-4837.89990234375,-400000.0625,4734.330078125,-400000.0625
171.37694358825684,-400000.0625,3514.389892578125,2871.510009765625,-400000.0625,-4800.75,-400000.0625,4796.7001953125,-400000.0625
171.37694811820984,-400000.0625,3535.510009765625,2884.14990234375,-400000.0625,-4793.02001953125,-400000.0625,4807.330078125,-400000.0625
171.37695288658142,-400000.0625,3482.8701171875,2836.56005859375,-400000.0625,-4829.68994140625,-400000.0625,4749.68017578125,-400000.0625
171.376957654953,-400000.0625,3430.889892578125,2798.64990234375,-400000.0625,-4856.2099609375,-400000.0625,4704.2900390625,-400000.0625
171.376962184906,-400000.0625,3452.489990234375,2820.110107421875,-400000.0625,-4836.7001953125,-400000.0625,4731.509765625,-400000.0625
171.37696743011475,-400000.0625,3513.0,2874.659912109375,-400000.0625,-4797.31982421875,-400000.0625,4800.22021484375,-400000.0625
171.3769724369049,-400000.0625,3528.39990234375,2886.489990234375,-400000.0625,-4789.93017578125,-400000.0625,4815.0498046875,-400000.0625
171.37698078155518,-400000.0625,3477.9599609375,2840.89990234375,-400000.0625,-4823.4501953125,-400000.0625,4759.60009765625,-400000.0625
171.37698578834534,-400000.0625,3424.60009765625,2796.169921875,-400000.0625,-4862.830078125,-400000.0625,4709.009765625,-400000.0625
171.37699127197266,-400000.0625,3447.25,2816.919921875,-400000.0625,-4848.18994140625,-400000.0625,4733.27978515625,-400000.0625
171.37699604034424,-400000.0625,3518.389892578125,2877.52001953125,-400000.0625,-4803.93994140625,-400000.0625,4799.64990234375,-400000.0625
171.37700128555298,-400000.0625,3534.219970703125,2887.25,-400000.0625,-4794.68994140625,-400000.0625,4815.0498046875,-400000.0625
171.37700629234314,-400000.0625,3473.949951171875,2835.179931640625,-400000.0625,-4831.64990234375,-400000.0625,4758.02001953125,-400000.0625
171.37701272964478,-400000.0625,3421.449951171875,2791.60009765625,-400000.0625,-4862.740234375,-400000.0625,4709.2900390625,-400000.0625
171.3770182132721,-400000.0625,3449.06005859375,2817.389892578125,-400000.0625,-4839.56005859375,-400000.0625,4734.330078125,-400000.0625
171.37702322006226,-400000.0625,3511.760009765625,2872.419921875,-400000.0625,-4800.3701171875,-400000.0625,4798.080078125,-400000.0625
171.37702798843384,-400000.0625,3523.72998046875,2881.0,-400000.0625,-4797.27001953125,-400000.0625,4813.33984375,-400000.0625
171.37703275680542,-400000.0625,3472.7099609375,2833.510009765625,-400000.0625,-4833.31982421875,-400000.0625,4755.39990234375,-400000.0625
171.37703776359558,-400000.0625,3426.840087890625,2795.97998046875,-400000.0625,-4856.25,-400000.0625,4712.25,-400000.0625
171.37704300880432,-400000.0625,3449.25,2818.159912109375,-400000.0625,-4840.9501953125,-400000.0625,4737.89990234375,-400000.0625
171.37704825401306,-400000.0625,3512.669921875,2871.699951171875,-400000.0625,-4811.52978515625,-400000.0625,4799.31982421875,-400000.0625
171.37705278396606,-400000.0625,3526.35009765625,2880.9599609375,-400000.0625,-4801.56005859375,-400000.0625,4811.10009765625,-400000.0625
171.37705779075623,-400000.0625,3472.949951171875,2831.360107421875,-400000.0625,-4831.169921875,-400000.0625,4757.60009765625,-400000.0625
171.3770625591278,-400000.0625,3421.2099609375,2789.929931640625,-400000.0625,-4856.16015625,-400000.0625,4710.009765625,-400000.0625
171.37706804275513,-400000.0625,3447.9599609375,2814.9599609375,-400000.0625,-4845.47998046875,-400000.0625,4736.27978515625,-400000.0625
171.3770730495453,-400000.0625,3512.340087890625,2872.610107421875,-400000.0625,-4806.7099609375,-400000.0625,4797.97998046875,-400000.0625
171.37707781791687,-400000.0625,3526.39990234375,2886.300048828125,-400000.0625,-4798.75,-400000.0625,4811.18994140625,-400000.0625
171.37708282470703,-400000.0625,3472.330078125,2837.85009765625,-400000.0625,-4835.22021484375,-400000.0625,4760.740234375,-400000.0625
171.37708854675293,-400000.0625,3432.179931640625,2801.610107421875,-400000.0625,-4859.31005859375,-400000.0625,4711.72021484375,-400000.0625
171.3770935535431,-400000.0625,3454.449951171875,2822.489990234375,-400000.0625,-4844.27978515625,-400000.0625,4733.85009765625,-400000.0625
171.37710881233215,-400000.0625,3514.669921875,2877.429931640625,-400000.0625,-4806.419921875,-400000.0625,4797.22021484375,-400000.0625
171.37711381912231,-400000.0625,3535.56005859375,2891.2099609375,-400000.0625,-4792.259765625,-400000.0625,4813.10009765625,-400000.0625
171.3771185874939,-400000.0625,3481.669921875,2841.52001953125,-400000.0625,-4827.68994140625,-400000.0625,4762.169921875,-400000.0625
171.37712359428406,-400000.0625,3432.75,2802.179931640625,-400000.0625,-4858.06982421875,-400000.0625,4712.33984375,-400000.0625
171.37712836265564,-400000.0625,3453.2099609375,2823.260009765625,-400000.0625,-4846.72021484375,-400000.0625,4733.08984375,-400000.0625
171.3771333694458,-400000.0625,3522.919921875,2882.389892578125,-400000.0625,-4804.56005859375,-400000.0625,4797.080078125,-400000.0625
171.37713837623596,-400000.0625,3541.179931640625,2894.02001953125,-400000.0625,-4797.64990234375,-400000.0625,4811.72021484375,-400000.0625
171.37714314460754,-400000.0625,3485.389892578125,2841.85009765625,-400000.0625,-4836.75,-400000.0625,4756.259765625,-400000.0625
171.37714838981628,-400000.0625,3431.610107421875,2801.280029296875,-400000.0625,-4855.919921875,-400000.0625,4709.6298828125,-400000.0625
171.37715339660645,-400000.0625,3450.06005859375,2822.68994140625,-400000.0625,-4836.66015625,-400000.0625,4730.85009765625,-400000.0625
171.37715911865234,-400000.0625,3513.18994140625,2875.3798828125,-400000.0625,-4810.81005859375,-400000.0625,4796.27001953125,-400000.0625
171.37716507911682,-400000.0625,3532.4599609375,2887.5400390625,-400000.0625,-4803.990234375,-400000.0625,4807.6201171875,-400000.0625
171.37717008590698,-400000.0625,3478.909912109375,2835.080078125,-400000.0625,-4838.27978515625,-400000.0625,4751.64013671875,-400000.0625
171.37717533111572,-400000.0625,3430.179931640625,2793.1201171875,-400000.0625,-4870.990234375,-400000.0625,4703.9501953125,-400000.0625
171.37717962265015,-400000.0625,3455.969970703125,2823.449951171875,-400000.0625,-4850.52978515625,-400000.0625,4730.7001953125,-400000.0625
171.37718439102173,-400000.0625,3524.02001953125,2878.860107421875,-400000.0625,-4801.56005859375,-400000.0625,4798.1298828125,-400000.0625
171.3771891593933,-400000.0625,3539.93994140625,2890.39990234375,-400000.0625,-4794.06982421875,-400000.0625,4811.81005859375,-400000.0625
171.37719440460205,-400000.0625,3481.9599609375,2837.280029296875,-400000.0625,-4833.22021484375,-400000.0625,4758.06982421875,-400000.0625
171.37719988822937,-400000.0625,3433.85009765625,2798.510009765625,-400000.0625,-4859.97021484375,-400000.0625,4710.9599609375,-400000.0625
171.37720489501953,-400000.0625,3458.639892578125,2824.260009765625,-400000.0625,-4847.0498046875,-400000.0625,4739.08984375,-400000.0625
171.37721037864685,-400000.0625,3525.780029296875,2880.530029296875,-400000.0625,-4807.27978515625,-400000.0625,4800.4599609375,-400000.0625
171.37721490859985,-400000.0625,3541.7099609375,2891.159912109375,-400000.0625,-4804.330078125,-400000.0625,4813.39013671875,-400000.0625
171.37721991539001,-400000.0625,3489.2099609375,2842.18994140625,-400000.0625,-4839.18017578125,-400000.0625,4754.93017578125,-400000.0625
171.37722516059875,-400000.0625,3436.139892578125,2799.699951171875,-400000.0625,-4865.35986328125,-400000.0625,4707.77001953125,-400000.0625
171.3772304058075,-400000.0625,3457.8798828125,2819.919921875,-400000.0625,-4850.85986328125,-400000.0625,4733.419921875,-400000.0625
171.37723517417908,-400000.0625,3526.5,2877.860107421875,-400000.0625,-4806.56982421875,-400000.0625,4800.93994140625,-400000.0625
171.37724089622498,-400000.0625,3547.81005859375,2891.679931640625,-400000.0625,-4797.02978515625,-400000.0625,4819.39013671875,-400000.0625
171.37724614143372,-400000.0625,3491.2099609375,2839.949951171875,-400000.0625,-4843.66015625,-400000.0625,4766.75,-400000.0625
171.37725138664246,-400000.0625,3440.760009765625,2799.56005859375,-400000.0625,-4873.31982421875,-400000.0625,4719.35009765625,-400000.0625
171.3772566318512,-400000.0625,3470.7099609375,2828.8798828125,-400000.0625,-4848.77001953125,-400000.0625,4744.91015625,-400000.0625
171.37726211547852,-400000.0625,3537.510009765625,2883.580078125,-400000.0625,-4813.10009765625,-400000.0625,4802.89990234375,-400000.0625
171.37726736068726,-400000.0625,3546.2900390625,2892.72998046875,-400000.0625,-4810.91015625,-400000.0625,4819.580078125,-400000.0625
171.37727308273315,-400000.0625,3495.219970703125,2847.10009765625,-400000.0625,-4840.330078125,-400000.0625,4765.31982421875,-400000.0625
171.37727904319763,-400000.0625,3446.10009765625,2804.469970703125,-400000.0625,-4864.60009765625,-400000.0625,4718.490234375,-400000.0625
171.37728452682495,-400000.0625,3468.89990234375,2827.8798828125,-400000.0625,-4851.2900390625,-400000.0625,4744.52978515625,-400000.0625
171.37729144096375,-400000.0625,3538.85009765625,2886.10009765625,-400000.0625,-4809.43017578125,-400000.0625,4807.0400390625,-400000.0625
171.37729692459106,-400000.0625,3557.06005859375,2898.7900390625,-400000.0625,-4800.4599609375,-400000.0625,4823.8798828125,-400000.0625
171.37730288505554,-400000.0625,3507.89990234375,2854.06005859375,-400000.0625,-4837.419921875,-400000.0625,4773.0,-400000.0625
171.37730836868286,-400000.0625,3452.02001953125,2810.18994140625,-400000.0625,-4867.83984375,-400000.0625,4725.1201171875,-400000.0625
171.37731313705444,-400000.0625,3473.469970703125,2832.219970703125,-400000.0625,-4850.14990234375,-400000.0625,4748.68017578125,-400000.0625
171.37731790542603,-400000.0625,3544.280029296875,2891.25,-400000.0625,-4813.2900390625,-400000.0625,4809.240234375,-400000.0625
171.37732577323914,-400000.0625,3568.510009765625,2906.469970703125,-400000.0625,-4810.52001953125,-400000.0625,4832.41015625,-400000.0625
171.37733054161072,-400000.0625,3507.419921875,2850.530029296875,-400000.0625,-4847.669921875,-400000.0625,4776.72021484375,-400000.0625
171.37733578681946,-400000.0625,3451.489990234375,2804.659912109375,-400000.0625,-4876.52001953125,-400000.0625,4722.02001953125,-400000.0625
171.3773410320282,-400000.0625,3475.81005859375,2829.27001953125,-400000.0625,-4848.77001953125,-400000.0625,4743.85986328125,-400000.0625
171.37734723091125,-400000.0625,3539.93994140625,2882.340087890625,-400000.0625,-4813.0498046875,-400000.0625,4807.759765625,-400000.0625
171.37735223770142,-400000.0625,3560.449951171875,2893.110107421875,-400000.0625,-4813.10009765625,-400000.0625,4826.259765625,-400000.0625
171.37735772132874,-400000.0625,3506.7099609375,2845.81005859375,-400000.0625,-4849.009765625,-400000.0625,4773.27978515625,-400000.0625
171.37736344337463,-400000.0625,3456.739990234375,2804.179931640625,-400000.0625,-4879.240234375,-400000.0625,4723.02001953125,-400000.0625
171.37736868858337,-400000.0625,3477.570068359375,2826.1201171875,-400000.0625,-4859.39990234375,-400000.0625,4749.72998046875,-400000.0625
171.37737464904785,-400000.0625,3545.52001953125,2886.10009765625,-400000.0625,-4820.5400390625,-400000.0625,4810.10009765625,-400000.0625
171.3773798942566,-400000.0625,3566.169921875,2900.97998046875,-400000.0625,-4816.14990234375,-400000.0625,4826.5,-400000.0625
171.3773853778839,-400000.0625,3514.10009765625,2852.5400390625,-400000.0625,-4846.43017578125,-400000.0625,4772.9501953125,-400000.0625
171.37739157676697,-400000.0625,3468.22998046875,2813.010009765625,-400000.0625,-4866.89013671875,-400000.0625,4727.080078125,-400000.0625
171.3773970603943,-400000.0625,3483.340087890625,2831.4599609375,-400000.0625,-4852.490234375,-400000.0625,4746.2900390625,-400000.0625
171.3774025440216,-400000.0625,3550.010009765625,2887.14990234375,-400000.0625,-4817.25,-400000.0625,4813.33984375,-400000.0625
171.37740755081177,-400000.0625,3567.60009765625,2901.030029296875,-400000.0625,-4810.10009765625,-400000.0625,4831.97998046875,-400000.0625
171.3774130344391,-400000.0625,3517.820068359375,2855.159912109375,-400000.0625,-4847.6201171875,-400000.0625,4779.39013671875,-400000.0625
171.37741804122925,-400000.0625,3469.75,2815.679931640625,-400000.0625,-4877.14013671875,-400000.0625,4732.27978515625,-400000.0625
171.3774230480194,-400000.0625,3484.14990234375,2829.840087890625,-400000.0625,-4860.830078125,-400000.0625,4756.8798828125,-400000.0625
171.377427816391,-400000.0625,3549.18994140625,2884.2900390625,-400000.0625,-4822.2998046875,-400000.0625,4815.25,-400000.0625
171.3774335384369,-400000.0625,3576.419921875,2904.889892578125,-400000.0625,-4806.52001953125,-400000.0625,4836.75,-400000.0625
171.37743878364563,-400000.0625,3526.5,2857.68994140625,-400000.0625,-4840.0400390625,-400000.0625,4787.919921875,-400000.0625
171.37744402885437,-400000.0625,3477.2900390625,2816.580078125,-400000.0625,-4875.419921875,-400000.0625,4738.7099609375,-400000.0625
171.37744975090027,-400000.0625,3493.360107421875,2835.22998046875,-400000.0625,-4862.5,-400000.0625,4755.39990234375,-400000.0625
171.3774552345276,-400000.0625,3557.110107421875,2888.969970703125,-400000.0625,-4822.10986328125,-400000.0625,4818.25,-400000.0625
171.3774607181549,-400000.0625,3573.469970703125,2901.840087890625,-400000.0625,-4813.85986328125,-400000.0625,4837.080078125,-400000.0625
171.37746667861938,-400000.0625,3523.919921875,2857.300048828125,-400000.0625,-4847.81005859375,-400000.0625,4786.77978515625,-400000.0625
171.37747263908386,-400000.0625,3474.330078125,2815.679931640625,-400000.0625,-4872.3701171875,-400000.0625,4738.52001953125,-400000.0625
171.3774778842926,-400000.0625,3496.97998046875,2839.469970703125,-400000.0625,-4853.5400390625,-400000.0625,4760.31005859375,-400000.0625
171.37748289108276,-400000.0625,3563.449951171875,2895.97998046875,-400000.0625,-4817.490234375,-400000.0625,4822.35009765625,-400000.0625
171.37748861312866,-400000.0625,3581.3798828125,2909.280029296875,-400000.0625,-4809.7099609375,-400000.0625,4846.81005859375,-400000.0625
171.37749767303467,-400000.0625,3528.550048828125,2861.070068359375,-400000.0625,-4841.81005859375,-400000.0625,4792.8798828125,-400000.0625
171.37750339508057,-400000.0625,3478.530029296875,2815.530029296875,-400000.0625,-4868.56005859375,-400000.0625,4736.52001953125,-400000.0625
171.3775086402893,-400000.0625,3497.699951171875,2838.0400390625,-400000.0625,-4861.77978515625,-400000.0625,4756.5498046875,-400000.0625
171.37751364707947,-400000.0625,3558.919921875,2892.68994140625,-400000.0625,-4825.93017578125,-400000.0625,4823.8798828125,-400000.0625
171.3775188922882,-400000.0625,3580.239990234375,2904.93994140625,-400000.0625,-4809.56982421875,-400000.0625,4837.60986328125,-400000.0625
171.37752389907837,-400000.0625,3529.02001953125,2861.639892578125,-400000.0625,-4838.7099609375,-400000.0625,4784.39013671875,-400000.0625
171.3775291442871,-400000.0625,3469.3701171875,2818.489990234375,-400000.0625,-4868.83984375,-400000.0625,4736.08984375,-400000.0625
171.3775339126587,-400000.0625,3483.43994140625,2841.280029296875,-400000.0625,-4853.39013671875,-400000.0625,4758.83984375,-400000.0625
171.37753868103027,-400000.0625,3535.4599609375,2904.840087890625,-400000.0625,-4811.14013671875,-400000.0625,4827.169921875,-400000.0625
171.3775441646576,-400000.0625,3543.0400390625,2936.550048828125,-400000.0625,-4798.27001953125,-400000.0625,4872.22998046875,-400000.0625
171.3775498867035,-400000.0625,3502.419921875,2879.760009765625,-400000.0625,-4828.740234375,-400000.0625,4815.9599609375,-400000.0625
171.3775556087494,-400000.0625,3443.3798828125,2819.6298828125,-400000.0625,-4860.35009765625,-400000.0625,4749.919921875,-400000.0625
171.37756204605103,-400000.0625,3431.510009765625,2836.3701171875,-400000.0625,-4837.93994140625,-400000.0625,4749.97021484375,-400000.0625
171.3775680065155,-400000.0625,3509.090087890625,2898.030029296875,-400000.0625,-4789.77978515625,-400000.0625,4826.39990234375,-400000.0625
171.37757301330566,-400000.0625,3495.169921875,2892.449951171875,-400000.0625,-4779.43017578125,-400000.0625,4827.39990234375,-400000.0625
171.37757849693298,-400000.0625,3421.2099609375,2849.050048828125,-400000.0625,-4803.22998046875,-400000.0625,4769.60986328125,-400000.0625
171.377583026886,-400000.0625,3355.68994140625,2793.739990234375,-400000.0625,-4817.68017578125,-400000.0625,4715.81982421875,-400000.0625
171.37758874893188,-400000.0625,3340.389892578125,2788.2099609375,-400000.0625,-4797.080078125,-400000.0625,4717.259765625,-400000.0625
171.37759351730347,-400000.0625,3374.47998046875,2833.56005859375,-400000.0625,-4742.9599609375,-400000.0625,4759.35986328125,-400000.0625
171.3775990009308,-400000.0625,3358.75,2819.110107421875,-400000.0625,-4722.93017578125,-400000.0625,4753.64013671875,-400000.0625
171.37760400772095,-400000.0625,3255.699951171875,2747.72998046875,-400000.0625,-4731.27001953125,-400000.0625,4692.35986328125,-400000.0625
171.3776092529297,-400000.0625,3111.739990234375,2690.1201171875,-400000.0625,-4733.66015625,-400000.0625,4617.830078125,-400000.0625
171.37761449813843,-400000.0625,3108.68994140625,2686.8798828125,-400000.0625,-4711.2001953125,-400000.0625,4615.5498046875,-400000.0625
171.3776195049286,-400000.0625,3165.43994140625,2723.409912109375,-400000.0625,-4657.93994140625,-400000.0625,4658.75,-400000.0625
171.37762427330017,-400000.0625,3160.139892578125,2725.93994140625,-400000.0625,-4635.759765625,-400000.0625,4669.0498046875,-400000.0625
171.37762928009033,-400000.0625,3067.449951171875,2676.010009765625,-400000.0625,-4658.18017578125,-400000.0625,4631.759765625,-400000.0625
171.3776342868805,-400000.0625,2941.419921875,2635.669921875,-400000.0625,-4679.009765625,-400000.0625,4591.47021484375,-400000.0625
171.37763929367065,-400000.0625,2968.1201171875,2636.6201171875,-400000.0625,-4667.9501953125,-400000.0625,4596.419921875,-400000.0625
171.37764430046082,-400000.0625,3050.610107421875,2665.3798828125,-400000.0625,-4630.52001953125,-400000.0625,4642.10986328125,-400000.0625
171.37764954566956,-400000.0625,3062.6298828125,2674.25,-400000.0625,-4610.009765625,-400000.0625,4665.56982421875,-400000.0625
171.3776547908783,-400000.0625,2980.469970703125,2623.989990234375,-400000.0625,-4636.9599609375,-400000.0625,4624.3701171875,-400000.0625
171.37765979766846,-400000.0625,2900.64990234375,2578.31005859375,-400000.0625,-4665.56982421875,-400000.0625,4596.89990234375,-400000.0625
171.37766528129578,-400000.0625,2904.510009765625,2590.3701171875,-400000.0625,-4650.4501953125,-400000.0625,4629.759765625,-400000.0625
171.37767028808594,-400000.0625,2950.949951171875,2644.679931640625,-400000.0625,-4600.14013671875,-400000.0625,4697.080078125,-400000.0625
171.37767577171326,-400000.0625,3007.030029296875,2642.110107421875,-400000.0625,-4593.56005859375,-400000.0625,4712.25,-400000.0625
171.37768077850342,-400000.0625,2934.550048828125,2596.81005859375,-400000.0625,-4624.75,-400000.0625,4674.2001953125,-400000.0625
171.37768626213074,-400000.0625,2868.3701171875,2559.090087890625,-400000.0625,-4653.740234375,-400000.0625,4633.43017578125,-400000.0625
171.37769150733948,-400000.0625,2875.85009765625,2559.139892578125,-400000.0625,-4628.47021484375,-400000.0625,4662.22998046875,-400000.0625
171.37769651412964,-400000.0625,2932.639892578125,2610.919921875,-400000.0625,-4594.3701171875,-400000.0625,4741.10009765625,-400000.0625
171.3777015209198,-400000.0625,2972.60009765625,2640.77001953125,-400000.0625,-4581.2099609375,-400000.0625,4778.2900390625,-400000.0625
171.37770700454712,-400000.0625,2888.969970703125,2589.659912109375,-400000.0625,-4606.68017578125,-400000.0625,4742.2900390625,-400000.0625
171.37771439552307,-400000.0625,2855.489990234375,2539.02001953125,-400000.0625,-4641.2001953125,-400000.0625,4687.4501953125,-400000.0625
171.37771916389465,-400000.0625,2864.7900390625,2556.85009765625,-400000.0625,-4628.1298828125,-400000.0625,4714.919921875,-400000.0625
171.37772512435913,-400000.0625,2920.909912109375,2615.929931640625,-400000.0625,-4588.7998046875,-400000.0625,4796.93017578125,-400000.0625
171.37773036956787,-400000.0625,2958.5400390625,2628.989990234375,-400000.0625,-4579.16015625,-400000.0625,4826.259765625,-400000.0625
171.37773537635803,-400000.0625,2884.530029296875,2574.25,-400000.0625,-4609.97021484375,-400000.0625,4775.759765625,-400000.0625
171.37774014472961,-400000.0625,2842.3798828125,2516.75,-400000.0625,-4646.5400390625,-400000.0625,4730.080078125,-400000.0625
171.37774562835693,-400000.0625,2861.8798828125,2545.169921875,-400000.0625,-4627.509765625,-400000.0625,4765.4599609375,-400000.0625
171.37775039672852,-400000.0625,2918.2900390625,2603.669921875,-400000.0625,-4584.06982421875,-400000.0625,4842.14013671875,-400000.0625
171.3777551651001,-400000.0625,2941.800048828125,2622.179931640625,-400000.0625,-4572.009765625,-400000.0625,4876.0400390625,-400000.0625
171.3777596950531,-400000.0625,2899.68994140625,2584.080078125,-400000.0625,-4597.0400390625,-400000.0625,4830.740234375,-400000.0625
171.37776517868042,-400000.0625,2840.85009765625,2545.68994140625,-400000.0625,-4624.64990234375,-400000.0625,4775.52001953125,-400000.0625
171.37776970863342,-400000.0625,2853.43994140625,2559.22998046875,-400000.0625,-4612.8798828125,-400000.0625,4791.58984375,-400000.0625
171.377774477005,-400000.0625,2925.5400390625,2615.02001953125,-400000.0625,-4577.97021484375,-400000.0625,4856.16015625,-400000.0625
171.37777948379517,-400000.0625,2963.639892578125,2640.530029296875,-400000.0625,-4563.330078125,-400000.0625,4876.89990234375,-400000.0625
171.37778425216675,-400000.0625,2921.77001953125,2602.669921875,-400000.0625,-4602.39013671875,-400000.0625,4816.490234375,-400000.0625
171.3777894973755,-400000.0625,2876.280029296875,2568.719970703125,-400000.0625,-4640.77001953125,-400000.0625,4754.02001953125,-400000.0625
171.37779426574707,-400000.0625,2910.570068359375,2596.0400390625,-400000.0625,-4628.3701171875,-400000.0625,4757.740234375,-400000.0625
171.37779903411865,-400000.0625,3001.260009765625,2668.239990234375,-400000.0625,-4589.990234375,-400000.0625,4812.18994140625,-400000.0625
171.3778040409088,-400000.0625,3045.93994140625,2694.75,-400000.0625,-4587.27001953125,-400000.0625,4832.60009765625,-400000.0625
171.3778088092804,-400000.0625,3016.659912109375,2659.0400390625,-400000.0625,-4621.169921875,-400000.0625,4776.14013671875,-400000.0625
171.37781381607056,-400000.0625,2981.22998046875,2627.800048828125,-400000.0625,-4652.1201171875,-400000.0625,4715.77978515625,-400000.0625
171.37781882286072,-400000.0625,3018.860107421875,2651.409912109375,-400000.0625,-4651.64013671875,-400000.0625,4728.83984375,-400000.0625
171.37782335281372,-400000.0625,3104.830078125,2710.199951171875,-400000.0625,-4627.509765625,-400000.0625,4785.39990234375,-400000.0625
171.37782835960388,-400000.0625,3152.989990234375,2738.239990234375,-400000.0625,-4617.97998046875,-400000.0625,4806.419921875,-400000.0625
171.37783312797546,-400000.0625,3122.659912109375,2695.0400390625,-400000.0625,-4658.7001953125,-400000.0625,4755.97021484375,-400000.0625
171.37783789634705,-400000.0625,3091.0,2650.070068359375,-400000.0625,-4700.60986328125,-400000.0625,4706.759765625,-400000.0625
171.37784242630005,-400000.0625,3126.340087890625,2671.050048828125,-400000.0625,-4694.64990234375,-400000.0625,4725.41015625,-400000.0625
171.3778476715088,-400000.0625,3208.5400390625,2731.469970703125,-400000.0625,-4669.759765625,-400000.0625,4790.830078125,-400000.0625
171.3778533935547,-400000.0625,3252.4599609375,2755.070068359375,-400000.0625,-4673.6201171875,-400000.0625,4816.72021484375,-400000.0625
171.3778591156006,-400000.0625,3224.419921875,2716.449951171875,-400000.0625,-4708.91015625,-400000.0625,4776.52978515625,-400000.0625
171.37786412239075,-400000.0625,3186.800048828125,2673.909912109375,-400000.0625,-4742.77001953125,-400000.0625,4727.41015625,-400000.0625
171.3778691291809,-400000.0625,3220.419921875,2696.56005859375,-400000.0625,-4743.77001953125,-400000.0625,4747.39013671875,-400000.0625
171.3778736591339,-400000.0625,3303.429931640625,2759.889892578125,-400000.0625,-4714.72998046875,-400000.0625,4817.43994140625,-400000.0625
171.37787866592407,-400000.0625,3346.780029296875,2786.449951171875,-400000.0625,-4712.8701171875,-400000.0625,4848.669921875,-400000.0625
171.3778839111328,-400000.0625,3310.8701171875,2744.580078125,-400000.0625,-4753.8798828125,-400000.0625,4804.52001953125,-400000.0625
171.37788820266724,-400000.0625,3271.530029296875,2704.669921875,-400000.0625,-4784.16015625,-400000.0625,4754.4501953125,-400000.0625
171.37789297103882,-400000.0625,3298.949951171875,2727.080078125,-400000.0625,-4775.47998046875,-400000.0625,4774.85986328125,-400000.0625
171.3778977394104,-400000.0625,3374.909912109375,2790.1201171875,-400000.0625,-4738.08984375,-400000.0625,4842.18994140625,-400000.0625
171.37790250778198,-400000.0625,3406.429931640625,2810.0,-400000.0625,-4734.85009765625,-400000.0625,4869.64990234375,-400000.0625
171.37790727615356,-400000.0625,3374.77001953125,2769.89990234375,-400000.0625,-4774.3798828125,-400000.0625,4825.39990234375,-400000.0625
171.37791180610657,-400000.0625,3330.419921875,2726.030029296875,-400000.0625,-4817.52978515625,-400000.0625,4777.47998046875,-400000.0625
171.37791681289673,-400000.0625,3353.97998046875,2745.820068359375,-400000.0625,-4809.56982421875,-400000.0625,4794.4599609375,-400000.0625
171.37792134284973,-400000.0625,3433.610107421875,2809.18994140625,-400000.0625,-4766.7998046875,-400000.0625,4864.7900390625,-400000.0625
171.3779261112213,-400000.0625,3470.139892578125,2830.889892578125,-400000.0625,-4766.56005859375,-400000.0625,4895.68994140625,-400000.0625
171.37793111801147,-400000.0625,3430.56005859375,2791.830078125,-400000.0625,-4803.52001953125,-400000.0625,4843.27978515625,-400000.0625
171.37793588638306,-400000.0625,3381.489990234375,2748.489990234375,-400000.0625,-4837.27978515625,-400000.0625,4788.68994140625,-400000.0625
171.37794065475464,-400000.0625,3404.860107421875,2767.090087890625,-400000.0625,-4828.8798828125,-400000.0625,4809.0,-400000.0625
171.37794518470764,-400000.0625,3477.530029296875,2827.1201171875,-400000.0625,-4788.919921875,-400000.0625,4875.14013671875,-400000.0625
171.37794995307922,-400000.0625,3509.3798828125,2851.199951171875,-400000.0625,-4781.2900390625,-400000.0625,4906.3701171875,-400000.0625
171.37795448303223,-400000.0625,3473.7099609375,2810.239990234375,-400000.0625,-4817.14990234375,-400000.0625,4857.830078125,-400000.0625
171.37795901298523,-400000.0625,3421.260009765625,2760.889892578125,-400000.0625,-4849.39013671875,-400000.0625,4804.22998046875,-400000.0625
171.3779637813568,-400000.0625,3442.239990234375,2781.199951171875,-400000.0625,-4837.3701171875,-400000.0625,4823.77978515625,-400000.0625
171.3779685497284,-400000.0625,3514.909912109375,2842.0,-400000.0625,-4808.47021484375,-400000.0625,4892.35009765625,-400000.0625
171.37797355651855,-400000.0625,3546.139892578125,2863.1201171875,-400000.0625,-4796.89013671875,-400000.0625,4912.330078125,-400000.0625
171.37797808647156,-400000.0625,3501.3701171875,2820.5400390625,-400000.0625,-4828.60009765625,-400000.0625,4865.4599609375,-400000.0625
171.37798261642456,-400000.0625,3445.77001953125,2772.52001953125,-400000.0625,-4862.31005859375,-400000.0625,4812.0498046875,-400000.0625
171.37798738479614,-400000.0625,3459.8798828125,2788.929931640625,-400000.0625,-4852.2001953125,-400000.0625,4825.5,-400000.0625
171.37799215316772,-400000.0625,3520.389892578125,2842.18994140625,-400000.0625,-4819.43994140625,-400000.0625,4891.10986328125,-400000.0625
171.37799668312073,-400000.0625,3560.2099609375,2868.56005859375,-400000.0625,-4802.56005859375,-400000.0625,4917.0,-400000.0625
171.37800192832947,-400000.0625,3516.2900390625,2826.97998046875,-400000.0625,-4831.740234375,-400000.0625,4874.990234375,-400000.0625
171.37800693511963,-400000.0625,3462.929931640625,2780.10009765625,-400000.0625,-4865.06982421875,-400000.0625,4821.009765625,-400000.0625
171.37801218032837,-400000.0625,3481.8701171875,2797.409912109375,-400000.0625,-4850.2001953125,-400000.0625,4835.75,-400000.0625
171.37801718711853,-400000.0625,3550.580078125,2855.02001953125,-400000.0625,-4812.10009765625,-400000.0625,4902.02978515625,-400000.0625
171.3780219554901,-400000.0625,3573.419921875,2869.320068359375,-400000.0625,-4806.3798828125,-400000.0625,4922.06005859375,-400000.0625
171.37802648544312,-400000.0625,3528.5,2827.1201171875,-400000.0625,-4834.75,-400000.0625,4873.7998046875,-400000.0625
171.37803101539612,-400000.0625,3469.320068359375,2780.43994140625,-400000.0625,-4871.18017578125,-400000.0625,4821.25,-400000.0625
171.3780357837677,-400000.0625,3483.679931640625,2795.97998046875,-400000.0625,-4860.16015625,-400000.0625,4832.41015625,-400000.0625
171.37804055213928,-400000.0625,3549.10009765625,2853.25,-400000.0625,-4819.919921875,-400000.0625,4895.02001953125,-400000.0625
171.37804532051086,-400000.0625,3581.6201171875,2878.429931640625,-400000.0625,-4798.27001953125,-400000.0625,4923.2998046875,-400000.0625
171.37804985046387,-400000.0625,3534.080078125,2836.179931640625,-400000.0625,-4830.41015625,-400000.0625,4874.330078125,-400000.0625
171.37805438041687,-400000.0625,3476.0,2786.2099609375,-400000.0625,-4865.740234375,-400000.0625,4817.9599609375,-400000.0625
171.37805891036987,-400000.0625,3489.260009765625,2800.0400390625,-400000.0625,-4853.009765625,-400000.0625,4833.02978515625,-400000.0625
171.37806367874146,-400000.0625,3555.72998046875,2859.8798828125,-400000.0625,-4818.72998046875,-400000.0625,4897.2099609375,-400000.0625
171.37806820869446,-400000.0625,3592.5400390625,2887.919921875,-400000.0625,-4801.56005859375,-400000.0625,4925.16015625,-400000.0625
171.37807273864746,-400000.0625,3543.570068359375,2841.52001953125,-400000.0625,-4838.18017578125,-400000.0625,4877.18994140625,-400000.0625
171.3780779838562,-400000.0625,3485.72998046875,2793.409912109375,-400000.0625,-4871.7998046875,-400000.0625,4817.14990234375,-400000.0625
171.37808275222778,-400000.0625,3496.739990234375,2809.18994140625,-400000.0625,-4858.10986328125,-400000.0625,4828.97998046875,-400000.0625
171.3780872821808,-400000.0625,3563.739990234375,2866.030029296875,-400000.0625,-4817.72021484375,-400000.0625,4892.72998046875,-400000.0625
171.37809205055237,-400000.0625,3596.969970703125,2890.919921875,-400000.0625,-4798.93994140625,-400000.0625,4919.33984375,-400000.0625
171.37809681892395,-400000.0625,3544.89990234375,2844.760009765625,-400000.0625,-4833.41015625,-400000.0625,4873.08984375,-400000.0625
171.37810277938843,-400000.0625,3485.159912109375,2797.93994140625,-400000.0625,-4867.27001953125,-400000.0625,4811.81005859375,-400000.0625
171.37810754776,-400000.0625,3495.5,2816.199951171875,-400000.0625,-4860.16015625,-400000.0625,4821.009765625,-400000.0625
171.3781123161316,-400000.0625,3555.25,2866.27001953125,-400000.0625,-4822.10986328125,-400000.0625,4894.02001953125,-400000.0625
171.37811708450317,-400000.0625,3586.909912109375,2870.889892578125,-400000.0625,-4808.6201171875,-400000.0625,4935.169921875,-400000.0625
171.37812161445618,-400000.0625,3538.85009765625,2814.9599609375,-400000.0625,-4838.56005859375,-400000.0625,4889.35009765625,-400000.0625
171.37812638282776,-400000.0625,3475.949951171875,2761.840087890625,-400000.0625,-4875.419921875,-400000.0625,4833.64990234375,-400000.0625
171.37813067436218,-400000.0625,3479.340087890625,2769.610107421875,-400000.0625,-4866.93017578125,-400000.0625,4848.52978515625,-400000.0625
171.37813544273376,-400000.0625,3540.659912109375,2815.10009765625,-400000.0625,-4827.31005859375,-400000.0625,4918.47998046875,-400000.0625
171.37813997268677,-400000.0625,3567.64990234375,2827.68994140625,-400000.0625,-4814.10009765625,-400000.0625,4956.91015625,-400000.0625
171.37814450263977,-400000.0625,3520.25,2777.77001953125,-400000.0625,-4849.10009765625,-400000.0625,4917.56982421875,-400000.0625
171.37814903259277,-400000.0625,3460.840087890625,2724.219970703125,-400000.0625,-4879.85986328125,-400000.0625,4864.1201171875,-400000.0625
171.37815380096436,-400000.0625,3470.800048828125,2736.139892578125,-400000.0625,-4869.7998046875,-400000.0625,4881.330078125,-400000.0625
171.37815880775452,-400000.0625,3538.179931640625,2793.739990234375,-400000.0625,-4834.990234375,-400000.0625,4947.66015625,-400000.0625
171.3781635761261,-400000.0625,3570.699951171875,2815.340087890625,-400000.0625,-4820.25,-400000.0625,4973.1298828125,-400000.0625
171.37816905975342,-400000.0625,3524.969970703125,2770.280029296875,-400000.0625,-4852.14990234375,-400000.0625,4923.33984375,-400000.0625
171.37817406654358,-400000.0625,3466.64990234375,2718.969970703125,-400000.0625,-4885.77001953125,-400000.0625,4866.41015625,-400000.0625
171.37817907333374,-400000.0625,3481.669921875,2735.570068359375,-400000.0625,-4880.14013671875,-400000.0625,4881.52978515625,-400000.0625
171.3781840801239,-400000.0625,3543.090087890625,2793.60009765625,-400000.0625,-4842.08984375,-400000.0625,4943.08984375,-400000.0625
171.37818884849548,-400000.0625,3575.090087890625,2815.909912109375,-400000.0625,-4817.43994140625,-400000.0625,4969.41015625,-400000.0625
171.3781933784485,-400000.0625,3530.68994140625,2769.0400390625,-400000.0625,-4853.10986328125,-400000.0625,4925.68017578125,-400000.0625
171.3781979084015,-400000.0625,3471.52001953125,2721.409912109375,-400000.0625,-4888.72998046875,-400000.0625,4870.080078125,-400000.0625
171.3782033920288,-400000.0625,3484.06005859375,2737.469970703125,-400000.0625,-4875.85009765625,-400000.0625,4879.85986328125,-400000.0625
171.3782081604004,-400000.0625,3552.010009765625,2795.360107421875,-400000.0625,-4841.0400390625,-400000.0625,4939.83984375,-400000.0625
171.37821340560913,-400000.0625,3583.47998046875,2818.159912109375,-400000.0625,-4833.3701171875,-400000.0625,4970.02978515625,-400000.0625
171.3782184123993,-400000.0625,3536.800048828125,2774.6201171875,-400000.0625,-4864.60009765625,-400000.0625,4926.58984375,-400000.0625
171.37822341918945,-400000.0625,3478.719970703125,2725.840087890625,-400000.0625,-4892.919921875,-400000.0625,4868.7900390625,-400000.0625
171.3782286643982,-400000.0625,3492.830078125,2743.050048828125,-400000.0625,-4882.14990234375,-400000.0625,4883.10009765625,-400000.0625
171.3782331943512,-400000.0625,3555.010009765625,2800.610107421875,-400000.0625,-4845.43017578125,-400000.0625,4945.89990234375,-400000.0625
171.3782389163971,-400000.0625,3585.9599609375,2822.02001953125,-400000.0625,-4825.97021484375,-400000.0625,4968.06982421875,-400000.0625
171.3782434463501,-400000.0625,3543.760009765625,2780.8701171875,-400000.0625,-4856.43994140625,-400000.0625,4926.10986328125,-400000.0625
171.37824821472168,-400000.0625,3484.679931640625,2733.139892578125,-400000.0625,-4889.919921875,-400000.0625,4871.509765625,-400000.0625
171.37825274467468,-400000.0625,3496.60009765625,2746.14990234375,-400000.0625,-4878.43017578125,-400000.0625,4881.0498046875,-400000.0625
171.37825727462769,-400000.0625,3564.260009765625,2805.52001953125,-400000.0625,-4835.22021484375,-400000.0625,4944.52001953125,-400000.0625
171.37826228141785,-400000.0625,3590.010009765625,2824.5,-400000.0625,-4825.68994140625,-400000.0625,4969.31005859375,-400000.0625
171.37826704978943,-400000.0625,3544.6201171875,2779.2900390625,-400000.0625,-4866.97998046875,-400000.0625,4915.2900390625,-400000.0625
171.3782720565796,-400000.0625,3481.47998046875,2726.75,-400000.0625,-4902.93994140625,-400000.0625,4858.919921875,-400000.0625
171.37827706336975,-400000.0625,3491.590087890625,2740.47998046875,-400000.0625,-4889.06005859375,-400000.0625,4876.85009765625,-400000.0625
171.37828159332275,-400000.0625,3552.719970703125,2799.4599609375,-400000.0625,-4849.10009765625,-400000.0625,4938.02978515625,-400000.0625
171.37828612327576,-400000.0625,3586.6298828125,2827.070068359375,-400000.0625,-4829.93017578125,-400000.0625,4972.169921875,-400000.0625
171.37829065322876,-400000.0625,3543.280029296875,2782.300048828125,-400000.0625,-4860.4501953125,-400000.0625,4922.580078125,-400000.0625
171.37829518318176,-400000.0625,3483.919921875,2728.179931640625,-400000.0625,-4896.97998046875,-400000.0625,4863.64013671875,-400000.0625
171.37829971313477,-400000.0625,3493.02001953125,2738.3798828125,-400000.0625,-4882.14990234375,-400000.0625,4871.18017578125,-400000.0625
171.37830448150635,-400000.0625,3552.820068359375,2795.60009765625,-400000.0625,-4839.7099609375,-400000.0625,4937.080078125,-400000.0625
171.37830901145935,-400000.0625,3578.0400390625,2820.06005859375,-400000.0625,-4823.39990234375,-400000.0625,4968.2099609375,-400000.0625
171.3783140182495,-400000.0625,3526.39990234375,2786.06005859375,-400000.0625,-4850.2900390625,-400000.0625,4938.64990234375,-400000.0625
171.3783187866211,-400000.0625,3448.6298828125,2740.760009765625,-400000.0625,-4885.240234375,-400000.0625,4879.81005859375,-400000.0625
171.3783233165741,-400000.0625,3444.9599609375,2746.530029296875,-400000.0625,-4876.08984375,-400000.0625,4880.14013671875,-400000.0625
171.37832808494568,-400000.0625,3510.330078125,2807.760009765625,-400000.0625,-4828.97998046875,-400000.0625,4946.759765625,-400000.0625
171.37833261489868,-400000.0625,3548.81005859375,2821.590087890625,-400000.0625,-4814.240234375,-400000.0625,4978.08984375,-400000.0625
171.3783369064331,-400000.0625,3477.429931640625,2763.3701171875,-400000.0625,-4836.60986328125,-400000.0625,4915.6201171875,-400000.0625
171.3783416748047,-400000.0625,3401.3798828125,2695.75,-400000.0625,-4871.080078125,-400000.0625,4833.64990234375,-400000.0625
171.3783462047577,-400000.0625,3389.360107421875,2688.1201171875,-400000.0625,-4858.10986328125,-400000.0625,4831.7001953125,-400000.0625
171.37835216522217,-400000.0625,3397.93994140625,2753.449951171875,-400000.0625,-4799.60009765625,-400000.0625,4910.990234375,-400000.0625
171.3783574104309,-400000.0625,3399.179931640625,2746.77001953125,-400000.0625,-4774.85986328125,-400000.0625,4912.52001953125,-400000.0625
171.37836289405823,-400000.0625,3322.169921875,2660.56005859375,-400000.0625,-4799.990234375,-400000.0625,4819.06005859375,-400000.0625
171.3783676624298,-400000.0625,3215.60009765625,2589.510009765625,-400000.0625,-4812.43017578125,-400000.0625,4731.31982421875,-400000.0625
171.37837266921997,-400000.0625,3160.669921875,2578.5400390625,-400000.0625,-4777.85986328125,-400000.0625,4734.47021484375,-400000.0625
171.37837743759155,-400000.0625,3159.570068359375,2615.97998046875,-400000.0625,-4715.2998046875,-400000.0625,4793.60009765625,-400000.0625
171.37838220596313,-400000.0625,3145.030029296875,2630.52001953125,-400000.0625,-4682.39990234375,-400000.0625,4801.31982421875,-400000.0625
171.3783872127533,-400000.0625,3055.949951171875,2572.43994140625,-400000.0625,-4700.7099609375,-400000.0625,4748.490234375,-400000.0625
171.3783917427063,-400000.0625,2999.39990234375,2504.06005859375,-400000.0625,-4724.31005859375,-400000.0625,4697.22998046875,-400000.0625
171.3783962726593,-400000.0625,2998.72998046875,2492.239990234375,-400000.0625,-4717.10986328125,-400000.0625,4703.08984375,-400000.0625
171.37840127944946,-400000.0625,3027.9599609375,2532.050048828125,-400000.0625,-4677.43994140625,-400000.0625,4742.10009765625,-400000.0625
171.37840580940247,-400000.0625,3034.260009765625,2556.75,-400000.0625,-4651.06982421875,-400000.0625,4779.72021484375,-400000.0625
171.37841033935547,-400000.0625,2974.989990234375,2507.780029296875,-400000.0625,-4676.39013671875,-400000.0625,4747.43994140625,-400000.0625
171.37841510772705,-400000.0625,2898.1201171875,2451.659912109375,-400000.0625,-4704.56982421875,-400000.0625,4692.60009765625,-400000.0625
171.37841987609863,-400000.0625,2896.7900390625,2460.6201171875,-400000.0625,-4686.64013671875,-400000.0625,4699.60986328125,-400000.0625
171.37842416763306,-400000.0625,2947.949951171875,2515.1298828125,-400000.0625,-4648.06982421875,-400000.0625,4762.7900390625,-400000.0625
171.37842893600464,-400000.0625,2975.3701171875,2542.110107421875,-400000.0625,-4628.1298828125,-400000.0625,4795.080078125,-400000.0625
171.37843346595764,-400000.0625,2938.030029296875,2508.070068359375,-400000.0625,-4656.509765625,-400000.0625,4754.72998046875,-400000.0625
171.37843799591064,-400000.0625,2882.340087890625,2465.199951171875,-400000.0625,-4696.3701171875,-400000.0625,4696.66015625,-400000.0625
171.3784430027008,-400000.0625,2903.219970703125,2485.179931640625,-400000.0625,-4684.8798828125,-400000.0625,4701.56982421875,-400000.0625
171.37844729423523,-400000.0625,2975.699951171875,2547.7900390625,-400000.0625,-4647.68017578125,-400000.0625,4763.4599609375,-400000.0625
171.3784523010254,-400000.0625,3024.860107421875,2584.360107421875,-400000.0625,-4636.85986328125,-400000.0625,4799.56005859375,-400000.0625
171.37845659255981,-400000.0625,2999.1201171875,2546.739990234375,-400000.0625,-4678.43994140625,-400000.0625,4756.7900390625,-400000.0625
171.37846112251282,-400000.0625,2958.919921875,2506.070068359375,-400000.0625,-4718.68994140625,-400000.0625,4694.83984375,-400000.0625
171.37846565246582,-400000.0625,2985.760009765625,2524.659912109375,-400000.0625,-4713.81982421875,-400000.0625,4703.330078125,-400000.0625
171.3784704208374,-400000.0625,3069.02001953125,2585.550048828125,-400000.0625,-4681.8701171875,-400000.0625,4767.31982421875,-400000.0625
171.37847471237183,-400000.0625,3127.860107421875,2619.510009765625,-400000.0625,-4669.08984375,-400000.0625,4801.60986328125,-400000.0625
171.3784794807434,-400000.0625,3100.8701171875,2584.64990234375,-400000.0625,-4708.6201171875,-400000.0625,4756.2099609375,-400000.0625
171.37848448753357,-400000.0625,3062.8701171875,2541.969970703125,-400000.0625,-4756.31005859375,-400000.0625,4696.509765625,-400000.0625
171.37849020957947,-400000.0625,3093.6201171875,2558.989990234375,-400000.0625,-4752.919921875,-400000.0625,4703.7099609375,-400000.0625
171.37849593162537,-400000.0625,3166.14990234375,2618.030029296875,-400000.0625,-4722.93017578125,-400000.0625,4764.93994140625,-400000.0625
171.37850093841553,-400000.0625,3226.81005859375,2657.56005859375,-400000.0625,-4711.9599609375,-400000.0625,4802.18017578125,-400000.0625
171.3785057067871,-400000.0625,3213.31005859375,2628.469970703125,-400000.0625,-4745.6298828125,-400000.0625,4763.169921875,-400000.0625
171.3785102367401,-400000.0625,3165.25,2581.929931640625,-400000.0625,-4785.009765625,-400000.0625,4705.43017578125,-400000.0625
171.3785150051117,-400000.0625,3189.989990234375,2601.050048828125,-400000.0625,-4782.39013671875,-400000.0625,4717.58984375,-400000.0625
171.37851977348328,-400000.0625,3273.389892578125,2662.52001953125,-400000.0625,-4759.41015625,-400000.0625,4787.58984375,-400000.0625
171.37852716445923,-400000.0625,3325.699951171875,2697.330078125,-400000.0625,-4753.16015625,-400000.0625,4824.06982421875,-400000.0625
171.3785321712494,-400000.0625,3299.18994140625,2665.949951171875,-400000.0625,-4784.2001953125,-400000.0625,4785.2998046875,-400000.0625
171.37853693962097,-400000.0625,3252.7900390625,2620.60009765625,-400000.0625,-4820.06005859375,-400000.0625,4732.509765625,-400000.0625
171.37854170799255,-400000.0625,3268.719970703125,2632.18994140625,-400000.0625,-4814.85986328125,-400000.0625,4745.43994140625,-400000.0625
171.37854647636414,-400000.0625,3345.159912109375,2696.85009765625,-400000.0625,-4785.10986328125,-400000.0625,4812.3798828125,-400000.0625
171.37855124473572,-400000.0625,3395.989990234375,2729.93994140625,-400000.0625,-4776.669921875,-400000.0625,4848.77001953125,-400000.0625
171.3785560131073,-400000.0625,3370.0,2700.81005859375,-400000.0625,-4802.509765625,-400000.0625,4812.85986328125,-400000.0625
171.37856101989746,-400000.0625,3322.27001953125,2657.840087890625,-400000.0625,-4840.9501953125,-400000.0625,4757.169921875,-400000.0625
171.37856602668762,-400000.0625,3339.389892578125,2669.239990234375,-400000.0625,-4839.89990234375,-400000.0625,4769.60986328125,-400000.0625
171.37857103347778,-400000.0625,3414.72998046875,2728.219970703125,-400000.0625,-4809.08984375,-400000.0625,4838.0400390625,-400000.0625
171.37857580184937,-400000.0625,3457.02001953125,2759.5,-400000.0625,-4798.83984375,-400000.0625,4872.27001953125,-400000.0625
171.37858033180237,-400000.0625,3423.68994140625,2724.360107421875,-400000.0625,-4828.41015625,-400000.0625,4833.22021484375,-400000.0625
171.37858533859253,-400000.0625,3369.860107421875,2674.77001953125,-400000.0625,-4865.31005859375,-400000.0625,4780.9599609375,-400000.0625
171.3785901069641,-400000.0625,3380.820068359375,2685.02001953125,-400000.0625,-4863.06982421875,-400000.0625,4790.35009765625,-400000.0625
171.37859511375427,-400000.0625,3450.010009765625,2746.530029296875,-400000.0625,-4822.919921875,-400000.0625,4854.8701171875,-400000.0625
171.37859964370728,-400000.0625,3495.60009765625,2781.340087890625,-400000.0625,-4802.0400390625,-400000.0625,4889.97021484375,-400000.0625
171.37860417366028,-400000.0625,3463.97998046875,2746.110107421875,-400000.0625,-4838.3701171875,-400000.0625,4854.009765625,-400000.0625
171.37860918045044,-400000.0625,3406.139892578125,2693.800048828125,-400000.0625,-4879.52001953125,-400000.0625,4796.740234375,-400000.0625
171.37861347198486,-400000.0625,3416.8701171875,2705.3798828125,-400000.0625,-4869.27001953125,-400000.0625,4806.47021484375,-400000.0625
171.37861824035645,-400000.0625,3482.679931640625,2763.409912109375,-400000.0625,-4836.0400390625,-400000.0625,4867.75,-400000.0625
171.37862300872803,-400000.0625,3522.919921875,2793.60009765625,-400000.0625,-4821.5400390625,-400000.0625,4902.41015625,-400000.0625
171.3786277770996,-400000.0625,3486.35009765625,2757.030029296875,-400000.0625,-4842.9501953125,-400000.0625,4860.31005859375,-400000.0625
171.3786325454712,-400000.0625,3431.610107421875,2708.860107421875,-400000.0625,-4875.22998046875,-400000.0625,4799.83984375,-400000.0625
171.37863755226135,-400000.0625,3437.659912109375,2717.830078125,-400000.0625,-4876.56982421875,-400000.0625,4811.9599609375,-400000.0625
171.37864232063293,-400000.0625,3503.280029296875,2775.530029296875,-400000.0625,-4840.7998046875,-400000.0625,4879.85986328125,-400000.0625
171.3786473274231,-400000.0625,3539.610107421875,2801.800048828125,-400000.0625,-4819.009765625,-400000.0625,4912.81005859375,-400000.0625
171.37865209579468,-400000.0625,3500.93994140625,2762.27001953125,-400000.0625,-4848.47998046875,-400000.0625,4872.1298828125,-400000.0625
171.37865686416626,-400000.0625,3439.090087890625,2711.14990234375,-400000.0625,-4887.580078125,-400000.0625,4811.18994140625,-400000.0625
171.37866163253784,-400000.0625,3444.239990234375,2720.929931640625,-400000.0625,-4875.22998046875,-400000.0625,4818.490234375,-400000.0625
171.37866640090942,-400000.0625,3514.389892578125,2778.580078125,-400000.0625,-4833.64990234375,-400000.0625,4876.56982421875,-400000.0625
171.378671169281,-400000.0625,3552.47998046875,2810.909912109375,-400000.0625,-4820.6298828125,-400000.0625,4912.85009765625,-400000.0625
171.3786759376526,-400000.0625,3509.659912109375,2774.909912109375,-400000.0625,-4846.3798828125,-400000.0625,4877.52001953125,-400000.0625
171.3786804676056,-400000.0625,3446.719970703125,2719.68994140625,-400000.0625,-4884.2001953125,-400000.0625,4818.009765625,-400000.0625
171.37868571281433,-400000.0625,3452.5400390625,2726.64990234375,-400000.0625,-4881.72021484375,-400000.0625,4821.58984375,-400000.0625
171.37869024276733,-400000.0625,3517.010009765625,2783.8701171875,-400000.0625,-4841.60986328125,-400000.0625,4884.6298828125,-400000.0625
171.37869477272034,-400000.0625,3557.35009765625,2815.25,-400000.0625,-4820.68017578125,-400000.0625,4920.52978515625,-400000.0625
171.37869954109192,-400000.0625,3518.919921875,2777.530029296875,-400000.0625,-4847.0,-400000.0625,4879.759765625,-400000.0625
171.3787043094635,-400000.0625,3454.590087890625,2724.1201171875,-400000.0625,-4886.580078125,-400000.0625,4817.68017578125,-400000.0625
171.3787088394165,-400000.0625,3460.169921875,2730.699951171875,-400000.0625,-4877.14013671875,-400000.0625,4822.5400390625,-400000.0625
171.37871384620667,-400000.0625,3518.43994140625,2784.5400390625,-400000.0625,-4843.52001953125,-400000.0625,4881.330078125,-400000.0625
171.37871837615967,-400000.0625,3550.10009765625,2808.0,-400000.0625,-4832.83984375,-400000.0625,4910.85009765625,-400000.0625
171.37872314453125,-400000.0625,3509.090087890625,2773.760009765625,-400000.0625,-4855.58984375,-400000.0625,4869.31982421875,-400000.0625
171.3787281513214,-400000.0625,3445.669921875,2722.169921875,-400000.0625,-4887.39013671875,-400000.0625,4819.919921875,-400000.0625
171.37873315811157,-400000.0625,3444.909912109375,2712.8701171875,-400000.0625,-4884.10009765625,-400000.0625,4837.080078125,-400000.0625
171.37873792648315,-400000.0625,3504.419921875,2758.739990234375,-400000.0625,-4852.25,-400000.0625,4905.4599609375,-400000.0625
171.37874269485474,-400000.0625,3542.090087890625,2785.72998046875,-400000.0625,-4835.18017578125,-400000.0625,4940.31982421875,-400000.0625
171.37874746322632,-400000.0625,3505.419921875,2748.43994140625,-400000.0625,-4862.02001953125,-400000.0625,4904.56005859375,-400000.0625
171.37875199317932,-400000.0625,3440.909912109375,2686.449951171875,-400000.0625,-4898.31005859375,-400000.0625,4855.16015625,-400000.0625
171.37875699996948,-400000.0625,3441.6201171875,2688.409912109375,-400000.0625,-4895.8798828125,-400000.0625,4858.919921875,-400000.0625
171.37876176834106,-400000.0625,3502.610107421875,2745.530029296875,-400000.0625,-4854.97021484375,-400000.0625,4922.52978515625,-400000.0625
171.37876677513123,-400000.0625,3543.570068359375,2775.2900390625,-400000.0625,-4830.740234375,-400000.0625,4960.97021484375,-400000.0625
171.37877130508423,-400000.0625,3507.18994140625,2737.330078125,-400000.0625,-4860.4501953125,-400000.0625,4916.330078125,-400000.0625
171.3787760734558,-400000.0625,3443.6201171875,2684.02001953125,-400000.0625,-4897.4501953125,-400000.0625,4856.2998046875,-400000.0625
171.3787808418274,-400000.0625,3451.6298828125,2690.739990234375,-400000.0625,-4893.259765625,-400000.0625,4865.64990234375,-400000.0625
171.37878561019897,-400000.0625,3514.239990234375,2744.340087890625,-400000.0625,-4858.2998046875,-400000.0625,4922.919921875,-400000.0625
171.37879037857056,-400000.0625,3544.52001953125,2768.090087890625,-400000.0625,-4842.08984375,-400000.0625,4952.72021484375,-400000.0625
171.37879514694214,-400000.0625,3506.949951171875,2736.090087890625,-400000.0625,-4865.22021484375,-400000.0625,4917.0498046875,-400000.0625
171.37879991531372,-400000.0625,3449.580078125,2687.8798828125,-400000.0625,-4897.7900390625,-400000.0625,4854.6298828125,-400000.0625
171.37880444526672,-400000.0625,3448.199951171875,2691.169921875,-400000.0625,-4892.68017578125,-400000.0625,4857.72998046875,-400000.0625
171.37880873680115,-400000.0625,3508.429931640625,2744.820068359375,-400000.0625,-4856.6298828125,-400000.0625,4919.47998046875,-400000.0625
171.37881350517273,-400000.0625,3546.949951171875,2774.669921875,-400000.0625,-4837.7001953125,-400000.0625,4955.2001953125,-400000.0625
171.3788182735443,-400000.0625,3507.18994140625,2739.0,-400000.0625,-4863.1201171875,-400000.0625,4916.0498046875,-400000.0625
171.37882280349731,-400000.0625,3441.760009765625,2682.639892578125,-400000.0625,-4908.60986328125,-400000.0625,4853.580078125,-400000.0625
171.3788275718689,-400000.0625,3444.0,2686.169921875,-400000.0625,-4904.509765625,-400000.0625,4857.830078125,-400000.0625
171.37883234024048,-400000.0625,3508.090087890625,2742.10009765625,-400000.0625,-4861.39990234375,-400000.0625,4914.669921875,-400000.0625
171.3788366317749,-400000.0625,3547.10009765625,2773.949951171875,-400000.0625,-4843.81005859375,-400000.0625,4952.0498046875,-400000.0625
171.37884163856506,-400000.0625,3512.909912109375,2739.18994140625,-400000.0625,-4872.89013671875,-400000.0625,4915.3798828125,-400000.0625
171.37884664535522,-400000.0625,3445.6298828125,2685.8798828125,-400000.0625,-4906.64990234375,-400000.0625,4854.490234375,-400000.0625
171.37885117530823,-400000.0625,3447.9599609375,2694.3701171875,-400000.0625,-4896.97998046875,-400000.0625,4858.8798828125,-400000.0625
171.3788561820984,-400000.0625,3509.6201171875,2749.780029296875,-400000.0625,-4856.2998046875,-400000.0625,4921.14990234375,-400000.0625
171.37886095046997,-400000.0625,3546.10009765625,2779.77001953125,-400000.0625,-4837.47021484375,-400000.0625,4959.25,-400000.0625
171.37886571884155,-400000.0625,3506.52001953125,2743.9599609375,-400000.0625,-4868.60009765625,-400000.0625,4917.33984375,-400000.0625
171.3788707256317,-400000.0625,3447.719970703125,2691.840087890625,-400000.0625,-4905.4599609375,-400000.0625,4853.68017578125,-400000.0625
171.3788754940033,-400000.0625,3448.580078125,2692.75,-400000.0625,-4901.31005859375,-400000.0625,4856.2099609375,-400000.0625
171.37888050079346,-400000.0625,3509.7099609375,2750.300048828125,-400000.0625,-4861.58984375,-400000.0625,4916.3798828125,-400000.0625
171.37888503074646,-400000.0625,3543.570068359375,2776.3798828125,-400000.0625,-4847.56982421875,-400000.0625,4947.66015625,-400000.0625
171.37889003753662,-400000.0625,3504.22998046875,2737.429931640625,-400000.0625,-4871.89013671875,-400000.0625,4906.31982421875,-400000.0625
171.37889432907104,-400000.0625,3442.3798828125,2686.260009765625,-400000.0625,-4905.509765625,-400000.0625,4850.77001953125,-400000.0625
171.37889885902405,-400000.0625,3440.090087890625,2688.68994140625,-400000.0625,-4897.93017578125,-400000.0625,4855.25,-400000.0625
171.3789038658142,-400000.0625,3501.699951171875,2745.199951171875,-400000.0625,-4860.02001953125,-400000.0625,4916.81005859375,-400000.0625
171.3789086341858,-400000.0625,3543.6201171875,2777.050048828125,-400000.0625,-4838.0400390625,-400000.0625,4954.2001953125,-400000.0625
171.3789131641388,-400000.0625,3509.81005859375,2742.580078125,-400000.0625,-4868.41015625,-400000.0625,4908.31982421875,-400000.0625
171.37891840934753,-400000.0625,3445.820068359375,2690.60009765625,-400000.0625,-4906.3701171875,-400000.0625,4849.39013671875,-400000.0625
171.37892293930054,-400000.0625,3446.530029296875,2691.4599609375,-400000.0625,-4904.93994140625,-400000.0625,4856.10986328125,-400000.0625
171.37892746925354,-400000.0625,3508.52001953125,2746.06005859375,-400000.0625,-4866.93017578125,-400000.0625,4914.81005859375,-400000.0625
171.3789324760437,-400000.0625,3545.429931640625,2776.10009765625,-400000.0625,-4843.759765625,-400000.0625,4948.89990234375,-400000.0625
171.37893843650818,-400000.0625,3502.080078125,2737.81005859375,-400000.0625,-4869.02978515625,-400000.0625,4910.27978515625,-400000.0625
171.37894296646118,-400000.0625,3436.3798828125,2688.68994140625,-400000.0625,-4904.1298828125,-400000.0625,4846.14013671875,-400000.0625
171.37894749641418,-400000.0625,3436.610107421875,2692.030029296875,-400000.0625,-4899.68994140625,-400000.0625,4846.240234375,-400000.0625
171.37895250320435,-400000.0625,3490.72998046875,2734.85009765625,-400000.0625,-4871.31982421875,-400000.0625,4921.10009765625,-400000.0625
171.3789575099945,-400000.0625,3531.7900390625,2750.159912109375,-400000.0625,-4855.10986328125,-400000.0625,4971.41015625,-400000.0625
171.37896275520325,-400000.0625,3495.030029296875,2707.530029296875,-400000.0625,-4875.7099609375,-400000.0625,4946.7099609375,-400000.0625
171.37896752357483,-400000.0625,3432.56005859375,2646.260009765625,-400000.0625,-4918.85986328125,-400000.0625,4902.7900390625,-400000.0625
171.3789722919464,-400000.0625,3432.699951171875,2638.239990234375,-400000.0625,-4919.33984375,-400000.0625,4920.43994140625,-400000.0625
171.378977060318,-400000.0625,3504.179931640625,2682.159912109375,-400000.0625,-4882.3798828125,-400000.0625,4999.58984375,-400000.0625
171.37898182868958,-400000.0625,3545.239990234375,2698.949951171875,-400000.0625,-4863.740234375,-400000.0625,5059.81982421875,-400000.0625
171.37898635864258,-400000.0625,3507.81005859375,2652.31005859375,-400000.0625,-4890.25,-400000.0625,5043.080078125,-400000.0625
171.37899160385132,-400000.0625,3451.72998046875,2584.169921875,-400000.0625,-4930.2099609375,-400000.0625,5005.740234375,-400000.0625
171.37899613380432,-400000.0625,3453.06005859375,2574.679931640625,-400000.0625,-4928.58984375,-400000.0625,5026.91015625,-400000.0625
171.3790009021759,-400000.0625,3516.669921875,2620.97998046875,-400000.0625,-4887.14990234375,-400000.0625,5105.97021484375,-400000.0625
171.37900710105896,-400000.0625,3557.43994140625,2641.820068359375,-400000.0625,-4869.509765625,-400000.0625,5165.39013671875,-400000.0625
171.3790123462677,-400000.0625,3522.43994140625,2599.050048828125,-400000.0625,-4901.93017578125,-400000.0625,5144.259765625,-400000.0625
171.37901711463928,-400000.0625,3461.889892578125,2535.340087890625,-400000.0625,-4947.0400390625,-400000.0625,5103.39990234375,-400000.0625
171.37902188301086,-400000.0625,3462.7900390625,2526.090087890625,-400000.0625,-4945.419921875,-400000.0625,5119.85009765625,-400000.0625
171.37902641296387,-400000.0625,3525.449951171875,2577.929931640625,-400000.0625,-4901.7900390625,-400000.0625,5186.7998046875,-400000.0625
171.37903118133545,-400000.0625,3563.1201171875,2609.919921875,-400000.0625,-4885.6298828125,-400000.0625,5232.0,-400000.0625
171.37903594970703,-400000.0625,3532.550048828125,2576.300048828125,-400000.0625,-4910.66015625,-400000.0625,5199.6201171875,-400000.0625
171.37904047966003,-400000.0625,3474.6201171875,2528.949951171875,-400000.0625,-4939.080078125,-400000.0625,5142.259765625,-400000.0625
171.3790454864502,-400000.0625,3467.989990234375,2530.3798828125,-400000.0625,-4937.31982421875,-400000.0625,5140.5,-400000.0625
171.37905025482178,-400000.0625,3520.35009765625,2579.8798828125,-400000.0625,-4909.89990234375,-400000.0625,5196.47998046875,-400000.0625
171.37905502319336,-400000.0625,3561.5400390625,2611.919921875,-400000.0625,-4894.68994140625,-400000.0625,5237.52978515625,-400000.0625
171.3790602684021,-400000.0625,3527.68994140625,2576.830078125,-400000.0625,-4916.759765625,-400000.0625,5202.2001953125,-400000.0625
171.37906455993652,-400000.0625,3465.93994140625,2523.419921875,-400000.0625,-4958.25,-400000.0625,5142.2099609375,-400000.0625
