time,ch1,ch2,ch3,ch4,ch5,ch6,ch7,ch8
0.08383846282958984,-60.939998626708984,7794.81005859375,19647.599609375,-400000.0625,-400000.0625,-400000.0625,-400000.0625,-400000.0625
0.08391976356506348,-59.9900016784668,7796.9599609375,19646.310546875,-400000.0625,-400000.0625,-400000.0625,-400000.0625,-400000.0625
0.08392691612243652,-67.9000015258789,7784.7001953125,19633.25,-400000.0625,-400000.0625,-400000.0625,-400000.0625,-400000.0625
0.08393096923828125,-63.900001525878906,7777.740234375,19628.91015625,-400000.0625,-400000.0625,-400000.0625,-400000.0625,-400000.0625
0.08393430709838867,-56.029998779296875,7789.330078125,19641.5390625,-400000.0625,-400000.0625,-400000.0625,-400000.0625,-400000.0625
0.0839378833770752,-40.20000076293945,7811.68994140625,19661.619140625,-400000.0625,-400000.0625,-400000.0625,-400000.0625,-400000.0625
0.08394122123718262,-27.079999923706055,7818.75,19667.439453125,-400000.0625,-400000.0625,-400000.0625,-400000.0625,-400000.0625
0.08394432067871094,-55.459999084472656,7781.89013671875,19631.05078125,-400000.0625,-400000.0625,-400000.0625,-400000.0625,-400000.0625
0.08394765853881836,-71.80999755859375,7757.7099609375,19609.259765625,-400000.0625,-400000.0625,-400000.0625,-400000.0625,-400000.0625
0.08395099639892578,-63.369998931884766,7770.58984375,19622.279296875,-400000.0625,-400000.0625,-400000.0625,-400000.0625,-400000.0625
0.0839543342590332,-45.4900016784668,7801.77001953125,19648.69921875,-400000.0625,-400000.0625,-400000.0625,-400000.0625,-400000.0625
0.08395743370056152,-42.630001068115234,7803.77001953125,19650.029296875,-400000.0625,-400000.0625,-400000.0625,-400000.0625,-400000.0625
0.08396053314208984,-59.70000076293945,7775.77978515625,19624.66015625,-400000.0625,-400000.0625,-400000.0625,-400000.0625,-400000.0625
0.08396363258361816,-61.369998931884766,7775.68994140625,19625.619140625,-400000.0625,-400000.0625,-400000.0625,-400000.0625,-400000.0625
0.08396673202514648,-55.27000045776367,7786.93994140625,19637.2109375,-400000.0625,-400000.0625,-400000.0625,-400000.0625,-400000.0625
0.08397293090820312,-44.81999969482422,7806.35009765625,19652.939453125,-400000.0625,-400000.0625,-400000.0625,-400000.0625,-400000.0625
0.1414637565612793,-48.83000183105469,7806.2099609375,19649.890625,-400000.0625,-400000.0625,-400000.0625,-400000.0625,-400000.0625
0.14153146743774414,-61.61000061035156,7787.7998046875,19634.19921875,-400000.0625,-400000.0625,-400000.0625,-400000.0625,-400000.0625
0.14153671264648438,-72.29000091552734,7768.35009765625,19620.66015625,-400000.0625,-400000.0625,-400000.0625,-400000.0625,-400000.0625
0.1415402889251709,-67.5199966430664,7776.60009765625,19631.009765625,-400000.0625,-400000.0625,-400000.0625,-400000.0625,-400000.0625
0.14154386520385742,-54.45000076293945,7796.18994140625,19645.259765625,-400000.0625,-400000.0625,-400000.0625,-400000.0625,-400000.0625
0.14565825462341309,-65.33000183105469,7791.52001953125,19639.400390625,-400000.0625,-400000.0625,-400000.0625,-400000.0625,-400000.0625
0.14567136764526367,-82.44999694824219,7767.580078125,19620.08984375,-400000.0625,-400000.0625,-400000.0625,-400000.0625,-400000.0625
0.1456761360168457,-80.16000366210938,7765.10009765625,19615.4609375,-400000.0625,-400000.0625,-400000.0625,-400000.0625,-400000.0625
0.14568066596984863,-61.79999923706055,7784.1298828125,19633.33984375,-400000.0625,-400000.0625,-400000.0625,-400000.0625,-400000.0625
0.14568448066711426,-45.349998474121094,7810.97998046875,19655.609375,-400000.0625,-400000.0625,-400000.0625,-400000.0625,-400000.0625
0.14568805694580078,-51.119998931884766,7812.7900390625,19652.369140625,-400000.0625,-400000.0625,-400000.0625,-400000.0625,-400000.0625
0.1456921100616455,-67.5199966430664,7783.31982421875,19629.05078125,-400000.0625,-400000.0625,-400000.0625,-400000.0625,-400000.0625
0.14569568634033203,-83.30000305175781,7758.14013671875,19611.0703125,-400000.0625,-400000.0625,-400000.0625,-400000.0625,-400000.0625
0.14570212364196777,-73.23999786376953,7765.009765625,19620.609375,-400000.0625,-400000.0625,-400000.0625,-400000.0625,-400000.0625
0.1457059383392334,-53.93000030517578,7790.60986328125,19643.9296875,-400000.0625,-400000.0625,-400000.0625,-400000.0625,-400000.0625
0.14571046829223633,-49.72999954223633,7801.9599609375,19648.69921875,-400000.0625,-400000.0625,-400000.0625,-400000.0625,-400000.0625
0.1938931941986084,-55.27000045776367,7793.9501953125,19642.830078125,-400000.0625,-400000.0625,-400000.0625,-400000.0625,-400000.0625
0.19407963752746582,-66.56999969482422,7774.8798828125,19626.810546875,-400000.0625,-400000.0625,-400000.0625,-400000.0625,-400000.0625
0.19409728050231934,-69.08999633789062,7774.259765625,19630.48046875,-400000.0625,-400000.0625,-400000.0625,-400000.0625,-400000.0625
0.1941070556640625,-65.66000366210938,7781.64990234375,19635.30078125,-400000.0625,-400000.0625,-400000.0625,-400000.0625,-400000.0625
0.19411516189575195,-61.849998474121094,7784.080078125,19632.33984375,-400000.0625,-400000.0625,-400000.0625,-400000.0625,-400000.0625
0.1941235065460205,-68.04000091552734,7772.58984375,19623.5703125,-400000.0625,-400000.0625,-400000.0625,-400000.0625,-400000.0625
0.19416594505310059,-77.05999755859375,7758.18994140625,19611.98046875,-400000.0625,-400000.0625,-400000.0625,-400000.0625,-400000.0625
0.19417524337768555,-70.05000305175781,7775.740234375,19626.91015625,-400000.0625,-400000.0625,-400000.0625,-400000.0625,-400000.0625
0.19417929649353027,-52.7400016784668,7796.77001953125,19645.359375,-400000.0625,-400000.0625,-400000.0625,-400000.0625,-400000.0625
0.1941835880279541,-53.40999984741211,7796.6201171875,19641.44921875,-400000.0625,-400000.0625,-400000.0625,-400000.0625,-400000.0625
0.19418716430664062,-71.33000183105469,7778.31005859375,19623.140625,-400000.0625,-400000.0625,-400000.0625,-400000.0625,-400000.0625
0.194197416305542,-78.87000274658203,7757.66015625,19610.83984375,-400000.0625,-400000.0625,-400000.0625,-400000.0625,-400000.0625
0.19420123100280762,-77.44000244140625,7749.22021484375,19618.3203125,-400000.0625,-400000.0625,-400000.0625,-400000.0625,-400000.0625
0.19420456886291504,-61.31999969482422,7764.33984375,19633.919921875,-400000.0625,-400000.0625,-400000.0625,-400000.0625,-400000.0625
0.19420814514160156,-44.38999938964844,7788.990234375,19644.0703125,-400000.0625,-400000.0625,-400000.0625,-400000.0625,-400000.0625
0.19421148300170898,-74.72000122070312,7764.2900390625,19624.380859375,-400000.0625,-400000.0625,-400000.0625,-400000.0625,-400000.0625
0.2565736770629883,-104.13999938964844,7721.6201171875,19597.9609375,-400000.0625,-400000.0625,-400000.0625,-400000.0625,-400000.0625
0.2589755058288574,-101.9000015258789,7725.240234375,19606.259765625,-400000.0625,-400000.0625,-400000.0625,-400000.0625,-400000.0625
0.2590017318725586,-109.4800033569336,7722.43017578125,19600.869140625,-400000.0625,-400000.0625,-400000.0625,-400000.0625,-400000.0625
0.25900721549987793,-115.81999969482422,7711.080078125,19602.6796875,-400000.0625,-400000.0625,-400000.0625,-400000.0625,-400000.0625
0.25901126861572266,-127.36000061035156,7689.3798828125,19581.369140625,-400000.0625,-400000.0625,-400000.0625,-400000.0625,-400000.0625
0.2590153217315674,-152.67999267578125,7654.72021484375,19560.9609375,-400000.0625,-400000.0625,-400000.0625,-400000.0625,-400000.0625
0.2590193748474121,-150.67999267578125,7658.91015625,19570.5390625,-400000.0625,-400000.0625,-400000.0625,-400000.0625,-400000.0625
0.25902318954467773,-133.75,7682.75,19590.51953125,-400000.0625,-400000.0625,-400000.0625,-400000.0625,-400000.0625
0.25902676582336426,-145.91000366210938,7674.41015625,19591.51953125,-400000.0625,-400000.0625,-400000.0625,-400000.0625,-400000.0625
0.2590360641479492,-159.60000610351562,7659.77001953125,19577.220703125,-400000.0625,-400000.0625,-400000.0625,-400000.0625,-400000.0625
0.25903987884521484,-168.27999877929688,7641.509765625,19568.16015625,-400000.0625,-400000.0625,-400000.0625,-400000.0625,-400000.0625
0.25904321670532227,-156.77999877929688,7663.8701171875,19592.33984375,-400000.0625,-400000.0625,-400000.0625,-400000.0625,-400000.0625
0.2590467929840088,-146.67999267578125,7683.1298828125,19605.16015625,-400000.0625,-400000.0625,-400000.0625,-400000.0625,-400000.0625
0.2590503692626953,-161.5500030517578,7667.16015625,19591.140625,-400000.0625,-400000.0625,-400000.0625,-400000.0625,-400000.0625
0.25905370712280273,-181.05999755859375,7636.97998046875,19565.390625,-400000.0625,-400000.0625,-400000.0625,-400000.0625,-400000.0625
0.25905728340148926,-182.33999633789062,7629.490234375,19564.009765625,-400000.0625,-400000.0625,-400000.0625,-400000.0625,-400000.0625
0.3227660655975342,-177.42999267578125,7638.02978515625,19574.55078125,-400000.0625,-400000.0625,-400000.0625,-400000.0625,-400000.0625
0.32961606979370117,-162.60000610351562,7659.10009765625,19591.140625,-400000.0625,-400000.0625,-400000.0625,-400000.0625,-400000.0625
0.33400392532348633,-158.60000610351562,7670.06982421875,19597.099609375,-400000.0625,-400000.0625,-400000.0625,-400000.0625,-400000.0625
0.3340120315551758,-166.55999755859375,7654.72021484375,19583.66015625,-400000.0625,-400000.0625,-400000.0625,-400000.0625,-400000.0625
0.3340167999267578,-175.08999633789062,7641.35986328125,19573.740234375,-400000.0625,-400000.0625,-400000.0625,-400000.0625,-400000.0625
0.33402085304260254,-165.41000366210938,7655.2900390625,19587.0390625,-400000.0625,-400000.0625,-400000.0625,-400000.0625,-400000.0625
0.33402490615844727,-149.11000061035156,7679.7001953125,19608.599609375,-400000.0625,-400000.0625,-400000.0625,-400000.0625,-400000.0625
0.3340315818786621,-157.2100067138672,7670.5498046875,19600.25,-400000.0625,-400000.0625,-400000.0625,-400000.0625,-400000.0625
0.33403563499450684,-173.85000610351562,7644.080078125,19577.55078125,-400000.0625,-400000.0625,-400000.0625,-400000.0625,-400000.0625
0.33403944969177246,-181.9600067138672,7633.02001953125,19567.73046875,-400000.0625,-400000.0625,-400000.0625,-400000.0625,-400000.0625
0.3340435028076172,-178.2899932861328,7643.3701171875,19579.69921875,-400000.0625,-400000.0625,-400000.0625,-400000.0625,-400000.0625
0.3340473175048828,-159.60000610351562,7667.10986328125,19599.30078125,-400000.0625,-400000.0625,-400000.0625,-400000.0625,-400000.0625
0.33405137062072754,-153.02000427246094,7673.8798828125,19606.16015625,-400000.0625,-400000.0625,-400000.0625,-400000.0625,-400000.0625
0.3340566158294678,-164.83999633789062,7656.14990234375,19591.0,-400000.0625,-400000.0625,-400000.0625,-400000.0625,-400000.0625
0.3340606689453125,-175.7100067138672,7641.31982421875,19577.169921875,-400000.0625,-400000.0625,-400000.0625,-400000.0625,-400000.0625
0.3340647220611572,-167.94000244140625,7652.18994140625,19585.900390625,-400000.0625,-400000.0625,-400000.0625,-400000.0625,-400000.0625
0.3715846538543701,-160.4600067138672,7664.490234375,19595.9609375,-400000.0625,-400000.0625,-400000.0625,-400000.0625,-400000.0625
0.3840830326080322,-168.0399932861328,7664.39990234375,19592.810546875,-400000.0625,-400000.0625,-400000.0625,-400000.0625,-400000.0625
0.3886890411376953,-189.5,7638.740234375,19572.55078125,-400000.0625,-400000.0625,-400000.0625,-400000.0625,-400000.0625
0.38869667053222656,-192.2100067138672,7627.06005859375,19568.16015625,-400000.0625,-400000.0625,-400000.0625,-400000.0625,-400000.0625
0.3887016773223877,-178.9600067138672,7637.5498046875,19580.1796875,-400000.0625,-400000.0625,-400000.0625,-400000.0625,-400000.0625
0.38870954513549805,-171.89999389648438,7649.56982421875,19588.08984375,-400000.0625,-400000.0625,-400000.0625,-400000.0625,-400000.0625
0.3887138366699219,-172.0,7646.75,19584.0390625,-400000.0625,-400000.0625,-400000.0625,-400000.0625,-400000.0625
0.3887176513671875,-182.44000244140625,7632.72998046875,19570.2109375,-400000.0625,-400000.0625,-400000.0625,-400000.0625,-400000.0625
0.38872194290161133,-188.02000427246094,7628.97021484375,19566.490234375,-400000.0625,-400000.0625,-400000.0625,-400000.0625,-400000.0625
0.38872599601745605,-180.10000610351562,7635.5,19578.130859375,-400000.0625,-400000.0625,-400000.0625,-400000.0625,-400000.0625
0.3887298107147217,-174.47000122070312,7647.47021484375,19584.609375,-400000.0625,-400000.0625,-400000.0625,-400000.0625,-400000.0625
0.3887338638305664,-174.08999633789062,7649.330078125,19582.560546875,-400000.0625,-400000.0625,-400000.0625,-400000.0625,-400000.0625
0.38873767852783203,-179.6199951171875,7633.72998046875,19570.5,-400000.0625,-400000.0625,-400000.0625,-400000.0625,-400000.0625
0.38874316215515137,-176.0500030517578,7630.02001953125,19569.779296875,-400000.0625,-400000.0625,-400000.0625,-400000.0625,-400000.0625
0.3887472152709961,-171.17999267578125,7635.31005859375,19574.220703125,-400000.0625,-400000.0625,-400000.0625,-400000.0625,-400000.0625
0.3887510299682617,-155.02000427246094,7656.77001953125,19593.0,-400000.0625,-400000.0625,-400000.0625,-400000.0625,-400000.0625
0.45598793029785156,-157.5500030517578,7660.52978515625,19592.48046875,-400000.0625,-400000.0625,-400000.0625,-400000.0625,-400000.0625
0.46161437034606934,-172.0,7635.8798828125,19571.01953125,-400000.0625,-400000.0625,-400000.0625,-400000.0625,-400000.0625
0.46627330780029297,-190.8300018310547,7596.97021484375,19546.650390625,-400000.0625,-400000.0625,-400000.0625,-400000.0625,-400000.0625
0.4662809371948242,-187.02000427246094,7597.4501953125,19550.369140625,-400000.0625,-400000.0625,-400000.0625,-400000.0625,-400000.0625
0.46628570556640625,-175.57000732421875,7640.740234375,19580.369140625,-400000.0625,-400000.0625,-400000.0625,-400000.0625,-400000.0625
0.466289758682251,-185.3000030517578,7656.77001953125,19589.859375,-400000.0625,-400000.0625,-400000.0625,-400000.0625,-400000.0625
0.4662942886352539,-196.60000610351562,7639.22021484375,19577.119140625,-400000.0625,-400000.0625,-400000.0625,-400000.0625,-400000.0625
0.46629858016967773,-203.47000122070312,7625.14990234375,19572.779296875,-400000.0625,-400000.0625,-400000.0625,-400000.0625,-400000.0625
0.46630239486694336,-207.0,7628.580078125,19578.509765625,-400000.0625,-400000.0625,-400000.0625,-400000.0625,-400000.0625
0.4663064479827881,-192.36000061035156,7651.759765625,19594.9609375,-400000.0625,-400000.0625,-400000.0625,-400000.0625,-400000.0625
0.4663102626800537,-191.5500030517578,7651.0400390625,19599.109375,-400000.0625,-400000.0625,-400000.0625,-400000.0625,-400000.0625
0.46631431579589844,-215.52999877929688,7620.3798828125,19576.359375,-400000.0625,-400000.0625,-400000.0625,-400000.0625,-400000.0625
0.46631836891174316,-228.69000244140625,7603.60009765625,19564.490234375,-400000.0625,-400000.0625,-400000.0625,-400000.0625,-400000.0625
0.4663228988647461,-224.8300018310547,7613.419921875,19571.970703125,-400000.0625,-400000.0625,-400000.0625,-400000.0625,-400000.0625
0.4663269519805908,-209.0500030517578,7640.93017578125,19597.9609375,-400000.0625,-400000.0625,-400000.0625,-400000.0625,-400000.0625
0.46633076667785645,-207.85000610351562,7642.4599609375,19598.869140625,-400000.0625,-400000.0625,-400000.0625,-400000.0625,-400000.0625
0.5041599273681641,-221.58999633789062,7628.580078125,19585.900390625,-400000.0625,-400000.0625,-400000.0625,-400000.0625,-400000.0625
0.515427827835083,-222.8699951171875,7615.3798828125,19578.98046875,-400000.0625,-400000.0625,-400000.0625,-400000.0625,-400000.0625
0.5197153091430664,-212.0,7627.2998046875,19590.05078125,-400000.0625,-400000.0625,-400000.0625,-400000.0625,-400000.0625
0.5197238922119141,-203.94000244140625,7647.27978515625,19603.869140625,-400000.0625,-400000.0625,-400000.0625,-400000.0625,-400000.0625
0.5197291374206543,-209.0500030517578,7644.419921875,19600.490234375,-400000.0625,-400000.0625,-400000.0625,-400000.0625,-400000.0625
0.519733190536499,-222.8300018310547,7621.10009765625,19584.419921875,-400000.0625,-400000.0625,-400000.0625,-400000.0625,-400000.0625
0.5197372436523438,-222.49000549316406,7612.56005859375,19577.55078125,-400000.0625,-400000.0625,-400000.0625,-400000.0625,-400000.0625
0.5197410583496094,-210.86000061035156,7633.58984375,19597.439453125,-400000.0625,-400000.0625,-400000.0625,-400000.0625,-400000.0625
0.519744873046875,-198.0800018310547,7652.89990234375,19610.7890625,-400000.0625,-400000.0625,-400000.0625,-400000.0625,-400000.0625
0.5197486877441406,-195.64999389648438,7652.18994140625,19608.01953125,-400000.0625,-400000.0625,-400000.0625,-400000.0625,-400000.0625
0.5197527408599854,-211.57000732421875,7623.0498046875,19582.1796875,-400000.0625,-400000.0625,-400000.0625,-400000.0625,-400000.0625
0.519756555557251,-224.77999877929688,7609.990234375,19571.58984375,-400000.0625,-400000.0625,-400000.0625,-400000.0625,-400000.0625
0.5197603702545166,-221.44000244140625,7624.25,19584.609375,-400000.0625,-400000.0625,-400000.0625,-400000.0625,-400000.0625
0.5197641849517822,-207.3300018310547,7641.83984375,19596.76953125,-400000.0625,-400000.0625,-400000.0625,-400000.0625,-400000.0625
0.5197691917419434,-202.22999572753906,7642.509765625,19593.150390625,-400000.0625,-400000.0625,-400000.0625,-400000.0625,-400000.0625
0.5197763442993164,-210.3300018310547,7627.39013671875,19584.75,-400000.0625,-400000.0625,-400000.0625,-400000.0625,-400000.0625
0.5731401443481445,-218.5800018310547,7622.43017578125,19580.599609375,-400000.0625,-400000.0625,-400000.0625,-400000.0625,-400000.0625
0.5785720348358154,-200.1300048828125,7640.7900390625,19596.2890625,-400000.0625,-400000.0625,-400000.0625,-400000.0625,-400000.0625
0.5841317176818848,-174.9499969482422,7667.4501953125,19620.75,-400000.0625,-400000.0625,-400000.0625,-400000.0625,-400000.0625
0.589449405670166,-181.77000427246094,7665.35009765625,19612.740234375,-400000.0625,-400000.0625,-400000.0625,-400000.0625,-400000.0625
0.5955080986022949,-209.86000061035156,7622.0,19572.55078125,-400000.0625,-400000.0625,-400000.0625,-400000.0625,-400000.0625
0.6070442199707031,-220.8699951171875,7607.990234375,19564.439453125,-400000.0625,-400000.0625,-400000.0625,-400000.0625,-400000.0625
0.619929313659668,-208.57000732421875,7630.72998046875,19585.279296875,-400000.0625,-400000.0625,-400000.0625,-400000.0625,-400000.0625
0.6253328323364258,-187.97000122070312,7658.85986328125,19606.0703125,-400000.0625,-400000.0625,-400000.0625,-400000.0625,-400000.0625
0.6300678253173828,-199.50999450683594,7648.3701171875,19597.099609375,-400000.0625,-400000.0625,-400000.0625,-400000.0625,-400000.0625
0.6300783157348633,-216.44000244140625,7625.2900390625,19580.890625,-400000.0625,-400000.0625,-400000.0625,-400000.0625,-400000.0625
0.6300830841064453,-216.10000610351562,7622.85986328125,19579.83984375,-400000.0625,-400000.0625,-400000.0625,-400000.0625,-400000.0625
0.63008713722229,-201.61000061035156,7642.75,19597.390625,-400000.0625,-400000.0625,-400000.0625,-400000.0625,-400000.0625
0.6300959587097168,-180.00999450683594,7668.06982421875,19618.470703125,-400000.0625,-400000.0625,-400000.0625,-400000.0625,-400000.0625
0.6301002502441406,-188.35000610351562,7661.39013671875,19612.26953125,-400000.0625,-400000.0625,-400000.0625,-400000.0625,-400000.0625
0.6301040649414062,-215.14999389648438,7626.43994140625,19583.130859375,-400000.0625,-400000.0625,-400000.0625,-400000.0625,-400000.0625
0.6301078796386719,-230.5,7597.39990234375,19560.48046875,-400000.0625,-400000.0625,-400000.0625,-400000.0625,-400000.0625
0.6301116943359375,-227.8800048828125,7600.35986328125,19568.400390625,-400000.0625,-400000.0625,-400000.0625,-400000.0625,-400000.0625
0.6301155090332031,-210.7100067138672,7653.240234375,19615.080078125,-400000.0625,-400000.0625,-400000.0625,-400000.0625,-400000.0625
0.6301193237304688,-215.14999389648438,7667.919921875,19625.859375,-400000.0625,-400000.0625,-400000.0625,-400000.0625,-400000.0625
0.6301231384277344,-237.0800018310547,7656.47998046875,19614.3203125,-400000.0625,-400000.0625,-400000.0625,-400000.0625,-400000.0625
0.630126953125,-254.49000549316406,7659.0498046875,19619.369140625,-400000.0625,-400000.0625,-400000.0625,-400000.0625,-400000.0625
0.6301326751708984,-251.14999389648438,7682.47021484375,19653.939453125,-400000.0625,-400000.0625,-400000.0625,-400000.0625,-400000.0625
0.6301364898681641,-243.3300018310547,7735.43994140625,19701.2890625,-400000.0625,-400000.0625,-400000.0625,-400000.0625,-400000.0625
0.6301400661468506,-269.0299987792969,7734.58984375,19702.869140625,-400000.0625,-400000.0625,-400000.0625,-400000.0625,-400000.0625
0.6301438808441162,-298.6000061035156,7713.4599609375,19694.0390625,-400000.0625,-400000.0625,-400000.0625,-400000.0625,-400000.0625
0.6301479339599609,-321.25,7716.93994140625,19702.720703125,-400000.0625,-400000.0625,-400000.0625,-400000.0625,-400000.0625
0.630152702331543,-327.29998779296875,7724.330078125,19714.5,-400000.0625,-400000.0625,-400000.0625,-400000.0625,-400000.0625
0.6301567554473877,-315.1400146484375,7739.97021484375,19741.58984375,-400000.0625,-400000.0625,-400000.0625,-400000.0625,-400000.0625
0.6301603317260742,-316.9100036621094,7754.990234375,19755.509765625,-400000.0625,-400000.0625,-400000.0625,-400000.0625,-400000.0625
0.630164384841919,-332.07000732421875,7735.919921875,19740.390625,-400000.0625,-400000.0625,-400000.0625,-400000.0625,-400000.0625
0.6301686763763428,-338.2200012207031,7725.81005859375,19734.529296875,-400000.0625,-400000.0625,-400000.0625,-400000.0625,-400000.0625
0.6301722526550293,-333.260009765625,7735.2099609375,19744.2109375,-400000.0625,-400000.0625,-400000.0625,-400000.0625,-400000.0625
0.6906073093414307,-316.5199890136719,7758.18994140625,19764.5703125,-400000.0625,-400000.0625,-400000.0625,-400000.0625,-400000.0625
0.6959376335144043,-316.7200012207031,7761.18994140625,19763.470703125,-400000.0625,-400000.0625,-400000.0625,-400000.0625,-400000.0625
0.7081389427185059,-337.30999755859375,7736.830078125,19743.73046875,-400000.0625,-400000.0625,-400000.0625,-400000.0625,-400000.0625
0.7174155712127686,-351.7200012207031,7719.08984375,19731.51953125,-400000.0625,-400000.0625,-400000.0625,-400000.0625,-400000.0625
0.7226157188415527,-328.9700012207031,7744.27001953125,19754.169921875,-400000.0625,-400000.0625,-400000.0625,-400000.0625,-400000.0625
0.7273662090301514,-302.6499938964844,7779.83984375,19785.880859375,-400000.0625,-400000.0625,-400000.0625,-400000.0625,-400000.0625
0.7273757457733154,-319.9100036621094,7763.14990234375,19766.330078125,-400000.0625,-400000.0625,-400000.0625,-400000.0625,-400000.0625
0.7273805141448975,-344.3699951171875,7723.14013671875,19733.619140625,-400000.0625,-400000.0625,-400000.0625,-400000.0625,-400000.0625
0.7273859977722168,-347.4700012207031,7709.5498046875,19726.94921875,-400000.0625,-400000.0625,-400000.0625,-400000.0625,-400000.0625
0.7273900508880615,-331.0199890136719,7730.9599609375,19744.109375,-400000.0625,-400000.0625,-400000.0625,-400000.0625,-400000.0625
0.7273938655853271,-315.4800109863281,7755.419921875,19765.279296875,-400000.0625,-400000.0625,-400000.0625,-400000.0625,-400000.0625
0.7273979187011719,-318.1499938964844,7757.27978515625,19760.849609375,-400000.0625,-400000.0625,-400000.0625,-400000.0625,-400000.0625
0.7274017333984375,-332.0199890136719,7733.10986328125,19741.73046875,-400000.0625,-400000.0625,-400000.0625,-400000.0625,-400000.0625
0.7274062633514404,-336.4100036621094,7720.89990234375,19735.2890625,-400000.0625,-400000.0625,-400000.0625,-400000.0625,-400000.0625
0.727409839630127,-321.2900085449219,7739.5,19753.650390625,-400000.0625,-400000.0625,-400000.0625,-400000.0625,-400000.0625
0.7274136543273926,-309.4200134277344,7769.39013671875,19777.439453125,-400000.0625,-400000.0625,-400000.0625,-400000.0625,-400000.0625
0.799055814743042,-322.1000061035156,7758.7099609375,19763.23046875,-400000.0625,-400000.0625,-400000.0625,-400000.0625,-400000.0625
0.810478925704956,-346.0899963378906,7720.85009765625,19730.240234375,-400000.0625,-400000.0625,-400000.0625,-400000.0625,-400000.0625
0.8192188739776611,-353.3800048828125,7700.5400390625,19717.4609375,-400000.0625,-400000.0625,-400000.0625,-400000.0625,-400000.0625
0.823643684387207,-334.1700134277344,7716.7001953125,19737.25,-400000.0625,-400000.0625,-400000.0625,-400000.0625,-400000.0625
0.8236532211303711,-310.79998779296875,7756.89990234375,19769.240234375,-400000.0625,-400000.0625,-400000.0625,-400000.0625,-400000.0625
0.823662281036377,-307.2699890136719,7764.77001953125,19771.33984375,-400000.0625,-400000.0625,-400000.0625,-400000.0625,-400000.0625
0.8236680030822754,-319.6700134277344,7745.41015625,19754.26953125,-400000.0625,-400000.0625,-400000.0625,-400000.0625,-400000.0625
0.8236720561981201,-330.07000732421875,7725.81005859375,19738.19921875,-400000.0625,-400000.0625,-400000.0625,-400000.0625,-400000.0625
0.8236761093139648,-322.67999267578125,7737.16015625,19748.640625,-400000.0625,-400000.0625,-400000.0625,-400000.0625,-400000.0625
0.8236799240112305,-310.989990234375,7761.14990234375,19766.08984375,-400000.0625,-400000.0625,-400000.0625,-400000.0625,-400000.0625
0.8236837387084961,-317.760009765625,7752.7998046875,19757.080078125,-400000.0625,-400000.0625,-400000.0625,-400000.0625,-400000.0625
0.8236877918243408,-343.6600036621094,7715.89013671875,19729.140625,-400000.0625,-400000.0625,-400000.0625,-400000.0625,-400000.0625
0.8236916065216064,-347.4200134277344,7705.77978515625,19721.419921875,-400000.0625,-400000.0625,-400000.0625,-400000.0625,-400000.0625
0.8236958980560303,-317.3800048828125,7737.2998046875,19749.689453125,-400000.0625,-400000.0625,-400000.0625,-400000.0625,-400000.0625
0.8236997127532959,-298.92999267578125,7765.91015625,19774.19921875,-400000.0625,-400000.0625,-400000.0625,-400000.0625,-400000.0625
0.8237035274505615,-303.75,7759.52001953125,19767.099609375,-400000.0625,-400000.0625,-400000.0625,-400000.0625,-400000.0625
0.8278584480285645,-325.44000244140625,7729.669921875,19740.109375,-400000.0625,-400000.0625,-400000.0625,-400000.0625,-400000.0625
0.8333184719085693,-338.1300048828125,7710.83984375,19724.279296875,-400000.0625,-400000.0625,-400000.0625,-400000.0625,-400000.0625
0.837693452835083,-328.3999938964844,7725.91015625,19739.8203125,-400000.0625,-400000.0625,-400000.0625,-400000.0625,-400000.0625
0.8377008438110352,-315.04998779296875,7752.08984375,19761.140625,-400000.0625,-400000.0625,-400000.0625,-400000.0625,-400000.0625
0.8377127647399902,-312.6600036621094,7751.419921875,19757.3203125,-400000.0625,-400000.0625,-400000.0625,-400000.0625,-400000.0625
0.8377170562744141,-326.67999267578125,7726.6201171875,19737.25,-400000.0625,-400000.0625,-400000.0625,-400000.0625,-400000.0625
0.8377213478088379,-338.9800109863281,7705.830078125,19721.130859375,-400000.0625,-400000.0625,-400000.0625,-400000.0625,-400000.0625
0.8377254009246826,-318.19000244140625,7729.0498046875,19740.869140625,-400000.0625,-400000.0625,-400000.0625,-400000.0625,-400000.0625
0.8377289772033691,-300.54998779296875,7764.25,19768.529296875,-400000.0625,-400000.0625,-400000.0625,-400000.0625,-400000.0625
0.8377339839935303,-307.8900146484375,7761.56982421875,19761.900390625,-400000.0625,-400000.0625,-400000.0625,-400000.0625,-400000.0625
0.8377375602722168,-330.9700012207031,7724.56982421875,19730.51953125,-400000.0625,-400000.0625,-400000.0625,-400000.0625,-400000.0625
0.8377416133880615,-337.9800109863281,7706.4501953125,19720.080078125,-400000.0625,-400000.0625,-400000.0625,-400000.0625,-400000.0625
0.8377454280853271,-321.3900146484375,7731.6298828125,19740.349609375,-400000.0625,-400000.0625,-400000.0625,-400000.0625,-400000.0625
0.8377492427825928,-290.25,7772.68994140625,19772.9609375,-400000.0625,-400000.0625,-400000.0625,-400000.0625,-400000.0625
0.8377537727355957,-296.9700012207031,7764.85986328125,19764.810546875,-400000.0625,-400000.0625,-400000.0625,-400000.0625,-400000.0625
0.8377578258514404,-328.9200134277344,7722.43017578125,19730.7109375,-400000.0625,-400000.0625,-400000.0625,-400000.0625,-400000.0625
0.8839623928070068,-342.70001220703125,7704.64013671875,19717.599609375,-400000.0625,-400000.0625,-400000.0625,-400000.0625,-400000.0625
0.888972282409668,-322.7699890136719,7725.43017578125,19736.150390625,-400000.0625,-400000.0625,-400000.0625,-400000.0625,-400000.0625
0.8967182636260986,-294.07000732421875,7761.18994140625,19765.669921875,-400000.0625,-400000.0625,-400000.0625,-400000.0625,-400000.0625
0.9079704284667969,-298.1199951171875,7766.52978515625,19769.810546875,-400000.0625,-400000.0625,-400000.0625,-400000.0625,-400000.0625
0.9130282402038574,-309.0899963378906,7735.2099609375,19747.740234375,-400000.0625,-400000.0625,-400000.0625,-400000.0625,-400000.0625
0.9217748641967773,-325.82000732421875,7721.08984375,19734.810546875,-400000.0625,-400000.0625,-400000.0625,-400000.0625,-400000.0625
0.9266867637634277,-330.30999755859375,7740.64013671875,19750.359375,-400000.0625,-400000.0625,-400000.0625,-400000.0625,-400000.0625
0.9266958236694336,-311.0400085449219,7776.64013671875,19783.7890625,-400000.0625,-400000.0625,-400000.0625,-400000.0625,-400000.0625
0.9267008304595947,-309.75,7792.89990234375,19796.900390625,-400000.0625,-400000.0625,-400000.0625,-400000.0625,-400000.0625
0.9267051219940186,-345.79998779296875,7757.9501953125,19768.529296875,-400000.0625,-400000.0625,-400000.0625,-400000.0625,-400000.0625
0.9267089366912842,-366.7799987792969,7737.02001953125,19760.0390625,-400000.0625,-400000.0625,-400000.0625,-400000.0625,-400000.0625
0.9267127513885498,-351.6199951171875,7763.2900390625,19788.509765625,-400000.0625,-400000.0625,-400000.0625,-400000.0625,-400000.0625
0.9267165660858154,-323.489990234375,7797.18994140625,19819.830078125,-400000.0625,-400000.0625,-400000.0625,-400000.0625,-400000.0625
0.926720142364502,-326.20001220703125,7803.97021484375,19828.4609375,-400000.0625,-400000.0625,-400000.0625,-400000.0625,-400000.0625
0.9267246723175049,-351.3299865722656,7772.4501953125,19799.5703125,-400000.0625,-400000.0625,-400000.0625,-400000.0625,-400000.0625
0.9267284870147705,-366.3999938964844,7748.56005859375,19780.2109375,-400000.0625,-400000.0625,-400000.0625,-400000.0625,-400000.0625
0.952704906463623,-355.20001220703125,7763.43017578125,19798.419921875,-400000.0625,-400000.0625,-400000.0625,-400000.0625,-400000.0625
0.9587438106536865,-331.6400146484375,7794.6201171875,19830.990234375,-400000.0625,-400000.0625,-400000.0625,-400000.0625,-400000.0625
0.963336706161499,-336.2699890136719,7792.66015625,19827.890625,-400000.0625,-400000.0625,-400000.0625,-400000.0625,-400000.0625
0.9633462429046631,-360.7300109863281,7755.47021484375,19798.66015625,-400000.0625,-400000.0625,-400000.0625,-400000.0625,-400000.0625
0.9633517265319824,-357.20001220703125,7726.9599609375,19792.080078125,-400000.0625,-400000.0625,-400000.0625,-400000.0625,-400000.0625
0.9633560180664062,-340.4599914550781,7739.58984375,19818.359375,-400000.0625,-400000.0625,-400000.0625,-400000.0625,-400000.0625
0.963360071182251,-329.2099914550781,7766.06005859375,19849.830078125,-400000.0625,-400000.0625,-400000.0625,-400000.0625,-400000.0625
0.9633643627166748,-322.5299987792969,7759.669921875,19846.30078125,-400000.0625,-400000.0625,-400000.0625,-400000.0625,-400000.0625
0.9633753299713135,-353.7699890136719,7707.5498046875,19810.25,-400000.0625,-400000.0625,-400000.0625,-400000.0625,-400000.0625
0.9633803367614746,-383.95001220703125,7706.31005859375,19774.73046875,-400000.0625,-400000.0625,-400000.0625,-400000.0625,-400000.0625
0.9633843898773193,-359.6300048828125,7698.2001953125,19794.08984375,-400000.0625,-400000.0625,-400000.0625,-400000.0625,-400000.0625
0.9633884429931641,-295.7300109863281,7717.0400390625,19836.380859375,-400000.0625,-400000.0625,-400000.0625,-400000.0625,-400000.0625
0.9633922576904297,-256.489990234375,7690.81005859375,19848.640625,-400000.0625,-400000.0625,-400000.0625,-400000.0625,-400000.0625
0.9633963108062744,-272.2300109863281,7640.080078125,19799.0,-400000.0625,-400000.0625,-400000.0625,-400000.0625,-400000.0625
0.9634013175964355,-269.75,7581.66015625,19761.419921875,-400000.0625,-400000.0625,-400000.0625,-400000.0625,-400000.0625
0.9634063243865967,-224.16000366210938,7560.43994140625,19768.380859375,-400000.0625,-400000.0625,-400000.0625,-400000.0625,-400000.0625
1.010404348373413,-170.17999267578125,7572.22021484375,19795.849609375,-400000.0625,-400000.0625,-400000.0625,-400000.0625,-400000.0625
1.0157420635223389,-154.2100067138672,7548.2900390625,19787.169921875,-400000.0625,-400000.0625,-400000.0625,-400000.0625,-400000.0625
1.024892807006836,-183.38999938964844,7478.2900390625,19738.9609375,-400000.0625,-400000.0625,-400000.0625,-400000.0625,-400000.0625
1.0293869972229004,-198.6999969482422,7427.5,19711.310546875,-400000.0625,-400000.0625,-400000.0625,-400000.0625,-400000.0625
1.0293958187103271,-182.00999450683594,7439.14013671875,19729.51953125,-400000.0625,-400000.0625,-400000.0625,-400000.0625,-400000.0625
1.0294005870819092,-165.1300048828125,7468.83984375,19755.890625,-400000.0625,-400000.0625,-400000.0625,-400000.0625,-400000.0625
1.029404640197754,-195.02999877929688,7455.919921875,19742.779296875,-400000.0625,-400000.0625,-400000.0625,-400000.0625,-400000.0625
1.0294084548950195,-233.88999938964844,7416.14990234375,19704.869140625,-400000.0625,-400000.0625,-400000.0625,-400000.0625,-400000.0625
1.0294122695922852,-250.72000122070312,7411.2900390625,19703.919921875,-400000.0625,-400000.0625,-400000.0625,-400000.0625,-400000.0625
1.0294160842895508,-256.67999267578125,7435.27978515625,19716.650390625,-400000.0625,-400000.0625,-400000.0625,-400000.0625,-400000.0625
1.0294198989868164,-249.6699981689453,7485.68017578125,19746.2109375,-400000.0625,-400000.0625,-400000.0625,-400000.0625,-400000.0625
1.0294239521026611,-261.3999938964844,7502.60009765625,19749.259765625,-400000.0625,-400000.0625,-400000.0625,-400000.0625,-400000.0625
1.0294280052185059,-292.3500061035156,7480.52978515625,19719.599609375,-400000.0625,-400000.0625,-400000.0625,-400000.0625,-400000.0625
1.0294318199157715,-305.1300048828125,7481.240234375,19713.400390625,-400000.0625,-400000.0625,-400000.0625,-400000.0625,-400000.0625
1.0294384956359863,-291.8699951171875,7523.97021484375,19739.76953125,-400000.0625,-400000.0625,-400000.0625,-400000.0625,-400000.0625
1.029442310333252,-273.0799865722656,7571.83984375,19765.330078125,-400000.0625,-400000.0625,-400000.0625,-400000.0625,-400000.0625
1.0797431468963623,-277.0899963378906,7585.10009765625,19763.330078125,-400000.0625,-400000.0625,-400000.0625,-400000.0625,-400000.0625
1.085273265838623,-300.3599853515625,7564.830078125,19737.009765625,-400000.0625,-400000.0625,-400000.0625,-400000.0625,-400000.0625
1.089658498764038,-306.0799865722656,7562.10986328125,19734.2890625,-400000.0625,-400000.0625,-400000.0625,-400000.0625,-400000.0625
1.089667797088623,-293.5899963378906,7596.77978515625,19752.650390625,-400000.0625,-400000.0625,-400000.0625,-400000.0625,-400000.0625
1.089672565460205,-274.3699951171875,7630.97021484375,19769.189453125,-400000.0625,-400000.0625,-400000.0625,-400000.0625,-400000.0625
1.0896766185760498,-284.3900146484375,7634.39990234375,19764.619140625,-400000.0625,-400000.0625,-400000.0625,-400000.0625,-400000.0625
1.0896806716918945,-307.6099853515625,7613.60986328125,19741.779296875,-400000.0625,-400000.0625,-400000.0625,-400000.0625,-400000.0625
1.0896844863891602,-309.32000732421875,7604.740234375,19731.4296875,-400000.0625,-400000.0625,-400000.0625,-400000.0625,-400000.0625
1.0896883010864258,-289.9200134277344,7640.7900390625,19760.990234375,-400000.0625,-400000.0625,-400000.0625,-400000.0625,-400000.0625
1.0896921157836914,-266.6499938964844,7680.85009765625,19790.130859375,-400000.0625,-400000.0625,-400000.0625,-400000.0625,-400000.0625
1.0896961688995361,-268.9800109863281,7679.419921875,19782.349609375,-400000.0625,-400000.0625,-400000.0625,-400000.0625,-400000.0625
1.089704990386963,-299.5,7651.85009765625,19754.75,-400000.0625,-400000.0625,-400000.0625,-400000.0625,-400000.0625
1.0897090435028076,-313.2300109863281,7641.97998046875,19744.400390625,-400000.0625,-400000.0625,-400000.0625,-400000.0625,-400000.0625
1.0897138118743896,-292.1600036621094,7670.39990234375,19767.94921875,-400000.0625,-400000.0625,-400000.0625,-400000.0625,-400000.0625
1.0897176265716553,-265.6499938964844,7707.41015625,19795.279296875,-400000.0625,-400000.0625,-400000.0625,-400000.0625,-400000.0625
1.0897216796875,-266.1700134277344,7715.18017578125,19796.51953125,-400000.0625,-400000.0625,-400000.0625,-400000.0625,-400000.0625
1.178917407989502,-284.3399963378906,7689.91015625,19770.9609375,-400000.0625,-400000.0625,-400000.0625,-400000.0625,-400000.0625
1.1897218227386475,-300.1700134277344,7669.35009765625,19753.4609375,-400000.0625,-400000.0625,-400000.0625,-400000.0625,-400000.0625
1.1948018074035645,-289.82000732421875,7690.85986328125,19772.6796875,-400000.0625,-400000.0625,-400000.0625,-400000.0625,-400000.0625
1.1990716457366943,-263.1199951171875,7730.9599609375,19799.94921875,-400000.0625,-400000.0625,-400000.0625,-400000.0625,-400000.0625
1.1990797519683838,-267.0299987792969,7730.2001953125,19797.0390625,-400000.0625,-400000.0625,-400000.0625,-400000.0625,-400000.0625
1.199084758758545,-287.6300048828125,7701.830078125,19770.91015625,-400000.0625,-400000.0625,-400000.0625,-400000.0625,-400000.0625
1.1990885734558105,-299.07000732421875,7684.47021484375,19756.939453125,-400000.0625,-400000.0625,-400000.0625,-400000.0625,-400000.0625
1.1990926265716553,-285.6700134277344,7707.02001953125,19773.869140625,-400000.0625,-400000.0625,-400000.0625,-400000.0625,-400000.0625
1.199096441268921,-265.6499938964844,7740.39990234375,19797.51953125,-400000.0625,-400000.0625,-400000.0625,-400000.0625,-400000.0625
1.1991040706634521,-268.54998779296875,7738.8798828125,19795.1796875,-400000.0625,-400000.0625,-400000.0625,-400000.0625,-400000.0625
1.1991081237792969,-292.9700012207031,7707.64013671875,19768.91015625,-400000.0625,-400000.0625,-400000.0625,-400000.0625,-400000.0625
1.1991121768951416,-303.4599914550781,7690.33984375,19755.890625,-400000.0625,-400000.0625,-400000.0625,-400000.0625,-400000.0625
1.1991157531738281,-289.5799865722656,7713.02978515625,19777.25,-400000.0625,-400000.0625,-400000.0625,-400000.0625,-400000.0625
1.1991195678710938,-270.79998779296875,7745.41015625,19801.669921875,-400000.0625,-400000.0625,-400000.0625,-400000.0625,-400000.0625
1.1991238594055176,-273.6099853515625,7748.41015625,19801.51953125,-400000.0625,-400000.0625,-400000.0625,-400000.0625,-400000.0625
1.1991288661956787,-292.6300048828125,7715.419921875,19773.6796875,-400000.0625,-400000.0625,-400000.0625,-400000.0625,-400000.0625
1.2120535373687744,-303.7900085449219,7699.06005859375,19757.990234375,-400000.0625,-400000.0625,-400000.0625,-400000.0625,-400000.0625
1.217754602432251,-280.760009765625,7727.10009765625,19783.7890625,-400000.0625,-400000.0625,-400000.0625,-400000.0625,-400000.0625
1.222355842590332,-261.9700012207031,7761.18994140625,19813.970703125,-400000.0625,-400000.0625,-400000.0625,-400000.0625,-400000.0625
1.222365140914917,-271.2699890136719,7752.47021484375,19803.91015625,-400000.0625,-400000.0625,-400000.0625,-400000.0625,-400000.0625
1.222369909286499,-289.9200134277344,7724.240234375,19777.25,-400000.0625,-400000.0625,-400000.0625,-400000.0625,-400000.0625
1.222374439239502,-294.7300109863281,7709.7900390625,19769.48046875,-400000.0625,-400000.0625,-400000.0625,-400000.0625,-400000.0625
1.2223784923553467,-280.239990234375,7725.85986328125,19785.83984375,-400000.0625,-400000.0625,-400000.0625,-400000.0625,-400000.0625
1.2223875522613525,-267.0299987792969,7756.7099609375,19809.060546875,-400000.0625,-400000.0625,-400000.0625,-400000.0625,-400000.0625
1.2223918437957764,-283.5799865722656,7743.35986328125,19792.26953125,-400000.0625,-400000.0625,-400000.0625,-400000.0625,-400000.0625
1.222395896911621,-307.94000244140625,7709.31005859375,19766.08984375,-400000.0625,-400000.0625,-400000.0625,-400000.0625,-400000.0625
1.2223999500274658,-305.3699951171875,7702.2099609375,19764.470703125,-400000.0625,-400000.0625,-400000.0625,-400000.0625,-400000.0625
1.2224037647247314,-294.29998779296875,7718.60986328125,19779.44921875,-400000.0625,-400000.0625,-400000.0625,-400000.0625,-400000.0625
1.222407579421997,-281.760009765625,7740.06982421875,19798.140625,-400000.0625,-400000.0625,-400000.0625,-400000.0625,-400000.0625
1.2224116325378418,-271.6099853515625,7727.52978515625,19781.259765625,-400000.0625,-400000.0625,-400000.0625,-400000.0625,-400000.0625
1.2224154472351074,-275.7099914550781,7698.35009765625,19744.919921875,-400000.0625,-400000.0625,-400000.0625,-400000.0625,-400000.0625
1.2224195003509521,-275.4700012207031,7680.18017578125,19724.0390625,-400000.0625,-400000.0625,-400000.0625,-400000.0625,-400000.0625
1.2721192836761475,-245.89999389648438,7696.6298828125,19732.0,-400000.0625,-400000.0625,-400000.0625,-400000.0625,-400000.0625
1.2799263000488281,-208.08999633789062,7728.14990234375,19743.73046875,-400000.0625,-400000.0625,-400000.0625,-400000.0625,-400000.0625
1.2892625331878662,-203.27999877929688,7717.60986328125,19713.5,-400000.0625,-400000.0625,-400000.0625,-400000.0625,-400000.0625
1.2940852642059326,-226.1199951171875,7666.2998046875,19651.83984375,-400000.0625,-400000.0625,-400000.0625,-400000.0625,-400000.0625
1.2940948009490967,-222.9199981689453,7644.7998046875,19620.80078125,-400000.0625,-400000.0625,-400000.0625,-400000.0625,-400000.0625
1.2941009998321533,-185.3000030517578,7665.68017578125,19628.669921875,-400000.0625,-400000.0625,-400000.0625,-400000.0625,-400000.0625
1.2941129207611084,-159.41000366210938,7684.7998046875,19636.349609375,-400000.0625,-400000.0625,-400000.0625,-400000.0625,-400000.0625
1.2941169738769531,-156.8300018310547,7671.35986328125,19614.130859375,-400000.0625,-400000.0625,-400000.0625,-400000.0625,-400000.0625
1.2941210269927979,-170.3699951171875,7639.93017578125,19579.83984375,-400000.0625,-400000.0625,-400000.0625,-400000.0625,-400000.0625
1.2941250801086426,-177.24000549316406,7620.0,19560.76953125,-400000.0625,-400000.0625,-400000.0625,-400000.0625,-400000.0625
1.294128656387329,-156.39999389648438,7644.02978515625,19579.3203125,-400000.0625,-400000.0625,-400000.0625,-400000.0625,-400000.0625
1.2941324710845947,-133.55999755859375,7675.35986328125,19601.060546875,-400000.0625,-400000.0625,-400000.0625,-400000.0625,-400000.0625
1.2941362857818604,-138.6199951171875,7673.35986328125,19598.19921875,-400000.0625,-400000.0625,-400000.0625,-400000.0625,-400000.0625
1.294140100479126,-157.30999755859375,7646.27978515625,19575.650390625,-400000.0625,-400000.0625,-400000.0625,-400000.0625,-400000.0625
1.2941436767578125,-169.3699951171875,7632.919921875,19564.6796875,-400000.0625,-400000.0625,-400000.0625,-400000.0625,-400000.0625
1.2941474914550781,-162.64999389648438,7643.3701171875,19574.689453125,-400000.0625,-400000.0625,-400000.0625,-400000.0625,-400000.0625
1.3317959308624268,-144.33999633789062,7668.77978515625,19594.48046875,-400000.0625,-400000.0625,-400000.0625,-400000.0625,-400000.0625
1.337329387664795,-141.9499969482422,7676.93994140625,19600.16015625,-400000.0625,-400000.0625,-400000.0625,-400000.0625,-400000.0625
1.3422391414642334,-159.4499969482422,7655.10009765625,19580.69921875,-400000.0625,-400000.0625,-400000.0625,-400000.0625,-400000.0625
1.3422496318817139,-180.33999633789062,7628.97021484375,19559.580078125,-400000.0625,-400000.0625,-400000.0625,-400000.0625,-400000.0625
1.342254400253296,-174.7100067138672,7633.5,19564.73046875,-400000.0625,-400000.0625,-400000.0625,-400000.0625,-400000.0625
1.3422589302062988,-150.97000122070312,7668.5,19591.48046875,-400000.0625,-400000.0625,-400000.0625,-400000.0625,-400000.0625
1.3422629833221436,-152.3000030517578,7666.5400390625,19588.140625,-400000.0625,-400000.0625,-400000.0625,-400000.0625,-400000.0625
1.3422667980194092,-169.52000427246094,7640.4599609375,19565.8203125,-400000.0625,-400000.0625,-400000.0625,-400000.0625,-400000.0625
1.3422706127166748,-180.6300048828125,7622.47998046875,19551.759765625,-400000.0625,-400000.0625,-400000.0625,-400000.0625,-400000.0625
1.3422744274139404,-163.88999938964844,7641.5498046875,19571.349609375,-400000.0625,-400000.0625,-400000.0625,-400000.0625,-400000.0625
1.342278242111206,-148.05999755859375,7662.33984375,19591.05078125,-400000.0625,-400000.0625,-400000.0625,-400000.0625,-400000.0625
1.3422820568084717,-153.39999389648438,7664.35009765625,19590.279296875,-400000.0625,-400000.0625,-400000.0625,-400000.0625,-400000.0625
1.3422861099243164,-168.61000061035156,7639.740234375,19566.58984375,-400000.0625,-400000.0625,-400000.0625,-400000.0625,-400000.0625
1.3422901630401611,-172.0399932861328,7625.91015625,19560.240234375,-400000.0625,-400000.0625,-400000.0625,-400000.0625,-400000.0625
1.3422942161560059,-166.94000244140625,7633.97021484375,19568.73046875,-400000.0625,-400000.0625,-400000.0625,-400000.0625,-400000.0625
1.3422980308532715,-145.86000061035156,7667.72998046875,19597.099609375,-400000.0625,-400000.0625,-400000.0625,-400000.0625,-400000.0625
1.3966093063354492,-139.08999633789062,7679.60986328125,19604.349609375,-400000.0625,-400000.0625,-400000.0625,-400000.0625,-400000.0625
1.4153919219970703,-160.64999389648438,7646.60986328125,19578.4609375,-400000.0625,-400000.0625,-400000.0625,-400000.0625,-400000.0625
1.4203970432281494,-175.52000427246094,7628.490234375,19564.439453125,-400000.0625,-400000.0625,-400000.0625,-400000.0625,-400000.0625
1.4204051494598389,-171.61000061035156,7640.7900390625,19574.83984375,-400000.0625,-400000.0625,-400000.0625,-400000.0625,-400000.0625
1.4204106330871582,-151.35000610351562,7664.5400390625,19597.060546875,-400000.0625,-400000.0625,-400000.0625,-400000.0625,-400000.0625
1.4204151630401611,-141.9499969482422,7676.75,19605.310546875,-400000.0625,-400000.0625,-400000.0625,-400000.0625,-400000.0625
1.4204192161560059,-171.61000061035156,7640.7900390625,19571.830078125,-400000.0625,-400000.0625,-400000.0625,-400000.0625,-400000.0625
1.4204232692718506,-187.2100067138672,7618.08984375,19554.240234375,-400000.0625,-400000.0625,-400000.0625,-400000.0625,-400000.0625
1.4268224239349365,-172.47000122070312,7636.8798828125,19574.220703125,-400000.0625,-400000.0625,-400000.0625,-400000.0625,-400000.0625
1.4313814640045166,-163.27000427246094,7656.669921875,19589.380859375,-400000.0625,-400000.0625,-400000.0625,-400000.0625,-400000.0625
1.4313910007476807,-159.8800048828125,7656.81005859375,19589.810546875,-400000.0625,-400000.0625,-400000.0625,-400000.0625,-400000.0625
1.4313957691192627,-170.75999450683594,7638.31005859375,19575.55078125,-400000.0625,-400000.0625,-400000.0625,-400000.0625,-400000.0625
1.4313998222351074,-173.6199951171875,7635.06982421875,19574.83984375,-400000.0625,-400000.0625,-400000.0625,-400000.0625,-400000.0625
1.4314038753509521,-165.88999938964844,7642.080078125,19581.26953125,-400000.0625,-400000.0625,-400000.0625,-400000.0625,-400000.0625
1.431408405303955,-163.1699981689453,7649.22998046875,19584.23046875,-400000.0625,-400000.0625,-400000.0625,-400000.0625,-400000.0625
1.4314122200012207,-163.60000610351562,7655.669921875,19588.619140625,-400000.0625,-400000.0625,-400000.0625,-400000.0625,-400000.0625
1.4778213500976562,-179.77000427246094,7627.68017578125,19563.720703125,-400000.0625,-400000.0625,-400000.0625,-400000.0625,-400000.0625
1.4835319519042969,-191.1199951171875,7611.85009765625,19552.140625,-400000.0625,-400000.0625,-400000.0625,-400000.0625,-400000.0625
1.4878616333007812,-171.52000427246094,7634.1201171875,19573.44921875,-400000.0625,-400000.0625,-400000.0625,-400000.0625,-400000.0625
1.4878711700439453,-152.16000366210938,7669.35009765625,19603.01953125,-400000.0625,-400000.0625,-400000.0625,-400000.0625,-400000.0625
1.4878756999969482,-157.07000732421875,7666.02001953125,19596.630859375,-400000.0625,-400000.0625,-400000.0625,-400000.0625,-400000.0625
1.487879753112793,-176.10000610351562,7636.93017578125,19572.44921875,-400000.0625,-400000.0625,-400000.0625,-400000.0625,-400000.0625
1.4878840446472168,-187.44000244140625,7617.47021484375,19558.240234375,-400000.0625,-400000.0625,-400000.0625,-400000.0625,-400000.0625
1.4878878593444824,-173.85000610351562,7636.93017578125,19575.5,-400000.0625,-400000.0625,-400000.0625,-400000.0625,-400000.0625
1.487891674041748,-155.97000122070312,7665.2099609375,19598.390625,-400000.0625,-400000.0625,-400000.0625,-400000.0625,-400000.0625
1.4878952503204346,-170.4199981689453,7646.60986328125,19580.029296875,-400000.0625,-400000.0625,-400000.0625,-400000.0625,-400000.0625
1.4878990650177002,-192.7899932861328,7620.52978515625,19558.099609375,-400000.0625,-400000.0625,-400000.0625,-400000.0625,-400000.0625
1.4879028797149658,-195.74000549316406,7612.27978515625,19554.859375,-400000.0625,-400000.0625,-400000.0625,-400000.0625,-400000.0625
1.4879066944122314,-181.52999877929688,7634.97021484375,19573.599609375,-400000.0625,-400000.0625,-400000.0625,-400000.0625,-400000.0625
1.487910509109497,-170.99000549316406,7651.7099609375,19588.900390625,-400000.0625,-400000.0625,-400000.0625,-400000.0625,-400000.0625
1.487921953201294,-167.4199981689453,7638.83984375,19587.189453125,-400000.0625,-400000.0625,-400000.0625,-400000.0625,-400000.0625
1.4879262447357178,-165.27000427246094,7621.18994140625,19563.33984375,-400000.0625,-400000.0625,-400000.0625,-400000.0625,-400000.0625
1.539029598236084,-160.5500030517578,7614.14013671875,19547.3203125,-400000.0625,-400000.0625,-400000.0625,-400000.0625,-400000.0625
1.5503864288330078,-142.14999389648438,7624.43994140625,19551.5703125,-400000.0625,-400000.0625,-400000.0625,-400000.0625,-400000.0625
1.5553181171417236,-119.7300033569336,7637.93017578125,19552.900390625,-400000.0625,-400000.0625,-400000.0625,-400000.0625,-400000.0625
1.5553269386291504,-125.69000244140625,7612.27978515625,19522.9609375,-400000.0625,-400000.0625,-400000.0625,-400000.0625,-400000.0625
1.5553314685821533,-131.17999267578125,7577.47021484375,19486.0,-400000.0625,-400000.0625,-400000.0625,-400000.0625,-400000.0625
1.555335521697998,-127.51000213623047,7566.64013671875,19464.640625,-400000.0625,-400000.0625,-400000.0625,-400000.0625,-400000.0625
1.555340051651001,-100.70999908447266,7586.669921875,19477.080078125,-400000.0625,-400000.0625,-400000.0625,-400000.0625,-400000.0625
1.5553438663482666,-79.48999786376953,7604.5498046875,19490.720703125,-400000.0625,-400000.0625,-400000.0625,-400000.0625,-400000.0625
1.5553474426269531,-83.7300033569336,7585.2900390625,19471.98046875,-400000.0625,-400000.0625,-400000.0625,-400000.0625,-400000.0625
1.5553512573242188,-101.18000030517578,7556.06005859375,19444.51953125,-400000.0625,-400000.0625,-400000.0625,-400000.0625,-400000.0625
1.5553550720214844,-106.76000213623047,7543.18017578125,19432.169921875,-400000.0625,-400000.0625,-400000.0625,-400000.0625,-400000.0625
1.55535888671875,-86.44999694824219,7570.740234375,19453.720703125,-400000.0625,-400000.0625,-400000.0625,-400000.0625,-400000.0625
1.5553686618804932,-71.76000213623047,7598.16015625,19477.80078125,-400000.0625,-400000.0625,-400000.0625,-400000.0625,-400000.0625
1.5553724765777588,-75.4800033569336,7598.58984375,19475.220703125,-400000.0625,-400000.0625,-400000.0625,-400000.0625,-400000.0625
1.5553760528564453,-88.5,7573.3701171875,19452.91015625,-400000.0625,-400000.0625,-400000.0625,-400000.0625,-400000.0625
1.55538010597229,-90.16999816894531,7564.2099609375,19447.470703125,-400000.0625,-400000.0625,-400000.0625,-400000.0625,-400000.0625
1.5939407348632812,-80.77999877929688,7579.85009765625,19459.919921875,-400000.0625,-400000.0625,-400000.0625,-400000.0625,-400000.0625
1.599752426147461,-75.05000305175781,7592.81982421875,19469.220703125,-400000.0625,-400000.0625,-400000.0625,-400000.0625,-400000.0625
1.6108849048614502,-77.81999969482422,7589.14990234375,19461.060546875,-400000.0625,-400000.0625,-400000.0625,-400000.0625,-400000.0625
1.615398645401001,-92.88999938964844,7572.60009765625,19448.619140625,-400000.0625,-400000.0625,-400000.0625,-400000.0625,-400000.0625
1.6154077053070068,-96.04000091552734,7559.2099609375,19442.470703125,-400000.0625,-400000.0625,-400000.0625,-400000.0625,-400000.0625
1.6154160499572754,-93.83999633789062,7565.259765625,19446.23046875,-400000.0625,-400000.0625,-400000.0625,-400000.0625,-400000.0625
1.6154201030731201,-81.44000244140625,7587.43017578125,19462.060546875,-400000.0625,-400000.0625,-400000.0625,-400000.0625,-400000.0625
1.6154239177703857,-84.44999694824219,7579.89990234375,19455.76953125,-400000.0625,-400000.0625,-400000.0625,-400000.0625,-400000.0625
1.6154277324676514,-94.08000183105469,7554.81982421875,19438.7890625,-400000.0625,-400000.0625,-400000.0625,-400000.0625,-400000.0625
1.615431547164917,-98.98999786376953,7543.66015625,19430.01953125,-400000.0625,-400000.0625,-400000.0625,-400000.0625,-400000.0625
1.615436315536499,-91.16999816894531,7559.06005859375,19444.990234375,-400000.0625,-400000.0625,-400000.0625,-400000.0625,-400000.0625
1.6154401302337646,-81.97000122070312,7580.56982421875,19462.970703125,-400000.0625,-400000.0625,-400000.0625,-400000.0625,-400000.0625
1.6154439449310303,-84.83000183105469,7580.18994140625,19458.6796875,-400000.0625,-400000.0625,-400000.0625,-400000.0625,-400000.0625
1.615447759628296,-98.04000091552734,7556.8701171875,19439.890625,-400000.0625,-400000.0625,-400000.0625,-400000.0625,-400000.0625
1.6154518127441406,-95.6500015258789,7555.2900390625,19439.41015625,-400000.0625,-400000.0625,-400000.0625,-400000.0625,-400000.0625
1.6154556274414062,-77.30000305175781,7580.330078125,19462.970703125,-400000.0625,-400000.0625,-400000.0625,-400000.0625,-400000.0625
1.6500909328460693,-70.37999725341797,7598.4501953125,19477.849609375,-400000.0625,-400000.0625,-400000.0625,-400000.0625,-400000.0625
1.6637771129608154,-81.77999877929688,7584.240234375,19465.310546875,-400000.0625,-400000.0625,-400000.0625,-400000.0625,-400000.0625
1.6688787937164307,-107.80999755859375,7547.85986328125,19431.640625,-400000.0625,-400000.0625,-400000.0625,-400000.0625,-400000.0625
1.6753807067871094,-113.58000183105469,7537.27001953125,19424.349609375,-400000.0625,-400000.0625,-400000.0625,-400000.0625,-400000.0625
1.6802277565002441,-93.31999969482422,7557.81982421875,19443.130859375,-400000.0625,-400000.0625,-400000.0625,-400000.0625,-400000.0625
1.680237054824829,-74.58000183105469,7583.759765625,19465.830078125,-400000.0625,-400000.0625,-400000.0625,-400000.0625,-400000.0625
1.6802420616149902,-77.81999969482422,7579.27978515625,19459.6796875,-400000.0625,-400000.0625,-400000.0625,-400000.0625,-400000.0625
1.680246353149414,-88.87999725341797,7562.919921875,19443.3203125,-400000.0625,-400000.0625,-400000.0625,-400000.0625,-400000.0625
1.6802809238433838,-87.4000015258789,7559.16015625,19442.26953125,-400000.0625,-400000.0625,-400000.0625,-400000.0625,-400000.0625
1.6802852153778076,-79.19999694824219,7574.75,19458.060546875,-400000.0625,-400000.0625,-400000.0625,-400000.0625,-400000.0625
1.6802890300750732,-70.62000274658203,7585.72021484375,19466.44921875,-400000.0625,-400000.0625,-400000.0625,-400000.0625,-400000.0625
1.680293083190918,-77.05999755859375,7577.18017578125,19457.720703125,-400000.0625,-400000.0625,-400000.0625,-400000.0625,-400000.0625
1.6802968978881836,-96.8499984741211,7549.91015625,19435.5,-400000.0625,-400000.0625,-400000.0625,-400000.0625,-400000.0625
1.6803009510040283,-103.76000213623047,7539.4599609375,19429.44921875,-400000.0625,-400000.0625,-400000.0625,-400000.0625,-400000.0625
1.6803052425384521,-90.45999908447266,7556.06005859375,19447.5703125,-400000.0625,-400000.0625,-400000.0625,-400000.0625,-400000.0625
1.6803090572357178,-68.94999694824219,7585.3798828125,19469.029296875,-400000.0625,-400000.0625,-400000.0625,-400000.0625,-400000.0625
1.7271003723144531,-74.72000122070312,7580.7099609375,19459.390625,-400000.0625,-400000.0625,-400000.0625,-400000.0625,-400000.0625
1.7331900596618652,-92.2699966430664,7550.759765625,19436.890625,-400000.0625,-400000.0625,-400000.0625,-400000.0625,-400000.0625
1.7386431694030762,-112.52999877929688,7530.64013671875,19421.25,-400000.0625,-400000.0625,-400000.0625,-400000.0625,-400000.0625
1.744185209274292,-92.6500015258789,7552.52978515625,19438.7890625,-400000.0625,-400000.0625,-400000.0625,-400000.0625,-400000.0625
1.7501530647277832,-76.62999725341797,7576.66015625,19459.5390625,-400000.0625,-400000.0625,-400000.0625,-400000.0625,-400000.0625
1.7602217197418213,-84.26000213623047,7567.5498046875,19452.810546875,-400000.0625,-400000.0625,-400000.0625,-400000.0625,-400000.0625
1.7649223804473877,-104.62000274658203,7541.419921875,19433.0703125,-400000.0625,-400000.0625,-400000.0625,-400000.0625,-400000.0625
1.7649319171905518,-111.68000030517578,7532.8798828125,19425.16015625,-400000.0625,-400000.0625,-400000.0625,-400000.0625,-400000.0625
1.764936923980713,-95.08000183105469,7551.669921875,19444.849609375,-400000.0625,-400000.0625,-400000.0625,-400000.0625,-400000.0625
1.7649409770965576,-73.80999755859375,7582.9501953125,19470.55078125,-400000.0625,-400000.0625,-400000.0625,-400000.0625,-400000.0625
1.7649447917938232,-71.37999725341797,7584.0,19466.689453125,-400000.0625,-400000.0625,-400000.0625,-400000.0625,-400000.0625
1.7649486064910889,-81.11000061035156,7571.509765625,19456.580078125,-400000.0625,-400000.0625,-400000.0625,-400000.0625,-400000.0625
1.7649524211883545,-94.51000213623047,7549.14013671875,19438.3203125,-400000.0625,-400000.0625,-400000.0625,-400000.0625,-400000.0625
1.7649562358856201,-84.4000015258789,7557.97021484375,19446.419921875,-400000.0625,-400000.0625,-400000.0625,-400000.0625,-400000.0625
1.7649602890014648,-72.66999816894531,7582.6201171875,19466.55078125,-400000.0625,-400000.0625,-400000.0625,-400000.0625,-400000.0625
1.7649643421173096,-81.62999725341797,7573.02978515625,19460.630859375,-400000.0625,-400000.0625,-400000.0625,-400000.0625,-400000.0625
1.7839982509613037,-97.61000061035156,7538.64990234375,19435.599609375,-400000.0625,-400000.0625,-400000.0625,-400000.0625,-400000.0625
1.7897322177886963,-111.95999908447266,7527.259765625,19427.01953125,-400000.0625,-400000.0625,-400000.0625,-400000.0625,-400000.0625
1.794966459274292,-110.91000366210938,7569.27001953125,19462.060546875,-400000.0625,-400000.0625,-400000.0625,-400000.0625,-400000.0625
1.799821376800537,-104.94999694824219,7603.64990234375,19491.099609375,-400000.0625,-400000.0625,-400000.0625,-400000.0625,-400000.0625
1.7998309135437012,-111.05999755859375,7608.31982421875,19491.390625,-400000.0625,-400000.0625,-400000.0625,-400000.0625,-400000.0625
1.7998359203338623,-139.24000549316406,7592.25,19482.08984375,-400000.0625,-400000.0625,-400000.0625,-400000.0625,-400000.0625
1.7998402118682861,-150.3000030517578,7586.43017578125,19485.669921875,-400000.0625,-400000.0625,-400000.0625,-400000.0625,-400000.0625
1.7998440265655518,-148.8699951171875,7607.56005859375,19504.44921875,-400000.0625,-400000.0625,-400000.0625,-400000.0625,-400000.0625
1.7998478412628174,-137.52000427246094,7635.64013671875,19527.439453125,-400000.0625,-400000.0625,-400000.0625,-400000.0625,-400000.0625
1.799851655960083,-138.47000122070312,7638.169921875,19531.16015625,-400000.0625,-400000.0625,-400000.0625,-400000.0625,-400000.0625
1.7998554706573486,-148.8699951171875,7622.10009765625,19522.5703125,-400000.0625,-400000.0625,-400000.0625,-400000.0625,-400000.0625
1.7998592853546143,-157.97999572753906,7601.02001953125,19508.75,-400000.0625,-400000.0625,-400000.0625,-400000.0625,-400000.0625
1.7998628616333008,-160.4600067138672,7606.4599609375,19513.939453125,-400000.0625,-400000.0625,-400000.0625,-400000.0625,-400000.0625
1.7998669147491455,-140.3800048828125,7637.259765625,19536.310546875,-400000.0625,-400000.0625,-400000.0625,-400000.0625,-400000.0625
1.7998707294464111,-146.33999633789062,7633.58984375,19531.109375,-400000.0625,-400000.0625,-400000.0625,-400000.0625,-400000.0625
1.7998745441436768,-173.7100067138672,7592.77001953125,19497.490234375,-400000.0625,-400000.0625,-400000.0625,-400000.0625,-400000.0625
1.8528664112091064,-184.82000732421875,7572.02978515625,19481.94921875,-400000.0625,-400000.0625,-400000.0625,-400000.0625,-400000.0625
