time,ch1,ch2,ch3,ch4,ch5,ch6,ch7,ch8
220.45195198059082,-400000.0625,770.1400146484375,-11198.330078125,-400000.0625,-10520.26953125,-400000.0625,-24864.630859375,-400000.0625
220.45727634429932,-400000.0625,752.9299926757812,-11209.349609375,-400000.0625,-10527.51953125,-400000.0625,-24866.30078125,-400000.0625
220.46590065956116,-400000.0625,701.9000244140625,-11262.419921875,-400000.0625,-10582.16015625,-400000.0625,-24915.3203125,-400000.0625
220.473402261734,-400000.0625,667.239990234375,-11293.650390625,-400000.0625,-10620.2099609375,-400000.0625,-24949.740234375,-400000.0625
220.4806685447693,-400000.0625,706.47998046875,-11261.7001953125,-400000.0625,-10588.2197265625,-400000.0625,-24925.0390625,-400000.0625
220.49437308311462,-400000.0625,766.469970703125,-11209.009765625,-400000.0625,-10530.0400390625,-400000.0625,-24871.5390625,-400000.0625
220.50725746154785,-400000.0625,761.9400024414062,-11208.6796875,-400000.0625,-10532.240234375,-400000.0625,-24871.689453125,-400000.0625
220.5142102241516,-400000.0625,708.2000122070312,-11257.1298828125,-400000.0625,-10585.5,-400000.0625,-24922.419921875,-400000.0625
220.5201141834259,-400000.0625,681.780029296875,-11286.2099609375,-400000.0625,-10611.490234375,-400000.0625,-24944.01953125,-400000.0625
220.52604460716248,-400000.0625,713.1599731445312,-11256.509765625,-400000.0625,-10580.9697265625,-400000.0625,-24927.7109375,-400000.0625
220.53164935112,-400000.0625,773.8599853515625,-11204.3896484375,-400000.0625,-10524.849609375,-400000.0625,-24893.619140625,-400000.0625
220.54537439346313,-400000.0625,770.8599853515625,-11208.3896484375,-400000.0625,-10532.51953125,-400000.0625,-24870.779296875,-400000.0625
220.5502007007599,-400000.0625,712.8200073242188,-11256.3603515625,-400000.0625,-10587.259765625,-400000.0625,-24910.41015625,-400000.0625
220.55020952224731,-400000.0625,678.2100219726562,-11284.349609375,-400000.0625,-10611.33984375,-400000.0625,-24919.23046875,-400000.0625
220.55021381378174,-400000.0625,721.030029296875,-11248.6904296875,-400000.0625,-10572.6298828125,-400000.0625,-24892.2890625,-400000.0625
220.550217628479,-400000.0625,778.25,-11199.330078125,-400000.0625,-10524.990234375,-400000.0625,-24851.419921875,-400000.0625
220.55022168159485,-400000.0625,762.6500244140625,-11209.4404296875,-400000.0625,-10532.0,-400000.0625,-24859.9609375,-400000.0625
220.55022549629211,-400000.0625,706.1500244140625,-11258.080078125,-400000.0625,-10581.5400390625,-400000.0625,-24914.599609375,-400000.0625
220.55022931098938,-400000.0625,683.260009765625,-11279.0595703125,-400000.0625,-10601.0400390625,-400000.0625,-24934.009765625,-400000.0625
220.55023288726807,-400000.0625,723.6500244140625,-11243.1103515625,-400000.0625,-10564.1904296875,-400000.0625,-24899.060546875,-400000.0625
220.55023670196533,-400000.0625,772.47998046875,-11199.240234375,-400000.0625,-10516.6904296875,-400000.0625,-24860.9609375,-400000.0625
220.5502405166626,-400000.0625,761.9400024414062,-11210.73046875,-400000.0625,-10529.7099609375,-400000.0625,-24881.220703125,-400000.0625
220.55024433135986,-400000.0625,710.010009765625,-11260.1298828125,-400000.0625,-10589.41015625,-400000.0625,-24904.58984375,-400000.0625
220.55024814605713,-400000.0625,679.2999877929688,-11287.400390625,-400000.0625,-10615.6796875,-400000.0625,-24915.41015625,-400000.0625
220.55542874336243,-400000.0625,714.4500122070312,-11254.740234375,-400000.0625,-10576.2998046875,-400000.0625,-24896.76953125,-400000.0625
220.560396194458,-400000.0625,774.6699829101562,-11204.150390625,-400000.0625,-10524.0400390625,-400000.0625,-24850.23046875,-400000.0625
220.5604054927826,-400000.0625,768.4199829101562,-11207.6796875,-400000.0625,-10524.419921875,-400000.0625,-24860.05078125,-400000.0625
220.56040978431702,-400000.0625,709.8200073242188,-11259.1298828125,-400000.0625,-10570.7197265625,-400000.0625,-24908.830078125,-400000.0625
220.56041383743286,-400000.0625,674.8699951171875,-11287.259765625,-400000.0625,-10601.3798828125,-400000.0625,-24933.76953125,-400000.0625
220.5604178905487,-400000.0625,704.9600219726562,-11259.080078125,-400000.0625,-10568.330078125,-400000.0625,-24899.060546875,-400000.0625
220.56042218208313,-400000.0625,760.4600219726562,-11207.919921875,-400000.0625,-10517.6904296875,-400000.0625,-24846.029296875,-400000.0625
220.56042623519897,-400000.0625,747.72998046875,-11222.1298828125,-400000.0625,-10531.669921875,-400000.0625,-24855.51953125,-400000.0625
220.56043028831482,-400000.0625,709.6300048828125,-11267.23046875,-400000.0625,-10584.5498046875,-400000.0625,-24895.720703125,-400000.0625
220.56043434143066,-400000.0625,686.4099731445312,-11291.650390625,-400000.0625,-10613.1103515625,-400000.0625,-24921.279296875,-400000.0625
220.56525301933289,-400000.0625,716.72998046875,-11253.5498046875,-400000.0625,-10572.6298828125,-400000.0625,-24897.630859375,-400000.0625
220.56526136398315,-400000.0625,784.8699951171875,-11193.0400390625,-400000.0625,-10517.3095703125,-400000.0625,-24850.419921875,-400000.0625
220.56526589393616,-400000.0625,783.489990234375,-11205.7197265625,-400000.0625,-10523.849609375,-400000.0625,-24839.0703125,-400000.0625
220.56526970863342,-400000.0625,743.2899780273438,-11248.6396484375,-400000.0625,-10580.25,-400000.0625,-24885.939453125,-400000.0625
220.5652735233307,-400000.0625,722.219970703125,-11268.0400390625,-400000.0625,-10608.5302734375,-400000.0625,-24918.990234375,-400000.0625
220.56527709960938,-400000.0625,742.8599853515625,-11244.9697265625,-400000.0625,-10572.9599609375,-400000.0625,-24875.98046875,-400000.0625
220.56528091430664,-400000.0625,809.6699829101562,-11182.400390625,-400000.0625,-10511.5400390625,-400000.0625,-24827.8203125,-400000.0625
220.5652847290039,-400000.0625,791.4099731445312,-11198.08984375,-400000.0625,-10524.509765625,-400000.0625,-24832.109375,-400000.0625
220.56528854370117,-400000.0625,725.75,-11254.0302734375,-400000.0625,-10583.259765625,-400000.0625,-24888.849609375,-400000.0625
220.56529211997986,-400000.0625,700.0399780273438,-11282.8701171875,-400000.0625,-10617.9296875,-400000.0625,-24907.779296875,-400000.0625
220.56529569625854,-400000.0625,740.47998046875,-11248.5400390625,-400000.0625,-10581.5400390625,-400000.0625,-24867.58984375,-400000.0625
220.56529927253723,-400000.0625,799.6099853515625,-11193.23046875,-400000.0625,-10520.98046875,-400000.0625,-24837.779296875,-400000.0625
220.56530284881592,-400000.0625,809.1500244140625,-11188.2197265625,-400000.0625,-10518.0302734375,-400000.0625,-24839.44921875,-400000.0625
220.5653064250946,-400000.0625,759.27001953125,-11236.8603515625,-400000.0625,-10571.0498046875,-400000.0625,-24894.380859375,-400000.0625
220.5653100013733,-400000.0625,723.9299926757812,-11268.759765625,-400000.0625,-10607.2001953125,-400000.0625,-24907.2109375,-400000.0625
220.56531357765198,-400000.0625,736.280029296875,-11251.0703125,-400000.0625,-10567.3798828125,-400000.0625,-24864.060546875,-400000.0625
220.56531763076782,-400000.0625,783.6300048828125,-11199.5703125,-400000.0625,-10509.4404296875,-400000.0625,-24829.439453125,-400000.0625
220.5653212070465,-400000.0625,794.9400024414062,-11188.26953125,-400000.0625,-10515.2099609375,-400000.0625,-24838.55078125,-400000.0625
220.5653247833252,-400000.0625,760.4099731445312,-11233.240234375,-400000.0625,-10566.0498046875,-400000.0625,-24893.330078125,-400000.0625
220.56532835960388,-400000.0625,734.280029296875,-11269.51953125,-400000.0625,-10599.1904296875,-400000.0625,-24897.91015625,-400000.0625
220.56533217430115,-400000.0625,760.7000122070312,-11240.2900390625,-400000.0625,-10564.7099609375,-400000.0625,-24876.650390625,-400000.0625
220.56533575057983,-400000.0625,814.9099731445312,-11184.0302734375,-400000.0625,-10511.1103515625,-400000.0625,-24835.259765625,-400000.0625
220.56534004211426,-400000.0625,801.469970703125,-11189.1796875,-400000.0625,-10517.5498046875,-400000.0625,-24831.150390625,-400000.0625
220.56534433364868,-400000.0625,754.9299926757812,-11236.240234375,-400000.0625,-10571.150390625,-400000.0625,-24882.609375,-400000.0625
220.56534790992737,-400000.0625,731.6599731445312,-11259.1298828125,-400000.0625,-10600.7099609375,-400000.0625,-24910.55078125,-400000.0625
220.56535124778748,-400000.0625,757.5499877929688,-11230.759765625,-400000.0625,-10564.0400390625,-400000.0625,-24856.380859375,-400000.0625
220.56535506248474,-400000.0625,809.6699829101562,-11178.7802734375,-400000.0625,-10510.8798828125,-400000.0625,-24821.0,-400000.0625
220.56535863876343,-400000.0625,798.6099853515625,-11191.1796875,-400000.0625,-10521.41015625,-400000.0625,-24820.619140625,-400000.0625
220.56536221504211,-400000.0625,736.760009765625,-11246.0595703125,-400000.0625,-10574.2900390625,-400000.0625,-24866.060546875,-400000.0625
220.5653657913208,-400000.0625,737.1400146484375,-11259.0302734375,-400000.0625,-10594.8896484375,-400000.0625,-24923.279296875,-400000.0625
220.56536960601807,-400000.0625,771.280029296875,-11222.5498046875,-400000.0625,-10562.849609375,-400000.0625,-24868.2109375,-400000.0625
220.56537413597107,-400000.0625,815.4400024414062,-11178.0703125,-400000.0625,-10516.8798828125,-400000.0625,-24823.380859375,-400000.0625
220.56537771224976,-400000.0625,812.47998046875,-11180.6904296875,-400000.0625,-10513.259765625,-400000.0625,-24839.44921875,-400000.0625
220.56538271903992,-400000.0625,756.7899780273438,-11233.9501953125,-400000.0625,-10566.2802734375,-400000.0625,-24871.5390625,-400000.0625
220.56538653373718,-400000.0625,711.72998046875,-11269.240234375,-400000.0625,-10598.330078125,-400000.0625,-24897.48046875,-400000.0625
220.56539058685303,-400000.0625,742.6300048828125,-11233.6201171875,-400000.0625,-10561.4697265625,-400000.0625,-24868.400390625,-400000.0625
220.5653941631317,-400000.0625,812.2000122070312,-11171.76953125,-400000.0625,-10502.240234375,-400000.0625,-24833.58984375,-400000.0625
220.56539797782898,-400000.0625,807.5700073242188,-11170.3896484375,-400000.0625,-10503.6298828125,-400000.0625,-24846.1796875,-400000.0625
220.56540179252625,-400000.0625,749.489990234375,-11228.2802734375,-400000.0625,-10556.0302734375,-400000.0625,-24875.5,-400000.0625
220.56540536880493,-400000.0625,712.780029296875,-11263.3203125,-400000.0625,-10591.75,-400000.0625,-24881.3203125,-400000.0625
220.56540894508362,-400000.0625,747.9199829101562,-11231.849609375,-400000.0625,-10556.83984375,-400000.0625,-24858.91015625,-400000.0625
220.5654125213623,-400000.0625,804.0399780273438,-11180.740234375,-400000.0625,-10499.4296875,-400000.0625,-24820.94921875,-400000.0625
220.56541633605957,-400000.0625,808.9099731445312,-11179.58984375,-400000.0625,-10497.2900390625,-400000.0625,-24823.759765625,-400000.0625
220.56542038917542,-400000.0625,754.8300170898438,-11224.990234375,-400000.0625,-10542.7802734375,-400000.0625,-24884.23046875,-400000.0625
220.5654239654541,-400000.0625,712.4400024414062,-11258.9404296875,-400000.0625,-10572.6298828125,-400000.0625,-24917.83984375,-400000.0625
220.56542778015137,-400000.0625,746.969970703125,-11231.6103515625,-400000.0625,-10542.8203125,-400000.0625,-24890.0,-400000.0625
220.56543135643005,-400000.0625,800.989990234375,-11181.3095703125,-400000.0625,-10488.75,-400000.0625,-24846.029296875,-400000.0625
220.56543517112732,-400000.0625,791.97998046875,-11187.83984375,-400000.0625,-10490.3203125,-400000.0625,-24829.6796875,-400000.0625
220.5703682899475,-400000.0625,737.6199951171875,-11234.900390625,-400000.0625,-10541.2998046875,-400000.0625,-24866.630859375,-400000.0625
220.5703775882721,-400000.0625,716.969970703125,-11262.2802734375,-400000.0625,-10569.8603515625,-400000.0625,-24897.669921875,-400000.0625
220.57038164138794,-400000.0625,755.0700073242188,-11225.419921875,-400000.0625,-10527.4697265625,-400000.0625,-24897.720703125,-400000.0625
220.57038569450378,-400000.0625,814.489990234375,-11165.9501953125,-400000.0625,-10470.5302734375,-400000.0625,-24836.880859375,-400000.0625
220.57038950920105,-400000.0625,812.6699829101562,-11164.48046875,-400000.0625,-10466.8603515625,-400000.0625,-24824.4296875,-400000.0625
220.57039308547974,-400000.0625,749.6799926757812,-11229.6103515625,-400000.0625,-10534.099609375,-400000.0625,-24898.33984375,-400000.0625
220.57039713859558,-400000.0625,700.6599731445312,-11273.48046875,-400000.0625,-10578.9697265625,-400000.0625,-24930.619140625,-400000.0625
220.57040119171143,-400000.0625,728.4199829101562,-11250.4501953125,-400000.0625,-10541.76953125,-400000.0625,-24889.08984375,-400000.0625
220.5704050064087,-400000.0625,795.27001953125,-11191.849609375,-400000.0625,-10487.7001953125,-400000.0625,-24844.359375,-400000.0625
220.57040858268738,-400000.0625,794.7000122070312,-11191.0400390625,-400000.0625,-10492.1796875,-400000.0625,-24836.400390625,-400000.0625
220.57041215896606,-400000.0625,732.22998046875,-11240.5302734375,-400000.0625,-10540.6796875,-400000.0625,-24872.830078125,-400000.0625
220.57041788101196,-400000.0625,698.7100219726562,-11272.8603515625,-400000.0625,-10570.33984375,-400000.0625,-24921.279296875,-400000.0625
220.57042169570923,-400000.0625,736.3300170898438,-11240.2900390625,-400000.0625,-10530.4697265625,-400000.0625,-24912.169921875,-400000.0625
220.57042527198792,-400000.0625,793.9299926757812,-11185.26953125,-400000.0625,-10475.259765625,-400000.0625,-24866.919921875,-400000.0625
220.5704288482666,-400000.0625,788.969970703125,-11191.66015625,-400000.0625,-10482.0302734375,-400000.0625,-24856.140625,-400000.0625
220.57043266296387,-400000.0625,723.510009765625,-11250.5400390625,-400000.0625,-10535.0498046875,-400000.0625,-24900.060546875,-400000.0625
220.57043647766113,-400000.0625,688.5999755859375,-11279.7802734375,-400000.0625,-10574.0595703125,-400000.0625,-24919.080078125,-400000.0625
220.57570147514343,-400000.0625,720.9299926757812,-11245.7802734375,-400000.0625,-10546.8798828125,-400000.0625,-24887.849609375,-400000.0625
220.5807809829712,-400000.0625,771.4299926757812,-11194.0400390625,-400000.0625,-10494.66015625,-400000.0625,-24851.849609375,-400000.0625
220.58550000190735,-400000.0625,763.22998046875,-11208.6298828125,-400000.0625,-10494.66015625,-400000.0625,-24849.130859375,-400000.0625
220.58550786972046,-400000.0625,709.530029296875,-11261.8896484375,-400000.0625,-10547.830078125,-400000.0625,-24888.08984375,-400000.0625
220.58551216125488,-400000.0625,674.77001953125,-11292.83984375,-400000.0625,-10592.599609375,-400000.0625,-24936.150390625,-400000.0625
220.58551597595215,-400000.0625,707.9600219726562,-11264.7099609375,-400000.0625,-10559.990234375,-400000.0625,-24910.169921875,-400000.0625
220.60308861732483,-400000.0625,764.7000122070312,-11209.2001953125,-400000.0625,-10500.669921875,-400000.0625,-24861.619140625,-400000.0625
220.60835766792297,-400000.0625,766.22998046875,-11198.240234375,-400000.0625,-10496.4697265625,-400000.0625,-24879.650390625,-400000.0625
220.61358547210693,-400000.0625,699.8099975585938,-11269.669921875,-400000.0625,-10561.23046875,-400000.0625,-24924.140625,-400000.0625
220.61797213554382,-400000.0625,645.3499755859375,-11318.400390625,-400000.0625,-10606.580078125,-400000.0625,-24946.169921875,-400000.0625
220.6179826259613,-400000.0625,676.4400024414062,-11286.259765625,-400000.0625,-10573.33984375,-400000.0625,-24919.470703125,-400000.0625
220.6179871559143,-400000.0625,758.3599853515625,-11219.6904296875,-400000.0625,-10513.830078125,-400000.0625,-24861.529296875,-400000.0625
220.617990732193,-400000.0625,776.719970703125,-11207.5302734375,-400000.0625,-10510.6396484375,-400000.0625,-24871.400390625,-400000.0625
220.617995262146,-400000.0625,710.6300048828125,-11269.4296875,-400000.0625,-10561.75,-400000.0625,-24900.060546875,-400000.0625
220.61799883842468,-400000.0625,662.6099853515625,-11309.2001953125,-400000.0625,-10607.7197265625,-400000.0625,-24927.91015625,-400000.0625
220.61800241470337,-400000.0625,701.5700073242188,-11274.150390625,-400000.0625,-10576.4404296875,-400000.0625,-24898.630859375,-400000.0625
220.61800599098206,-400000.0625,769.0900268554688,-11215.9296875,-400000.0625,-10507.6796875,-400000.0625,-24870.060546875,-400000.0625
220.6180100440979,-400000.0625,746.8699951171875,-11226.0400390625,-400000.0625,-10505.25,-400000.0625,-24864.30078125,-400000.0625
220.6180136203766,-400000.0625,697.9000244140625,-11275.009765625,-400000.0625,-10566.08984375,-400000.0625,-24913.5,-400000.0625
220.61801719665527,-400000.0625,660.3699951171875,-11311.099609375,-400000.0625,-10603.3798828125,-400000.0625,-24950.130859375,-400000.0625
220.6180214881897,-400000.0625,694.1799926757812,-11279.009765625,-400000.0625,-10567.7099609375,-400000.0625,-24924.140625,-400000.0625
220.6180260181427,-400000.0625,743.4400024414062,-11229.23046875,-400000.0625,-10515.98046875,-400000.0625,-24883.75,-400000.0625
220.6677484512329,-400000.0625,743.25,-11232.51953125,-400000.0625,-10519.080078125,-400000.0625,-24888.849609375,-400000.0625
220.69143438339233,-400000.0625,694.9400024414062,-11284.58984375,-400000.0625,-10574.4404296875,-400000.0625,-24938.16015625,-400000.0625
220.69669771194458,-400000.0625,650.0700073242188,-11320.830078125,-400000.0625,-10621.83984375,-400000.0625,-24967.91015625,-400000.0625
220.7012038230896,-400000.0625,675.1500244140625,-11292.509765625,-400000.0625,-10593.0302734375,-400000.0625,-24942.44921875,-400000.0625
220.70121335983276,-400000.0625,735.6599731445312,-11238.2900390625,-400000.0625,-10533.8603515625,-400000.0625,-24903.009765625,-400000.0625
220.70121836662292,-400000.0625,736.9000244140625,-11239.48046875,-400000.0625,-10535.150390625,-400000.0625,-24907.2109375,-400000.0625
220.70122289657593,-400000.0625,681.6900024414062,-11290.1201171875,-400000.0625,-10590.26953125,-400000.0625,-24941.689453125,-400000.0625
220.70122694969177,-400000.0625,644.5399780273438,-11324.5,-400000.0625,-10623.599609375,-400000.0625,-24967.240234375,-400000.0625
220.70123171806335,-400000.0625,674.77001953125,-11292.41015625,-400000.0625,-10593.419921875,-400000.0625,-24952.80078125,-400000.0625
220.70123529434204,-400000.0625,728.4199829101562,-11242.7197265625,-400000.0625,-10540.0595703125,-400000.0625,-24895.33984375,-400000.0625
220.70123934745789,-400000.0625,733.0900268554688,-11240.33984375,-400000.0625,-10537.009765625,-400000.0625,-24887.0390625,-400000.0625
220.70124340057373,-400000.0625,683.8300170898438,-11283.73046875,-400000.0625,-10586.6396484375,-400000.0625,-24929.859375,-400000.0625
220.701247215271,-400000.0625,643.4400024414062,-11317.58984375,-400000.0625,-10623.9296875,-400000.0625,-24951.560546875,-400000.0625
220.70125126838684,-400000.0625,680.969970703125,-11282.919921875,-400000.0625,-10584.3095703125,-400000.0625,-24937.73046875,-400000.0625
220.70125484466553,-400000.0625,740.8099975585938,-11225.080078125,-400000.0625,-10524.26953125,-400000.0625,-24883.4609375,-400000.0625
220.70125937461853,-400000.0625,746.77001953125,-11228.419921875,-400000.0625,-10528.1796875,-400000.0625,-24892.810546875,-400000.0625
220.74664115905762,-400000.0625,691.8400268554688,-11278.3896484375,-400000.0625,-10582.01953125,-400000.0625,-24924.08984375,-400000.0625
220.75236058235168,-400000.0625,655.1300048828125,-11306.1904296875,-400000.0625,-10610.8701171875,-400000.0625,-24925.0,-400000.0625
220.75741744041443,-400000.0625,664.4199829101562,-11283.4501953125,-400000.0625,-10575.1103515625,-400000.0625,-24923.1796875,-400000.0625
220.76234245300293,-400000.0625,712.780029296875,-11234.0,-400000.0625,-10517.3603515625,-400000.0625,-24885.470703125,-400000.0625
220.7623519897461,-400000.0625,741.8599853515625,-11231.4697265625,-400000.0625,-10513.740234375,-400000.0625,-24864.529296875,-400000.0625
220.7623565196991,-400000.0625,678.6799926757812,-11287.6396484375,-400000.0625,-10566.900390625,-400000.0625,-24918.69921875,-400000.0625
220.76236057281494,-400000.0625,616.739990234375,-11326.2197265625,-400000.0625,-10606.48046875,-400000.0625,-24962.05078125,-400000.0625
220.7623643875122,-400000.0625,637.1500244140625,-11298.419921875,-400000.0625,-10569.1396484375,-400000.0625,-24927.810546875,-400000.0625
220.7623679637909,-400000.0625,700.469970703125,-11245.919921875,-400000.0625,-10505.4404296875,-400000.0625,-24901.439453125,-400000.0625
220.76237154006958,-400000.0625,696.1300048828125,-11245.349609375,-400000.0625,-10506.25,-400000.0625,-24916.4609375,-400000.0625
220.76237511634827,-400000.0625,629.3800048828125,-11302.0400390625,-400000.0625,-10564.2802734375,-400000.0625,-24943.58984375,-400000.0625
220.76237845420837,-400000.0625,589.4199829101562,-11344.0498046875,-400000.0625,-10596.9404296875,-400000.0625,-24981.0703125,-400000.0625
220.76238346099854,-400000.0625,611.4500122070312,-11316.009765625,-400000.0625,-10558.990234375,-400000.0625,-24966.9609375,-400000.0625
220.7623872756958,-400000.0625,657.6500244140625,-11264.1298828125,-400000.0625,-10504.5302734375,-400000.0625,-24891.669921875,-400000.0625
220.76239109039307,-400000.0625,657.030029296875,-11263.9404296875,-400000.0625,-10505.33984375,-400000.0625,-24903.630859375,-400000.0625
220.7623951435089,-400000.0625,597.4299926757812,-11314.73046875,-400000.0625,-10559.509765625,-400000.0625,-24958.609375,-400000.0625
220.79531502723694,-400000.0625,559.3300170898438,-11355.4501953125,-400000.0625,-10599.5703125,-400000.0625,-24984.509765625,-400000.0625
220.808340549469,-400000.0625,595.9000244140625,-11317.58984375,-400000.0625,-10570.76953125,-400000.0625,-24981.0703125,-400000.0625
220.81296801567078,-400000.0625,658.8900146484375,-11255.5,-400000.0625,-10506.8701171875,-400000.0625,-24913.119140625,-400000.0625
220.81297659873962,-400000.0625,674.8699951171875,-11252.4501953125,-400000.0625,-10499.669921875,-400000.0625,-24894.150390625,-400000.0625
220.81298089027405,-400000.0625,613.739990234375,-11310.0498046875,-400000.0625,-10560.6103515625,-400000.0625,-24950.080078125,-400000.0625
220.8129849433899,-400000.0625,564.4299926757812,-11349.490234375,-400000.0625,-10608.150390625,-400000.0625,-24984.26953125,-400000.0625
220.81298875808716,-400000.0625,592.22998046875,-11323.6396484375,-400000.0625,-10582.400390625,-400000.0625,-24962.5703125,-400000.0625
220.81299233436584,-400000.0625,650.97998046875,-11267.3798828125,-400000.0625,-10513.259765625,-400000.0625,-24910.259765625,-400000.0625
220.81299591064453,-400000.0625,656.8400268554688,-11264.08984375,-400000.0625,-10503.099609375,-400000.0625,-24922.470703125,-400000.0625
220.8129997253418,-400000.0625,607.6799926757812,-11314.580078125,-400000.0625,-10554.26953125,-400000.0625,-24987.1796875,-400000.0625
220.81300377845764,-400000.0625,570.72998046875,-11349.1103515625,-400000.0625,-10599.7099609375,-400000.0625,-24985.98046875,-400000.0625
220.81300735473633,-400000.0625,603.2000122070312,-11317.1103515625,-400000.0625,-10575.2001953125,-400000.0625,-24946.029296875,-400000.0625
220.8130111694336,-400000.0625,660.7999877929688,-11259.75,-400000.0625,-10508.7802734375,-400000.0625,-24916.599609375,-400000.0625
220.81301474571228,-400000.0625,661.0900268554688,-11257.9404296875,-400000.0625,-10499.099609375,-400000.0625,-24918.26953125,-400000.0625
220.81301832199097,-400000.0625,602.6300048828125,-11311.8203125,-400000.0625,-10555.2197265625,-400000.0625,-24946.220703125,-400000.0625
220.81302213668823,-400000.0625,567.1500244140625,-11350.2001953125,-400000.0625,-10600.3798828125,-400000.0625,-24982.7890625,-400000.0625
220.8890323638916,-400000.0625,602.8200073242188,-11312.150390625,-400000.0625,-10570.3798828125,-400000.0625,-24975.109375,-400000.0625
220.89447855949402,-400000.0625,668.760009765625,-11258.509765625,-400000.0625,-10513.5498046875,-400000.0625,-24917.560546875,-400000.0625
220.89895677566528,-400000.0625,681.3099975585938,-11253.9296875,-400000.0625,-10506.490234375,-400000.0625,-24909.119140625,-400000.0625
220.90680313110352,-400000.0625,628.9000244140625,-11296.4599609375,-400000.0625,-10562.7099609375,-400000.0625,-24954.1796875,-400000.0625
220.91165590286255,-400000.0625,580.8800048828125,-11337.23046875,-400000.0625,-10602.669921875,-400000.0625,-24960.7109375,-400000.0625
220.91166496276855,-400000.0625,603.5800170898438,-11315.4404296875,-400000.0625,-10563.900390625,-400000.0625,-24943.779296875,-400000.0625
220.91166925430298,-400000.0625,664.9500122070312,-11257.3203125,-400000.0625,-10496.9501953125,-400000.0625,-24901.73046875,-400000.0625
220.91167306900024,-400000.0625,671.3400268554688,-11242.2001953125,-400000.0625,-10488.4599609375,-400000.0625,-24907.5390625,-400000.0625
220.9116768836975,-400000.0625,626.8499755859375,-11296.990234375,-400000.0625,-10556.990234375,-400000.0625,-24928.720703125,-400000.0625
220.91168093681335,-400000.0625,577.8800048828125,-11343.3896484375,-400000.0625,-10602.08984375,-400000.0625,-24978.16015625,-400000.0625
220.91168475151062,-400000.0625,585.6500244140625,-11316.6298828125,-400000.0625,-10568.9501953125,-400000.0625,-24983.650390625,-400000.0625
220.91168856620789,-400000.0625,641.2000122070312,-11264.08984375,-400000.0625,-10508.25,-400000.0625,-24904.919921875,-400000.0625
220.91169261932373,-400000.0625,670.1500244140625,-11256.650390625,-400000.0625,-10503.580078125,-400000.0625,-24878.890625,-400000.0625
220.91169667243958,-400000.0625,611.969970703125,-11308.76953125,-400000.0625,-10557.2197265625,-400000.0625,-24935.150390625,-400000.0625
220.91170072555542,-400000.0625,564.9600219726562,-11346.76953125,-400000.0625,-10595.6103515625,-400000.0625,-24979.0703125,-400000.0625
220.91170477867126,-400000.0625,579.9299926757812,-11321.400390625,-400000.0625,-10564.1396484375,-400000.0625,-24963.48046875,-400000.0625
220.92287373542786,-400000.0625,624.22998046875,-11271.91015625,-400000.0625,-10505.3896484375,-400000.0625,-24927.240234375,-400000.0625
220.92819786071777,-400000.0625,634.3400268554688,-11267.330078125,-400000.0625,-10493.849609375,-400000.0625,-24933.33984375,-400000.0625
220.9330985546112,-400000.0625,582.8400268554688,-11317.8701171875,-400000.0625,-10543.8203125,-400000.0625,-24953.1796875,-400000.0625
220.93310523033142,-400000.0625,532.719970703125,-11366.1298828125,-400000.0625,-10596.5595703125,-400000.0625,-24998.05078125,-400000.0625
220.93310928344727,-400000.0625,555.3200073242188,-11343.240234375,-400000.0625,-10573.48046875,-400000.0625,-24991.08984375,-400000.0625
220.9331133365631,-400000.0625,608.8699951171875,-11292.3203125,-400000.0625,-10518.5498046875,-400000.0625,-24931.619140625,-400000.0625
220.9331169128418,-400000.0625,619.3200073242188,-11279.1103515625,-400000.0625,-10510.7802734375,-400000.0625,-24929.240234375,-400000.0625
220.93312048912048,-400000.0625,573.9199829101562,-11323.7900390625,-400000.0625,-10553.3095703125,-400000.0625,-24966.099609375,-400000.0625
220.93312406539917,-400000.0625,539.9199829101562,-11361.080078125,-400000.0625,-10598.1396484375,-400000.0625,-24995.279296875,-400000.0625
220.93312788009644,-400000.0625,568.8200073242188,-11334.66015625,-400000.0625,-10584.3603515625,-400000.0625,-24972.109375,-400000.0625
220.93313145637512,-400000.0625,626.52001953125,-11276.0595703125,-400000.0625,-10509.830078125,-400000.0625,-24946.55078125,-400000.0625
220.93313479423523,-400000.0625,630.0,-11274.2001953125,-400000.0625,-10495.23046875,-400000.0625,-24923.80078125,-400000.0625
220.9331386089325,-400000.0625,578.5,-11323.41015625,-400000.0625,-10549.830078125,-400000.0625,-24948.169921875,-400000.0625
220.93314242362976,-400000.0625,537.780029296875,-11355.2099609375,-400000.0625,-10594.7998046875,-400000.0625,-24991.369140625,-400000.0625
220.93314599990845,-400000.0625,557.280029296875,-11333.66015625,-400000.0625,-10574.8701171875,-400000.0625,-24971.439453125,-400000.0625
220.9331498146057,-400000.0625,623.1300048828125,-11285.16015625,-400000.0625,-10518.41015625,-400000.0625,-24939.6796875,-400000.0625
220.99782824516296,-400000.0625,635.6699829101562,-11279.8701171875,-400000.0625,-10504.2001953125,-400000.0625,-24908.16015625,-400000.0625
221.00351810455322,-400000.0625,587.4199829101562,-11322.1201171875,-400000.0625,-10547.01953125,-400000.0625,-24956.419921875,-400000.0625
221.01636362075806,-400000.0625,545.8800048828125,-11359.8798828125,-400000.0625,-10588.98046875,-400000.0625,-25013.5,-400000.0625
221.02147340774536,-400000.0625,567.010009765625,-11336.0400390625,-400000.0625,-10566.1904296875,-400000.0625,-24971.5390625,-400000.0625
221.02605962753296,-400000.0625,626.52001953125,-11281.2099609375,-400000.0625,-10509.2099609375,-400000.0625,-24935.529296875,-400000.0625
221.02606987953186,-400000.0625,637.719970703125,-11275.099609375,-400000.0625,-10499.2900390625,-400000.0625,-24904.919921875,-400000.0625
221.02607440948486,-400000.0625,584.6500244140625,-11323.5498046875,-400000.0625,-10552.3603515625,-400000.0625,-24957.330078125,-400000.0625
221.0260787010193,-400000.0625,534.489990234375,-11368.849609375,-400000.0625,-10598.849609375,-400000.0625,-25000.05078125,-400000.0625
221.02608251571655,-400000.0625,570.1099853515625,-11337.51953125,-400000.0625,-10570.8095703125,-400000.0625,-24975.349609375,-400000.0625
221.02608633041382,-400000.0625,644.8699951171875,-11266.2802734375,-400000.0625,-10512.3095703125,-400000.0625,-24943.830078125,-400000.0625
221.0260899066925,-400000.0625,643.969970703125,-11271.8095703125,-400000.0625,-10506.2001953125,-400000.0625,-24930.2890625,-400000.0625
221.0260934829712,-400000.0625,576.2100219726562,-11330.9404296875,-400000.0625,-10555.75,-400000.0625,-24949.890625,-400000.0625
221.02609705924988,-400000.0625,536.25,-11370.4697265625,-400000.0625,-10600.08984375,-400000.0625,-24987.75,-400000.0625
221.02610063552856,-400000.0625,572.010009765625,-11340.6201171875,-400000.0625,-10571.33984375,-400000.0625,-24968.05078125,-400000.0625
221.02610445022583,-400000.0625,634.5700073242188,-11281.4404296875,-400000.0625,-10512.8798828125,-400000.0625,-24926.08984375,-400000.0625
221.0261082649231,-400000.0625,639.1500244140625,-11274.669921875,-400000.0625,-10500.3798828125,-400000.0625,-24923.380859375,-400000.0625
221.05166673660278,-400000.0625,574.4000244140625,-11329.990234375,-400000.0625,-10551.83984375,-400000.0625,-24967.4296875,-400000.0625
221.0568425655365,-400000.0625,538.72998046875,-11374.4296875,-400000.0625,-10598.7099609375,-400000.0625,-25006.869140625,-400000.0625
221.06184005737305,-400000.0625,564.6199951171875,-11355.01953125,-400000.0625,-10567.48046875,-400000.0625,-24970.869140625,-400000.0625
221.0618495941162,-400000.0625,606.3499755859375,-11307.91015625,-400000.0625,-10508.16015625,-400000.0625,-24939.01953125,-400000.0625
221.0662660598755,-400000.0625,622.8900146484375,-11300.7998046875,-400000.0625,-10509.2998046875,-400000.0625,-24899.390625,-400000.0625
221.06627416610718,-400000.0625,576.969970703125,-11353.919921875,-400000.0625,-10566.4296875,-400000.0625,-24931.0,-400000.0625
221.06627821922302,-400000.0625,535.010009765625,-11396.7001953125,-400000.0625,-10606.150390625,-400000.0625,-24970.33984375,-400000.0625
221.0662820339203,-400000.0625,558.9500122070312,-11369.900390625,-400000.0625,-10576.76953125,-400000.0625,-24964.759765625,-400000.0625
221.0662863254547,-400000.0625,614.8300170898438,-11318.7802734375,-400000.0625,-10528.759765625,-400000.0625,-24910.98046875,-400000.0625
221.06629014015198,-400000.0625,624.7000122070312,-11308.0,-400000.0625,-10513.259765625,-400000.0625,-24910.310546875,-400000.0625
221.06629395484924,-400000.0625,565.1500244140625,-11356.5498046875,-400000.0625,-10552.9296875,-400000.0625,-24950.7890625,-400000.0625
221.0662977695465,-400000.0625,524.0900268554688,-11398.75,-400000.0625,-10589.080078125,-400000.0625,-24972.6796875,-400000.0625
221.06630158424377,-400000.0625,551.8900146484375,-11371.4697265625,-400000.0625,-10566.6201171875,-400000.0625,-24966.8203125,-400000.0625
221.06630563735962,-400000.0625,613.8300170898438,-11312.009765625,-400000.0625,-10514.740234375,-400000.0625,-24921.279296875,-400000.0625
221.06630945205688,-400000.0625,625.4199829101562,-11300.849609375,-400000.0625,-10502.76953125,-400000.0625,-24906.01953125,-400000.0625
221.06631350517273,-400000.0625,575.02001953125,-11352.919921875,-400000.0625,-10553.169921875,-400000.0625,-24959.23046875,-400000.0625
221.11811542510986,-400000.0625,536.3499755859375,-11390.259765625,-400000.0625,-10597.75,-400000.0625,-24984.599609375,-400000.0625
221.13092517852783,-400000.0625,564.0499877929688,-11356.9296875,-400000.0625,-10567.3798828125,-400000.0625,-24933.19921875,-400000.0625
221.13543677330017,-400000.0625,620.6500244140625,-11307.76953125,-400000.0625,-10511.349609375,-400000.0625,-24900.73046875,-400000.0625
221.13544607162476,-400000.0625,622.5599975585938,-11311.150390625,-400000.0625,-10513.8798828125,-400000.0625,-24907.01953125,-400000.0625
221.13545060157776,-400000.0625,573.489990234375,-11357.7900390625,-400000.0625,-10565.3798828125,-400000.0625,-24954.990234375,-400000.0625
221.13545417785645,-400000.0625,524.5700073242188,-11398.26953125,-400000.0625,-10598.4697265625,-400000.0625,-25001.720703125,-400000.0625
221.13545775413513,-400000.0625,548.3599853515625,-11377.5703125,-400000.0625,-10572.240234375,-400000.0625,-24972.73046875,-400000.0625
221.13546133041382,-400000.0625,603.719970703125,-11319.1103515625,-400000.0625,-10515.3095703125,-400000.0625,-24920.900390625,-400000.0625
221.1354649066925,-400000.0625,613.1199951171875,-11314.73046875,-400000.0625,-10505.3896484375,-400000.0625,-24900.060546875,-400000.0625
221.1354684829712,-400000.0625,573.8300170898438,-11360.740234375,-400000.0625,-10556.2197265625,-400000.0625,-24937.16015625,-400000.0625
221.13547205924988,-400000.0625,542.02001953125,-11394.650390625,-400000.0625,-10598.1396484375,-400000.0625,-24973.25,-400000.0625
221.13547563552856,-400000.0625,562.9099731445312,-11368.5595703125,-400000.0625,-10571.76953125,-400000.0625,-24955.369140625,-400000.0625
221.13547921180725,-400000.0625,623.989990234375,-11311.8701171875,-400000.0625,-10513.9697265625,-400000.0625,-24918.650390625,-400000.0625
221.13548278808594,-400000.0625,628.9000244140625,-11303.330078125,-400000.0625,-10505.9599609375,-400000.0625,-24902.349609375,-400000.0625
221.13548636436462,-400000.0625,574.5399780273438,-11352.01953125,-400000.0625,-10557.4599609375,-400000.0625,-24934.490234375,-400000.0625
221.1354899406433,-400000.0625,531.3900146484375,-11393.830078125,-400000.0625,-10603.6201171875,-400000.0625,-24974.58984375,-400000.0625
221.2215383052826,-400000.0625,557.1400146484375,-11370.1396484375,-400000.0625,-10581.259765625,-400000.0625,-24965.580078125,-400000.0625
221.2347137928009,-400000.0625,615.8800048828125,-11315.4404296875,-400000.0625,-10519.2197265625,-400000.0625,-24917.080078125,-400000.0625
221.23965311050415,-400000.0625,631.0900268554688,-11306.91015625,-400000.0625,-10509.6796875,-400000.0625,-24912.0703125,-400000.0625
221.23966240882874,-400000.0625,581.1699829101562,-11351.009765625,-400000.0625,-10558.1796875,-400000.0625,-24939.490234375,-400000.0625
221.23966646194458,-400000.0625,527.9500122070312,-11399.7001953125,-400000.0625,-10600.4296875,-400000.0625,-24996.380859375,-400000.0625
221.23967051506042,-400000.0625,541.5,-11381.2900390625,-400000.0625,-10584.8798828125,-400000.0625,-24964.4296875,-400000.0625
221.2396743297577,-400000.0625,604.6799926757812,-11322.01953125,-400000.0625,-10523.990234375,-400000.0625,-24900.580078125,-400000.0625
221.23967814445496,-400000.0625,617.6500244140625,-11310.0498046875,-400000.0625,-10517.9296875,-400000.0625,-24903.490234375,-400000.0625
221.23968172073364,-400000.0625,571.5800170898438,-11356.259765625,-400000.0625,-10561.419921875,-400000.0625,-24944.830078125,-400000.0625
221.2396855354309,-400000.0625,525.6199951171875,-11407.2802734375,-400000.0625,-10598.3701171875,-400000.0625,-24990.130859375,-400000.0625
221.2396891117096,-400000.0625,545.6400146484375,-11382.5302734375,-400000.0625,-10575.3896484375,-400000.0625,-24982.259765625,-400000.0625
221.23969292640686,-400000.0625,610.780029296875,-11322.9296875,-400000.0625,-10522.2197265625,-400000.0625,-24929.810546875,-400000.0625
221.23969674110413,-400000.0625,625.0900268554688,-11309.099609375,-400000.0625,-10508.490234375,-400000.0625,-24919.1796875,-400000.0625
221.2397005558014,-400000.0625,571.72998046875,-11355.6904296875,-400000.0625,-10553.7900390625,-400000.0625,-24946.740234375,-400000.0625
221.23970413208008,-400000.0625,526.0,-11398.1298828125,-400000.0625,-10599.2802734375,-400000.0625,-24981.9296875,-400000.0625
221.2397084236145,-400000.0625,558.1900024414062,-11368.2802734375,-400000.0625,-10572.48046875,-400000.0625,-24958.330078125,-400000.0625
221.2581775188446,-400000.0625,616.8800048828125,-11316.009765625,-400000.0625,-10525.080078125,-400000.0625,-24911.119140625,-400000.0625
221.26378989219666,-400000.0625,628.0399780273438,-11307.48046875,-400000.0625,-10512.400390625,-400000.0625,-24901.009765625,-400000.0625
221.26823616027832,-400000.0625,578.3099975585938,-11354.2998046875,-400000.0625,-10556.75,-400000.0625,-24949.4609375,-400000.0625
221.2682454586029,-400000.0625,531.0499877929688,-11402.080078125,-400000.0625,-10603.759765625,-400000.0625,-24995.140625,-400000.0625
221.26825070381165,-400000.0625,550.7899780273438,-11374.51953125,-400000.0625,-10577.73046875,-400000.0625,-24968.8203125,-400000.0625
221.2682547569275,-400000.0625,603.1500244140625,-11323.7900390625,-400000.0625,-10524.1796875,-400000.0625,-24914.3203125,-400000.0625
221.26825833320618,-400000.0625,628.0399780273438,-11308.4296875,-400000.0625,-10518.3603515625,-400000.0625,-24896.9609375,-400000.0625
221.26826214790344,-400000.0625,584.5499877929688,-11345.9599609375,-400000.0625,-10556.7900390625,-400000.0625,-24926.51953125,-400000.0625
221.2682659626007,-400000.0625,531.0999755859375,-11395.0302734375,-400000.0625,-10593.75,-400000.0625,-24982.310546875,-400000.0625
221.2682695388794,-400000.0625,559.0399780273438,-11376.330078125,-400000.0625,-10572.009765625,-400000.0625,-24965.150390625,-400000.0625
221.26827311515808,-400000.0625,614.4500122070312,-11322.7900390625,-400000.0625,-10521.26953125,-400000.0625,-24919.470703125,-400000.0625
221.26827669143677,-400000.0625,620.8900146484375,-11315.3896484375,-400000.0625,-10512.3095703125,-400000.0625,-24914.509765625,-400000.0625
221.26828050613403,-400000.0625,572.8200073242188,-11363.5595703125,-400000.0625,-10558.1796875,-400000.0625,-24938.869140625,-400000.0625
221.26828408241272,-400000.0625,527.8099975585938,-11398.1298828125,-400000.0625,-10596.66015625,-400000.0625,-24987.1796875,-400000.0625
221.26828789710999,-400000.0625,553.0399780273438,-11373.0,-400000.0625,-10576.009765625,-400000.0625,-24970.630859375,-400000.0625
221.26829171180725,-400000.0625,611.1099853515625,-11319.2099609375,-400000.0625,-10520.599609375,-400000.0625,-24918.369140625,-400000.0625
221.31536102294922,-400000.0625,622.7999877929688,-11311.2001953125,-400000.0625,-10510.6796875,-400000.0625,-24920.900390625,-400000.0625
221.32120060920715,-400000.0625,576.8800048828125,-11357.1201171875,-400000.0625,-10560.3203125,-400000.0625,-24937.919921875,-400000.0625
221.3258626461029,-400000.0625,532.2899780273438,-11395.169921875,-400000.0625,-10601.0400390625,-400000.0625,-24969.630859375,-400000.0625
221.33391451835632,-400000.0625,556.989990234375,-11375.4296875,-400000.0625,-10576.490234375,-400000.0625,-24956.419921875,-400000.0625
221.33846879005432,-400000.0625,617.5499877929688,-11315.5400390625,-400000.0625,-10511.349609375,-400000.0625,-24913.890625,-400000.0625
221.3384771347046,-400000.0625,633.9099731445312,-11297.419921875,-400000.0625,-10499.5703125,-400000.0625,-24909.2109375,-400000.0625
221.33848118782043,-400000.0625,589.3200073242188,-11344.2900390625,-400000.0625,-10554.169921875,-400000.0625,-24955.470703125,-400000.0625
221.33848524093628,-400000.0625,546.3599853515625,-11385.8203125,-400000.0625,-10596.23046875,-400000.0625,-24990.279296875,-400000.0625
221.33848929405212,-400000.0625,563.5700073242188,-11367.4697265625,-400000.0625,-10576.5400390625,-400000.0625,-24956.66015625,-400000.0625
221.3384931087494,-400000.0625,628.52001953125,-11311.009765625,-400000.0625,-10517.6904296875,-400000.0625,-24898.630859375,-400000.0625
221.33849668502808,-400000.0625,641.5800170898438,-11302.23046875,-400000.0625,-10506.4404296875,-400000.0625,-24888.7109375,-400000.0625
221.33850049972534,-400000.0625,583.4099731445312,-11356.01953125,-400000.0625,-10558.2197265625,-400000.0625,-24930.33984375,-400000.0625
221.3385043144226,-400000.0625,537.2000122070312,-11398.599609375,-400000.0625,-10608.009765625,-400000.0625,-24960.619140625,-400000.0625
221.33850812911987,-400000.0625,563.8599853515625,-11368.900390625,-400000.0625,-10582.8798828125,-400000.0625,-24959.330078125,-400000.0625
221.33851170539856,-400000.0625,611.6900024414062,-11317.830078125,-400000.0625,-10527.08984375,-400000.0625,-24911.9296875,-400000.0625
221.33851552009583,-400000.0625,640.5399780273438,-11302.08984375,-400000.0625,-10510.8798828125,-400000.0625,-24887.66015625,-400000.0625
221.37145566940308,-400000.0625,611.3499755859375,-11340.08984375,-400000.0625,-10547.73046875,-400000.0625,-24930.76953125,-400000.0625
221.37665843963623,-400000.0625,550.1699829101562,-11388.16015625,-400000.0625,-10593.3701171875,-400000.0625,-24974.060546875,-400000.0625
221.38121056556702,-400000.0625,563.6699829101562,-11378.669921875,-400000.0625,-10578.8203125,-400000.0625,-24957.759765625,-400000.0625
221.3812177181244,-400000.0625,615.6400146484375,-11329.26953125,-400000.0625,-10528.900390625,-400000.0625,-24918.609375,-400000.0625
221.38122177124023,-400000.0625,628.760009765625,-11310.5302734375,-400000.0625,-10516.1201171875,-400000.0625,-24920.560546875,-400000.0625
221.38122534751892,-400000.0625,575.4500122070312,-11349.0595703125,-400000.0625,-10561.75,-400000.0625,-24962.619140625,-400000.0625
221.38122868537903,-400000.0625,523.1400146484375,-11400.41015625,-400000.0625,-10602.0498046875,-400000.0625,-24956.66015625,-400000.0625
221.38123202323914,-400000.0625,556.1799926757812,-11380.669921875,-400000.0625,-10577.16015625,-400000.0625,-24952.69921875,-400000.0625
221.38123559951782,-400000.0625,622.1799926757812,-11323.7900390625,-400000.0625,-10525.66015625,-400000.0625,-24903.060546875,-400000.0625
221.38123869895935,-400000.0625,638.1500244140625,-11309.7197265625,-400000.0625,-10513.9697265625,-400000.0625,-24893.94921875,-400000.0625
221.38124203681946,-400000.0625,588.3200073242188,-11356.5,-400000.0625,-10557.75,-400000.0625,-24930.720703125,-400000.0625
221.38124537467957,-400000.0625,538.2999877929688,-11397.740234375,-400000.0625,-10602.4296875,-400000.0625,-24978.0703125,-400000.0625
221.381249666214,-400000.0625,555.9400024414062,-11375.0498046875,-400000.0625,-10585.98046875,-400000.0625,-24968.9609375,-400000.0625
221.3812530040741,-400000.0625,614.4000244140625,-11320.0703125,-400000.0625,-10524.1298828125,-400000.0625,-24919.990234375,-400000.0625
221.3814172744751,-400000.0625,625.9400024414062,-11310.009765625,-400000.0625,-10512.5,-400000.0625,-24890.7109375,-400000.0625
221.38142156600952,-400000.0625,577.1599731445312,-11356.0703125,-400000.0625,-10566.4697265625,-400000.0625,-24932.8203125,-400000.0625
221.43808460235596,-400000.0625,534.3400268554688,-11390.9697265625,-400000.0625,-10600.9501953125,-400000.0625,-24984.119140625,-400000.0625
221.45188689231873,-400000.0625,555.5599975585938,-11369.4697265625,-400000.0625,-10576.76953125,-400000.0625,-24976.44921875,-400000.0625
221.45674514770508,-400000.0625,622.4600219726562,-11311.5302734375,-400000.0625,-10522.83984375,-400000.0625,-24924.5703125,-400000.0625
221.45675373077393,-400000.0625,656.5599975585938,-11283.1103515625,-400000.0625,-10512.9296875,-400000.0625,-24915.560546875,-400000.0625
221.45675826072693,-400000.0625,615.5,-11314.9697265625,-400000.0625,-10551.7900390625,-400000.0625,-24961.51953125,-400000.0625
221.45676183700562,-400000.0625,561.9500122070312,-11353.6796875,-400000.0625,-10593.3701171875,-400000.0625,-25012.970703125,-400000.0625
221.45676565170288,-400000.0625,590.989990234375,-11331.6103515625,-400000.0625,-10571.8095703125,-400000.0625,-24994.66015625,-400000.0625
221.45676946640015,-400000.0625,663.7100219726562,-11262.0400390625,-400000.0625,-10508.5400390625,-400000.0625,-24956.3203125,-400000.0625
221.45677304267883,-400000.0625,678.6799926757812,-11240.91015625,-400000.0625,-10495.330078125,-400000.0625,-24935.150390625,-400000.0625
221.45677661895752,-400000.0625,639.25,-11278.4404296875,-400000.0625,-10528.849609375,-400000.0625,-24977.689453125,-400000.0625
221.45678043365479,-400000.0625,579.8300170898438,-11331.5595703125,-400000.0625,-10586.01953125,-400000.0625,-25027.23046875,-400000.0625
221.45678424835205,-400000.0625,585.4600219726562,-11327.3203125,-400000.0625,-10577.3896484375,-400000.0625,-25014.119140625,-400000.0625
221.45678782463074,-400000.0625,645.5399780273438,-11270.330078125,-400000.0625,-10518.5498046875,-400000.0625,-24971.76953125,-400000.0625
221.45679187774658,-400000.0625,656.6500244140625,-11259.080078125,-400000.0625,-10505.2998046875,-400000.0625,-24949.650390625,-400000.0625
221.45679640769958,-400000.0625,622.989990234375,-11296.990234375,-400000.0625,-10549.8798828125,-400000.0625,-24971.060546875,-400000.0625
221.45680022239685,-400000.0625,578.97998046875,-11337.849609375,-400000.0625,-10595.23046875,-400000.0625,-25018.26953125,-400000.0625
221.5223205089569,-400000.0625,596.4299926757812,-11319.349609375,-400000.0625,-10573.669921875,-400000.0625,-25001.669921875,-400000.0625
221.52757906913757,-400000.0625,660.469970703125,-11259.1298828125,-400000.0625,-10522.080078125,-400000.0625,-24961.94921875,-400000.0625
221.53199434280396,-400000.0625,668.239990234375,-11243.2998046875,-400000.0625,-10509.4404296875,-400000.0625,-24964.2890625,-400000.0625
221.53200221061707,-400000.0625,617.739990234375,-11294.4599609375,-400000.0625,-10546.5400390625,-400000.0625,-24981.359375,-400000.0625
221.5320062637329,-400000.0625,572.489990234375,-11340.4296875,-400000.0625,-10589.83984375,-400000.0625,-25027.7109375,-400000.0625
221.53201055526733,-400000.0625,593.3300170898438,-11318.0703125,-400000.0625,-10564.759765625,-400000.0625,-25007.73046875,-400000.0625
221.53201413154602,-400000.0625,642.5900268554688,-11265.23046875,-400000.0625,-10504.33984375,-400000.0625,-24947.55078125,-400000.0625
221.5320177078247,-400000.0625,656.3200073242188,-11255.3603515625,-400000.0625,-10495.2802734375,-400000.0625,-24933.390625,-400000.0625
221.53202176094055,-400000.0625,619.219970703125,-11294.2197265625,-400000.0625,-10546.01953125,-400000.0625,-24983.119140625,-400000.0625
221.53202557563782,-400000.0625,575.8300170898438,-11339.240234375,-400000.0625,-10587.650390625,-400000.0625,-25042.779296875,-400000.0625
221.5320291519165,-400000.0625,583.510009765625,-11324.5,-400000.0625,-10573.25,-400000.0625,-25018.359375,-400000.0625
221.53203296661377,-400000.0625,644.4000244140625,-11265.419921875,-400000.0625,-10516.8798828125,-400000.0625,-24950.3203125,-400000.0625
221.53203654289246,-400000.0625,671.010009765625,-11251.16015625,-400000.0625,-10497.3798828125,-400000.0625,-24928.859375,-400000.0625
221.53204035758972,-400000.0625,627.8499755859375,-11294.26953125,-400000.0625,-10542.8203125,-400000.0625,-24977.640625,-400000.0625
221.5320439338684,-400000.0625,574.0599975585938,-11337.08984375,-400000.0625,-10594.990234375,-400000.0625,-25024.849609375,-400000.0625
221.5320475101471,-400000.0625,588.8499755859375,-11317.919921875,-400000.0625,-10573.48046875,-400000.0625,-24996.859375,-400000.0625
221.60661053657532,-400000.0625,651.5999755859375,-11265.66015625,-400000.0625,-10507.73046875,-400000.0625,-24949.650390625,-400000.0625
221.61984634399414,-400000.0625,680.6400146484375,-11243.009765625,-400000.0625,-10484.8896484375,-400000.0625,-24921.80078125,-400000.0625
221.6253843307495,-400000.0625,635.2899780273438,-11287.3095703125,-400000.0625,-10541.0595703125,-400000.0625,-24981.310546875,-400000.0625
221.63103127479553,-400000.0625,579.1699829101562,-11333.990234375,-400000.0625,-10598.9501953125,-400000.0625,-25036.189453125,-400000.0625
221.63597798347473,-400000.0625,590.0399780273438,-11321.400390625,-400000.0625,-10579.1103515625,-400000.0625,-25007.109375,-400000.0625
221.6359887123108,-400000.0625,649.2100219726562,-11267.3798828125,-400000.0625,-10517.650390625,-400000.0625,-24965.380859375,-400000.0625
221.63599276542664,-400000.0625,668.8099975585938,-11253.5498046875,-400000.0625,-10502.76953125,-400000.0625,-24937.6796875,-400000.0625
221.63599634170532,-400000.0625,617.1699829101562,-11294.41015625,-400000.0625,-10544.25,-400000.0625,-24973.060546875,-400000.0625
221.63600158691406,-400000.0625,562.47998046875,-11338.8603515625,-400000.0625,-10589.3603515625,-400000.0625,-25024.0390625,-400000.0625
221.63600516319275,-400000.0625,587.5599975585938,-11320.259765625,-400000.0625,-10567.48046875,-400000.0625,-25017.310546875,-400000.0625
221.63600945472717,-400000.0625,653.4099731445312,-11269.4296875,-400000.0625,-10516.5,-400000.0625,-24959.7109375,-400000.0625
221.63601326942444,-400000.0625,672.25,-11249.9296875,-400000.0625,-10499.33984375,-400000.0625,-24944.58984375,-400000.0625
221.63601732254028,-400000.0625,624.7999877929688,-11290.3095703125,-400000.0625,-10546.5400390625,-400000.0625,-24995.4296875,-400000.0625
221.63602137565613,-400000.0625,568.3400268554688,-11341.759765625,-400000.0625,-10594.4599609375,-400000.0625,-25039.6796875,-400000.0625
221.63602495193481,-400000.0625,586.3699951171875,-11320.400390625,-400000.0625,-10577.16015625,-400000.0625,-25014.9296875,-400000.0625
221.63602876663208,-400000.0625,642.4000244140625,-11260.080078125,-400000.0625,-10514.6904296875,-400000.0625,-24960.08984375,-400000.0625
221.63603234291077,-400000.0625,671.530029296875,-11240.8203125,-400000.0625,-10498.669921875,-400000.0625,-24958.470703125,-400000.0625
221.6360363960266,-400000.0625,626.1300048828125,-11289.3095703125,-400000.0625,-10548.01953125,-400000.0625,-24977.400390625,-400000.0625
221.64131879806519,-400000.0625,575.8300170898438,-11333.990234375,-400000.0625,-10590.169921875,-400000.0625,-25022.83984375,-400000.0625
221.64732933044434,-400000.0625,596.4299926757812,-11314.4404296875,-400000.0625,-10572.4296875,-400000.0625,-25009.060546875,-400000.0625
221.65282773971558,-400000.0625,656.3200073242188,-11264.330078125,-400000.0625,-10522.0302734375,-400000.0625,-24951.69921875,-400000.0625
221.6575629711151,-400000.0625,666.6699829101562,-11246.58984375,-400000.0625,-10504.0595703125,-400000.0625,-24955.560546875,-400000.0625
221.65757250785828,-400000.0625,615.02001953125,-11285.58984375,-400000.0625,-10547.400390625,-400000.0625,-24996.4296875,-400000.0625
221.6575767993927,-400000.0625,572.8200073242188,-11328.26953125,-400000.0625,-10586.01953125,-400000.0625,-25021.4609375,-400000.0625
221.65758061408997,-400000.0625,589.510009765625,-11315.2001953125,-400000.0625,-10569.2900390625,-400000.0625,-25014.880859375,-400000.0625
221.6575849056244,-400000.0625,646.3099975585938,-11264.4697265625,-400000.0625,-10520.7001953125,-400000.0625,-24959.08984375,-400000.0625
221.65758872032166,-400000.0625,684.3099975585938,-11234.240234375,-400000.0625,-10501.099609375,-400000.0625,-24938.490234375,-400000.0625
221.65759229660034,-400000.0625,645.4000244140625,-11272.669921875,-400000.0625,-10540.9599609375,-400000.0625,-24984.3203125,-400000.0625
221.6575961112976,-400000.0625,577.1599731445312,-11333.3203125,-400000.0625,-10599.5703125,-400000.0625,-25041.060546875,-400000.0625
221.65760016441345,-400000.0625,589.9400024414062,-11313.8701171875,-400000.0625,-10582.8798828125,-400000.0625,-25033.380859375,-400000.0625
221.65760445594788,-400000.0625,646.02001953125,-11267.1396484375,-400000.0625,-10520.3203125,-400000.0625,-24986.130859375,-400000.0625
221.6576087474823,-400000.0625,662.5700073242188,-11244.73046875,-400000.0625,-10493.5703125,-400000.0625,-24941.640625,-400000.0625
221.70189809799194,-400000.0625,622.3200073242188,-11279.7802734375,-400000.0625,-10541.2998046875,-400000.0625,-24988.80078125,-400000.0625
221.70718812942505,-400000.0625,580.4500122070312,-11323.8798828125,-400000.0625,-10592.1796875,-400000.0625,-25026.1796875,-400000.0625
221.7196159362793,-400000.0625,602.9099731445312,-11305.1396484375,-400000.0625,-10570.580078125,-400000.0625,-25016.169921875,-400000.0625
221.72435760498047,-400000.0625,659.3200073242188,-11251.0703125,-400000.0625,-10514.7900390625,-400000.0625,-24967.630859375,-400000.0625
221.72436618804932,-400000.0625,684.0700073242188,-11229.9501953125,-400000.0625,-10493.51953125,-400000.0625,-24946.5,-400000.0625
221.72437143325806,-400000.0625,634.3800048828125,-11266.849609375,-400000.0625,-10535.8603515625,-400000.0625,-24991.3203125,-400000.0625
221.72437524795532,-400000.0625,580.9299926757812,-11320.8798828125,-400000.0625,-10589.7900390625,-400000.0625,-25035.9609375,-400000.0625
221.724378824234,-400000.0625,596.280029296875,-11308.2900390625,-400000.0625,-10569.8603515625,-400000.0625,-25028.419921875,-400000.0625
221.72438263893127,-400000.0625,661.9000244140625,-11248.2998046875,-400000.0625,-10517.650390625,-400000.0625,-24966.19921875,-400000.0625
221.72438597679138,-400000.0625,687.6500244140625,-11226.0400390625,-400000.0625,-10496.330078125,-400000.0625,-24936.630859375,-400000.0625
221.7243893146515,-400000.0625,639.9600219726562,-11270.48046875,-400000.0625,-10530.849609375,-400000.0625,-24983.650390625,-400000.0625
221.72439312934875,-400000.0625,585.1300048828125,-11319.5,-400000.0625,-10584.6904296875,-400000.0625,-25023.69921875,-400000.0625
221.72439670562744,-400000.0625,598.3400268554688,-11302.8095703125,-400000.0625,-10568.8603515625,-400000.0625,-25025.939453125,-400000.0625
221.72440099716187,-400000.0625,654.510009765625,-11250.2099609375,-400000.0625,-10515.41015625,-400000.0625,-24976.16015625,-400000.0625
221.72440457344055,-400000.0625,676.0599975585938,-11234.48046875,-400000.0625,-10496.9501953125,-400000.0625,-24943.44921875,-400000.0625
221.72440814971924,-400000.0625,626.52001953125,-11280.73046875,-400000.0625,-10542.8203125,-400000.0625,-24995.759765625,-400000.0625
221.75653052330017,-400000.0625,565.5800170898438,-11328.41015625,-400000.0625,-10592.990234375,-400000.0625,-25049.359375,-400000.0625
221.76232171058655,-400000.0625,585.7000122070312,-11312.009765625,-400000.0625,-10573.25,-400000.0625,-25013.740234375,-400000.0625
221.76680064201355,-400000.0625,659.5599975585938,-11251.98046875,-400000.0625,-10509.16015625,-400000.0625,-24959.51953125,-400000.0625
221.76680970191956,-400000.0625,684.4500122070312,-11234.08984375,-400000.0625,-10485.83984375,-400000.0625,-24939.400390625,-400000.0625
221.76681447029114,-400000.0625,620.4099731445312,-11287.5,-400000.0625,-10538.91015625,-400000.0625,-24984.3203125,-400000.0625
221.7668182849884,-400000.0625,560.1900024414062,-11338.66015625,-400000.0625,-10597.5595703125,-400000.0625,-25035.580078125,-400000.0625
221.76682233810425,-400000.0625,578.8300170898438,-11323.830078125,-400000.0625,-10589.41015625,-400000.0625,-25031.380859375,-400000.0625
221.7668263912201,-400000.0625,647.6900024414062,-11267.2802734375,-400000.0625,-10524.1298828125,-400000.0625,-24981.880859375,-400000.0625
221.7668318748474,-400000.0625,669.8599853515625,-11246.0595703125,-400000.0625,-10499.1904296875,-400000.0625,-24968.720703125,-400000.0625
221.7668354511261,-400000.0625,622.7000122070312,-11284.5400390625,-400000.0625,-10545.58984375,-400000.0625,-25008.869140625,-400000.0625
221.76683926582336,-400000.0625,569.3900146484375,-11330.7001953125,-400000.0625,-10600.4697265625,-400000.0625,-25045.25,-400000.0625
221.76684284210205,-400000.0625,581.219970703125,-11315.919921875,-400000.0625,-10581.0703125,-400000.0625,-25050.119140625,-400000.0625
221.7668468952179,-400000.0625,635.3900146484375,-11261.5595703125,-400000.0625,-10521.4599609375,-400000.0625,-24983.359375,-400000.0625
221.76685118675232,-400000.0625,669.4299926757812,-11239.240234375,-400000.0625,-10498.0,-400000.0625,-24950.3203125,-400000.0625
221.76685500144958,-400000.0625,634.9600219726562,-11278.5400390625,-400000.0625,-10540.9599609375,-400000.0625,-24993.7109375,-400000.0625
221.76685905456543,-400000.0625,578.739990234375,-11325.8896484375,-400000.0625,-10593.1298828125,-400000.0625,-25027.900390625,-400000.0625
221.8182897567749,-400000.0625,593.469970703125,-11309.2001953125,-400000.0625,-10576.33984375,-400000.0625,-25026.609375,-400000.0625
221.83175587654114,-400000.0625,652.97998046875,-11254.6904296875,-400000.0625,-10522.41015625,-400000.0625,-24986.509765625,-400000.0625
221.8360357284546,-400000.0625,673.4400024414062,-11234.900390625,-400000.0625,-10500.76953125,-400000.0625,-24965.2890625,-400000.0625
221.83604621887207,-400000.0625,626.9500122070312,-11273.8095703125,-400000.0625,-10541.5400390625,-400000.0625,-24990.849609375,-400000.0625
221.8360505104065,-400000.0625,571.5800170898438,-11327.169921875,-400000.0625,-10587.650390625,-400000.0625,-25034.05078125,-400000.0625
221.8360562324524,-400000.0625,592.3699951171875,-11317.830078125,-400000.0625,-10573.669921875,-400000.0625,-25042.30078125,-400000.0625
221.8360607624054,-400000.0625,649.1199951171875,-11261.0400390625,-400000.0625,-10521.0302734375,-400000.0625,-24988.509765625,-400000.0625
221.83606481552124,-400000.0625,668.6199951171875,-11237.9599609375,-400000.0625,-10492.990234375,-400000.0625,-24944.689453125,-400000.0625
221.83606839179993,-400000.0625,625.3200073242188,-11283.259765625,-400000.0625,-10527.900390625,-400000.0625,-24981.359375,-400000.0625
221.83607244491577,-400000.0625,563.1400146484375,-11337.330078125,-400000.0625,-10579.6796875,-400000.0625,-25038.9609375,-400000.0625
221.83607625961304,-400000.0625,577.1199951171875,-11332.080078125,-400000.0625,-10583.349609375,-400000.0625,-25026.990234375,-400000.0625
221.83608031272888,-400000.0625,637.719970703125,-11284.9697265625,-400000.0625,-10530.23046875,-400000.0625,-24983.740234375,-400000.0625
221.8360846042633,-400000.0625,659.7000122070312,-11266.1396484375,-400000.0625,-10503.91015625,-400000.0625,-24934.869140625,-400000.0625
221.83608889579773,-400000.0625,615.02001953125,-11307.0,-400000.0625,-10544.8701171875,-400000.0625,-24972.30078125,-400000.0625
221.83609318733215,-400000.0625,568.77001953125,-11341.669921875,-400000.0625,-10584.8798828125,-400000.0625,-25020.080078125,-400000.0625
221.83609700202942,-400000.0625,578.6900024414062,-11328.7001953125,-400000.0625,-10574.0595703125,-400000.0625,-25010.44921875,-400000.0625
221.89296960830688,-400000.0625,631.7100219726562,-11283.1103515625,-400000.0625,-10524.849609375,-400000.0625,-24969.150390625,-400000.0625
221.89823579788208,-400000.0625,649.739990234375,-11272.7197265625,-400000.0625,-10506.349609375,-400000.0625,-24945.0703125,-400000.0625
221.90340518951416,-400000.0625,610.4000244140625,-11309.9599609375,-400000.0625,-10548.2099609375,-400000.0625,-24999.720703125,-400000.0625
221.90795350074768,-400000.0625,555.7100219726562,-11358.6904296875,-400000.0625,-10601.7099609375,-400000.0625,-25026.51953125,-400000.0625
221.90796303749084,-400000.0625,569.530029296875,-11343.580078125,-400000.0625,-10583.5,-400000.0625,-24996.380859375,-400000.0625
221.90796780586243,-400000.0625,633.4299926757812,-11285.349609375,-400000.0625,-10524.5595703125,-400000.0625,-24962.380859375,-400000.0625
221.907972574234,-400000.0625,651.7899780273438,-11261.3203125,-400000.0625,-10502.7197265625,-400000.0625,-24942.0703125,-400000.0625
221.90797638893127,-400000.0625,598.4299926757812,-11308.669921875,-400000.0625,-10548.349609375,-400000.0625,-24986.080078125,-400000.0625
221.90798020362854,-400000.0625,548.5499877929688,-11362.98046875,-400000.0625,-10602.1396484375,-400000.0625,-25022.69921875,-400000.0625
221.9079840183258,-400000.0625,573.6799926757812,-11340.48046875,-400000.0625,-10584.0703125,-400000.0625,-25023.560546875,-400000.0625
221.90798807144165,-400000.0625,632.8099975585938,-11286.5,-400000.0625,-10533.51953125,-400000.0625,-24961.279296875,-400000.0625
221.90799164772034,-400000.0625,654.97998046875,-11266.330078125,-400000.0625,-10509.1103515625,-400000.0625,-24933.439453125,-400000.0625
221.90799570083618,-400000.0625,601.719970703125,-11313.9599609375,-400000.0625,-10549.740234375,-400000.0625,-24981.55078125,-400000.0625
221.90799927711487,-400000.0625,549.75,-11365.8896484375,-400000.0625,-10602.48046875,-400000.0625,-25031.810546875,-400000.0625
221.9080035686493,-400000.0625,567.25,-11349.580078125,-400000.0625,-10593.3203125,-400000.0625,-25003.05078125,-400000.0625
221.90800738334656,-400000.0625,627.9000244140625,-11292.26953125,-400000.0625,-10535.33984375,-400000.0625,-24965.91015625,-400000.0625
221.97789430618286,-400000.0625,648.0700073242188,-11265.4697265625,-400000.0625,-10512.01953125,-400000.0625,-24959.419921875,-400000.0625
221.99196934700012,-400000.0625,607.1599731445312,-11304.9501953125,-400000.0625,-10552.3095703125,-400000.0625,-24991.51953125,-400000.0625
221.99669694900513,-400000.0625,554.0399780273438,-11358.7900390625,-400000.0625,-10601.4697265625,-400000.0625,-25007.009765625,-400000.0625
221.99670600891113,-400000.0625,561.9000244140625,-11356.6396484375,-400000.0625,-10596.08984375,-400000.0625,-24996.140625,-400000.0625
221.99671030044556,-400000.0625,615.8800048828125,-11307.2900390625,-400000.0625,-10544.8701171875,-400000.0625,-24975.490234375,-400000.0625
221.9967143535614,-400000.0625,643.2100219726562,-11277.76953125,-400000.0625,-10510.4501953125,-400000.0625,-24957.66015625,-400000.0625
221.9967179298401,-400000.0625,594.52001953125,-11313.009765625,-400000.0625,-10549.259765625,-400000.0625,-24986.83984375,-400000.0625
221.99672174453735,-400000.0625,547.7000122070312,-11360.599609375,-400000.0625,-10597.900390625,-400000.0625,-25033.669921875,-400000.0625
221.99672532081604,-400000.0625,566.47998046875,-11349.4404296875,-400000.0625,-10588.2197265625,-400000.0625,-25009.439453125,-400000.0625
221.9967291355133,-400000.0625,621.75,-11293.169921875,-400000.0625,-10535.099609375,-400000.0625,-24965.240234375,-400000.0625
221.996732711792,-400000.0625,646.780029296875,-11268.7099609375,-400000.0625,-10509.919921875,-400000.0625,-24943.880859375,-400000.0625
221.99673628807068,-400000.0625,613.3599853515625,-11308.8603515625,-400000.0625,-10552.0302734375,-400000.0625,-24962.189453125,-400000.0625
221.99674010276794,-400000.0625,551.9400024414062,-11366.23046875,-400000.0625,-10603.0,-400000.0625,-25034.619140625,-400000.0625
221.9967439174652,-400000.0625,562.1400146484375,-11352.9697265625,-400000.0625,-10595.3701171875,-400000.0625,-25023.990234375,-400000.0625
221.99674797058105,-400000.0625,617.0800170898438,-11294.9404296875,-400000.0625,-10541.8701171875,-400000.0625,-24964.759765625,-400000.0625
221.99675154685974,-400000.0625,640.2999877929688,-11275.8203125,-400000.0625,-10509.2998046875,-400000.0625,-24954.130859375,-400000.0625
222.01036667823792,-400000.0625,608.9199829101562,-11311.76953125,-400000.0625,-10542.25,-400000.0625,-24987.1796875,-400000.0625
222.01568055152893,-400000.0625,552.510009765625,-11359.7900390625,-400000.0625,-10595.9404296875,-400000.0625,-25027.80078125,-400000.0625
222.02033352851868,-400000.0625,557.0399780273438,-11353.6796875,-400000.0625,-10589.4599609375,-400000.0625,-25021.83984375,-400000.0625
222.0203423500061,-400000.0625,616.5,-11298.3701171875,-400000.0625,-10534.099609375,-400000.0625,-24993.140625,-400000.0625
222.02034640312195,-400000.0625,645.2999877929688,-11275.6298828125,-400000.0625,-10513.58984375,-400000.0625,-24948.55078125,-400000.0625
222.02035069465637,-400000.0625,615.260009765625,-11307.1904296875,-400000.0625,-10549.01953125,-400000.0625,-24954.849609375,-400000.0625
222.02035427093506,-400000.0625,560.6699829101562,-11352.6796875,-400000.0625,-10598.9501953125,-400000.0625,-25018.220703125,-400000.0625
222.02035808563232,-400000.0625,562.5700073242188,-11347.490234375,-400000.0625,-10593.26953125,-400000.0625,-25040.869140625,-400000.0625
222.0203619003296,-400000.0625,619.219970703125,-11294.0302734375,-400000.0625,-10535.8095703125,-400000.0625,-24980.259765625,-400000.0625
222.02036571502686,-400000.0625,644.489990234375,-11271.8603515625,-400000.0625,-10503.8701171875,-400000.0625,-24945.5,-400000.0625
222.02036952972412,-400000.0625,603.3900146484375,-11309.009765625,-400000.0625,-10551.5,-400000.0625,-24982.259765625,-400000.0625
222.0203733444214,-400000.0625,539.3499755859375,-11367.4697265625,-400000.0625,-10606.0,-400000.0625,-25036.099609375,-400000.0625
222.02037692070007,-400000.0625,555.469970703125,-11363.1298828125,-400000.0625,-10587.0703125,-400000.0625,-25020.509765625,-400000.0625
222.02038073539734,-400000.0625,623.989990234375,-11298.0400390625,-400000.0625,-10532.0,-400000.0625,-24965.810546875,-400000.0625
222.0203845500946,-400000.0625,642.4400024414062,-11274.8203125,-400000.0625,-10509.7802734375,-400000.0625,-24954.369140625,-400000.0625
222.02038884162903,-400000.0625,600.77001953125,-11311.91015625,-400000.0625,-10548.349609375,-400000.0625,-24980.400390625,-400000.0625
222.0753481388092,-400000.0625,549.6500244140625,-11357.400390625,-400000.0625,-10595.080078125,-400000.0625,-25036.529296875,-400000.0625
222.08065629005432,-400000.0625,559.3800048828125,-11351.2099609375,-400000.0625,-10584.1201171875,-400000.0625,-25025.75,-400000.0625
222.09311509132385,-400000.0625,623.8499755859375,-11294.650390625,-400000.0625,-10533.51953125,-400000.0625,-24971.6796875,-400000.0625
222.09770822525024,-400000.0625,651.6900024414062,-11272.33984375,-400000.0625,-10511.400390625,-400000.0625,-24957.369140625,-400000.0625
222.0977189540863,-400000.0625,600.2000122070312,-11312.2001953125,-400000.0625,-10553.1201171875,-400000.0625,-24987.75,-400000.0625
222.0977246761322,-400000.0625,544.9299926757812,-11358.830078125,-400000.0625,-10604.0498046875,-400000.0625,-25020.599609375,-400000.0625
222.0977292060852,-400000.0625,567.25,-11343.7197265625,-400000.0625,-10590.26953125,-400000.0625,-25034.140625,-400000.0625
222.09773325920105,-400000.0625,627.1799926757812,-11286.740234375,-400000.0625,-10534.7197265625,-400000.0625,-25000.4296875,-400000.0625
222.0977373123169,-400000.0625,646.5399780273438,-11264.990234375,-400000.0625,-10509.0595703125,-400000.0625,-24955.130859375,-400000.0625
222.09774112701416,-400000.0625,615.4500122070312,-11302.0400390625,-400000.0625,-10550.01953125,-400000.0625,-24982.740234375,-400000.0625
222.09774470329285,-400000.0625,565.530029296875,-11340.240234375,-400000.0625,-10596.3203125,-400000.0625,-25049.5,-400000.0625
222.09774899482727,-400000.0625,576.0700073242188,-11321.01953125,-400000.0625,-10585.9296875,-400000.0625,-25073.48046875,-400000.0625
222.09775304794312,-400000.0625,625.1799926757812,-11270.759765625,-400000.0625,-10537.7197265625,-400000.0625,-25011.01953125,-400000.0625
222.0977566242218,-400000.0625,662.9500122070312,-11243.150390625,-400000.0625,-10505.76953125,-400000.0625,-24969.439453125,-400000.0625
222.09776043891907,-400000.0625,627.469970703125,-11282.9697265625,-400000.0625,-10548.740234375,-400000.0625,-25005.529296875,-400000.0625
222.09776425361633,-400000.0625,561.760009765625,-11330.650390625,-400000.0625,-10596.7998046875,-400000.0625,-25047.58984375,-400000.0625
222.14659118652344,-400000.0625,556.760009765625,-11330.1796875,-400000.0625,-10587.5498046875,-400000.0625,-25058.939453125,-400000.0625
222.15200781822205,-400000.0625,621.8900146484375,-11271.0498046875,-400000.0625,-10530.66015625,-400000.0625,-25017.41015625,-400000.0625
222.1567668914795,-400000.0625,660.6599731445312,-11239.150390625,-400000.0625,-10495.759765625,-400000.0625,-25004.9609375,-400000.0625
222.15677618980408,-400000.0625,622.8900146484375,-11277.5302734375,-400000.0625,-10534.5302734375,-400000.0625,-25023.3203125,-400000.0625
222.15678071975708,-400000.0625,577.6400146484375,-11324.259765625,-400000.0625,-10592.080078125,-400000.0625,-25064.330078125,-400000.0625
222.15678477287292,-400000.0625,580.5499877929688,-11323.830078125,-400000.0625,-10591.8896484375,-400000.0625,-25056.41015625,-400000.0625
222.1567883491516,-400000.0625,621.7000122070312,-11280.8203125,-400000.0625,-10541.76953125,-400000.0625,-25011.349609375,-400000.0625
222.15679216384888,-400000.0625,661.6599731445312,-11245.1103515625,-400000.0625,-10501.8203125,-400000.0625,-24971.9609375,-400000.0625
222.15679621696472,-400000.0625,627.7100219726562,-11275.009765625,-400000.0625,-10540.1103515625,-400000.0625,-25013.259765625,-400000.0625
222.1567997932434,-400000.0625,571.0599975585938,-11325.6904296875,-400000.0625,-10590.75,-400000.0625,-25062.990234375,-400000.0625
222.15680384635925,-400000.0625,573.780029296875,-11320.4501953125,-400000.0625,-10584.7802734375,-400000.0625,-25063.94921875,-400000.0625
222.15680766105652,-400000.0625,631.7100219726562,-11273.099609375,-400000.0625,-10534.1396484375,-400000.0625,-25012.689453125,-400000.0625
222.15681219100952,-400000.0625,666.760009765625,-11242.9599609375,-400000.0625,-10497.4296875,-400000.0625,-24977.970703125,-400000.0625
222.15681648254395,-400000.0625,628.52001953125,-11276.2900390625,-400000.0625,-10533.669921875,-400000.0625,-25010.060546875,-400000.0625
222.1568202972412,-400000.0625,585.1300048828125,-11316.16015625,-400000.0625,-10589.83984375,-400000.0625,-25069.4296875,-400000.0625
222.1568248271942,-400000.0625,578.8800048828125,-11318.5400390625,-400000.0625,-10588.0302734375,-400000.0625,-25072.099609375,-400000.0625
222.20267987251282,-400000.0625,625.1300048828125,-11275.5302734375,-400000.0625,-10537.580078125,-400000.0625,-24994.5703125,-400000.0625
222.21579217910767,-400000.0625,678.9199829101562,-11235.8603515625,-400000.0625,-10500.48046875,-400000.0625,-24968.720703125,-400000.0625
222.2204873561859,-400000.0625,644.6400146484375,-11269.1904296875,-400000.0625,-10539.2001953125,-400000.0625,-25013.970703125,-400000.0625
222.22049736976624,-400000.0625,587.6500244140625,-11318.4501953125,-400000.0625,-10596.1796875,-400000.0625,-25035.4296875,-400000.0625
222.22050189971924,-400000.0625,588.9400024414062,-11312.4404296875,-400000.0625,-10582.3095703125,-400000.0625,-25039.9609375,-400000.0625
222.22050642967224,-400000.0625,633.8599853515625,-11267.9501953125,-400000.0625,-10524.7998046875,-400000.0625,-25023.130859375,-400000.0625
222.22051072120667,-400000.0625,665.9500122070312,-11246.4404296875,-400000.0625,-10499.759765625,-400000.0625,-24978.640625,-400000.0625
222.2205147743225,-400000.0625,619.8400268554688,-11301.330078125,-400000.0625,-10542.919921875,-400000.0625,-24988.609375,-400000.0625
222.22051858901978,-400000.0625,572.8699951171875,-11347.6298828125,-400000.0625,-10598.4697265625,-400000.0625,-25048.0703125,-400000.0625
222.22052216529846,-400000.0625,585.7899780273438,-11336.1396484375,-400000.0625,-10597.900390625,-400000.0625,-25035.580078125,-400000.0625
222.22052574157715,-400000.0625,635.1900024414062,-11293.83984375,-400000.0625,-10541.6298828125,-400000.0625,-24963.720703125,-400000.0625
222.22053003311157,-400000.0625,656.5999755859375,-11283.73046875,-400000.0625,-10508.0595703125,-400000.0625,-24941.880859375,-400000.0625
222.22053384780884,-400000.0625,614.2100219726562,-11333.419921875,-400000.0625,-10550.7900390625,-400000.0625,-24981.41015625,-400000.0625
222.22053742408752,-400000.0625,546.030029296875,-11400.2197265625,-400000.0625,-10611.76953125,-400000.0625,-25010.6796875,-400000.0625
222.22054147720337,-400000.0625,560.52001953125,-11390.400390625,-400000.0625,-10608.6298828125,-400000.0625,-24978.58984375,-400000.0625
222.2205455303192,-400000.0625,611.9299926757812,-11343.099609375,-400000.0625,-10558.8896484375,-400000.0625,-24934.099609375,-400000.0625
222.26801347732544,-400000.0625,645.6900024414062,-11318.6396484375,-400000.0625,-10525.0400390625,-400000.0625,-24908.349609375,-400000.0625
222.27323484420776,-400000.0625,603.010009765625,-11364.3203125,-400000.0625,-10553.599609375,-400000.0625,-24932.19921875,-400000.0625
222.27811002731323,-400000.0625,537.8200073242188,-11425.58984375,-400000.0625,-10612.6796875,-400000.0625,-24985.26953125,-400000.0625
222.2781195640564,-400000.0625,546.97998046875,-11408.9501953125,-400000.0625,-10610.919921875,-400000.0625,-24983.41015625,-400000.0625
222.27812433242798,-400000.0625,614.6900024414062,-11346.76953125,-400000.0625,-10555.9404296875,-400000.0625,-24962.0,-400000.0625
222.2781286239624,-400000.0625,643.780029296875,-11314.580078125,-400000.0625,-10519.650390625,-400000.0625,-24942.01953125,-400000.0625
222.27813267707825,-400000.0625,602.4400024414062,-11363.599609375,-400000.0625,-10554.8896484375,-400000.0625,-24925.5703125,-400000.0625
222.2781364917755,-400000.0625,547.5999755859375,-11416.76953125,-400000.0625,-10604.240234375,-400000.0625,-24988.369140625,-400000.0625
222.2781400680542,-400000.0625,552.4600219726562,-11401.6103515625,-400000.0625,-10607.8603515625,-400000.0625,-24996.05078125,-400000.0625
222.27814388275146,-400000.0625,606.5800170898438,-11347.25,-400000.0625,-10556.169921875,-400000.0625,-24940.880859375,-400000.0625
222.2781479358673,-400000.0625,652.3599853515625,-11315.25,-400000.0625,-10516.259765625,-400000.0625,-24935.580078125,-400000.0625
222.27815175056458,-400000.0625,625.989990234375,-11348.2998046875,-400000.0625,-10556.8896484375,-400000.0625,-24963.720703125,-400000.0625
222.278156042099,-400000.0625,562.0999755859375,-11404.51953125,-400000.0625,-10615.919921875,-400000.0625,-24996.0,-400000.0625
222.27816009521484,-400000.0625,563.2899780273438,-11393.1201171875,-400000.0625,-10608.91015625,-400000.0625,-24975.30078125,-400000.0625
222.27816367149353,-400000.0625,624.7000122070312,-11341.669921875,-400000.0625,-10551.4501953125,-400000.0625,-24936.060546875,-400000.0625
222.2781674861908,-400000.0625,662.469970703125,-11313.490234375,-400000.0625,-10521.509765625,-400000.0625,-24917.220703125,-400000.0625
222.35535407066345,-400000.0625,612.8300170898438,-11347.4404296875,-400000.0625,-10554.9296875,-400000.0625,-24959.810546875,-400000.0625
222.3691761493683,-400000.0625,563.9600219726562,-11392.01953125,-400000.0625,-10608.3896484375,-400000.0625,-25016.98046875,-400000.0625
222.37420511245728,-400000.0625,571.489990234375,-11381.25,-400000.0625,-10603.099609375,-400000.0625,-25000.4296875,-400000.0625
222.3804008960724,-400000.0625,623.4199829101562,-11336.2802734375,-400000.0625,-10550.3095703125,-400000.0625,-24940.5390625,-400000.0625
222.38456892967224,-400000.0625,665.1400146484375,-11303.9501953125,-400000.0625,-10518.650390625,-400000.0625,-24916.69921875,-400000.0625
222.38458108901978,-400000.0625,645.3499755859375,-11331.3701171875,-400000.0625,-10546.73046875,-400000.0625,-24938.060546875,-400000.0625
222.38458681106567,-400000.0625,567.2899780273438,-11390.0703125,-400000.0625,-10602.08984375,-400000.0625,-24968.25,-400000.0625
222.384592294693,-400000.0625,559.469970703125,-11388.830078125,-400000.0625,-10600.0400390625,-400000.0625,-24973.009765625,-400000.0625
222.38459706306458,-400000.0625,642.969970703125,-11324.9296875,-400000.0625,-10540.33984375,-400000.0625,-24964.720703125,-400000.0625
222.38460159301758,-400000.0625,675.6300048828125,-11290.8896484375,-400000.0625,-10504.099609375,-400000.0625,-24913.890625,-400000.0625
222.38460612297058,-400000.0625,629.22998046875,-11327.080078125,-400000.0625,-10541.9599609375,-400000.0625,-24921.75,-400000.0625
222.38461089134216,-400000.0625,562.239990234375,-11381.099609375,-400000.0625,-10597.330078125,-400000.0625,-24979.01953125,-400000.0625
222.38461589813232,-400000.0625,570.2000122070312,-11378.0,-400000.0625,-10591.1298828125,-400000.0625,-24977.779296875,-400000.0625
222.38461995124817,-400000.0625,632.47998046875,-11320.5400390625,-400000.0625,-10533.6201171875,-400000.0625,-24925.140625,-400000.0625
222.384624004364,-400000.0625,663.1400146484375,-11294.3701171875,-400000.0625,-10497.4296875,-400000.0625,-24893.859375,-400000.0625
222.38462924957275,-400000.0625,607.6799926757812,-11338.8095703125,-400000.0625,-10531.8603515625,-400000.0625,-24929.4296875,-400000.0625
222.40778803825378,-400000.0625,552.6099853515625,-11393.2099609375,-400000.0625,-10591.509765625,-400000.0625,-24975.58984375,-400000.0625
222.41337871551514,-400000.0625,562.6199951171875,-11383.580078125,-400000.0625,-10589.740234375,-400000.0625,-24990.509765625,-400000.0625
222.41778302192688,-400000.0625,625.3699951171875,-11325.599609375,-400000.0625,-10535.099609375,-400000.0625,-24953.23046875,-400000.0625
222.41779017448425,-400000.0625,653.7899780273438,-11293.98046875,-400000.0625,-10506.150390625,-400000.0625,-24901.73046875,-400000.0625
222.41779470443726,-400000.0625,609.2100219726562,-11337.4697265625,-400000.0625,-10540.1103515625,-400000.0625,-24926.7109375,-400000.0625
222.4177987575531,-400000.0625,558.3300170898438,-11391.6904296875,-400000.0625,-10591.75,-400000.0625,-24993.419921875,-400000.0625
222.41780281066895,-400000.0625,561.239990234375,-11381.91015625,-400000.0625,-10582.349609375,-400000.0625,-24968.8203125,-400000.0625
222.41780710220337,-400000.0625,592.6099853515625,-11339.9501953125,-400000.0625,-10542.3896484375,-400000.0625,-24924.5703125,-400000.0625
222.41781091690063,-400000.0625,614.2100219726562,-11307.33984375,-400000.0625,-10514.400390625,-400000.0625,-24901.349609375,-400000.0625
222.4178147315979,-400000.0625,612.5,-11333.900390625,-400000.0625,-10533.1904296875,-400000.0625,-24929.720703125,-400000.0625
222.41781854629517,-400000.0625,557.6599731445312,-11385.2998046875,-400000.0625,-10588.0703125,-400000.0625,-24984.169921875,-400000.0625
222.41782212257385,-400000.0625,541.72998046875,-11387.6796875,-400000.0625,-10592.5595703125,-400000.0625,-24990.900390625,-400000.0625
222.41782569885254,-400000.0625,603.3900146484375,-11331.6103515625,-400000.0625,-10536.5302734375,-400000.0625,-24925.08984375,-400000.0625
222.4178295135498,-400000.0625,642.6300048828125,-11301.08984375,-400000.0625,-10496.1904296875,-400000.0625,-24894.2890625,-400000.0625
222.4178330898285,-400000.0625,606.5399780273438,-11344.2900390625,-400000.0625,-10527.1396484375,-400000.0625,-24918.130859375,-400000.0625
222.41783666610718,-400000.0625,531.9099731445312,-11402.419921875,-400000.0625,-10588.9296875,-400000.0625,-24970.8203125,-400000.0625
222.46929669380188,-400000.0625,528.3400268554688,-11402.419921875,-400000.0625,-10596.9404296875,-400000.0625,-24977.689453125,-400000.0625
222.48287558555603,-400000.0625,586.8400268554688,-11347.8701171875,-400000.0625,-10534.1904296875,-400000.0625,-24923.66015625,-400000.0625
222.48789954185486,-400000.0625,632.2899780273438,-11299.7998046875,-400000.0625,-10484.080078125,-400000.0625,-24896.9609375,-400000.0625
222.49321246147156,-400000.0625,609.6799926757812,-11333.849609375,-400000.0625,-10522.7001953125,-400000.0625,-24931.19921875,-400000.0625
222.49788570404053,-400000.0625,537.489990234375,-11395.0703125,-400000.0625,-10587.7900390625,-400000.0625,-24972.30078125,-400000.0625
222.4978950023651,-400000.0625,537.5399780273438,-11391.830078125,-400000.0625,-10588.4599609375,-400000.0625,-24990.560546875,-400000.0625
222.49789929389954,-400000.0625,609.6400146484375,-11330.6103515625,-400000.0625,-10537.7197265625,-400000.0625,-24939.6796875,-400000.0625
222.49790358543396,-400000.0625,650.1699829101562,-11291.41015625,-400000.0625,-10504.4404296875,-400000.0625,-24927.669921875,-400000.0625
222.4979076385498,-400000.0625,598.530029296875,-11332.4697265625,-400000.0625,-10543.1103515625,-400000.0625,-24963.810546875,-400000.0625
222.4979112148285,-400000.0625,525.9000244140625,-11395.650390625,-400000.0625,-10598.7998046875,-400000.0625,-25012.689453125,-400000.0625
222.49791502952576,-400000.0625,521.6099853515625,-11401.26953125,-400000.0625,-10601.66015625,-400000.0625,-25010.919921875,-400000.0625
222.49791884422302,-400000.0625,595.52001953125,-11334.849609375,-400000.0625,-10548.3095703125,-400000.0625,-24964.529296875,-400000.0625
222.49792289733887,-400000.0625,641.0599975585938,-11302.51953125,-400000.0625,-10516.98046875,-400000.0625,-24937.009765625,-400000.0625
222.49792671203613,-400000.0625,606.489990234375,-11337.4697265625,-400000.0625,-10547.9697265625,-400000.0625,-24967.009765625,-400000.0625
222.4979305267334,-400000.0625,540.4500122070312,-11390.400390625,-400000.0625,-10606.150390625,-400000.0625,-24999.720703125,-400000.0625
222.49793457984924,-400000.0625,530.8599853515625,-11397.4599609375,-400000.0625,-10609.91015625,-400000.0625,-25021.029296875,-400000.0625
222.52306723594666,-400000.0625,590.75,-11348.150390625,-400000.0625,-10554.98046875,-400000.0625,-24975.5390625,-400000.0625
222.52821588516235,-400000.0625,626.0900268554688,-11310.150390625,-400000.0625,-10506.73046875,-400000.0625,-24926.240234375,-400000.0625
222.53305649757385,-400000.0625,601.0999755859375,-11334.75,-400000.0625,-10537.33984375,-400000.0625,-24950.69921875,-400000.0625
222.53306365013123,-400000.0625,544.5,-11384.8701171875,-400000.0625,-10590.3203125,-400000.0625,-25013.2109375,-400000.0625
222.53306794166565,-400000.0625,539.1099853515625,-11381.91015625,-400000.0625,-10591.75,-400000.0625,-25011.0703125,-400000.0625
222.5330719947815,-400000.0625,596.8599853515625,-11326.98046875,-400000.0625,-10538.5302734375,-400000.0625,-24972.009765625,-400000.0625
222.53307604789734,-400000.0625,637.1500244140625,-11300.7998046875,-400000.0625,-10500.0498046875,-400000.0625,-24961.470703125,-400000.0625
222.53307962417603,-400000.0625,592.3699951171875,-11341.240234375,-400000.0625,-10535.33984375,-400000.0625,-24962.380859375,-400000.0625
222.53308606147766,-400000.0625,538.25,-11385.58984375,-400000.0625,-10596.51953125,-400000.0625,-25006.9609375,-400000.0625
222.53308963775635,-400000.0625,542.1199951171875,-11376.759765625,-400000.0625,-10591.9404296875,-400000.0625,-25027.80078125,-400000.0625
222.5330934524536,-400000.0625,592.0900268554688,-11320.6904296875,-400000.0625,-10543.8701171875,-400000.0625,-24995.470703125,-400000.0625
222.53309679031372,-400000.0625,629.52001953125,-11296.0400390625,-400000.0625,-10505.2998046875,-400000.0625,-24945.259765625,-400000.0625
222.533100605011,-400000.0625,590.9400024414062,-11334.1796875,-400000.0625,-10531.0,-400000.0625,-24966.4296875,-400000.0625
222.53310418128967,-400000.0625,520.6599731445312,-11401.6103515625,-400000.0625,-10588.599609375,-400000.0625,-25017.7890625,-400000.0625
222.53310823440552,-400000.0625,520.0900268554688,-11395.7900390625,-400000.0625,-10588.7900390625,-400000.0625,-25045.919921875,-400000.0625
222.53311204910278,-400000.0625,574.6799926757812,-11334.9501953125,-400000.0625,-10533.8095703125,-400000.0625,-24986.560546875,-400000.0625
222.6019847393036,-400000.0625,620.3200073242188,-11298.3203125,-400000.0625,-10496.7099609375,-400000.0625,-24940.830078125,-400000.0625
222.61536955833435,-400000.0625,576.5399780273438,-11332.080078125,-400000.0625,-10527.08984375,-400000.0625,-24974.30078125,-400000.0625
222.62009000778198,-400000.0625,499.7699890136719,-11369.900390625,-400000.0625,-10581.0703125,-400000.0625,-25030.810546875,-400000.0625
222.620099067688,-400000.0625,495.1000061035156,-11370.4697265625,-400000.0625,-10586.740234375,-400000.0625,-25027.470703125,-400000.0625
222.620103597641,-400000.0625,550.8400268554688,-11339.08984375,-400000.0625,-10535.1904296875,-400000.0625,-24976.490234375,-400000.0625
222.620108127594,-400000.0625,578.739990234375,-11308.0498046875,-400000.0625,-10492.51953125,-400000.0625,-24957.0390625,-400000.0625
222.62011218070984,-400000.0625,538.9199829101562,-11320.0703125,-400000.0625,-10522.3701171875,-400000.0625,-24985.41015625,-400000.0625
222.62011623382568,-400000.0625,477.92999267578125,-11385.5400390625,-400000.0625,-10581.6396484375,-400000.0625,-25039.8203125,-400000.0625
222.62012028694153,-400000.0625,468.29998779296875,-11406.849609375,-400000.0625,-10581.4501953125,-400000.0625,-25028.990234375,-400000.0625
222.62012457847595,-400000.0625,489.7099914550781,-11349.2998046875,-400000.0625,-10522.5595703125,-400000.0625,-24976.919921875,-400000.0625
222.62012839317322,-400000.0625,520.280029296875,-11299.849609375,-400000.0625,-10479.01953125,-400000.0625,-24941.109375,-400000.0625
222.62013244628906,-400000.0625,470.7799987792969,-11319.73046875,-400000.0625,-10502.91015625,-400000.0625,-24995.189453125,-400000.0625
222.62013602256775,-400000.0625,405.69000244140625,-11372.6201171875,-400000.0625,-10548.400390625,-400000.0625,-25052.169921875,-400000.0625
222.62013959884644,-400000.0625,358.5299987792969,-11409.330078125,-400000.0625,-10542.2998046875,-400000.0625,-25058.939453125,-400000.0625
222.6201434135437,-400000.0625,362.8299865722656,-11390.6396484375,-400000.0625,-10483.5498046875,-400000.0625,-25028.759765625,-400000.0625
222.62014746665955,-400000.0625,374.9800109863281,-11349.0595703125,-400000.0625,-10429.099609375,-400000.0625,-24989.75,-400000.0625
222.65397381782532,-400000.0625,316.95001220703125,-11380.0498046875,-400000.0625,-10446.0302734375,-400000.0625,-24995.470703125,-400000.0625
222.65917778015137,-400000.0625,252.38999938964844,-11418.3896484375,-400000.0625,-10491.23046875,-400000.0625,-25050.44921875,-400000.0625
222.66412544250488,-400000.0625,223.49000549316406,-11417.4404296875,-400000.0625,-10485.080078125,-400000.0625,-25067.7109375,-400000.0625
222.66413187980652,-400000.0625,250.38999938964844,-11372.5703125,-400000.0625,-10431.0,-400000.0625,-25019.83984375,-400000.0625
222.66413640975952,-400000.0625,276.8500061035156,-11342.0498046875,-400000.0625,-10390.8603515625,-400000.0625,-24999.33984375,-400000.0625
222.6641402244568,-400000.0625,265.69000244140625,-11357.58984375,-400000.0625,-10413.5498046875,-400000.0625,-24999.48046875,-400000.0625
222.66414380073547,-400000.0625,210.42999267578125,-11407.66015625,-400000.0625,-10469.9599609375,-400000.0625,-25040.580078125,-400000.0625
222.66414737701416,-400000.0625,203.8000030517578,-11418.0595703125,-400000.0625,-10477.16015625,-400000.0625,-25065.94921875,-400000.0625
222.66415119171143,-400000.0625,260.0199890136719,-11367.509765625,-400000.0625,-10437.8203125,-400000.0625,-25005.150390625,-400000.0625
222.6641547679901,-400000.0625,331.5,-11319.4501953125,-400000.0625,-10404.9697265625,-400000.0625,-24965.189453125,-400000.0625
222.66415882110596,-400000.0625,314.8999938964844,-11356.16015625,-400000.0625,-10446.259765625,-400000.0625,-24982.880859375,-400000.0625
222.66416263580322,-400000.0625,278.6600036621094,-11405.330078125,-400000.0625,-10510.400390625,-400000.0625,-25028.66015625,-400000.0625
222.66416668891907,-400000.0625,313.80999755859375,-11395.2197265625,-400000.0625,-10515.7900390625,-400000.0625,-25034.380859375,-400000.0625
222.6641709804535,-400000.0625,381.4200134277344,-11350.919921875,-400000.0625,-10467.33984375,-400000.0625,-25014.9296875,-400000.0625
222.66417479515076,-400000.0625,436.739990234375,-11317.2099609375,-400000.0625,-10441.16015625,-400000.0625,-24972.869140625,-400000.0625
222.66417860984802,-400000.0625,424.9100036621094,-11345.4404296875,-400000.0625,-10479.740234375,-400000.0625,-24973.109375,-400000.0625
222.75412678718567,-400000.0625,379.4700012207031,-11399.2197265625,-400000.0625,-10547.2099609375,-400000.0625,-25019.7890625,-400000.0625
222.7699739933014,-400000.0625,388.9100036621094,-11401.080078125,-400000.0625,-10555.83984375,-400000.0625,-25033.48046875,-400000.0625
222.77595615386963,-400000.0625,459.9599914550781,-11346.150390625,-400000.0625,-10497.3798828125,-400000.0625,-24990.849609375,-400000.0625
222.7819254398346,-400000.0625,517.0800170898438,-11306.7197265625,-400000.0625,-10468.91015625,-400000.0625,-24957.470703125,-400000.0625
222.78689074516296,-400000.0625,492.8599853515625,-11340.08984375,-400000.0625,-10505.25,-400000.0625,-24964.2890625,-400000.0625
222.78690004348755,-400000.0625,439.07000732421875,-11392.5498046875,-400000.0625,-10556.080078125,-400000.0625,-25016.5,-400000.0625
222.78690481185913,-400000.0625,448.6600036621094,-11395.169921875,-400000.0625,-10559.23046875,-400000.0625,-25056.3203125,-400000.0625
222.78690886497498,-400000.0625,507.07000732421875,-11349.2998046875,-400000.0625,-10517.3095703125,-400000.0625,-25000.580078125,-400000.0625
222.78691291809082,-400000.0625,565.0499877929688,-11310.2900390625,-400000.0625,-10488.0302734375,-400000.0625,-24920.08984375,-400000.0625
222.7869164943695,-400000.0625,543.4500122070312,-11326.650390625,-400000.0625,-10513.9697265625,-400000.0625,-24970.630859375,-400000.0625
222.7869200706482,-400000.0625,480.0799865722656,-11382.91015625,-400000.0625,-10573.6298828125,-400000.0625,-25025.3203125,-400000.0625
222.78692388534546,-400000.0625,475.8800048828125,-11386.25,-400000.0625,-10583.0703125,-400000.0625,-25016.41015625,-400000.0625
222.78692746162415,-400000.0625,529.9099731445312,-11339.08984375,-400000.0625,-10531.7099609375,-400000.0625,-24997.380859375,-400000.0625
222.78693079948425,-400000.0625,587.27001953125,-11296.0400390625,-400000.0625,-10489.66015625,-400000.0625,-24957.369140625,-400000.0625
222.79209184646606,-400000.0625,560.0,-11326.41015625,-400000.0625,-10520.26953125,-400000.0625,-24962.7109375,-400000.0625
222.79665112495422,-400000.0625,504.45001220703125,-11389.16015625,-400000.0625,-10579.7802734375,-400000.0625,-25019.55078125,-400000.0625
222.79666018486023,-400000.0625,505.69000244140625,-11390.2099609375,-400000.0625,-10585.5498046875,-400000.0625,-25015.169921875,-400000.0625
222.79666423797607,-400000.0625,553.8900146484375,-11339.48046875,-400000.0625,-10537.0498046875,-400000.0625,-24983.26953125,-400000.0625
222.79666781425476,-400000.0625,605.010009765625,-11293.650390625,-400000.0625,-10499.0,-400000.0625,-24951.599609375,-400000.0625
222.79667139053345,-400000.0625,584.0800170898438,-11315.8203125,-400000.0625,-10528.6103515625,-400000.0625,-24982.359375,-400000.0625
222.7966752052307,-400000.0625,514.1699829101562,-11379.8603515625,-400000.0625,-10587.3095703125,-400000.0625,-25031.51953125,-400000.0625
222.79667973518372,-400000.0625,505.260009765625,-11385.919921875,-400000.0625,-10589.7001953125,-400000.0625,-25016.310546875,-400000.0625
222.7966833114624,-400000.0625,563.2899780273438,-11338.900390625,-400000.0625,-10537.2001953125,-400000.0625,-24972.060546875,-400000.0625
222.79668736457825,-400000.0625,606.25,-11303.66015625,-400000.0625,-10497.240234375,-400000.0625,-24941.16015625,-400000.0625
222.7966914176941,-400000.0625,575.2100219726562,-11331.3701171875,-400000.0625,-10532.900390625,-400000.0625,-24974.060546875,-400000.0625
222.79669499397278,-400000.0625,510.3599853515625,-11388.830078125,-400000.0625,-10593.1298828125,-400000.0625,-25028.51953125,-400000.0625
222.79669857025146,-400000.0625,509.45001220703125,-11390.3095703125,-400000.0625,-10595.990234375,-400000.0625,-25027.470703125,-400000.0625
222.79670214653015,-400000.0625,571.2999877929688,-11335.900390625,-400000.0625,-10543.2001953125,-400000.0625,-25010.44921875,-400000.0625
222.79670596122742,-400000.0625,615.8800048828125,-11294.7001953125,-400000.0625,-10507.16015625,-400000.0625,-24952.83984375,-400000.0625
222.79670977592468,-400000.0625,582.27001953125,-11321.1201171875,-400000.0625,-10531.8095703125,-400000.0625,-24959.51953125,-400000.0625
222.79671359062195,-400000.0625,525.8099975585938,-11384.8203125,-400000.0625,-10587.9296875,-400000.0625,-25013.310546875,-400000.0625
222.7967174053192,-400000.0625,518.27001953125,-11385.8701171875,-400000.0625,-10595.4697265625,-400000.0625,-25032.330078125,-400000.0625
222.84261751174927,-400000.0625,568.4400024414062,-11337.5703125,-400000.0625,-10552.5,-400000.0625,-24973.970703125,-400000.0625
222.84777069091797,-400000.0625,622.4600219726562,-11294.5595703125,-400000.0625,-10507.7802734375,-400000.0625,-24947.359375,-400000.0625
222.8524191379547,-400000.0625,585.5599975585938,-11328.509765625,-400000.0625,-10538.91015625,-400000.0625,-24960.0390625,-400000.0625
222.85242915153503,-400000.0625,525.3800048828125,-11383.8701171875,-400000.0625,-10595.1298828125,-400000.0625,-25008.630859375,-400000.0625
222.85243344306946,-400000.0625,524.0900268554688,-11387.16015625,-400000.0625,-10601.900390625,-400000.0625,-25031.4296875,-400000.0625
222.85243844985962,-400000.0625,576.9299926757812,-11351.5400390625,-400000.0625,-10552.4599609375,-400000.0625,-24986.369140625,-400000.0625
222.8524420261383,-400000.0625,611.3099975585938,-11318.9697265625,-400000.0625,-10515.5498046875,-400000.0625,-24922.80078125,-400000.0625
222.85244607925415,-400000.0625,574.1599731445312,-11341.5703125,-400000.0625,-10544.6796875,-400000.0625,-24978.640625,-400000.0625
222.85245156288147,-400000.0625,512.5,-11394.83984375,-400000.0625,-10598.1396484375,-400000.0625,-25028.470703125,-400000.0625
222.85245537757874,-400000.0625,502.9200134277344,-11411.5302734375,-400000.0625,-10606.240234375,-400000.0625,-25013.9296875,-400000.0625
222.852459192276,-400000.0625,563.0999755859375,-11363.5595703125,-400000.0625,-10562.75,-400000.0625,-24975.58984375,-400000.0625
222.8524627685547,-400000.0625,621.510009765625,-11312.8203125,-400000.0625,-10514.1201171875,-400000.0625,-24957.94921875,-400000.0625
222.8524670600891,-400000.0625,591.280029296875,-11335.5703125,-400000.0625,-10538.7197265625,-400000.0625,-24980.259765625,-400000.0625
222.85247111320496,-400000.0625,522.7999877929688,-11394.3603515625,-400000.0625,-10602.5703125,-400000.0625,-25007.580078125,-400000.0625
222.85247468948364,-400000.0625,515.030029296875,-11406.759765625,-400000.0625,-10608.8203125,-400000.0625,-25009.6796875,-400000.0625
222.85247898101807,-400000.0625,563.8599853515625,-11359.169921875,-400000.0625,-10554.169921875,-400000.0625,-24973.009765625,-400000.0625
222.90899300575256,-400000.0625,608.489990234375,-11323.740234375,-400000.0625,-10515.169921875,-400000.0625,-24940.16015625,-400000.0625
222.92287683486938,-400000.0625,576.5900268554688,-11348.6298828125,-400000.0625,-10546.5400390625,-400000.0625,-24956.279296875,-400000.0625
222.92737221717834,-400000.0625,510.6400146484375,-11407.51953125,-400000.0625,-10602.3798828125,-400000.0625,-25012.109375,-400000.0625
222.9273805618286,-400000.0625,506.07000732421875,-11413.8095703125,-400000.0625,-10609.25,-400000.0625,-25020.83984375,-400000.0625
222.92738509178162,-400000.0625,560.8099975585938,-11362.3603515625,-400000.0625,-10562.23046875,-400000.0625,-24977.880859375,-400000.0625
222.92738890647888,-400000.0625,616.97998046875,-11311.6298828125,-400000.0625,-10512.7802734375,-400000.0625,-24955.939453125,-400000.0625
222.92739272117615,-400000.0625,589.6099853515625,-11331.509765625,-400000.0625,-10538.150390625,-400000.0625,-24997.05078125,-400000.0625
222.9273965358734,-400000.0625,523.1900024414062,-11393.740234375,-400000.0625,-10596.7099609375,-400000.0625,-25008.16015625,-400000.0625
222.9274001121521,-400000.0625,517.4199829101562,-11405.66015625,-400000.0625,-10598.849609375,-400000.0625,-25016.98046875,-400000.0625
222.92740392684937,-400000.0625,565.239990234375,-11361.650390625,-400000.0625,-10558.75,-400000.0625,-24971.30078125,-400000.0625
222.9274079799652,-400000.0625,612.6900024414062,-11317.2998046875,-400000.0625,-10511.490234375,-400000.0625,-24934.91015625,-400000.0625
222.92741203308105,-400000.0625,590.0399780273438,-11338.6201171875,-400000.0625,-10535.7197265625,-400000.0625,-24941.5,-400000.0625
222.92741560935974,-400000.0625,526.6199951171875,-11402.3203125,-400000.0625,-10595.849609375,-400000.0625,-24999.2890625,-400000.0625
222.927419424057,-400000.0625,512.739990234375,-11412.0,-400000.0625,-10605.76953125,-400000.0625,-25019.599609375,-400000.0625
222.92742347717285,-400000.0625,564.8599853515625,-11359.7900390625,-400000.0625,-10553.2197265625,-400000.0625,-25006.8203125,-400000.0625
222.92742705345154,-400000.0625,607.780029296875,-11315.16015625,-400000.0625,-10510.58984375,-400000.0625,-24949.3203125,-400000.0625
222.97816252708435,-400000.0625,591.6599731445312,-11331.849609375,-400000.0625,-10533.8603515625,-400000.0625,-24954.890625,-400000.0625
222.9837999343872,-400000.0625,524.7100219726562,-11391.16015625,-400000.0625,-10594.7001953125,-400000.0625,-25003.33984375,-400000.0625
222.98849368095398,-400000.0625,505.3500061035156,-11415.4404296875,-400000.0625,-10616.400390625,-400000.0625,-25011.5390625,-400000.0625
222.98850345611572,-400000.0625,551.219970703125,-11368.1298828125,-400000.0625,-10577.7802734375,-400000.0625,-24996.08984375,-400000.0625
222.98850774765015,-400000.0625,596.8099975585938,-11329.599609375,-400000.0625,-10526.3701171875,-400000.0625,-24939.439453125,-400000.0625
222.988511800766,-400000.0625,584.8900146484375,-11349.3896484375,-400000.0625,-10539.8203125,-400000.0625,-24949.3203125,-400000.0625
222.98851537704468,-400000.0625,525.6199951171875,-11399.509765625,-400000.0625,-10593.5595703125,-400000.0625,-25024.130859375,-400000.0625
222.98851943016052,-400000.0625,502.9200134277344,-11412.669921875,-400000.0625,-10607.669921875,-400000.0625,-25024.560546875,-400000.0625
222.9885232448578,-400000.0625,553.6599731445312,-11368.3701171875,-400000.0625,-10557.75,-400000.0625,-24962.7109375,-400000.0625
222.98852705955505,-400000.0625,607.9199829101562,-11323.0703125,-400000.0625,-10509.7802734375,-400000.0625,-24928.619140625,-400000.0625
222.98853087425232,-400000.0625,588.22998046875,-11339.48046875,-400000.0625,-10540.2998046875,-400000.0625,-24956.560546875,-400000.0625
222.988534450531,-400000.0625,532.25,-11390.3095703125,-400000.0625,-10602.0498046875,-400000.0625,-25002.9609375,-400000.0625
222.98853826522827,-400000.0625,518.469970703125,-11400.509765625,-400000.0625,-10611.4404296875,-400000.0625,-25036.2890625,-400000.0625
222.98854184150696,-400000.0625,569.8699951171875,-11360.0302734375,-400000.0625,-10562.1396484375,-400000.0625,-24967.9609375,-400000.0625
222.98854541778564,-400000.0625,618.1699829101562,-11317.349609375,-400000.0625,-10513.3095703125,-400000.0625,-24921.66015625,-400000.0625
222.98854899406433,-400000.0625,593.8499755859375,-11336.7998046875,-400000.0625,-10533.1904296875,-400000.0625,-24938.25,-400000.0625
223.0801501274109,-400000.0625,527.4299926757812,-11395.169921875,-400000.0625,-10592.0302734375,-400000.0625,-24992.0390625,-400000.0625
223.09321999549866,-400000.0625,515.4600219726562,-11399.3701171875,-400000.0625,-10604.099609375,-400000.0625,-25016.01953125,-400000.0625
223.0979220867157,-400000.0625,572.5900268554688,-11352.16015625,-400000.0625,-10556.7900390625,-400000.0625,-24981.01953125,-400000.0625
223.09793186187744,-400000.0625,628.6599731445312,-11310.2900390625,-400000.0625,-10510.5400390625,-400000.0625,-24931.150390625,-400000.0625
223.09793639183044,-400000.0625,603.8200073242188,-11336.759765625,-400000.0625,-10537.7197265625,-400000.0625,-24933.2890625,-400000.0625
223.0979404449463,-400000.0625,548.27001953125,-11388.16015625,-400000.0625,-10598.0400390625,-400000.0625,-24992.1796875,-400000.0625
223.09794402122498,-400000.0625,535.8200073242188,-11400.4599609375,-400000.0625,-10606.9599609375,-400000.0625,-24995.94921875,-400000.0625
223.09794759750366,-400000.0625,584.6500244140625,-11349.76953125,-400000.0625,-10548.400390625,-400000.0625,-24954.369140625,-400000.0625
223.09795117378235,-400000.0625,625.3200073242188,-11301.849609375,-400000.0625,-10504.25,-400000.0625,-24926.51953125,-400000.0625
223.09795498847961,-400000.0625,605.6300048828125,-11323.259765625,-400000.0625,-10534.5703125,-400000.0625,-24934.19921875,-400000.0625
223.09795880317688,-400000.0625,546.0700073242188,-11378.150390625,-400000.0625,-10591.26953125,-400000.0625,-24991.7109375,-400000.0625
223.09796261787415,-400000.0625,544.0700073242188,-11394.9296875,-400000.0625,-10596.3203125,-400000.0625,-25036.91015625,-400000.0625
223.09796619415283,-400000.0625,603.489990234375,-11343.91015625,-400000.0625,-10541.25,-400000.0625,-24944.58984375,-400000.0625
223.09796977043152,-400000.0625,641.4400024414062,-11307.9599609375,-400000.0625,-10511.830078125,-400000.0625,-24900.30078125,-400000.0625
223.0979733467102,-400000.0625,602.3400268554688,-11340.0,-400000.0625,-10535.150390625,-400000.0625,-24932.439453125,-400000.0625
223.0979769229889,-400000.0625,538.489990234375,-11394.7900390625,-400000.0625,-10589.3095703125,-400000.0625,-24996.0,-400000.0625
223.10525727272034,-400000.0625,534.6300048828125,-11399.3701171875,-400000.0625,-10596.3203125,-400000.0625,-25020.55078125,-400000.0625
223.11090230941772,-400000.0625,595.760009765625,-11346.6298828125,-400000.0625,-10543.7802734375,-400000.0625,-24984.4609375,-400000.0625
223.11569046974182,-400000.0625,644.8300170898438,-11301.419921875,-400000.0625,-10500.2900390625,-400000.0625,-24918.23046875,-400000.0625
223.11569833755493,-400000.0625,620.1699829101562,-11329.4599609375,-400000.0625,-10523.1796875,-400000.0625,-24938.8203125,-400000.0625
223.11570239067078,-400000.0625,548.0800170898438,-11386.6298828125,-400000.0625,-10584.3603515625,-400000.0625,-24999.859375,-400000.0625
223.11570620536804,-400000.0625,535.77001953125,-11401.849609375,-400000.0625,-10598.1396484375,-400000.0625,-24993.759765625,-400000.0625
223.1157100200653,-400000.0625,603.8200073242188,-11349.2998046875,-400000.0625,-10545.73046875,-400000.0625,-24961.0,-400000.0625
223.115713596344,-400000.0625,642.2000122070312,-11297.7998046875,-400000.0625,-10500.2900390625,-400000.0625,-24925.900390625,-400000.0625
223.11571741104126,-400000.0625,605.8699951171875,-11331.7998046875,-400000.0625,-10531.1904296875,-400000.0625,-24928.4296875,-400000.0625
223.11572122573853,-400000.0625,554.469970703125,-11390.8798828125,-400000.0625,-10586.0703125,-400000.0625,-24973.8203125,-400000.0625
223.11572432518005,-400000.0625,548.5999755859375,-11397.5498046875,-400000.0625,-10590.83984375,-400000.0625,-25009.490234375,-400000.0625
223.1157283782959,-400000.0625,594.1900024414062,-11352.16015625,-400000.0625,-10543.919921875,-400000.0625,-24976.689453125,-400000.0625
223.11573195457458,-400000.0625,638.530029296875,-11308.0498046875,-400000.0625,-10503.7197265625,-400000.0625,-24916.599609375,-400000.0625
223.11573576927185,-400000.0625,632.9099731445312,-11318.01953125,-400000.0625,-10520.75,-400000.0625,-24926.380859375,-400000.0625
223.11573934555054,-400000.0625,573.780029296875,-11365.990234375,-400000.0625,-10562.1796875,-400000.0625,-24963.2890625,-400000.0625
223.1157431602478,-400000.0625,538.6400146484375,-11398.0302734375,-400000.0625,-10583.830078125,-400000.0625,-24993.759765625,-400000.0625
223.1626899242401,-400000.0625,575.4000244140625,-11357.259765625,-400000.0625,-10548.58984375,-400000.0625,-24967.529296875,-400000.0625
223.16776275634766,-400000.0625,615.7899780273438,-11320.16015625,-400000.0625,-10494.4697265625,-400000.0625,-24920.900390625,-400000.0625
223.17272543907166,-400000.0625,593.7100219726562,-11339.0,-400000.0625,-10505.25,-400000.0625,-24957.94921875,-400000.0625
223.17273497581482,-400000.0625,530.0999755859375,-11390.8798828125,-400000.0625,-10577.4404296875,-400000.0625,-24990.849609375,-400000.0625
223.17273926734924,-400000.0625,514.0800170898438,-11396.1201171875,-400000.0625,-10587.4599609375,-400000.0625,-24993.759765625,-400000.0625
223.1727430820465,-400000.0625,550.219970703125,-11358.6904296875,-400000.0625,-10533.669921875,-400000.0625,-24970.869140625,-400000.0625
223.1727466583252,-400000.0625,614.2100219726562,-11313.919921875,-400000.0625,-10485.650390625,-400000.0625,-24943.0703125,-400000.0625
223.17275047302246,-400000.0625,587.3699951171875,-11322.830078125,-400000.0625,-10502.150390625,-400000.0625,-24967.009765625,-400000.0625
223.17275428771973,-400000.0625,507.2099914550781,-11384.5400390625,-400000.0625,-10555.080078125,-400000.0625,-24995.279296875,-400000.0625
223.172758102417,-400000.0625,478.4100036621094,-11376.240234375,-400000.0625,-10563.419921875,-400000.0625,-25024.609375,-400000.0625
223.17276191711426,-400000.0625,514.75,-11347.580078125,-400000.0625,-10517.8798828125,-400000.0625,-25011.640625,-400000.0625
223.17276549339294,-400000.0625,557.469970703125,-11308.5302734375,-400000.0625,-10475.919921875,-400000.0625,-24939.830078125,-400000.0625
223.17276906967163,-400000.0625,523.6099853515625,-11324.0302734375,-400000.0625,-10489.1796875,-400000.0625,-24975.400390625,-400000.0625
223.17277264595032,-400000.0625,434.5899963378906,-11388.400390625,-400000.0625,-10544.01953125,-400000.0625,-25028.419921875,-400000.0625
223.1774823665619,-400000.0625,413.4700012207031,-11396.1201171875,-400000.0625,-10557.7998046875,-400000.0625,-25041.490234375,-400000.0625
223.17749118804932,-400000.0625,442.4599914550781,-11365.080078125,-400000.0625,-10509.6396484375,-400000.0625,-25019.890625,-400000.0625
223.24262833595276,-400000.0625,458.9100036621094,-11329.83984375,-400000.0625,-10462.7099609375,-400000.0625,-24974.869140625,-400000.0625
223.25588512420654,-400000.0625,421.239990234375,-11358.9296875,-400000.0625,-10473.0595703125,-400000.0625,-24986.7890625,-400000.0625
223.26071500778198,-400000.0625,360.29998779296875,-11427.9296875,-400000.0625,-10521.4599609375,-400000.0625,-25058.80078125,-400000.0625
223.260724067688,-400000.0625,322.1000061035156,-11446.4296875,-400000.0625,-10529.3798828125,-400000.0625,-25086.689453125,-400000.0625
223.26072907447815,-400000.0625,327.5400085449219,-11408.2802734375,-400000.0625,-10477.6396484375,-400000.0625,-25041.009765625,-400000.0625
223.26073288917542,-400000.0625,359.25,-11355.2099609375,-400000.0625,-10412.0703125,-400000.0625,-24999.859375,-400000.0625
223.2607364654541,-400000.0625,336.07000732421875,-11372.330078125,-400000.0625,-10427.5703125,-400000.0625,-25012.310546875,-400000.0625
223.26074028015137,-400000.0625,252.72000122070312,-11435.5595703125,-400000.0625,-10475.259765625,-400000.0625,-25084.740234375,-400000.0625
223.26074409484863,-400000.0625,226.8800048828125,-11454.6796875,-400000.0625,-10483.7900390625,-400000.0625,-25082.880859375,-400000.0625
223.26074767112732,-400000.0625,277.57000732421875,-11408.900390625,-400000.0625,-10450.650390625,-400000.0625,-25027.94921875,-400000.0625
223.260751247406,-400000.0625,330.3999938964844,-11363.41015625,-400000.0625,-10399.3896484375,-400000.0625,-24981.44921875,-400000.0625
223.26075506210327,-400000.0625,317.239990234375,-11374.5703125,-400000.0625,-10423.9501953125,-400000.0625,-25007.25,-400000.0625
223.26075839996338,-400000.0625,276.2300109863281,-11419.9697265625,-400000.0625,-10487.1298828125,-400000.0625,-25040.529296875,-400000.0625
223.26076221466064,-400000.0625,285.3399963378906,-11434.3203125,-400000.0625,-10513.2099609375,-400000.0625,-25030.140625,-400000.0625
223.26076579093933,-400000.0625,350.6199951171875,-11385.0595703125,-400000.0625,-10473.2998046875,-400000.0625,-25003.48046875,-400000.0625
223.26076936721802,-400000.0625,407.1199951171875,-11341.6201171875,-400000.0625,-10431.580078125,-400000.0625,-24955.23046875,-400000.0625
223.30142164230347,-400000.0625,398.9700012207031,-11357.740234375,-400000.0625,-10457.1396484375,-400000.0625,-24972.390625,-400000.0625
223.30645203590393,-400000.0625,358.05999755859375,-11414.7197265625,-400000.0625,-10515.740234375,-400000.0625,-25030.759765625,-400000.0625
223.31184887886047,-400000.0625,357.4800109863281,-11429.259765625,-400000.0625,-10539.8701171875,-400000.0625,-25031.859375,-400000.0625
223.316312789917,-400000.0625,420.95001220703125,-11373.4697265625,-400000.0625,-10504.2001953125,-400000.0625,-24971.869140625,-400000.0625
223.31632208824158,-400000.0625,488.2300109863281,-11325.4599609375,-400000.0625,-10457.51953125,-400000.0625,-24931.580078125,-400000.0625
223.31632709503174,-400000.0625,475.7900085449219,-11341.8603515625,-400000.0625,-10474.0595703125,-400000.0625,-24948.890625,-400000.0625
223.31633138656616,-400000.0625,424.42999267578125,-11399.080078125,-400000.0625,-10541.150390625,-400000.0625,-25017.310546875,-400000.0625
223.316335439682,-400000.0625,422.4800109863281,-11419.349609375,-400000.0625,-10572.76953125,-400000.0625,-25045.349609375,-400000.0625
223.31633925437927,-400000.0625,493.42999267578125,-11360.3603515625,-400000.0625,-10510.9697265625,-400000.0625,-24982.259765625,-400000.0625
223.31634306907654,-400000.0625,566.77001953125,-11302.900390625,-400000.0625,-10456.2802734375,-400000.0625,-24883.75,-400000.0625
223.31634736061096,-400000.0625,541.780029296875,-11325.0703125,-400000.0625,-10481.259765625,-400000.0625,-24912.029296875,-400000.0625
223.31635117530823,-400000.0625,491.57000732421875,-11381.7197265625,-400000.0625,-10543.25,-400000.0625,-24970.9609375,-400000.0625
223.31635522842407,-400000.0625,491.9100036621094,-11389.6904296875,-400000.0625,-10562.4697265625,-400000.0625,-24994.470703125,-400000.0625
223.31635904312134,-400000.0625,532.77001953125,-11347.3896484375,-400000.0625,-10517.3095703125,-400000.0625,-24950.939453125,-400000.0625
223.31636261940002,-400000.0625,573.780029296875,-11309.4296875,-400000.0625,-10465.669921875,-400000.0625,-24931.669921875,-400000.0625
223.3163664340973,-400000.0625,560.760009765625,-11339.669921875,-400000.0625,-10486.3203125,-400000.0625,-24944.640625,-400000.0625
223.3543016910553,-400000.0625,515.6500244140625,-11390.4501953125,-400000.0625,-10552.4599609375,-400000.0625,-24996.0,-400000.0625
223.3681676387787,-400000.0625,507.1600036621094,-11398.75,-400000.0625,-10572.3896484375,-400000.0625,-25009.25,-400000.0625
223.37396335601807,-400000.0625,554.4199829101562,-11349.5400390625,-400000.0625,-10525.509765625,-400000.0625,-24959.189453125,-400000.0625
223.37847781181335,-400000.0625,600.6199951171875,-11297.509765625,-400000.0625,-10479.5,-400000.0625,-24912.310546875,-400000.0625
223.37848567962646,-400000.0625,584.27001953125,-11324.2197265625,-400000.0625,-10495.4296875,-400000.0625,-24929.619140625,-400000.0625
223.37849068641663,-400000.0625,529.2899780273438,-11376.330078125,-400000.0625,-10546.8798828125,-400000.0625,-24978.259765625,-400000.0625
223.37849521636963,-400000.0625,514.4600219726562,-11377.669921875,-400000.0625,-10567.08984375,-400000.0625,-24999.48046875,-400000.0625
223.37849879264832,-400000.0625,547.7000122070312,-11345.2900390625,-400000.0625,-10528.0400390625,-400000.0625,-24970.73046875,-400000.0625
223.37850260734558,-400000.0625,610.780029296875,-11294.509765625,-400000.0625,-10479.400390625,-400000.0625,-24942.58984375,-400000.0625
223.37850618362427,-400000.0625,604.9199829101562,-11298.0400390625,-400000.0625,-10490.7001953125,-400000.0625,-24926.619140625,-400000.0625
223.37850999832153,-400000.0625,555.469970703125,-11354.16015625,-400000.0625,-10544.7802734375,-400000.0625,-24971.19921875,-400000.0625
223.3785138130188,-400000.0625,524.0,-11381.76953125,-400000.0625,-10587.2197265625,-400000.0625,-25011.109375,-400000.0625
223.37851738929749,-400000.0625,562.0,-11343.3896484375,-400000.0625,-10547.5,-400000.0625,-24994.5703125,-400000.0625
223.37852120399475,-400000.0625,608.6799926757812,-11297.990234375,-400000.0625,-10481.3095703125,-400000.0625,-24957.0390625,-400000.0625
223.37852478027344,-400000.0625,598.1900024414062,-11312.25,-400000.0625,-10494.23046875,-400000.0625,-24957.0390625,-400000.0625
223.3785285949707,-400000.0625,544.260009765625,-11369.23046875,-400000.0625,-10550.0703125,-400000.0625,-25005.630859375,-400000.0625
223.45531058311462,-400000.0625,523.9500122070312,-11386.7802734375,-400000.0625,-10572.2900390625,-400000.0625,-25020.69921875,-400000.0625
223.4700264930725,-400000.0625,572.0599975585938,-11336.66015625,-400000.0625,-10527.7998046875,-400000.0625,-24980.599609375,-400000.0625
223.47500014305115,-400000.0625,620.219970703125,-11283.73046875,-400000.0625,-10479.0703125,-400000.0625,-24936.009765625,-400000.0625
223.4750096797943,-400000.0625,608.72998046875,-11291.3603515625,-400000.0625,-10493.1396484375,-400000.0625,-24935.33984375,-400000.0625
223.47501397132874,-400000.0625,549.7000122070312,-11344.150390625,-400000.0625,-10547.349609375,-400000.0625,-24991.130859375,-400000.0625
223.47501850128174,-400000.0625,535.77001953125,-11375.330078125,-400000.0625,-10574.8701171875,-400000.0625,-25008.16015625,-400000.0625
223.47502255439758,-400000.0625,569.8699951171875,-11329.7998046875,-400000.0625,-10535.5302734375,-400000.0625,-24973.19921875,-400000.0625
223.47502613067627,-400000.0625,610.969970703125,-11267.6201171875,-400000.0625,-10476.73046875,-400000.0625,-24942.2109375,-400000.0625
223.47503018379211,-400000.0625,574.5399780273438,-11293.75,-400000.0625,-10480.599609375,-400000.0625,-24944.880859375,-400000.0625
223.47503447532654,-400000.0625,518.1300048828125,-11348.73046875,-400000.0625,-10539.9599609375,-400000.0625,-24981.0703125,-400000.0625
223.47981429100037,-400000.0625,505.5899963378906,-11370.7099609375,-400000.0625,-10563.419921875,-400000.0625,-25037.009765625,-400000.0625
223.47982239723206,-400000.0625,537.780029296875,-11319.8798828125,-400000.0625,-10509.6796875,-400000.0625,-25028.7109375,-400000.0625
223.47982740402222,-400000.0625,598.47998046875,-11273.669921875,-400000.0625,-10458.23046875,-400000.0625,-24945.640625,-400000.0625
223.47983145713806,-400000.0625,554.0399780273438,-11304.5703125,-400000.0625,-10470.2001953125,-400000.0625,-24946.98046875,-400000.0625
223.47983527183533,-400000.0625,462.8699951171875,-11360.0302734375,-400000.0625,-10517.4599609375,-400000.0625,-25006.33984375,-400000.0625
223.47983932495117,-400000.0625,424.80999755859375,-11379.0498046875,-400000.0625,-10542.1103515625,-400000.0625,-25032.189453125,-400000.0625
223.5017511844635,-400000.0625,416.55999755859375,-11354.16015625,-400000.0625,-10496.9501953125,-400000.0625,-25005.060546875,-400000.0625
223.50679111480713,-400000.0625,429.67999267578125,-11319.1103515625,-400000.0625,-10421.849609375,-400000.0625,-24974.2109375,-400000.0625
223.51211977005005,-400000.0625,392.1000061035156,-11334.08984375,-400000.0625,-10403.2998046875,-400000.0625,-25004.33984375,-400000.0625
223.51657342910767,-400000.0625,298.7900085449219,-11378.7197265625,-400000.0625,-10444.7900390625,-400000.0625,-25074.869140625,-400000.0625
223.5165820121765,-400000.0625,216.77000427246094,-11403.849609375,-400000.0625,-10459.7099609375,-400000.0625,-25089.7890625,-400000.0625
223.5165867805481,-400000.0625,232.36000061035156,-11369.75,-400000.0625,-10391.3798828125,-400000.0625,-25080.490234375,-400000.0625
223.51659083366394,-400000.0625,270.6499938964844,-11323.3095703125,-400000.0625,-10333.6298828125,-400000.0625,-25033.859375,-400000.0625
223.5165946483612,-400000.0625,237.88999938964844,-11338.8095703125,-400000.0625,-10351.1298828125,-400000.0625,-25050.44921875,-400000.0625
223.51659846305847,-400000.0625,160.64999389648438,-11386.4404296875,-400000.0625,-10410.740234375,-400000.0625,-25098.7109375,-400000.0625
223.51660203933716,-400000.0625,116.01000213623047,-11401.990234375,-400000.0625,-10420.3203125,-400000.0625,-25102.189453125,-400000.0625
223.51660585403442,-400000.0625,164.32000732421875,-11352.9697265625,-400000.0625,-10369.2099609375,-400000.0625,-25071.33984375,-400000.0625
223.5166096687317,-400000.0625,201.1300048828125,-11300.08984375,-400000.0625,-10323.5703125,-400000.0625,-25019.740234375,-400000.0625
223.51661324501038,-400000.0625,184.44000244140625,-11304.7099609375,-400000.0625,-10334.58984375,-400000.0625,-25062.80078125,-400000.0625
223.51661682128906,-400000.0625,126.6500015258789,-11353.01953125,-400000.0625,-10391.7099609375,-400000.0625,-25089.26953125,-400000.0625
223.51662039756775,-400000.0625,108.23999786376953,-11378.099609375,-400000.0625,-10420.9404296875,-400000.0625,-25072.529296875,-400000.0625
223.51662421226501,-400000.0625,168.61000061035156,-11340.330078125,-400000.0625,-10386.5595703125,-400000.0625,-25069.810546875,-400000.0625
223.55169034004211,-400000.0625,244.42999267578125,-11291.599609375,-400000.0625,-10351.330078125,-400000.0625,-25025.470703125,-400000.0625
223.55703401565552,-400000.0625,239.75,-11313.150390625,-400000.0625,-10375.2099609375,-400000.0625,-25014.779296875,-400000.0625
223.5695436000824,-400000.0625,206.3300018310547,-11361.080078125,-400000.0625,-10438.8701171875,-400000.0625,-25054.83984375,-400000.0625
223.57451725006104,-400000.0625,214.24000549316406,-11375.48046875,-400000.0625,-10468.7197265625,-400000.0625,-25079.30078125,-400000.0625
223.5745267868042,-400000.0625,287.20001220703125,-11338.0,-400000.0625,-10437.919921875,-400000.0625,-25063.759765625,-400000.0625
223.57453155517578,-400000.0625,368.07000732421875,-11287.740234375,-400000.0625,-10399.4404296875,-400000.0625,-25002.720703125,-400000.0625
223.57453536987305,-400000.0625,382.95001220703125,-11296.1298828125,-400000.0625,-10422.51953125,-400000.0625,-25011.109375,-400000.0625
223.5745391845703,-400000.0625,351.7200012207031,-11347.2001953125,-400000.0625,-10480.1201171875,-400000.0625,-25042.73046875,-400000.0625
223.574542760849,-400000.0625,342.3699951171875,-11372.66015625,-400000.0625,-10509.8701171875,-400000.0625,-25052.119140625,-400000.0625
223.57454657554626,-400000.0625,404.1199951171875,-11333.509765625,-400000.0625,-10478.2099609375,-400000.0625,-25033.4296875,-400000.0625
223.57455039024353,-400000.0625,484.94000244140625,-11277.7197265625,-400000.0625,-10429.48046875,-400000.0625,-24982.740234375,-400000.0625
223.57927179336548,-400000.0625,489.760009765625,-11289.7900390625,-400000.0625,-10452.7998046875,-400000.0625,-24983.650390625,-400000.0625
223.57928013801575,-400000.0625,445.989990234375,-11349.2998046875,-400000.0625,-10512.8798828125,-400000.0625,-25045.349609375,-400000.0625
223.5792841911316,-400000.0625,434.7799987792969,-11367.26953125,-400000.0625,-10540.5302734375,-400000.0625,-25065.380859375,-400000.0625
223.57928800582886,-400000.0625,501.44000244140625,-11312.8203125,-400000.0625,-10508.16015625,-400000.0625,-25004.490234375,-400000.0625
223.57929182052612,-400000.0625,559.4299926757812,-11267.1396484375,-400000.0625,-10458.330078125,-400000.0625,-24963.759765625,-400000.0625
223.61822485923767,-400000.0625,554.1300048828125,-11285.01953125,-400000.0625,-10468.48046875,-400000.0625,-24977.970703125,-400000.0625
223.62433314323425,-400000.0625,503.29998779296875,-11340.91015625,-400000.0625,-10528.9501953125,-400000.0625,-25004.8203125,-400000.0625
223.62862706184387,-400000.0625,488.0899963378906,-11360.3603515625,-400000.0625,-10559.66015625,-400000.0625,-25033.189453125,-400000.0625
223.6286346912384,-400000.0625,541.1599731445312,-11313.4404296875,-400000.0625,-10519.4599609375,-400000.0625,-25014.2109375,-400000.0625
223.62864136695862,-400000.0625,598.47998046875,-11263.66015625,-400000.0625,-10467.48046875,-400000.0625,-24965.76953125,-400000.0625
223.62864589691162,-400000.0625,591.1400146484375,-11270.0498046875,-400000.0625,-10478.01953125,-400000.0625,-24955.3203125,-400000.0625
223.62864995002747,-400000.0625,540.4000244140625,-11322.3603515625,-400000.0625,-10536.7197265625,-400000.0625,-24990.130859375,-400000.0625
223.62865376472473,-400000.0625,507.260009765625,-11359.740234375,-400000.0625,-10573.580078125,-400000.0625,-25013.310546875,-400000.0625
223.628657579422,-400000.0625,554.469970703125,-11315.7802734375,-400000.0625,-10539.580078125,-400000.0625,-24981.55078125,-400000.0625
223.62866139411926,-400000.0625,615.219970703125,-11265.3701171875,-400000.0625,-10483.7001953125,-400000.0625,-24945.689453125,-400000.0625
223.62866473197937,-400000.0625,611.3499755859375,-11277.9599609375,-400000.0625,-10497.4296875,-400000.0625,-24949.029296875,-400000.0625
223.62866854667664,-400000.0625,552.9400024414062,-11325.1201171875,-400000.0625,-10551.6396484375,-400000.0625,-24995.279296875,-400000.0625
223.62867259979248,-400000.0625,533.2899780273438,-11346.9599609375,-400000.0625,-10577.2998046875,-400000.0625,-25024.0390625,-400000.0625
223.628675699234,-400000.0625,577.5900268554688,-11308.669921875,-400000.0625,-10529.8095703125,-400000.0625,-24972.390625,-400000.0625
