time,ch1,ch2,ch3,ch4,ch5,ch6,ch7,ch8
0.3221924304962158,1960.8499755859375,-7990.080078125,-1972.43994140625,-400000.0625,-12305.2099609375,-400000.0625,-400000.0625,-400000.0625
0.32251763343811035,1954.699951171875,-8001.47021484375,-1983.5999755859375,-400000.0625,-12324.4296875,-400000.0625,-400000.0625,-400000.0625
0.32257628440856934,1947.550048828125,-8018.2099609375,-2005.719970703125,-400000.0625,-12348.83984375,-400000.0625,-400000.0625,-400000.0625
0.3226199150085449,1944.3499755859375,-8017.72998046875,-2006.010009765625,-400000.0625,-12323.9501953125,-400000.0625,-400000.0625,-400000.0625
0.32265305519104004,1959.22998046875,-7993.169921875,-1971.1500244140625,-400000.0625,-12320.330078125,-400000.0625,-400000.0625,-400000.0625
0.32268357276916504,1978.780029296875,-7972.33984375,-1954.4100341796875,-400000.0625,-12308.650390625,-400000.0625,-400000.0625,-400000.0625
0.32271599769592285,1966.0,-7979.10986328125,-1964.6600341796875,-400000.0625,-12308.98046875,-400000.0625,-400000.0625,-400000.0625
0.3227498531341553,1945.2099609375,-8008.52978515625,-1994.0899658203125,-400000.0625,-12342.98046875,-400000.0625,-400000.0625,-400000.0625
0.3227832317352295,1952.9300537109375,-8009.009765625,-1988.8399658203125,-400000.0625,-12338.9697265625,-400000.0625,-400000.0625,-400000.0625
0.32283568382263184,1968.719970703125,-7992.080078125,-1973.489990234375,-400000.0625,-12323.9501953125,-400000.0625,-400000.0625,-400000.0625
0.322892427444458,1969.6199951171875,-7993.169921875,-1978.6800537109375,-400000.0625,-12301.259765625,-400000.0625,-400000.0625,-400000.0625
0.32294750213623047,1957.4200439453125,-7999.85009765625,-1988.27001953125,-400000.0625,-12322.51953125,-400000.0625,-400000.0625,-400000.0625
0.32298851013183594,1945.6400146484375,-8010.25,-1997.760009765625,-400000.0625,-12335.349609375,-400000.0625,-400000.0625,-400000.0625
0.3230280876159668,1951.27001953125,-8008.0498046875,-1996.1400146484375,-400000.0625,-12344.3095703125,-400000.0625,-400000.0625,-400000.0625
0.323073148727417,1969.9599609375,-7989.68994140625,-1977.780029296875,-400000.0625,-12345.83984375,-400000.0625,-400000.0625,-400000.0625
0.323103666305542,1975.5799560546875,-7989.5,-1974.25,-400000.0625,-12309.599609375,-400000.0625,-400000.0625,-400000.0625
0.3231337070465088,1968.050048828125,-7991.60009765625,-1976.1600341796875,-400000.0625,-12291.0,-400000.0625,-400000.0625,-400000.0625
0.3231639862060547,1956.8900146484375,-7998.990234375,-1978.449951171875,-400000.0625,-12312.080078125,-400000.0625,-400000.0625,-400000.0625
0.3231987953186035,1954.8399658203125,-7997.60986328125,-1983.5999755859375,-400000.0625,-12329.099609375,-400000.0625,-400000.0625,-400000.0625
0.3232276439666748,1977.72998046875,-7990.4599609375,-1974.5400390625,-400000.0625,-12311.599609375,-400000.0625,-400000.0625,-400000.0625
0.3232734203338623,1985.6500244140625,-7981.97021484375,-1975.8699951171875,-400000.0625,-12322.4697265625,-400000.0625,-400000.0625,-400000.0625
0.5993330478668213,1967.760009765625,-7987.60009765625,-1981.2099609375,-400000.0625,-12338.349609375,-400000.0625,-400000.0625,-400000.0625
0.7033786773681641,1953.510009765625,-8010.43994140625,-2000.4300537109375,-400000.0625,-12349.9404296875,-400000.0625,-400000.0625,-400000.0625
0.7637391090393066,1949.9300537109375,-8016.2099609375,-2009.489990234375,-400000.0625,-12351.08984375,-400000.0625,-400000.0625,-400000.0625
0.7639925479888916,1969.6700439453125,-7996.66015625,-1988.510009765625,-400000.0625,-12319.759765625,-400000.0625,-400000.0625,-400000.0625
0.7640345096588135,1982.260009765625,-7978.490234375,-1967.3299560546875,-400000.0625,-12303.2099609375,-400000.0625,-400000.0625,-400000.0625
0.7640731334686279,1981.0699462890625,-7989.68994140625,-1983.2099609375,-400000.0625,-12306.98046875,-400000.0625,-400000.0625,-400000.0625
0.7641119956970215,1969.8599853515625,-7998.56005859375,-1996.3299560546875,-400000.0625,-12327.580078125,-400000.0625,-400000.0625,-400000.0625
0.7641496658325195,1963.469970703125,-8000.7099609375,-1995.0400390625,-400000.0625,-12343.9296875,-400000.0625,-400000.0625,-400000.0625
0.7642004489898682,1974.300048828125,-7991.4599609375,-1989.4100341796875,-400000.0625,-12337.9697265625,-400000.0625,-400000.0625,-400000.0625
0.7642369270324707,1982.260009765625,-7993.1298828125,-1988.510009765625,-400000.0625,-12335.01953125,-400000.0625,-400000.0625,-400000.0625
0.7643210887908936,1980.9200439453125,-7992.080078125,-1987.1700439453125,-400000.0625,-12319.419921875,-400000.0625,-400000.0625,-400000.0625
0.7643558979034424,1972.1500244140625,-7994.60986328125,-1984.8299560546875,-400000.0625,-12319.0400390625,-400000.0625,-400000.0625,-400000.0625
0.7643969058990479,1966.0,-8007.6201171875,-1994.93994140625,-400000.0625,-12315.66015625,-400000.0625,-400000.0625,-400000.0625
0.7644295692443848,1967.0,-8006.85986328125,-2000.280029296875,-400000.0625,-12314.990234375,-400000.0625,-400000.0625,-400000.0625
0.7644615173339844,1977.010009765625,-7991.27001953125,-1986.8399658203125,-400000.0625,-12324.0498046875,-400000.0625,-400000.0625,-400000.0625
0.7644953727722168,1977.9200439453125,-7987.5498046875,-1982.550048828125,-400000.0625,-12338.2099609375,-400000.0625,-400000.0625,-400000.0625
0.7645368576049805,1968.530029296875,-8002.6201171875,-1996.7099609375,-400000.0625,-12340.5498046875,-400000.0625,-400000.0625,-400000.0625
0.7645711898803711,1962.6600341796875,-8010.81982421875,-2006.3900146484375,-400000.0625,-12332.8203125,-400000.0625,-400000.0625,-400000.0625
0.7646129131317139,1978.489990234375,-7996.3701171875,-1996.7099609375,-400000.0625,-12330.9599609375,-400000.0625,-400000.0625,-400000.0625
0.7646799087524414,1990.3699951171875,-7978.68017578125,-1970.050048828125,-400000.0625,-12325.8603515625,-400000.0625,-400000.0625,-400000.0625
0.7647294998168945,1982.68994140625,-7990.68994140625,-1990.030029296875,-400000.0625,-12323.48046875,-400000.0625,-400000.0625,-400000.0625
0.7647662162780762,1968.8599853515625,-8006.56982421875,-1996.0899658203125,-400000.0625,-12321.08984375,-400000.0625,-400000.0625,-400000.0625
0.7648015022277832,1963.3299560546875,-8002.9501953125,-1990.030029296875,-400000.0625,-12325.9599609375,-400000.0625,-400000.0625,-400000.0625
0.7648355960845947,1980.2099609375,-7995.60986328125,-1992.75,-400000.0625,-12336.1103515625,-400000.0625,-400000.0625,-400000.0625
0.7648680210113525,1991.3699951171875,-7982.68017578125,-1973.199951171875,-400000.0625,-12317.7099609375,-400000.0625,-400000.0625,-400000.0625
0.7649006843566895,1983.260009765625,-7984.68994140625,-1979.780029296875,-400000.0625,-12303.16015625,-400000.0625,-400000.0625,-400000.0625
0.7650361061096191,1968.81005859375,-8002.0400390625,-2001.52001953125,-400000.0625,-12328.3896484375,-400000.0625,-400000.0625,-400000.0625
0.7650814056396484,1960.7099609375,-8012.39013671875,-2008.1500244140625,-400000.0625,-12349.8896484375,-400000.0625,-400000.0625,-400000.0625
0.7651283740997314,1972.25,-8000.56982421875,-1996.0899658203125,-400000.0625,-12341.6904296875,-400000.0625,-400000.0625,-400000.0625
0.7651817798614502,1984.550048828125,-7984.830078125,-1985.3599853515625,-400000.0625,-12317.75,-400000.0625,-400000.0625,-400000.0625
0.7652425765991211,1973.3900146484375,-8002.22998046875,-1998.6199951171875,-400000.0625,-12323.8603515625,-400000.0625,-400000.0625,-400000.0625
0.765275239944458,1958.1300048828125,-8016.43994140625,-2007.9100341796875,-400000.0625,-12341.740234375,-400000.0625,-400000.0625,-400000.0625
0.7653141021728516,1955.4100341796875,-8012.8701171875,-2003.530029296875,-400000.0625,-12334.2099609375,-400000.0625,-400000.0625,-400000.0625
0.7653539180755615,1967.5699462890625,-8004.0,-2004.3900146484375,-400000.0625,-12325.8603515625,-400000.0625,-400000.0625,-400000.0625
0.7653868198394775,1981.9300537109375,-7997.75,-1991.56005859375,-400000.0625,-12326.1904296875,-400000.0625,-400000.0625,-400000.0625
0.7654175758361816,1975.9200439453125,-8000.9501953125,-1991.1800537109375,-400000.0625,-12306.1201171875,-400000.0625,-400000.0625,-400000.0625
0.7654533386230469,1966.6199951171875,-8012.33984375,-2001.0999755859375,-400000.0625,-12316.23046875,-400000.0625,-400000.0625,-400000.0625
0.7654886245727539,1965.949951171875,-8016.16015625,-2011.3900146484375,-400000.0625,-12335.830078125,-400000.0625,-400000.0625,-400000.0625
0.7655198574066162,1977.3499755859375,-8002.52001953125,-1995.52001953125,-400000.0625,-12347.1298828125,-400000.0625,-400000.0625,-400000.0625
0.7655525207519531,1989.1700439453125,-7991.080078125,-1989.1700439453125,-400000.0625,-12346.3203125,-400000.0625,-400000.0625,-400000.0625
0.7655878067016602,1970.4300537109375,-8009.52978515625,-2009.489990234375,-400000.0625,-12321.4697265625,-400000.0625,-400000.0625,-400000.0625
0.7656252384185791,1965.949951171875,-8016.97021484375,-2011.010009765625,-400000.0625,-12325.2900390625,-400000.0625,-400000.0625,-400000.0625
0.7656590938568115,1969.3399658203125,-8019.2099609375,-2010.06005859375,-400000.0625,-12335.400390625,-400000.0625,-400000.0625,-400000.0625
0.7656936645507812,1975.8199462890625,-8014.2001953125,-2002.530029296875,-400000.0625,-12323.759765625,-400000.0625,-400000.0625,-400000.0625
0.7657520771026611,1975.489990234375,-8005.9501953125,-1998.1400146484375,-400000.0625,-12309.41015625,-400000.0625,-400000.0625,-400000.0625
0.7658045291900635,1971.1500244140625,-8018.10986328125,-2004.9100341796875,-400000.0625,-12324.2900390625,-400000.0625,-400000.0625,-400000.0625
0.7658491134643555,1959.6099853515625,-8028.7001953125,-2019.8299560546875,-400000.0625,-12353.1396484375,-400000.0625,-400000.0625,-400000.0625
0.7658853530883789,1961.1800537109375,-8022.64013671875,-2008.489990234375,-400000.0625,-12341.6904296875,-400000.0625,-400000.0625,-400000.0625
0.7659242153167725,1969.1500244140625,-8015.25,-2008.3900146484375,-400000.0625,-12321.4296875,-400000.0625,-400000.0625,-400000.0625
0.7659506797790527,1974.6300048828125,-8011.39013671875,-2005.0999755859375,-400000.0625,-12308.4599609375,-400000.0625,-400000.0625,-400000.0625
0.7659759521484375,1975.010009765625,-8021.16015625,-2006.719970703125,-400000.0625,-12311.5595703125,-400000.0625,-400000.0625,-400000.0625
0.7659997940063477,1956.699951171875,-8037.0400390625,-2023.1700439453125,-400000.0625,-12335.830078125,-400000.0625,-400000.0625,-400000.0625
0.7660233974456787,1952.1199951171875,-8039.3798828125,-2027.22998046875,-400000.0625,-12338.5400390625,-400000.0625,-400000.0625,-400000.0625
0.766057014465332,1967.0,-8024.06982421875,-2013.8699951171875,-400000.0625,-12328.8603515625,-400000.0625,-400000.0625,-400000.0625
0.7661130428314209,1970.8199462890625,-8017.8701171875,-2002.6199951171875,-400000.0625,-12316.75,-400000.0625,-400000.0625,-400000.0625
0.7661521434783936,1968.6700439453125,-8026.31005859375,-2009.1099853515625,-400000.0625,-12312.26953125,-400000.0625,-400000.0625,-400000.0625
0.7661874294281006,1954.5999755859375,-8037.18994140625,-2025.8900146484375,-400000.0625,-12341.01953125,-400000.0625,-400000.0625,-400000.0625
0.7662155628204346,1950.550048828125,-8042.669921875,-2017.68994140625,-400000.0625,-12343.5498046875,-400000.0625,-400000.0625,-400000.0625
0.7662436962127686,1962.3800048828125,-8035.85009765625,-2020.7900390625,-400000.0625,-12333.6796875,-400000.0625,-400000.0625,-400000.0625
0.7662985324859619,1966.6700439453125,-8038.759765625,-2023.7900390625,-400000.0625,-12328.9599609375,-400000.0625,-400000.0625,-400000.0625
0.7663273811340332,1956.1800537109375,-8045.9599609375,-2025.0799560546875,-400000.0625,-12329.2001953125,-400000.0625,-400000.0625,-400000.0625
0.7663514614105225,1941.010009765625,-8057.93017578125,-2033.760009765625,-400000.0625,-12334.5400390625,-400000.0625,-400000.0625,-400000.0625
0.7663753032684326,1933.530029296875,-8052.68017578125,-2029.989990234375,-400000.0625,-12320.1904296875,-400000.0625,-400000.0625,-400000.0625
0.7663989067077637,1947.9300537109375,-8034.330078125,-2014.02001953125,-400000.0625,-12317.6103515625,-400000.0625,-400000.0625,-400000.0625
0.766423225402832,1959.3699951171875,-8027.60009765625,-2003.239990234375,-400000.0625,-12326.0498046875,-400000.0625,-400000.0625,-400000.0625
0.7664623260498047,1951.9300537109375,-8036.7099609375,-2011.9200439453125,-400000.0625,-12326.4296875,-400000.0625,-400000.0625,-400000.0625
0.7664880752563477,1933.4300537109375,-8051.58984375,-2023.219970703125,-400000.0625,-12327.3896484375,-400000.0625,-400000.0625,-400000.0625
0.7665276527404785,1930.0,-8054.06982421875,-2026.6500244140625,-400000.0625,-12323.91015625,-400000.0625,-400000.0625,-400000.0625
0.7665507793426514,1946.260009765625,-8031.27001953125,-2005.530029296875,-400000.0625,-12312.7001953125,-400000.0625,-400000.0625,-400000.0625
0.7665739059448242,1959.7099609375,-8029.89013671875,-2001.949951171875,-400000.0625,-12306.41015625,-400000.0625,-400000.0625,-400000.0625
0.766599178314209,1944.9200439453125,-8041.72021484375,-2012.300048828125,-400000.0625,-12321.900390625,-400000.0625,-400000.0625,-400000.0625
0.766634464263916,1932.0999755859375,-8055.97021484375,-2022.7900390625,-400000.0625,-12340.5,-400000.0625,-400000.0625,-400000.0625
0.7667138576507568,1933.77001953125,-8046.2900390625,-2015.9200439453125,-400000.0625,-12336.73046875,-400000.0625,-400000.0625,-400000.0625
0.7668325901031494,1946.1199951171875,-8043.14990234375,-2006.9599609375,-400000.0625,-12341.3095703125,-400000.0625,-400000.0625,-400000.0625
0.7669479846954346,1946.6400146484375,-8045.9599609375,-2007.9100341796875,-400000.0625,-12327.7197265625,-400000.0625,-400000.0625,-400000.0625
0.7670233249664307,1937.8199462890625,-8046.9599609375,-2017.550048828125,-400000.0625,-12323.1396484375,-400000.0625,-400000.0625,-400000.0625
0.7671248912811279,1925.1300048828125,-8058.169921875,-2022.550048828125,-400000.0625,-12302.919921875,-400000.0625,-400000.0625,-400000.0625
0.7672088146209717,1931.52001953125,-8060.89013671875,-2018.0699462890625,-400000.0625,-12298.3896484375,-400000.0625,-400000.0625,-400000.0625
0.7673020362854004,1935.1500244140625,-8053.2998046875,-2012.9200439453125,-400000.0625,-12309.740234375,-400000.0625,-400000.0625,-400000.0625
0.7673871517181396,1933.8599853515625,-8051.58984375,-2011.72998046875,-400000.0625,-12314.23046875,-400000.0625,-400000.0625,-400000.0625
0.7674434185028076,1926.4200439453125,-8053.16015625,-2019.260009765625,-400000.0625,-12324.5703125,-400000.0625,-400000.0625,-400000.0625
0.7674808502197266,1934.3399658203125,-8062.7900390625,-2021.5999755859375,-400000.0625,-12334.830078125,-400000.0625,-400000.0625,-400000.0625
0.7675139904022217,1929.0,-8063.83984375,-2025.0799560546875,-400000.0625,-12359.5703125,-400000.0625,-400000.0625,-400000.0625
0.7675471305847168,1932.81005859375,-8049.5400390625,-2017.739990234375,-400000.0625,-12361.0498046875,-400000.0625,-400000.0625,-400000.0625
0.7675967216491699,1942.5899658203125,-8039.89990234375,-2001.8599853515625,-400000.0625,-12329.9599609375,-400000.0625,-400000.0625,-400000.0625
0.7676458358764648,1942.9200439453125,-8045.14990234375,-2004.77001953125,-400000.0625,-12325.0,-400000.0625,-400000.0625,-400000.0625
0.7676823139190674,1938.9599609375,-8051.2998046875,-2015.969970703125,-400000.0625,-12314.23046875,-400000.0625,-400000.0625,-400000.0625
0.7677261829376221,1926.1400146484375,-8063.89013671875,-2021.1700439453125,-400000.0625,-12309.7900390625,-400000.0625,-400000.0625,-400000.0625
0.7677693367004395,1922.800048828125,-8066.27001953125,-2031.949951171875,-400000.0625,-12320.51953125,-400000.0625,-400000.0625,-400000.0625
0.7678234577178955,1935.199951171875,-8049.2001953125,-2006.3900146484375,-400000.0625,-12314.990234375,-400000.0625,-400000.0625,-400000.0625
0.7678813934326172,1936.719970703125,-8048.72998046875,-2007.199951171875,-400000.0625,-12333.73046875,-400000.0625,-400000.0625,-400000.0625
0.7679691314697266,1924.6099853515625,-8067.89013671875,-2026.0799560546875,-400000.0625,-12358.9501953125,-400000.0625,-400000.0625,-400000.0625
0.7680308818817139,1916.68994140625,-8071.3798828125,-2029.469970703125,-400000.0625,-12337.01953125,-400000.0625,-400000.0625,-400000.0625
0.7680630683898926,1936.6300048828125,-8054.58984375,-2014.260009765625,-400000.0625,-12311.0302734375,-400000.0625,-400000.0625,-400000.0625
0.768094539642334,1961.1800537109375,-8029.1298828125,-1992.4200439453125,-400000.0625,-12301.8798828125,-400000.0625,-400000.0625,-400000.0625
0.7681477069854736,1951.030029296875,-8037.9501953125,-2003.239990234375,-400000.0625,-12318.23046875,-400000.0625,-400000.0625,-400000.0625
0.768179178237915,1924.4200439453125,-8067.22998046875,-2030.800048828125,-400000.0625,-12354.849609375,-400000.0625,-400000.0625,-400000.0625
0.7682220935821533,1914.8399658203125,-8075.0498046875,-2037.2900390625,-400000.0625,-12343.3603515625,-400000.0625,-400000.0625,-400000.0625
0.7682521343231201,1932.3800048828125,-8055.31005859375,-2015.6400146484375,-400000.0625,-12307.740234375,-400000.0625,-400000.0625,-400000.0625
0.7683019638061523,1944.8800048828125,-8039.81005859375,-1999.6199951171875,-400000.0625,-12310.169921875,-400000.0625,-400000.0625,-400000.0625
0.7683360576629639,1937.3399658203125,-8051.919921875,-2014.1099853515625,-400000.0625,-12320.9501953125,-400000.0625,-400000.0625,-400000.0625
0.7683780193328857,1938.0999755859375,-8053.68994140625,-2015.6400146484375,-400000.0625,-12334.25,-400000.0625,-400000.0625,-400000.0625
0.768409252166748,1934.0,-8049.81982421875,-2016.5,-400000.0625,-12353.51953125,-400000.0625,-400000.0625,-400000.0625
0.7684381008148193,1932.6700439453125,-8047.2001953125,-2012.43994140625,-400000.0625,-12341.3095703125,-400000.0625,-400000.0625,-400000.0625
0.7684810161590576,1940.010009765625,-8040.72021484375,-2004.77001953125,-400000.0625,-12307.7900390625,-400000.0625,-400000.0625,-400000.0625
0.7685129642486572,1942.2099609375,-8037.66015625,-2001.0999755859375,-400000.0625,-12287.7099609375,-400000.0625,-400000.0625,-400000.0625
0.7685630321502686,1929.6600341796875,-8051.830078125,-2013.8699951171875,-400000.0625,-12315.66015625,-400000.0625,-400000.0625,-400000.0625
0.7685956954956055,1929.7099609375,-8055.77978515625,-2018.550048828125,-400000.0625,-12331.580078125,-400000.0625,-400000.0625,-400000.0625
0.7686433792114258,1941.8699951171875,-8043.9599609375,-2009.5400390625,-400000.0625,-12328.48046875,-400000.0625,-400000.0625,-400000.0625
0.7687830924987793,1956.030029296875,-8025.7900390625,-2000.6700439453125,-400000.0625,-12330.8203125,-400000.0625,-400000.0625,-400000.0625
0.8474242687225342,1953.0799560546875,-8024.7900390625,-1996.52001953125,-400000.0625,-12344.41015625,-400000.0625,-400000.0625,-400000.0625
0.9796199798583984,1942.1099853515625,-8045.47998046875,-2011.489990234375,-400000.0625,-12332.8701171875,-400000.0625,-400000.0625,-400000.0625
1.0693037509918213,1938.06005859375,-8045.2001953125,-2011.5899658203125,-400000.0625,-12318.1396484375,-400000.0625,-400000.0625,-400000.0625
1.1041278839111328,1942.6800537109375,-8045.2900390625,-2006.8599853515625,-400000.0625,-12314.849609375,-400000.0625,-400000.0625,-400000.0625
1.1952660083770752,1952.510009765625,-8035.18017578125,-1997.280029296875,-400000.0625,-12310.1201171875,-400000.0625,-400000.0625,-400000.0625
1.237898349761963,1948.1700439453125,-8033.60986328125,-2001.1400146484375,-400000.0625,-12323.3798828125,-400000.0625,-400000.0625,-400000.0625
1.3262608051300049,1935.3399658203125,-8051.35009765625,-2010.199951171875,-400000.0625,-12337.5,-400000.0625,-400000.0625,-400000.0625
1.3677914142608643,1929.0400390625,-8056.31005859375,-2017.68994140625,-400000.0625,-12330.5302734375,-400000.0625,-400000.0625,-400000.0625
1.4904937744140625,1942.1600341796875,-8032.419921875,-1997.1800537109375,-400000.0625,-12312.599609375,-400000.0625,-400000.0625,-400000.0625
1.6010634899139404,1958.6099853515625,-8019.77978515625,-1986.4599609375,-400000.0625,-12308.3095703125,-400000.0625,-400000.0625,-400000.0625
1.7001855373382568,1956.800048828125,-8027.509765625,-1991.0799560546875,-400000.0625,-12309.599609375,-400000.0625,-400000.0625,-400000.0625
1.7410988807678223,1946.9300537109375,-8030.93994140625,-1997.1800537109375,-400000.0625,-12322.4296875,-400000.0625,-400000.0625,-400000.0625
1.8332176208496094,1939.9599609375,-8041.85986328125,-2013.25,-400000.0625,-12333.6796875,-400000.0625,-400000.0625,-400000.0625
1.8967983722686768,1942.3499755859375,-8043.18994140625,-2013.489990234375,-400000.0625,-12325.33984375,-400000.0625,-400000.0625,-400000.0625
2.0295307636260986,1949.5999755859375,-8037.08984375,-2007.199951171875,-400000.0625,-12314.75,-400000.0625,-400000.0625,-400000.0625
2.1046814918518066,1947.6400146484375,-8043.10009765625,-2011.010009765625,-400000.0625,-12331.8203125,-400000.0625,-400000.0625,-400000.0625
2.159472703933716,1930.760009765625,-8052.4501953125,-2021.219970703125,-400000.0625,-12351.990234375,-400000.0625,-400000.0625,-400000.0625
2.2245140075683594,1922.6600341796875,-8061.64990234375,-2027.0400390625,-400000.0625,-12334.2998046875,-400000.0625,-400000.0625,-400000.0625
2.294255018234253,1936.25,-8046.9599609375,-2013.300048828125,-400000.0625,-12317.51953125,-400000.0625,-400000.0625,-400000.0625
2.3618905544281006,1955.219970703125,-8022.8798828125,-1987.27001953125,-400000.0625,-12303.9296875,-400000.0625,-400000.0625,-400000.0625
2.4092066287994385,1955.5999755859375,-8025.60009765625,-1991.93994140625,-400000.0625,-12325.4296875,-400000.0625,-400000.0625,-400000.0625
2.4777331352233887,1936.9100341796875,-8043.33984375,-2011.06005859375,-400000.0625,-12338.259765625,-400000.0625,-400000.0625,-400000.0625
2.5307178497314453,1927.4200439453125,-8051.490234375,-2015.8299560546875,-400000.0625,-12320.1904296875,-400000.0625,-400000.0625,-400000.0625
2.6177310943603516,1942.06005859375,-8038.759765625,-2006.0999755859375,-400000.0625,-12308.2197265625,-400000.0625,-400000.0625,-400000.0625
2.670076608657837,1950.68994140625,-8032.7001953125,-2003.6700439453125,-400000.0625,-12316.1796875,-400000.0625,-400000.0625,-400000.0625
2.7280147075653076,1941.72998046875,-8043.33984375,-2009.9599609375,-400000.0625,-12329.3896484375,-400000.0625,-400000.0625,-400000.0625
2.789320707321167,1931.3299560546875,-8056.64013671875,-2021.5999755859375,-400000.0625,-12330.580078125,-400000.0625,-400000.0625,-400000.0625
2.8599817752838135,1924.9000244140625,-8064.1298828125,-2028.1800537109375,-400000.0625,-12332.6796875,-400000.0625,-400000.0625,-400000.0625
2.9167635440826416,1938.9599609375,-8048.10986328125,-2011.010009765625,-400000.0625,-12319.2802734375,-400000.0625,-400000.0625,-400000.0625
2.9747536182403564,1954.219970703125,-8029.27001953125,-1990.030029296875,-400000.0625,-12312.599609375,-400000.0625,-400000.0625,-400000.0625
3.004951238632202,1953.3599853515625,-8024.5498046875,-1991.3699951171875,-400000.0625,-12321.66015625,-400000.0625,-400000.0625,-400000.0625
3.0528664588928223,1942.6800537109375,-8046.2001953125,-2014.5899658203125,-400000.0625,-12335.4404296875,-400000.0625,-400000.0625,-400000.0625
3.120359182357788,1928.5699462890625,-8052.830078125,-2022.4599609375,-400000.0625,-12332.5400390625,-400000.0625,-400000.0625,-400000.0625
3.1739253997802734,1933.2900390625,-8038.0400390625,-2013.780029296875,-400000.0625,-12328.2001953125,-400000.0625,-400000.0625,-400000.0625
3.24725341796875,1942.1099853515625,-8029.31982421875,-2004.0,-400000.0625,-12306.4501953125,-400000.0625,-400000.0625,-400000.0625
3.302138566970825,1950.1700439453125,-8029.64990234375,-1999.8599853515625,-400000.0625,-12312.3701171875,-400000.0625,-400000.0625,-400000.0625
3.3878962993621826,1948.8800048828125,-8035.60986328125,-2014.2099609375,-400000.0625,-12336.490234375,-400000.0625,-400000.0625,-400000.0625
3.426730155944824,1949.5,-8035.52001953125,-2022.5999755859375,-400000.0625,-12347.26953125,-400000.0625,-400000.0625,-400000.0625
3.508979082107544,1969.9599609375,-8008.72021484375,-2009.43994140625,-400000.0625,-12335.58984375,-400000.0625,-400000.0625,-400000.0625
3.542402505874634,1987.1199951171875,-7987.830078125,-1992.93994140625,-400000.0625,-12322.9501953125,-400000.0625,-400000.0625,-400000.0625
3.6163856983184814,1989.0799560546875,-7990.22021484375,-1996.0899658203125,-400000.0625,-12321.8603515625,-400000.0625,-400000.0625,-400000.0625
3.6513359546661377,1975.489990234375,-8000.22998046875,-2009.25,-400000.0625,-12335.4404296875,-400000.0625,-400000.0625,-400000.0625
3.7659175395965576,1983.68994140625,-7991.7900390625,-2006.9100341796875,-400000.0625,-12349.7001953125,-400000.0625,-400000.0625,-400000.0625
3.8631765842437744,1994.800048828125,-7975.2900390625,-1996.3699951171875,-400000.0625,-12350.7001953125,-400000.0625,-400000.0625,-400000.0625
3.9052889347076416,1998.81005859375,-7965.08984375,-1990.4100341796875,-400000.0625,-12328.580078125,-400000.0625,-400000.0625,-400000.0625
3.991960048675537,2000.760009765625,-7962.75,-1990.1300048828125,-400000.0625,-12325.33984375,-400000.0625,-400000.0625,-400000.0625
4.029967784881592,1993.27001953125,-7969.89990234375,-1995.6099853515625,-400000.0625,-12347.4599609375,-400000.0625,-400000.0625,-400000.0625
4.117522954940796,1994.75,-7974.2900390625,-1997.800048828125,-400000.0625,-12354.66015625,-400000.0625,-400000.0625,-400000.0625
4.152923107147217,1986.4599609375,-7978.5400390625,-1998.6600341796875,-400000.0625,-12335.2099609375,-400000.0625,-400000.0625,-400000.0625
4.2959840297698975,1992.0799560546875,-7973.39013671875,-1990.989990234375,-400000.0625,-12310.0302734375,-400000.0625,-400000.0625,-400000.0625
4.398224115371704,1989.7900390625,-7979.06005859375,-2004.18994140625,-400000.0625,-12328.240234375,-400000.0625,-400000.0625,-400000.0625
4.469903945922852,1981.1600341796875,-7986.02001953125,-2010.77001953125,-400000.0625,-12354.7099609375,-400000.0625,-400000.0625,-400000.0625
4.534287691116333,1985.4100341796875,-7989.97998046875,-2013.3499755859375,-400000.0625,-12346.8896484375,-400000.0625,-400000.0625,-400000.0625
4.597198486328125,1996.5699462890625,-7975.52978515625,-2001.47998046875,-400000.0625,-12324.8603515625,-400000.0625,-400000.0625,-400000.0625
4.650422096252441,2008.719970703125,-7968.0,-1988.6500244140625,-400000.0625,-12319.1396484375,-400000.0625,-400000.0625,-400000.0625
4.718496561050415,2006.6700439453125,-7968.27978515625,-1993.3199462890625,-400000.0625,-12339.3603515625,-400000.0625,-400000.0625,-400000.0625
4.780150890350342,1989.56005859375,-7986.31005859375,-2008.9200439453125,-400000.0625,-12356.08984375,-400000.0625,-400000.0625,-400000.0625
4.867112159729004,1989.219970703125,-7989.259765625,-2012.4000244140625,-400000.0625,-12336.2099609375,-400000.0625,-400000.0625,-400000.0625
4.927904367446899,2005.239990234375,-7970.91015625,-1991.800048828125,-400000.0625,-12317.75,-400000.0625,-400000.0625,-400000.0625
4.994856595993042,1997.949951171875,-7976.580078125,-1995.6099853515625,-400000.0625,-12324.240234375,-400000.0625,-400000.0625,-400000.0625
5.049367189407349,1991.0799560546875,-7981.5400390625,-2005.8599853515625,-400000.0625,-12333.919921875,-400000.0625,-400000.0625,-400000.0625
5.130438327789307,1979.780029296875,-7991.64990234375,-2016.6400146484375,-400000.0625,-12350.419921875,-400000.0625,-400000.0625,-400000.0625
5.165007829666138,1978.780029296875,-8001.419921875,-2019.3599853515625,-400000.0625,-12344.1201171875,-400000.0625,-400000.0625,-400000.0625
5.315248966217041,1994.75,-7986.1201171875,-2005.050048828125,-400000.0625,-12337.2998046875,-400000.0625,-400000.0625,-400000.0625
5.384620189666748,2010.25,-7964.3701171875,-1989.1300048828125,-400000.0625,-12326.33984375,-400000.0625,-400000.0625,-400000.0625
5.429687738418579,2012.2099609375,-7965.60986328125,-1988.4100341796875,-400000.0625,-12332.4404296875,-400000.0625,-400000.0625,-400000.0625
5.4946417808532715,1992.0400390625,-7984.259765625,-2006.0999755859375,-400000.0625,-12345.599609375,-400000.0625,-400000.0625,-400000.0625
5.522545576095581,1989.1300048828125,-7988.5498046875,-2006.8199462890625,-400000.0625,-12338.5,-400000.0625,-400000.0625,-400000.0625
5.56711483001709,1995.0899658203125,-7981.8701171875,-2004.239990234375,-400000.0625,-12322.0,-400000.0625,-400000.0625,-400000.0625
5.624556303024292,2012.9200439453125,-7958.83984375,-1985.1700439453125,-400000.0625,-12320.1904296875,-400000.0625,-400000.0625,-400000.0625
5.686484336853027,2013.3499755859375,-7965.419921875,-1988.030029296875,-400000.0625,-12330.3896484375,-400000.0625,-400000.0625,-400000.0625
5.736860990524292,1987.510009765625,-7993.7900390625,-2013.969970703125,-400000.0625,-12354.3798828125,-400000.0625,-400000.0625,-400000.0625
5.7698915004730225,1972.8199462890625,-8000.419921875,-2021.5,-400000.0625,-12355.900390625,-400000.0625,-400000.0625,-400000.0625
5.819138526916504,1991.6500244140625,-7981.02001953125,-2001.949951171875,-400000.0625,-12325.8603515625,-400000.0625,-400000.0625,-400000.0625
5.904737949371338,2014.8299560546875,-7965.3701171875,-1985.8399658203125,-400000.0625,-12314.6103515625,-400000.0625,-400000.0625,-400000.0625
5.955849885940552,2011.43994140625,-7962.60986328125,-1988.739990234375,-400000.0625,-12332.1103515625,-400000.0625,-400000.0625,-400000.0625
6.0323052406311035,2000.050048828125,-7978.919921875,-2003.239990234375,-400000.0625,-12366.150390625,-400000.0625,-400000.0625,-400000.0625
6.081268072128296,1990.75,-7985.8798828125,-2009.9599609375,-400000.0625,-12368.6298828125,-400000.0625,-400000.0625,-400000.0625
6.170829772949219,1998.469970703125,-7973.14990234375,-1999.280029296875,-400000.0625,-12333.3896484375,-400000.0625,-400000.0625,-400000.0625
6.214395999908447,2013.72998046875,-7967.81005859375,-1994.4200439453125,-400000.0625,-12306.1201171875,-400000.0625,-400000.0625,-400000.0625
6.312076568603516,2006.239990234375,-7967.330078125,-1994.93994140625,-400000.0625,-12305.0703125,-400000.0625,-400000.0625,-400000.0625
6.35831093788147,1991.4200439453125,-7986.77978515625,-2010.489990234375,-400000.0625,-12334.4404296875,-400000.0625,-400000.0625,-400000.0625
6.461389780044556,1993.27001953125,-7984.5,-2004.81005859375,-400000.0625,-12355.1396484375,-400000.0625,-400000.0625,-400000.0625
6.561492681503296,1999.18994140625,-7973.81005859375,-1995.75,-400000.0625,-12352.51953125,-400000.0625,-400000.0625,-400000.0625
6.660195589065552,2014.8800048828125,-7958.27001953125,-1984.6400146484375,-400000.0625,-12342.98046875,-400000.0625,-400000.0625,-400000.0625
6.7019970417022705,2020.739990234375,-7958.75,-1987.6500244140625,-400000.0625,-12323.48046875,-400000.0625,-400000.0625,-400000.0625
6.789807081222534,2001.4300537109375,-7975.2001953125,-1998.0899658203125,-400000.0625,-12333.4404296875,-400000.0625,-400000.0625,-400000.0625
6.826802492141724,1988.3199462890625,-7980.2001953125,-2007.8199462890625,-400000.0625,-12339.6904296875,-400000.0625,-400000.0625,-400000.0625
6.944560289382935,2003.0999755859375,-7966.56982421875,-1996.1800537109375,-400000.0625,-12333.25,-400000.0625,-400000.0625,-400000.0625
7.054933786392212,2010.969970703125,-7958.93994140625,-1986.9300537109375,-400000.0625,-12335.58984375,-400000.0625,-400000.0625,-400000.0625
7.160082578659058,2008.6300048828125,-7962.0400390625,-1991.219970703125,-400000.0625,-12336.830078125,-400000.0625,-400000.0625,-400000.0625
7.246913194656372,2002.0,-7965.18017578125,-1996.469970703125,-400000.0625,-12329.91015625,-400000.0625,-400000.0625,-400000.0625
7.292698621749878,2001.81005859375,-7972.0,-2002.719970703125,-400000.0625,-12346.3603515625,-400000.0625,-400000.0625,-400000.0625
7.3962013721466064,2010.489990234375,-7961.4599609375,-1996.0899658203125,-400000.0625,-12369.73046875,-400000.0625,-400000.0625,-400000.0625
7.505680322647095,2019.6400146484375,-7948.490234375,-1981.780029296875,-400000.0625,-12351.66015625,-400000.0625,-400000.0625,-400000.0625
7.587717294692993,2021.1700439453125,-7944.72998046875,-1983.9300537109375,-400000.0625,-12327.9599609375,-400000.0625,-400000.0625,-400000.0625
7.646331548690796,2009.6300048828125,-7962.27978515625,-1993.989990234375,-400000.0625,-12327.3896484375,-400000.0625,-400000.0625,-400000.0625
7.743250131607056,1995.3699951171875,-7971.9599609375,-2002.81005859375,-400000.0625,-12328.48046875,-400000.0625,-400000.0625,-400000.0625
7.787933588027954,2012.5400390625,-7954.22021484375,-1985.0699462890625,-400000.0625,-12330.33984375,-400000.0625,-400000.0625,-400000.0625
7.900480270385742,2027.989990234375,-7939.81982421875,-1973.3399658203125,-400000.0625,-12338.9296875,-400000.0625,-400000.0625,-400000.0625
8.022361516952515,2021.4100341796875,-7943.10986328125,-1981.2099609375,-400000.0625,-12340.58984375,-400000.0625,-400000.0625,-400000.0625
8.10376787185669,2004.530029296875,-7964.56005859375,-2002.719970703125,-400000.0625,-12337.259765625,-400000.0625,-400000.0625,-400000.0625
8.1378755569458,1994.93994140625,-7968.0498046875,-2006.9599609375,-400000.0625,-12348.4599609375,-400000.0625,-400000.0625,-400000.0625
8.240561246871948,2005.239990234375,-7957.27001953125,-1998.469970703125,-400000.0625,-12345.3203125,-400000.0625,-400000.0625,-400000.0625
8.367666959762573,2024.3599853515625,-7944.919921875,-1979.449951171875,-400000.0625,-12323.330078125,-400000.0625,-400000.0625,-400000.0625
8.500427484512329,2019.6400146484375,-7947.02001953125,-1975.489990234375,-400000.0625,-12320.23046875,-400000.0625,-400000.0625,-400000.0625
8.626693487167358,2009.300048828125,-7958.83984375,-1995.0899658203125,-400000.0625,-12345.1201171875,-400000.0625,-400000.0625,-400000.0625
8.736051559448242,2004.18994140625,-7961.509765625,-1997.9000244140625,-400000.0625,-12344.8896484375,-400000.0625,-400000.0625,-400000.0625
8.855251789093018,2014.6400146484375,-7943.10986328125,-1979.02001953125,-400000.0625,-12344.3095703125,-400000.0625,-400000.0625,-400000.0625
8.973510026931763,2032.3299560546875,-7924.60986328125,-1966.18994140625,-400000.0625,-12334.4404296875,-400000.0625,-400000.0625,-400000.0625
9.167299270629883,2032.0400390625,-7924.60986328125,-1964.6600341796875,-400000.0625,-12322.8095703125,-400000.0625,-400000.0625,-400000.0625
9.326485395431519,2016.5899658203125,-7942.10986328125,-1983.5999755859375,-400000.0625,-12339.740234375,-400000.0625,-400000.0625,-400000.0625
9.424482583999634,1999.18994140625,-7963.60986328125,-2003.0,-400000.0625,-12355.419921875,-400000.0625,-400000.0625,-400000.0625
9.460153818130493,2002.8599853515625,-7952.2099609375,-1993.22998046875,-400000.0625,-12334.16015625,-400000.0625,-400000.0625,-400000.0625
9.702238321304321,1929.0,-8081.14990234375,-2132.85009765625,-400000.0625,-12394.759765625,-400000.0625,-400000.0625,-400000.0625
9.856950998306274,1931.1400146484375,-8078.52978515625,-2132.22998046875,-400000.0625,-12367.490234375,-400000.0625,-400000.0625,-400000.0625
10.050532102584839,1881.739990234375,-8106.22998046875,-2127.030029296875,-400000.0625,-12368.73046875,-400000.0625,-400000.0625,-400000.0625
10.211863994598389,1864.47998046875,-8127.7900390625,-2142.949951171875,-400000.0625,-12390.23046875,-400000.0625,-400000.0625,-400000.0625
10.355685234069824,1852.699951171875,-8127.2099609375,-2147.8701171875,-400000.0625,-12388.900390625,-400000.0625,-400000.0625,-400000.0625
10.52491021156311,1854.800048828125,-8137.0400390625,-2154.8798828125,-400000.0625,-12380.9404296875,-400000.0625,-400000.0625,-400000.0625
10.729657649993896,1869.9200439453125,-8128.1201171875,-2140.139892578125,-400000.0625,-12356.51953125,-400000.0625,-400000.0625,-400000.0625
10.792138814926147,1868.9200439453125,-8126.97998046875,-2137.090087890625,-400000.0625,-12342.0703125,-400000.0625,-400000.0625,-400000.0625
10.848886728286743,1863.77001953125,-8136.7001953125,-2143.239990234375,-400000.0625,-12354.6103515625,-400000.0625,-400000.0625,-400000.0625
10.974606037139893,1866.2900390625,-8143.08984375,-2150.010009765625,-400000.0625,-12351.7998046875,-400000.0625,-400000.0625,-400000.0625
11.108051061630249,1866.2900390625,-8138.27978515625,-2148.43994140625,-400000.0625,-12356.08984375,-400000.0625,-400000.0625,-400000.0625
11.225264549255371,1868.300048828125,-8133.35986328125,-2149.8701171875,-400000.0625,-12371.01953125,-400000.0625,-400000.0625,-400000.0625
11.347290754318237,1861.760009765625,-8136.7998046875,-2148.9599609375,-400000.0625,-12357.1904296875,-400000.0625,-400000.0625,-400000.0625
11.440668821334839,1859.52001953125,-8141.759765625,-2150.35009765625,-400000.0625,-12358.1396484375,-400000.0625,-400000.0625,-400000.0625
11.511910915374756,1867.3399658203125,-8147.10009765625,-2158.929931640625,-400000.0625,-12357.900390625,-400000.0625,-400000.0625,-400000.0625
11.847546577453613,1876.31005859375,-8148.39013671875,-2164.550048828125,-400000.0625,-12377.8798828125,-400000.0625,-400000.0625,-400000.0625
12.123605012893677,2060.56005859375,-8194.16015625,-2279.6201171875,-400000.0625,-12377.6904296875,-400000.0625,-400000.0625,-400000.0625
12.312976360321045,2067.469970703125,-8193.2099609375,-2281.860107421875,-400000.0625,-12384.75,-400000.0625,-400000.0625,-400000.0625
12.591311693191528,2070.3798828125,-8219.240234375,-2298.360107421875,-400000.0625,-12399.9599609375,-400000.0625,-400000.0625,-400000.0625
12.782179594039917,2082.489990234375,-8210.23046875,-2292.820068359375,-400000.0625,-12367.349609375,-400000.0625,-400000.0625,-400000.0625
12.959957361221313,2057.27001953125,-8238.599609375,-2317.669921875,-400000.0625,-12386.419921875,-400000.0625,-400000.0625,-400000.0625
13.171115398406982,2092.550048828125,-8213.849609375,-2295.5400390625,-400000.0625,-12353.4697265625,-400000.0625,-400000.0625,-400000.0625
13.286048412322998,2033.8499755859375,-8215.240234375,-2283.719970703125,-400000.0625,-12363.009765625,-400000.0625,-400000.0625,-400000.0625
13.425598382949829,2087.070068359375,-8215.6201171875,-2292.820068359375,-400000.0625,-12381.7900390625,-400000.0625,-400000.0625,-400000.0625
13.530332088470459,2070.0,-8237.9404296875,-2310.0400390625,-400000.0625,-12383.75,-400000.0625,-400000.0625,-400000.0625
13.647167921066284,2067.280029296875,-8236.7001953125,-2309.610107421875,-400000.0625,-12364.9599609375,-400000.0625,-400000.0625,-400000.0625
13.911323070526123,2091.1201171875,-8232.259765625,-2316.330078125,-400000.0625,-12400.4404296875,-400000.0625,-400000.0625,-400000.0625
14.106999397277832,1899.719970703125,-8108.81005859375,-2163.739990234375,-400000.0625,-12335.73046875,-400000.0625,-400000.0625,-400000.0625
14.24562120437622,1908.72998046875,-8114.77001953125,-2156.590087890625,-400000.0625,-12333.58984375,-400000.0625,-400000.0625,-400000.0625
14.428032159805298,1919.56005859375,-8138.27978515625,-2167.080078125,-400000.0625,-12322.4296875,-400000.0625,-400000.0625,-400000.0625
14.616138219833374,1930.1400146484375,-8130.31005859375,-2166.64990234375,-400000.0625,-12330.8203125,-400000.0625,-400000.0625,-400000.0625
14.76663589477539,1919.5999755859375,-8137.85009765625,-2163.360107421875,-400000.0625,-12316.0400390625,-400000.0625,-400000.0625,-400000.0625
14.9444899559021,1934.0999755859375,-8139.990234375,-2166.1298828125,-400000.0625,-12342.3603515625,-400000.0625,-400000.0625,-400000.0625
15.07137417793274,1905.6300048828125,-8160.5400390625,-2173.280029296875,-400000.0625,-12356.08984375,-400000.0625,-400000.0625,-400000.0625
15.160353183746338,1897.0,-8177.0,-2184.010009765625,-400000.0625,-12346.2197265625,-400000.0625,-400000.0625,-400000.0625
15.262392044067383,1903.8699951171875,-8156.10986328125,-2163.360107421875,-400000.0625,-12344.650390625,-400000.0625,-400000.0625,-400000.0625
15.433342218399048,1791.47998046875,-8134.080078125,-2081.010009765625,-400000.0625,-12319.51953125,-400000.0625,-400000.0625,-400000.0625
15.582342863082886,1890.3699951171875,-8159.02001953125,-2167.699951171875,-400000.0625,-12347.3701171875,-400000.0625,-400000.0625,-400000.0625
15.811723232269287,1905.5799560546875,-8167.83984375,-2179.580078125,-400000.0625,-12379.41015625,-400000.0625,-400000.0625,-400000.0625
15.912716388702393,1924.0899658203125,-8151.8701171875,-2167.080078125,-400000.0625,-12351.9404296875,-400000.0625,-400000.0625,-400000.0625
16.04657506942749,1917.8900146484375,-8153.52978515625,-2171.85009765625,-400000.0625,-12345.509765625,-400000.0625,-400000.0625,-400000.0625
16.228333950042725,1730.9200439453125,-8038.0400390625,-1977.72998046875,-400000.0625,-12323.91015625,-400000.0625,-400000.0625,-400000.0625
16.366851329803467,1756.719970703125,-8026.5498046875,-1966.4300537109375,-400000.0625,-12313.2197265625,-400000.0625,-400000.0625,-400000.0625
16.540230989456177,1748.800048828125,-8037.52001953125,-1973.8199462890625,-400000.0625,-12314.3701171875,-400000.0625,-400000.0625,-400000.0625
16.74662709236145,1748.22998046875,-8038.14013671875,-1974.43994140625,-400000.0625,-12339.3095703125,-400000.0625,-400000.0625,-400000.0625
17.010123252868652,1743.1300048828125,-8041.10009765625,-1970.9599609375,-400000.0625,-12313.3203125,-400000.0625,-400000.0625,-400000.0625
17.119792222976685,1725.6300048828125,-8057.64013671875,-1984.6400146484375,-400000.0625,-12323.8095703125,-400000.0625,-400000.0625,-400000.0625
17.309399604797363,1741.9300537109375,-8060.06982421875,-1996.469970703125,-400000.0625,-12318.08984375,-400000.0625,-400000.0625,-400000.0625
17.504777193069458,1732.6400146484375,-8048.6298828125,-1980.260009765625,-400000.0625,-12348.990234375,-400000.0625,-400000.0625,-400000.0625
17.622990131378174,1735.8800048828125,-8045.47998046875,-1974.8699951171875,-400000.0625,-12323.240234375,-400000.0625,-400000.0625,-400000.0625
17.722229719161987,1777.3199462890625,-8094.8798828125,-2042.1500244140625,-400000.0625,-12366.009765625,-400000.0625,-400000.0625,-400000.0625
17.860362768173218,1803.8299560546875,-8090.830078125,-2064.75,-400000.0625,-12346.3203125,-400000.0625,-400000.0625,-400000.0625
17.965575695037842,1808.9300537109375,-8095.22021484375,-2064.85009765625,-400000.0625,-12350.6103515625,-400000.0625,-400000.0625,-400000.0625
18.062700033187866,1808.8299560546875,-8091.35986328125,-2063.93994140625,-400000.0625,-12352.75,-400000.0625,-400000.0625,-400000.0625
18.107370615005493,1801.300048828125,-8099.02978515625,-2073.3798828125,-400000.0625,-12360.669921875,-400000.0625,-400000.0625,-400000.0625
18.214175701141357,1789.1400146484375,-8109.669921875,-2082.8701171875,-400000.0625,-12368.0595703125,-400000.0625,-400000.0625,-400000.0625
18.29472041130066,1801.969970703125,-8099.990234375,-2070.0,-400000.0625,-12359.48046875,-400000.0625,-400000.0625,-400000.0625
18.33837914466858,1812.550048828125,-8085.5400390625,-2062.27001953125,-400000.0625,-12360.669921875,-400000.0625,-400000.0625,-400000.0625
18.439250230789185,1810.5999755859375,-8088.830078125,-2063.85009765625,-400000.0625,-12349.8896484375,-400000.0625,-400000.0625,-400000.0625
18.52677083015442,1806.9300537109375,-8102.27001953125,-2071.0,-400000.0625,-12344.41015625,-400000.0625,-400000.0625,-400000.0625
18.569411754608154,1800.43994140625,-8105.22998046875,-2077.199951171875,-400000.0625,-12361.6201171875,-400000.0625,-400000.0625,-400000.0625
18.65304207801819,1800.1099853515625,-8100.02978515625,-2071.860107421875,-400000.0625,-12350.3203125,-400000.0625,-400000.0625,-400000.0625
18.70784068107605,1804.260009765625,-8097.27001953125,-2065.85009765625,-400000.0625,-12337.73046875,-400000.0625,-400000.0625,-400000.0625
18.824184894561768,1805.1600341796875,-8095.83984375,-2064.93994140625,-400000.0625,-12350.4697265625,-400000.0625,-400000.0625,-400000.0625
18.93165612220764,1801.5400390625,-8095.5498046875,-2066.800048828125,-400000.0625,-12371.01953125,-400000.0625,-400000.0625,-400000.0625
19.091407775878906,1797.719970703125,-8099.31982421875,-2070.7099609375,-400000.0625,-12363.2900390625,-400000.0625,-400000.0625,-400000.0625
19.188327074050903,1798.1099853515625,-8097.93994140625,-2072.760009765625,-400000.0625,-12365.490234375,-400000.0625,-400000.0625,-400000.0625
19.229984760284424,1807.0699462890625,-8093.02001953125,-2062.179931640625,-400000.0625,-12338.58984375,-400000.0625,-400000.0625,-400000.0625
19.366069555282593,1816.1300048828125,-8081.580078125,-2053.1201171875,-400000.0625,-12321.8095703125,-400000.0625,-400000.0625,-400000.0625
19.481404542922974,1803.449951171875,-8089.5,-2062.080078125,-400000.0625,-12338.58984375,-400000.0625,-400000.0625,-400000.0625
19.601036548614502,1791.5699462890625,-8109.3798828125,-2075.530029296875,-400000.0625,-12351.7099609375,-400000.0625,-400000.0625,-400000.0625
19.694640636444092,1795.5799560546875,-8107.6201171875,-2076.239990234375,-400000.0625,-12356.330078125,-400000.0625,-400000.0625,-400000.0625
19.750131130218506,1804.260009765625,-8094.64990234375,-2065.52001953125,-400000.0625,-12353.51953125,-400000.0625,-400000.0625,-400000.0625
19.85604953765869,1806.969970703125,-8084.43994140625,-2061.030029296875,-400000.0625,-12369.490234375,-400000.0625,-400000.0625,-400000.0625
19.96640181541443,1806.780029296875,-8098.56005859375,-2068.280029296875,-400000.0625,-12381.26953125,-400000.0625,-400000.0625,-400000.0625
20.09200429916382,1794.239990234375,-8110.91015625,-2080.25,-400000.0625,-12368.58984375,-400000.0625,-400000.0625,-400000.0625
20.210214138031006,1802.300048828125,-8098.7001953125,-2068.7099609375,-400000.0625,-12354.759765625,-400000.0625,-400000.0625,-400000.0625
20.287315607070923,1816.699951171875,-8082.72021484375,-2052.639892578125,-400000.0625,-12334.16015625,-400000.0625,-400000.0625,-400000.0625
20.34320330619812,1811.8399658203125,-8087.35009765625,-2059.409912109375,-400000.0625,-12342.0302734375,-400000.0625,-400000.0625,-400000.0625
20.96811580657959,1795.6700439453125,-8098.7001953125,-2073.239990234375,-400000.0625,-12353.1796875,-400000.0625,-400000.0625,-400000.0625
21.02745819091797,1797.5799560546875,-8105.47021484375,-2073.47998046875,-400000.0625,-12354.330078125,-400000.0625,-400000.0625,-400000.0625
21.068922996520996,1805.1099853515625,-8101.509765625,-2068.330078125,-400000.0625,-12353.2802734375,-400000.0625,-400000.0625,-400000.0625
21.365219831466675,1810.68994140625,-8093.31005859375,-2061.219970703125,-400000.0625,-12360.5703125,-400000.0625,-400000.0625,-400000.0625
21.712592124938965,1812.27001953125,-8084.39013671875,-2055.68994140625,-400000.0625,-12356.4296875,-400000.0625,-400000.0625,-400000.0625
21.792582511901855,1805.9300537109375,-8095.93017578125,-2069.0400390625,-400000.0625,-12350.75,-400000.0625,-400000.0625,-400000.0625
21.81388258934021,1794.0,-8110.91015625,-2081.35009765625,-400000.0625,-12355.9501953125,-400000.0625,-400000.0625,-400000.0625
22.03977131843567,1791.1400146484375,-8111.18994140625,-2079.43994140625,-400000.0625,-12348.4599609375,-400000.0625,-400000.0625,-400000.0625
22.1424081325531,1800.010009765625,-8104.75,-2071.81005859375,-400000.0625,-12335.349609375,-400000.0625,-400000.0625,-400000.0625
22.39722967147827,1806.260009765625,-8094.22021484375,-2063.93994140625,-400000.0625,-12333.2001953125,-400000.0625,-400000.0625,-400000.0625
22.94614601135254,1845.8800048828125,-8054.31005859375,-2139.18994140625,-400000.0625,-12345.98046875,-400000.0625,-400000.0625,-400000.0625
23.091657876968384,1914.739990234375,-8039.9501953125,-2164.889892578125,-400000.0625,-12361.240234375,-400000.0625,-400000.0625,-400000.0625
23.220924615859985,1893.6600341796875,-8060.5,-2169.469970703125,-400000.0625,-12365.7197265625,-400000.0625,-400000.0625,-400000.0625
23.442622900009155,1895.0,-8058.1201171875,-2150.35009765625,-400000.0625,-12332.490234375,-400000.0625,-400000.0625,-400000.0625
23.69585680961609,1877.97998046875,-8139.66015625,-2180.77001953125,-400000.0625,-12338.349609375,-400000.0625,-400000.0625,-400000.0625
23.844626665115356,1893.81005859375,-8103.1298828125,-2156.110107421875,-400000.0625,-12313.0302734375,-400000.0625,-400000.0625,-400000.0625
23.98785138130188,1933.530029296875,-8092.740234375,-2167.699951171875,-400000.0625,-12345.1201171875,-400000.0625,-400000.0625,-400000.0625
24.2136070728302,1920.030029296875,-8092.06982421875,-2184.919921875,-400000.0625,-12359.0498046875,-400000.0625,-400000.0625,-400000.0625
24.450231552124023,1920.699951171875,-8086.43994140625,-2181.429931640625,-400000.0625,-12378.6904296875,-400000.0625,-400000.0625,-400000.0625
24.646257877349854,1880.3599853515625,-8051.35009765625,-2149.14990234375,-400000.0625,-12336.7802734375,-400000.0625,-400000.0625,-400000.0625
24.785504817962646,1848.27001953125,-8051.919921875,-2143.570068359375,-400000.0625,-12353.2802734375,-400000.0625,-400000.0625,-400000.0625
24.893959999084473,1859.6700439453125,-8048.919921875,-2137.7099609375,-400000.0625,-12354.5703125,-400000.0625,-400000.0625,-400000.0625
24.954336166381836,1852.93994140625,-8044.85986328125,-2137.52001953125,-400000.0625,-12337.2998046875,-400000.0625,-400000.0625,-400000.0625
24.995380401611328,1851.030029296875,-8053.10986328125,-2141.6201171875,-400000.0625,-12338.740234375,-400000.0625,-400000.0625,-400000.0625
25.082525491714478,1846.27001953125,-8064.02978515625,-2144.9599609375,-400000.0625,-12347.080078125,-400000.0625,-400000.0625,-400000.0625
25.13999891281128,1849.8399658203125,-8057.5498046875,-2141.330078125,-400000.0625,-12339.400390625,-400000.0625,-400000.0625,-400000.0625
25.254629850387573,1862.81005859375,-8043.47998046875,-2133.610107421875,-400000.0625,-12344.98046875,-400000.0625,-400000.0625,-400000.0625
25.462944984436035,1871.06005859375,-8148.0,-2227.969970703125,-400000.0625,-12351.849609375,-400000.0625,-400000.0625,-400000.0625
25.59229326248169,1876.3499755859375,-8150.77001953125,-2242.280029296875,-400000.0625,-12370.25,-400000.0625,-400000.0625,-400000.0625
25.768948078155518,1838.1099853515625,-8261.2998046875,-2274.56005859375,-400000.0625,-12374.6904296875,-400000.0625,-400000.0625,-400000.0625
25.947118043899536,1843.97998046875,-8257.009765625,-2270.320068359375,-400000.0625,-12368.009765625,-400000.0625,-400000.0625,-400000.0625
26.15039896965027,1818.510009765625,-8280.3701171875,-2294.639892578125,-400000.0625,-12404.5400390625,-400000.0625,-400000.0625,-400000.0625
26.344566345214844,1848.6500244140625,-8263.400390625,-2276.0400390625,-400000.0625,-12387.23046875,-400000.0625,-400000.0625,-400000.0625
26.730531454086304,1850.4599609375,-8284.900390625,-2298.639892578125,-400000.0625,-12380.3203125,-400000.0625,-400000.0625,-400000.0625
26.916796922683716,1874.02001953125,-8245.1796875,-2265.169921875,-400000.0625,-12368.9697265625,-400000.0625,-400000.0625,-400000.0625
27.115593910217285,1863.050048828125,-8261.1103515625,-2264.360107421875,-400000.0625,-12376.740234375,-400000.0625,-400000.0625,-400000.0625
27.263882398605347,1876.969970703125,-8250.9501953125,-2253.679931640625,-400000.0625,-12358.6201171875,-400000.0625,-400000.0625,-400000.0625
27.417433738708496,1865.77001953125,-8257.7197265625,-2244.429931640625,-400000.0625,-12382.1298828125,-400000.0625,-400000.0625,-400000.0625
27.624145984649658,1966.2900390625,-8035.60986328125,-2178.239990234375,-400000.0625,-12374.1201171875,-400000.0625,-400000.0625,-400000.0625
27.810593128204346,1949.3599853515625,-8077.0498046875,-2178.6201171875,-400000.0625,-12355.6201171875,-400000.0625,-400000.0625,-400000.0625
28.060591220855713,1940.43994140625,-8107.419921875,-2196.409912109375,-400000.0625,-12352.75,-400000.0625,-400000.0625,-400000.0625
28.311190128326416,1959.1300048828125,-8121.16015625,-2200.169921875,-400000.0625,-12348.990234375,-400000.0625,-400000.0625,-400000.0625
28.43985390663147,1962.949951171875,-8117.14990234375,-2194.60009765625,-400000.0625,-12333.1103515625,-400000.0625,-400000.0625,-400000.0625
28.658143758773804,1962.6099853515625,-8123.77978515625,-2185.010009765625,-400000.0625,-12344.1201171875,-400000.0625,-400000.0625,-400000.0625
28.851562976837158,1964.3800048828125,-8122.77978515625,-2166.75,-400000.0625,-12321.0,-400000.0625,-400000.0625,-400000.0625
29.027740001678467,1972.3900146484375,-8121.58984375,-2158.929931640625,-400000.0625,-12340.0703125,-400000.0625,-400000.0625,-400000.0625
29.1657395362854,1981.5400390625,-8118.6298828125,-2151.780029296875,-400000.0625,-12336.7802734375,-400000.0625,-400000.0625,-400000.0625
29.319838047027588,1976.780029296875,-8130.7900390625,-2156.68994140625,-400000.0625,-12313.5595703125,-400000.0625,-400000.0625,-400000.0625
29.548394680023193,1982.2099609375,-8137.0400390625,-2151.5400390625,-400000.0625,-12338.6904296875,-400000.0625,-400000.0625,-400000.0625
29.902204036712646,2040.530029296875,-8021.93017578125,-2106.81005859375,-400000.0625,-12337.0703125,-400000.0625,-400000.0625,-400000.0625
30.110347747802734,2041.1500244140625,-8028.509765625,-2114.389892578125,-400000.0625,-12318.419921875,-400000.0625,-400000.0625,-400000.0625
30.24174427986145,2042.9599609375,-8038.14013671875,-2120.260009765625,-400000.0625,-12334.5400390625,-400000.0625,-400000.0625,-400000.0625
30.456592798233032,2037.18994140625,-8024.22021484375,-2112.010009765625,-400000.0625,-12331.3896484375,-400000.0625,-400000.0625,-400000.0625
30.630194425582886,2059.030029296875,-8029.75,-2116.300048828125,-400000.0625,-12327.2900390625,-400000.0625,-400000.0625,-400000.0625
30.758805513381958,2045.3499755859375,-8066.22998046875,-2141.669921875,-400000.0625,-12326.9599609375,-400000.0625,-400000.0625,-400000.0625
31.010828733444214,2046.3900146484375,-8058.1201171875,-2138.090087890625,-400000.0625,-12329.0595703125,-400000.0625,-400000.0625,-400000.0625
31.408429384231567,2031.6099853515625,-8078.39013671875,-2160.1201171875,-400000.0625,-12368.0595703125,-400000.0625,-400000.0625,-400000.0625
31.532503366470337,2039.0999755859375,-8067.89013671875,-2151.43994140625,-400000.0625,-12353.849609375,-400000.0625,-400000.0625,-400000.0625
31.65467858314514,2046.010009765625,-8064.1298828125,-2145.389892578125,-400000.0625,-12332.0595703125,-400000.0625,-400000.0625,-400000.0625
31.79017400741577,2049.639892578125,-8055.16015625,-2140.139892578125,-400000.0625,-12327.76953125,-400000.0625,-400000.0625,-400000.0625
31.89820384979248,2040.9100341796875,-8060.97998046875,-2146.47998046875,-400000.0625,-12343.650390625,-400000.0625,-400000.0625,-400000.0625
32.00531721115112,2021.4599609375,-8083.8701171875,-2166.4599609375,-400000.0625,-12352.75,-400000.0625,-400000.0625,-400000.0625
32.142852783203125,2025.510009765625,-8083.81982421875,-2165.4599609375,-400000.0625,-12348.7001953125,-400000.0625,-400000.0625,-400000.0625
32.25673246383667,2036.9100341796875,-8072.81005859375,-2159.2099609375,-400000.0625,-12357.0498046875,-400000.0625,-400000.0625,-400000.0625
32.38331413269043,2044.06005859375,-8069.56005859375,-2156.070068359375,-400000.0625,-12356.330078125,-400000.0625,-400000.0625,-400000.0625
32.5058753490448,2040.9100341796875,-8067.56005859375,-2155.070068359375,-400000.0625,-12349.7998046875,-400000.0625,-400000.0625,-400000.0625
32.62241268157959,2034.0899658203125,-8071.419921875,-2159.070068359375,-400000.0625,-12353.1396484375,-400000.0625,-400000.0625,-400000.0625
32.7351655960083,2037.18994140625,-8071.27978515625,-2158.68994140625,-400000.0625,-12336.8798828125,-400000.0625,-400000.0625,-400000.0625
32.84570121765137,2042.6800537109375,-8065.509765625,-2151.35009765625,-400000.0625,-12321.330078125,-400000.0625,-400000.0625,-400000.0625
32.98006796836853,2045.5400390625,-8063.509765625,-2149.580078125,-400000.0625,-12329.76953125,-400000.0625,-400000.0625,-400000.0625
33.0978798866272,2039.0999755859375,-8071.56982421875,-2157.260009765625,-400000.0625,-12356.51953125,-400000.0625,-400000.0625,-400000.0625
33.2131724357605,2035.6199951171875,-8078.669921875,-2164.7900390625,-400000.0625,-12359.91015625,-400000.0625,-400000.0625,-400000.0625
33.31815838813782,2037.18994140625,-8071.81005859375,-2158.550048828125,-400000.0625,-12355.2802734375,-400000.0625,-400000.0625,-400000.0625
33.44247484207153,2042.25,-8067.56005859375,-2151.300048828125,-400000.0625,-12352.1298828125,-400000.0625,-400000.0625,-400000.0625
33.58949899673462,2046.969970703125,-8063.64990234375,-2145.580078125,-400000.0625,-12339.740234375,-400000.0625,-400000.0625,-400000.0625
33.713571071624756,2042.6800537109375,-8065.64990234375,-2150.5400390625,-400000.0625,-12337.259765625,-400000.0625,-400000.0625,-400000.0625
33.85115456581116,2036.8599853515625,-8074.330078125,-2154.919921875,-400000.0625,-12343.2197265625,-400000.0625,-400000.0625,-400000.0625
33.96962261199951,2034.8599853515625,-8073.759765625,-2151.199951171875,-400000.0625,-12338.349609375,-400000.0625,-400000.0625,-400000.0625
34.117690324783325,2041.9599609375,-8069.1298828125,-2146.43994140625,-400000.0625,-12333.1103515625,-400000.0625,-400000.0625,-400000.0625
34.234593868255615,2042.47998046875,-8069.9501953125,-2151.06005859375,-400000.0625,-12339.400390625,-400000.0625,-400000.0625,-400000.0625
34.36270523071289,2038.8599853515625,-8069.85009765625,-2153.43994140625,-400000.0625,-12345.3203125,-400000.0625,-400000.0625,-400000.0625
34.51564145088196,2034.239990234375,-8080.2001953125,-2155.830078125,-400000.0625,-12343.3095703125,-400000.0625,-400000.0625,-400000.0625
34.63824248313904,2035.47998046875,-8072.0400390625,-2152.489990234375,-400000.0625,-12348.990234375,-400000.0625,-400000.0625,-400000.0625
34.748759269714355,2047.1099853515625,-8061.1201171875,-2144.3798828125,-400000.0625,-12362.2900390625,-400000.0625,-400000.0625,-400000.0625
34.85459876060486,2049.260009765625,-8060.60009765625,-2141.909912109375,-400000.0625,-12361.669921875,-400000.0625,-400000.0625,-400000.0625
34.99896216392517,2038.9100341796875,-8064.7001953125,-2147.010009765625,-400000.0625,-12344.26953125,-400000.0625,-400000.0625,-400000.0625
35.154741525650024,2031.800048828125,-8071.759765625,-2153.02001953125,-400000.0625,-12332.580078125,-400000.0625,-400000.0625,-400000.0625
35.258657455444336,2034.0899658203125,-8070.759765625,-2151.300048828125,-400000.0625,-12329.2900390625,-400000.0625,-400000.0625,-400000.0625
35.374716997146606,2047.72998046875,-8062.89013671875,-2143.18994140625,-400000.0625,-12326.33984375,-400000.0625,-400000.0625,-400000.0625
35.480040311813354,2050.35009765625,-8060.31005859375,-2140.330078125,-400000.0625,-12342.0703125,-400000.0625,-400000.0625,-400000.0625
35.59558415412903,2041.050048828125,-8063.93994140625,-2146.43994140625,-400000.0625,-12353.9501953125,-400000.0625,-400000.0625,-400000.0625
35.73164081573486,2031.52001953125,-8071.85009765625,-2155.39990234375,-400000.0625,-12361.150390625,-400000.0625,-400000.0625,-400000.0625
35.863850831985474,2039.8599853515625,-8074.14013671875,-2156.8798828125,-400000.0625,-12355.419921875,-400000.0625,-400000.0625,-400000.0625
36.00851392745972,2047.1099853515625,-8067.7001953125,-2149.77001953125,-400000.0625,-12345.1201171875,-400000.0625,-400000.0625,-400000.0625
36.17042303085327,2039.719970703125,-8068.60986328125,-2156.590087890625,-400000.0625,-12354.419921875,-400000.0625,-400000.0625,-400000.0625
36.29245114326477,2036.8599853515625,-8079.2900390625,-2165.60009765625,-400000.0625,-12356.6201171875,-400000.0625,-400000.0625,-400000.0625
36.47071981430054,1932.4300537109375,-8150.43994140625,-2233.739990234375,-400000.0625,-12359.1904296875,-400000.0625,-400000.0625,-400000.0625
36.65479111671448,1895.3800048828125,-8125.259765625,-2197.030029296875,-400000.0625,-12342.5,-400000.0625,-400000.0625,-400000.0625
36.841463565826416,1899.4300537109375,-8166.740234375,-2211.669921875,-400000.0625,-12342.259765625,-400000.0625,-400000.0625,-400000.0625
37.02725291252136,1938.8199462890625,-8174.85009765625,-2204.510009765625,-400000.0625,-12337.1103515625,-400000.0625,-400000.0625,-400000.0625
37.224223375320435,1933.3800048828125,-8188.25,-2211.7099609375,-400000.0625,-12349.4599609375,-400000.0625,-400000.0625,-400000.0625
37.47731828689575,1936.8699951171875,-8181.18994140625,-2200.56005859375,-400000.0625,-12346.080078125,-400000.0625,-400000.0625,-400000.0625
37.72463417053223,1943.72998046875,-8188.33984375,-2203.419921875,-400000.0625,-12356.5703125,-400000.0625,-400000.0625,-400000.0625
37.86005187034607,1967.6199951171875,-8175.18017578125,-2186.820068359375,-400000.0625,-12330.4404296875,-400000.0625,-400000.0625,-400000.0625
38.226280212402344,1965.5699462890625,-8202.650390625,-2204.0400390625,-400000.0625,-12347.75,-400000.0625,-400000.0625,-400000.0625
38.45798349380493,1978.5899658203125,-8208.900390625,-2203.659912109375,-400000.0625,-12360.240234375,-400000.0625,-400000.0625,-400000.0625
38.623241662979126,1995.75,-8204.75,-2204.280029296875,-400000.0625,-12346.650390625,-400000.0625,-400000.0625,-400000.0625
38.75411343574524,1991.219970703125,-8229.2099609375,-2223.110107421875,-400000.0625,-12370.490234375,-400000.0625,-400000.0625,-400000.0625
38.884453535079956,2138.469970703125,-8293.73046875,-2323.909912109375,-400000.0625,-12389.759765625,-400000.0625,-400000.0625,-400000.0625
39.011014461517334,2179.18994140625,-8295.8701171875,-2356.530029296875,-400000.0625,-12418.4599609375,-400000.0625,-400000.0625,-400000.0625
39.14852547645569,2190.070068359375,-8291.669921875,-2351.669921875,-400000.0625,-12429.669921875,-400000.0625,-400000.0625,-400000.0625
39.51418948173523,2190.300048828125,-8299.400390625,-2363.8701171875,-400000.0625,-12417.26953125,-400000.0625,-400000.0625,-400000.0625
39.65754508972168,2193.8798828125,-8305.5,-2361.679931640625,-400000.0625,-12414.5,-400000.0625,-400000.0625,-400000.0625
39.91914749145508,2212.570068359375,-8293.009765625,-2346.7099609375,-400000.0625,-12416.7900390625,-400000.0625,-400000.0625,-400000.0625
40.050445556640625,2189.780029296875,-8314.3203125,-2364.489990234375,-400000.0625,-12431.9599609375,-400000.0625,-400000.0625,-400000.0625
40.528029918670654,2161.8798828125,-8317.330078125,-2370.169921875,-400000.0625,-12432.5302734375,-400000.0625,-400000.0625,-400000.0625
40.805097341537476,2147.2900390625,-8313.9404296875,-2368.639892578125,-400000.0625,-12432.3896484375,-400000.0625,-400000.0625,-400000.0625
41.1157341003418,1990.510009765625,-8196.5,-2225.489990234375,-400000.0625,-12408.5400390625,-400000.0625,-400000.0625,-400000.0625
41.43554711341858,1979.0699462890625,-8194.1103515625,-2226.449951171875,-400000.0625,-12397.5302734375,-400000.0625,-400000.0625,-400000.0625
41.713523387908936,1949.97998046875,-8226.349609375,-2246.050048828125,-400000.0625,-12409.6396484375,-400000.0625,-400000.0625,-400000.0625
41.88016176223755,1936.43994140625,-8224.5400390625,-2238.85009765625,-400000.0625,-12396.3798828125,-400000.0625,-400000.0625,-400000.0625
42.05375957489014,1927.52001953125,-8226.8701171875,-2242.760009765625,-400000.0625,-12408.8798828125,-400000.0625,-400000.0625,-400000.0625
42.27852821350098,1936.47998046875,-8206.1796875,-2222.39990234375,-400000.0625,-12385.8896484375,-400000.0625,-400000.0625,-400000.0625
42.464964866638184,1886.989990234375,-8205.41015625,-2208.52001953125,-400000.0625,-12393.8095703125,-400000.0625,-400000.0625,-400000.0625
42.69784116744995,1910.1099853515625,-8201.3095703125,-2205.75,-400000.0625,-12364.25,-400000.0625,-400000.0625,-400000.0625
42.862252712249756,1896.18994140625,-8212.08984375,-2220.580078125,-400000.0625,-12370.58984375,-400000.0625,-400000.0625,-400000.0625
43.10079336166382,1751.280029296875,-8084.35009765625,-2007.2900390625,-400000.0625,-12326.580078125,-400000.0625,-400000.0625,-400000.0625
43.3226363658905,1747.510009765625,-8074.330078125,-1999.3800048828125,-400000.0625,-12333.58984375,-400000.0625,-400000.0625,-400000.0625
43.56904125213623,1751.22998046875,-8076.85986328125,-2009.77001953125,-400000.0625,-12341.41015625,-400000.0625,-400000.0625,-400000.0625
43.8712592124939,1757.050048828125,-8069.27978515625,-1998.9000244140625,-400000.0625,-12316.6103515625,-400000.0625,-400000.0625,-400000.0625
43.99384593963623,1751.800048828125,-8066.1298828125,-1997.280029296875,-400000.0625,-12313.7998046875,-400000.0625,-400000.0625,-400000.0625
44.2004497051239,1730.6300048828125,-8084.25,-2006.8599853515625,-400000.0625,-12308.98046875,-400000.0625,-400000.0625,-400000.0625
44.328378200531006,1733.260009765625,-8070.89990234375,-1985.4100341796875,-400000.0625,-12299.58984375,-400000.0625,-400000.0625,-400000.0625
44.647292375564575,1707.4100341796875,-8104.22998046875,-2009.9200439453125,-400000.0625,-12298.58984375,-400000.0625,-400000.0625,-400000.0625
44.83291697502136,1715.0899658203125,-8101.990234375,-2005.6700439453125,-400000.0625,-12291.7197265625,-400000.0625,-400000.0625,-400000.0625
44.94290781021118,1721.530029296875,-8088.259765625,-1995.800048828125,-400000.0625,-12294.009765625,-400000.0625,-400000.0625,-400000.0625
45.043999910354614,1723.3900146484375,-8082.10009765625,-1992.6099853515625,-400000.0625,-12302.16015625,-400000.0625,-400000.0625,-400000.0625
45.14958214759827,1719.6700439453125,-8092.8798828125,-2000.18994140625,-400000.0625,-12309.509765625,-400000.0625,-400000.0625,-400000.0625
45.26555275917053,1714.800048828125,-8100.3701171875,-2000.9000244140625,-400000.0625,-12312.1796875,-400000.0625,-400000.0625,-400000.0625
45.38022804260254,1724.719970703125,-8090.06982421875,-1996.22998046875,-400000.0625,-12319.08984375,-400000.0625,-400000.0625,-400000.0625
45.50779724121094,1732.4000244140625,-8076.330078125,-1983.7900390625,-400000.0625,-12307.4501953125,-400000.0625,-400000.0625,-400000.0625
45.630104303359985,1716.3299560546875,-8086.8701171875,-1996.0899658203125,-400000.0625,-12302.1103515625,-400000.0625,-400000.0625,-400000.0625
45.75666880607605,1705.31005859375,-8103.0400390625,-2011.3499755859375,-400000.0625,-12307.3603515625,-400000.0625,-400000.0625,-400000.0625
45.85336089134216,1706.699951171875,-8097.35986328125,-2007.6800537109375,-400000.0625,-12307.650390625,-400000.0625,-400000.0625,-400000.0625
45.89477872848511,1715.52001953125,-8090.93017578125,-1999.3800048828125,-400000.0625,-12309.3603515625,-400000.0625,-400000.0625,-400000.0625
45.98663783073425,1730.25,-8084.6298828125,-1989.4599609375,-400000.0625,-12294.76953125,-400000.0625,-400000.0625,-400000.0625
46.04998159408569,1724.6199951171875,-8082.33984375,-1988.030029296875,-400000.0625,-12294.150390625,-400000.0625,-400000.0625,-400000.0625
46.14637804031372,1711.75,-8088.8798828125,-1997.6600341796875,-400000.0625,-12308.5,-400000.0625,-400000.0625,-400000.0625
46.203484535217285,1712.6099853515625,-8094.1201171875,-1997.800048828125,-400000.0625,-12316.509765625,-400000.0625,-400000.0625,-400000.0625
46.33905076980591,1720.1400146484375,-8080.0498046875,-1987.6500244140625,-400000.0625,-12305.400390625,-400000.0625,-400000.0625,-400000.0625
46.474966526031494,1724.4300537109375,-8073.6201171875,-1985.3599853515625,-400000.0625,-12304.16015625,-400000.0625,-400000.0625,-400000.0625
46.592689990997314,1728.6800537109375,-8076.2900390625,-1985.8800048828125,-400000.0625,-12298.919921875,-400000.0625,-400000.0625,-400000.0625
46.72395944595337,1722.5699462890625,-8086.25,-1993.0400390625,-400000.0625,-12297.8203125,-400000.0625,-400000.0625,-400000.0625
46.85313177108765,1711.800048828125,-8094.22021484375,-2001.3800048828125,-400000.0625,-12299.7802734375,-400000.0625,-400000.0625,-400000.0625
46.98864126205444,1713.0899658203125,-8088.39990234375,-1996.6600341796875,-400000.0625,-12297.490234375,-400000.0625,-400000.0625,-400000.0625
47.10631966590881,1717.6600341796875,-8081.009765625,-1990.0799560546875,-400000.0625,-12308.98046875,-400000.0625,-400000.0625,-400000.0625
47.233638286590576,1716.8499755859375,-8086.009765625,-1995.800048828125,-400000.0625,-12315.8896484375,-400000.0625,-400000.0625,-400000.0625
47.35553050041199,1705.8399658203125,-8095.7900390625,-2004.1500244140625,-400000.0625,-12311.650390625,-400000.0625,-400000.0625,-400000.0625
47.492961406707764,1706.4100341796875,-8097.93994140625,-2004.239990234375,-400000.0625,-12300.6796875,-400000.0625,-400000.0625,-400000.0625
47.613712310791016,1723.4300537109375,-8076.47998046875,-1987.7900390625,-400000.0625,-12298.73046875,-400000.0625,-400000.0625,-400000.0625
47.745384216308594,1735.969970703125,-8063.97998046875,-1977.06005859375,-400000.0625,-12308.26953125,-400000.0625,-400000.0625,-400000.0625
47.853336334228516,1730.6300048828125,-8068.27978515625,-1978.5899658203125,-400000.0625,-12295.76953125,-400000.0625,-400000.0625,-400000.0625
47.96709227561951,1715.6099853515625,-8089.97021484375,-1995.0400390625,-400000.0625,-12311.75,-400000.0625,-400000.0625,-400000.0625
48.07078313827515,1705.4599609375,-8101.18017578125,-2005.8599853515625,-400000.0625,-12310.4599609375,-400000.0625,-400000.0625,-400000.0625
48.18089032173157,1710.3199462890625,-8091.16015625,-1999.0899658203125,-400000.0625,-12290.099609375,-400000.0625,-400000.0625,-400000.0625
48.28612565994263,1718.6600341796875,-8088.35009765625,-1997.3800048828125,-400000.0625,-12293.91015625,-400000.0625,-400000.0625,-400000.0625
48.4064245223999,1713.3699951171875,-8087.919921875,-2001.050048828125,-400000.0625,-12314.849609375,-400000.0625,-400000.0625,-400000.0625
48.520857095718384,1709.0799560546875,-8092.830078125,-2002.47998046875,-400000.0625,-12322.6201171875,-400000.0625,-400000.0625,-400000.0625
48.65847992897034,1710.56005859375,-8097.64990234375,-2004.81005859375,-400000.0625,-12321.3798828125,-400000.0625,-400000.0625,-400000.0625
48.78215956687927,1715.0899658203125,-8090.31005859375,-2000.6199951171875,-400000.0625,-12306.740234375,-400000.0625,-400000.0625,-400000.0625
48.90716814994812,1723.9599609375,-8082.68017578125,-1993.1800537109375,-400000.0625,-12291.150390625,-400000.0625,-400000.0625,-400000.0625
49.032466411590576,1724.0999755859375,-8088.06982421875,-1993.989990234375,-400000.0625,-12292.91015625,-400000.0625,-400000.0625,-400000.0625
49.15587019920349,1710.56005859375,-8102.0400390625,-2009.43994140625,-400000.0625,-12304.0703125,-400000.0625,-400000.0625,-400000.0625
49.28716969490051,1699.9200439453125,-8107.89990234375,-2014.6800537109375,-400000.0625,-12319.7099609375,-400000.0625,-400000.0625,-400000.0625
49.41240072250366,1712.75,-8091.97998046875,-2000.6199951171875,-400000.0625,-12316.7998046875,-400000.0625,-400000.0625,-400000.0625
49.51659178733826,1723.6700439453125,-8075.2900390625,-1988.0799560546875,-400000.0625,-12304.16015625,-400000.0625,-400000.0625,-400000.0625
49.65844535827637,1718.4300537109375,-8092.06982421875,-1997.7099609375,-400000.0625,-12314.849609375,-400000.0625,-400000.0625,-400000.0625
49.81666398048401,1898.6700439453125,-8190.06005859375,-2116.5400390625,-400000.0625,-12376.98046875,-400000.0625,-400000.0625,-400000.0625
49.960200548172,1895.1400146484375,-8179.08984375,-2100.090087890625,-400000.0625,-12376.01953125,-400000.0625,-400000.0625,-400000.0625
50.155048847198486,1866.050048828125,-8185.240234375,-2088.5,-400000.0625,-12384.3701171875,-400000.0625,-400000.0625,-400000.0625
50.38361573219299,1858.3800048828125,-8178.759765625,-2067.139892578125,-400000.0625,-12367.9697265625,-400000.0625,-400000.0625,-400000.0625
50.60351634025574,1873.2099609375,-8175.52001953125,-2066.22998046875,-400000.0625,-12372.58984375,-400000.0625,-400000.0625,-400000.0625
50.726529598236084,1861.3800048828125,-8176.60986328125,-2066.179931640625,-400000.0625,-12374.8798828125,-400000.0625,-400000.0625,-400000.0625
50.8715934753418,1938.530029296875,-8208.66015625,-2124.639892578125,-400000.0625,-12361.8095703125,-400000.0625,-400000.0625,-400000.0625
51.041585206985474,1867.9100341796875,-8176.14013671875,-2072.909912109375,-400000.0625,-12343.0703125,-400000.0625,-400000.0625,-400000.0625
51.30831527709961,1864.6199951171875,-8187.52978515625,-2084.639892578125,-400000.0625,-12354.3798828125,-400000.0625,-400000.0625,-400000.0625
51.4212486743927,1867.489990234375,-8190.58984375,-2083.25,-400000.0625,-12369.6298828125,-400000.0625,-400000.0625,-400000.0625
51.67487406730652,1865.050048828125,-8187.81982421875,-2082.679931640625,-400000.0625,-12361.669921875,-400000.0625,-400000.0625,-400000.0625
51.79337430000305,1874.0699462890625,-8180.9501953125,-2078.489990234375,-400000.0625,-12356.8095703125,-400000.0625,-400000.0625,-400000.0625
51.90009903907776,1873.2099609375,-8179.0498046875,-2077.77001953125,-400000.0625,-12356.0,-400000.0625,-400000.0625,-400000.0625
52.020164012908936,1875.4000244140625,-8168.64990234375,-2068.139892578125,-400000.0625,-12334.830078125,-400000.0625,-400000.0625,-400000.0625
52.12443232536316,1877.02001953125,-8174.419921875,-2070.570068359375,-400000.0625,-12337.5,-400000.0625,-400000.0625,-400000.0625
52.652374267578125,1784.989990234375,-8355.7099609375,-2135.75,-400000.0625,-12351.5595703125,-400000.0625,-400000.0625,-400000.0625
52.805638790130615,1803.9200439453125,-8310.8896484375,-2125.219970703125,-400000.0625,-12361.0498046875,-400000.0625,-400000.0625,-400000.0625
53.0967915058136,1828.47998046875,-8251.51953125,-2104.85009765625,-400000.0625,-12355.0,-400000.0625,-400000.0625,-400000.0625
53.21873188018799,1806.6400146484375,-8268.3095703125,-2120.35009765625,-400000.0625,-12351.3701171875,-400000.0625,-400000.0625,-400000.0625
53.40782070159912,1821.0899658203125,-8247.7099609375,-2104.52001953125,-400000.0625,-12345.509765625,-400000.0625,-400000.0625,-400000.0625
53.573744773864746,1823.0,-8253.2900390625,-2114.389892578125,-400000.0625,-12355.66015625,-400000.0625,-400000.0625,-400000.0625
53.72215270996094,1878.449951171875,-8095.5498046875,-2095.56005859375,-400000.0625,-12367.76953125,-400000.0625,-400000.0625,-400000.0625
53.87531542778015,1877.1199951171875,-8097.60009765625,-2091.360107421875,-400000.0625,-12344.41015625,-400000.0625,-400000.0625,-400000.0625
54.11672282218933,1857.22998046875,-8106.0400390625,-2126.929931640625,-400000.0625,-12389.2802734375,-400000.0625,-400000.0625,-400000.0625
54.23970413208008,1858.6199951171875,-8105.85009765625,-2124.449951171875,-400000.0625,-12371.830078125,-400000.0625,-400000.0625,-400000.0625
54.36168694496155,1862.0,-8115.580078125,-2130.4599609375,-400000.0625,-12364.7197265625,-400000.0625,-400000.0625,-400000.0625
54.51232981681824,1859.1400146484375,-8115.85986328125,-2140.81005859375,-400000.0625,-12350.1796875,-400000.0625,-400000.0625,-400000.0625
54.68985915184021,1878.1700439453125,-8121.10986328125,-2141.050048828125,-400000.0625,-12378.169921875,-400000.0625,-400000.0625,-400000.0625
54.85693287849426,1880.7900390625,-8120.72998046875,-2136.800048828125,-400000.0625,-12370.2099609375,-400000.0625,-400000.0625,-400000.0625
55.06530165672302,1881.699951171875,-8129.5498046875,-2151.780029296875,-400000.0625,-12397.7197265625,-400000.0625,-400000.0625,-400000.0625
55.263100147247314,1914.550048828125,-8051.68017578125,-2122.070068359375,-400000.0625,-12434.91015625,-400000.0625,-400000.0625,-400000.0625
55.40227556228638,1883.6500244140625,-8147.91015625,-2150.6298828125,-400000.0625,-12384.990234375,-400000.0625,-400000.0625,-400000.0625
55.59679818153381,1872.6800537109375,-8151.2001953125,-2153.919921875,-400000.0625,-12400.91015625,-400000.0625,-400000.0625,-400000.0625
55.77360153198242,1889.989990234375,-8143.0,-2151.300048828125,-400000.0625,-12395.6201171875,-400000.0625,-400000.0625,-400000.0625
56.12018275260925,1892.3800048828125,-8130.7900390625,-2148.199951171875,-400000.0625,-12390.3798828125,-400000.0625,-400000.0625,-400000.0625
56.280569314956665,1876.4000244140625,-8142.7099609375,-2160.739990234375,-400000.0625,-12403.919921875,-400000.0625,-400000.0625,-400000.0625
56.41767930984497,1929.7099609375,-8014.2001953125,-2122.260009765625,-400000.0625,-12404.490234375,-400000.0625,-400000.0625,-400000.0625
56.569026470184326,1933.4300537109375,-8037.52001953125,-2124.260009765625,-400000.0625,-12401.2998046875,-400000.0625,-400000.0625,-400000.0625
56.678186655044556,1950.68994140625,-8009.580078125,-2121.39990234375,-400000.0625,-12404.400390625,-400000.0625,-400000.0625,-400000.0625
56.80012011528015,1965.7099609375,-7993.169921875,-2108.3798828125,-400000.0625,-12408.400390625,-400000.0625,-400000.0625,-400000.0625
57.00123715400696,1947.449951171875,-8014.43994140625,-2126.7900390625,-400000.0625,-12418.0302734375,-400000.0625,-400000.0625,-400000.0625
57.21890330314636,1940.25,-8059.5498046875,-2143.10009765625,-400000.0625,-12403.490234375,-400000.0625,-400000.0625,-400000.0625
57.422791481018066,1946.739990234375,-8015.2001953125,-2130.1298828125,-400000.0625,-12393.1396484375,-400000.0625,-400000.0625,-400000.0625
57.63241720199585,1947.449951171875,-8018.16015625,-2134.989990234375,-400000.0625,-12397.9599609375,-400000.0625,-400000.0625,-400000.0625
57.75710320472717,1932.47998046875,-8036.419921875,-2146.719970703125,-400000.0625,-12397.099609375,-400000.0625,-400000.0625,-400000.0625
57.96186685562134,1939.8199462890625,-8030.89013671875,-2129.030029296875,-400000.0625,-12375.169921875,-400000.0625,-400000.0625,-400000.0625
58.161640644073486,1893.3299560546875,-8097.97998046875,-2158.2099609375,-400000.0625,-12372.0703125,-400000.0625,-400000.0625,-400000.0625
58.28853797912598,1888.3699951171875,-8104.1298828125,-2164.699951171875,-400000.0625,-12383.509765625,-400000.0625,-400000.0625,-400000.0625
58.44013547897339,1895.6700439453125,-8095.5498046875,-2159.169921875,-400000.0625,-12382.1298828125,-400000.0625,-400000.0625,-400000.0625
58.561434268951416,1912.5899658203125,-8074.0,-2142.719970703125,-400000.0625,-12366.33984375,-400000.0625,-400000.0625,-400000.0625
58.69803333282471,1921.1300048828125,-8071.330078125,-2137.280029296875,-400000.0625,-12365.3896484375,-400000.0625,-400000.0625,-400000.0625
58.813740968704224,1900.239990234375,-8087.25,-2150.77001953125,-400000.0625,-12385.990234375,-400000.0625,-400000.0625,-400000.0625
58.931214332580566,1887.27001953125,-8099.60009765625,-2164.169921875,-400000.0625,-12391.759765625,-400000.0625,-400000.0625,-400000.0625
59.05315089225769,1894.280029296875,-8098.93994140625,-2159.449951171875,-400000.0625,-12383.83984375,-400000.0625,-400000.0625,-400000.0625
59.19066905975342,1901.9100341796875,-8088.490234375,-2149.77001953125,-400000.0625,-12384.849609375,-400000.0625,-400000.0625,-400000.0625
59.32115578651428,1897.760009765625,-8087.830078125,-2155.35009765625,-400000.0625,-12395.8603515625,-400000.0625,-400000.0625,-400000.0625
59.449971199035645,1896.239990234375,-8089.02001953125,-2154.110107421875,-400000.0625,-12378.5498046875,-400000.0625,-400000.0625,-400000.0625
59.589452028274536,1900.3399658203125,-8086.490234375,-2149.679931640625,-400000.0625,-12363.7197265625,-400000.0625,-400000.0625,-400000.0625
59.70293927192688,1900.47998046875,-8080.52978515625,-2147.6298828125,-400000.0625,-12367.1103515625,-400000.0625,-400000.0625,-400000.0625
59.817312717437744,1905.43994140625,-8079.240234375,-2147.77001953125,-400000.0625,-12372.7802734375,-400000.0625,-400000.0625,-400000.0625
59.936543464660645,1905.1099853515625,-8090.68994140625,-2151.159912109375,-400000.0625,-12379.26953125,-400000.0625,-400000.0625,-400000.0625
60.07616353034973,1893.469970703125,-8097.97998046875,-2158.68994140625,-400000.0625,-12387.4697265625,-400000.0625,-400000.0625,-400000.0625
60.178086280822754,1886.030029296875,-8099.7998046875,-2161.7900390625,-400000.0625,-12383.080078125,-400000.0625,-400000.0625,-400000.0625
60.284316062927246,1890.800048828125,-8092.740234375,-2155.35009765625,-400000.0625,-12371.9697265625,-400000.0625,-400000.0625,-400000.0625
60.42194581031799,1895.3299560546875,-8081.6298828125,-2145.340087890625,-400000.0625,-12371.16015625,-400000.0625,-400000.0625,-400000.0625
60.54387044906616,1907.8699951171875,-8079.85986328125,-2139.570068359375,-400000.0625,-12363.6298828125,-400000.0625,-400000.0625,-400000.0625
60.65169024467468,1902.010009765625,-8083.009765625,-2145.2900390625,-400000.0625,-12368.009765625,-400000.0625,-400000.0625,-400000.0625
60.77179217338562,1887.8499755859375,-8094.64990234375,-2156.639892578125,-400000.0625,-12374.1201171875,-400000.0625,-400000.0625,-400000.0625
60.90185856819153,1891.8499755859375,-8089.97021484375,-2153.969970703125,-400000.0625,-12376.6396484375,-400000.0625,-400000.0625,-400000.0625
61.0446662902832,1906.4000244140625,-8078.43017578125,-2143.719970703125,-400000.0625,-12382.599609375,-400000.0625,-400000.0625,-400000.0625
61.17930865287781,1909.1600341796875,-8076.2900390625,-2143.760009765625,-400000.0625,-12384.509765625,-400000.0625,-400000.0625,-400000.0625
61.328771352767944,1898.530029296875,-8086.2998046875,-2147.010009765625,-400000.0625,-12384.23046875,-400000.0625,-400000.0625,-400000.0625
61.434887170791626,1893.81005859375,-8089.72998046875,-2148.43994140625,-400000.0625,-12377.740234375,-400000.0625,-400000.0625,-400000.0625
61.55810189247131,1895.6700439453125,-8087.2998046875,-2148.43994140625,-400000.0625,-12367.8701171875,-400000.0625,-400000.0625,-400000.0625
61.69903016090393,1900.4300537109375,-8078.85986328125,-2144.6201171875,-400000.0625,-12364.8203125,-400000.0625,-400000.0625,-400000.0625
61.83728623390198,1908.02001953125,-8074.08984375,-2135.56005859375,-400000.0625,-12363.3896484375,-400000.0625,-400000.0625,-400000.0625
61.96678686141968,1900.050048828125,-8080.14990234375,-2141.909912109375,-400000.0625,-12370.919921875,-400000.0625,-400000.0625,-400000.0625
62.08077669143677,1891.6600341796875,-8088.35009765625,-2151.110107421875,-400000.0625,-12375.400390625,-400000.0625,-400000.0625,-400000.0625
62.224064111709595,1899.719970703125,-8081.06005859375,-2143.340087890625,-400000.0625,-12369.490234375,-400000.0625,-400000.0625,-400000.0625
62.35069227218628,1898.4300537109375,-8077.10009765625,-2142.719970703125,-400000.0625,-12373.58984375,-400000.0625,-400000.0625,-400000.0625
62.48592758178711,1891.3299560546875,-8084.97021484375,-2147.8701171875,-400000.0625,-12374.5,-400000.0625,-400000.0625,-400000.0625
62.61644768714905,1887.3699951171875,-8094.02978515625,-2153.830078125,-400000.0625,-12378.169921875,-400000.0625,-400000.0625,-400000.0625
62.75238490104675,1889.3199462890625,-8095.7900390625,-2155.070068359375,-400000.0625,-12386.7998046875,-400000.0625,-400000.0625,-400000.0625
62.87421226501465,1894.4300537109375,-8081.9599609375,-2145.719970703125,-400000.0625,-12376.2099609375,-400000.0625,-400000.0625,-400000.0625
62.98724436759949,1903.9599609375,-8073.43017578125,-2136.800048828125,-400000.0625,-12363.150390625,-400000.0625,-400000.0625,-400000.0625
63.0997200012207,1904.43994140625,-8072.9501953125,-2135.1298828125,-400000.0625,-12361.48046875,-400000.0625,-400000.0625,-400000.0625
63.325382709503174,1835.9200439453125,-8075.10009765625,-2186.6298828125,-400000.0625,-12421.3203125,-400000.0625,-400000.0625,-400000.0625
63.60110092163086,1825.2900390625,-8081.8701171875,-2184.9599609375,-400000.0625,-12418.7998046875,-400000.0625,-400000.0625,-400000.0625
63.80134439468384,1816.4200439453125,-8094.60009765625,-2184.14990234375,-400000.0625,-12408.9697265625,-400000.0625,-400000.0625,-400000.0625
64.1128032207489,1818.4200439453125,-8087.919921875,-2169.93994140625,-400000.0625,-12389.9501953125,-400000.0625,-400000.0625,-400000.0625
64.29948735237122,1840.969970703125,-8062.64990234375,-2142.18994140625,-400000.0625,-12402.3896484375,-400000.0625,-400000.0625,-400000.0625
64.75241446495056,1840.5400390625,-8078.39013671875,-2143.570068359375,-400000.0625,-12382.650390625,-400000.0625,-400000.0625,-400000.0625
64.92685627937317,1851.989990234375,-8084.2001953125,-2143.239990234375,-400000.0625,-12391.8095703125,-400000.0625,-400000.0625,-400000.0625
65.0958309173584,1841.68994140625,-8092.02001953125,-2142.860107421875,-400000.0625,-12362.0498046875,-400000.0625,-400000.0625,-400000.0625
65.38371539115906,1844.550048828125,-8099.60009765625,-2141.2900390625,-400000.0625,-12357.8095703125,-400000.0625,-400000.0625,-400000.0625
65.5609540939331,1842.0699462890625,-8102.27001953125,-2140.6201171875,-400000.0625,-12371.4501953125,-400000.0625,-400000.0625,-400000.0625
65.76750636100769,2005.8199462890625,-8179.0498046875,-2290.679931640625,-400000.0625,-12417.990234375,-400000.0625,-400000.0625,-400000.0625
66.07289671897888,2016.449951171875,-8177.81005859375,-2283.719970703125,-400000.0625,-12411.9296875,-400000.0625,-400000.0625,-400000.0625
66.2181305885315,1863.0999755859375,-8107.6201171875,-2194.5,-400000.0625,-12402.8203125,-400000.0625,-400000.0625,-400000.0625
66.39597916603088,1841.0699462890625,-8105.22998046875,-2167.75,-400000.0625,-12377.6904296875,-400000.0625,-400000.0625,-400000.0625
66.610431432724,1812.6500244140625,-8112.47998046875,-2151.110107421875,-400000.0625,-12370.6396484375,-400000.0625,-400000.0625,-400000.0625
66.84609484672546,1834.9200439453125,-8120.2998046875,-2152.8701171875,-400000.0625,-12375.5,-400000.0625,-400000.0625,-400000.0625
67.00552988052368,1839.5899658203125,-8128.830078125,-2156.590087890625,-400000.0625,-12360.0498046875,-400000.0625,-400000.0625,-400000.0625
67.31384873390198,1828.8599853515625,-8132.89013671875,-2150.72998046875,-400000.0625,-12361.1904296875,-400000.0625,-400000.0625,-400000.0625
67.49606919288635,1820.3699951171875,-8134.93994140625,-2152.25,-400000.0625,-12371.2099609375,-400000.0625,-400000.0625,-400000.0625
67.65860033035278,1827.0999755859375,-8134.7001953125,-2145.860107421875,-400000.0625,-12392.1396484375,-400000.0625,-400000.0625,-400000.0625
67.94393658638,1834.25,-8128.740234375,-2128.699951171875,-400000.0625,-12357.9501953125,-400000.0625,-400000.0625,-400000.0625
68.20882821083069,1825.7099609375,-8138.419921875,-2128.64990234375,-400000.0625,-12367.1103515625,-400000.0625,-400000.0625,-400000.0625
68.39886116981506,1835.72998046875,-8135.419921875,-2127.739990234375,-400000.0625,-12380.8896484375,-400000.0625,-400000.0625,-400000.0625
68.70963501930237,1839.5899658203125,-8144.18994140625,-2130.4599609375,-400000.0625,-12379.3095703125,-400000.0625,-400000.0625,-400000.0625
68.84973812103271,1842.1700439453125,-8146.56982421875,-2133.699951171875,-400000.0625,-12371.9697265625,-400000.0625,-400000.0625,-400000.0625
69.15239095687866,1847.9300537109375,-8133.97998046875,-2125.7900390625,-400000.0625,-12383.080078125,-400000.0625,-400000.0625,-400000.0625
69.40063881874084,1833.5799560546875,-8146.14013671875,-2138.89990234375,-400000.0625,-12399.2001953125,-400000.0625,-400000.0625,-400000.0625
69.59508609771729,1832.6800537109375,-8154.14990234375,-2145.580078125,-400000.0625,-12424.1396484375,-400000.0625,-400000.0625,-400000.0625
69.7274181842804,1801.43994140625,-8130.60009765625,-2118.300048828125,-400000.0625,-12376.98046875,-400000.0625,-400000.0625,-400000.0625
70.01529026031494,1664.3499755859375,-8017.02001953125,-1925.0899658203125,-400000.0625,-12328.33984375,-400000.0625,-400000.0625,-400000.0625
70.21530747413635,1640.4599609375,-8028.41015625,-1923.3699951171875,-400000.0625,-12363.8603515625,-400000.0625,-400000.0625,-400000.0625
70.3676209449768,1667.1199951171875,-8026.169921875,-1942.6800537109375,-400000.0625,-12366.6796875,-400000.0625,-400000.0625,-400000.0625
70.51824235916138,1658.8199462890625,-8028.7900390625,-1934.0,-400000.0625,-12356.4697265625,-400000.0625,-400000.0625,-400000.0625
70.7060706615448,1643.800048828125,-8050.77978515625,-1955.75,-400000.0625,-12382.7001953125,-400000.0625,-400000.0625,-400000.0625
70.87938499450684,1646.9000244140625,-8056.39990234375,-1953.550048828125,-400000.0625,-12369.8203125,-400000.0625,-400000.0625,-400000.0625
71.15190577507019,1623.9200439453125,-8080.14990234375,-1968.18994140625,-400000.0625,-12371.6396484375,-400000.0625,-400000.0625,-400000.0625
71.25864744186401,1641.93994140625,-8057.7900390625,-1946.5,-400000.0625,-12363.8603515625,-400000.0625,-400000.0625,-400000.0625
71.5353000164032,1629.3499755859375,-8070.330078125,-1958.800048828125,-400000.0625,-12362.669921875,-400000.0625,-400000.0625,-400000.0625
71.65460848808289,1639.4100341796875,-8060.740234375,-1950.030029296875,-400000.0625,-12355.419921875,-400000.0625,-400000.0625,-400000.0625
71.76053833961487,1639.8900146484375,-8061.5498046875,-1954.510009765625,-400000.0625,-12358.1396484375,-400000.0625,-400000.0625,-400000.0625
71.89151668548584,1637.7900390625,-8066.56005859375,-1956.75,-400000.0625,-12358.1904296875,-400000.0625,-400000.0625,-400000.0625
72.02007937431335,1634.0699462890625,-8080.2001953125,-1966.8599853515625,-400000.0625,-12393.91015625,-400000.0625,-400000.0625,-400000.0625
72.1442620754242,1626.6800537109375,-8083.43994140625,-1975.780029296875,-400000.0625,-12405.5400390625,-400000.0625,-400000.0625,-400000.0625
72.26253294944763,1633.0699462890625,-8075.72021484375,-1970.050048828125,-400000.0625,-12379.9296875,-400000.0625,-400000.0625,-400000.0625
72.38498210906982,1642.8499755859375,-8066.75,-1957.22998046875,-400000.0625,-12355.330078125,-400000.0625,-400000.0625,-400000.0625
72.47174119949341,1637.4100341796875,-8071.08984375,-1958.1300048828125,-400000.0625,-12342.740234375,-400000.0625,-400000.0625,-400000.0625
72.53159737586975,1625.9200439453125,-8071.7099609375,-1964.3299560546875,-400000.0625,-12357.51953125,-400000.0625,-400000.0625,-400000.0625
72.6741714477539,1627.72998046875,-8083.2001953125,-1970.8199462890625,-400000.0625,-12378.740234375,-400000.0625,-400000.0625,-400000.0625
72.81886529922485,1644.1300048828125,-8080.81982421875,-1962.760009765625,-400000.0625,-12364.2900390625,-400000.0625,-400000.0625,-400000.0625
72.9304347038269,1646.8499755859375,-8064.27001953125,-1953.510009765625,-400000.0625,-12351.23046875,-400000.0625,-400000.0625,-400000.0625
73.05896091461182,1639.4599609375,-8072.0400390625,-1963.7099609375,-400000.0625,-12371.7802734375,-400000.0625,-400000.0625,-400000.0625
73.1851327419281,1637.1700439453125,-8083.77001953125,-1972.0999755859375,-400000.0625,-12385.8896484375,-400000.0625,-400000.0625,-400000.0625
73.3247241973877,1630.739990234375,-8090.4501953125,-1974.3399658203125,-400000.0625,-12382.1298828125,-400000.0625,-400000.0625,-400000.0625
73.44476866722107,1626.72998046875,-8082.9599609375,-1968.719970703125,-400000.0625,-12371.919921875,-400000.0625,-400000.0625,-400000.0625
73.56926989555359,1629.5,-8070.08984375,-1961.4200439453125,-400000.0625,-12383.3701171875,-400000.0625,-400000.0625,-400000.0625
73.69406914710999,1634.8800048828125,-8072.56982421875,-1958.0799560546875,-400000.0625,-12381.7900390625,-400000.0625,-400000.0625,-400000.0625
73.80847835540771,1629.5400390625,-8086.830078125,-1969.6199951171875,-400000.0625,-12377.169921875,-400000.0625,-400000.0625,-400000.0625
73.92746424674988,1633.9300537109375,-8086.2998046875,-1971.2900390625,-400000.0625,-12375.3603515625,-400000.0625,-400000.0625,-400000.0625
74.05932188034058,1636.4599609375,-8076.10009765625,-1962.3800048828125,-400000.0625,-12354.1796875,-400000.0625,-400000.0625,-400000.0625
74.19304966926575,1641.6099853515625,-8066.3701171875,-1954.219970703125,-400000.0625,-12354.51953125,-400000.0625,-400000.0625,-400000.0625
74.32019114494324,1637.030029296875,-8077.14990234375,-1962.8499755859375,-400000.0625,-12368.2001953125,-400000.0625,-400000.0625,-400000.0625
74.46207594871521,1629.8299560546875,-8087.77978515625,-1974.6300048828125,-400000.0625,-12378.259765625,-400000.0625,-400000.0625,-400000.0625
74.58340644836426,1627.8699951171875,-8084.10986328125,-1970.050048828125,-400000.0625,-12372.4501953125,-400000.0625,-400000.0625,-400000.0625
74.69592261314392,1630.5400390625,-8079.72021484375,-1965.81005859375,-400000.0625,-12366.490234375,-400000.0625,-400000.0625,-400000.0625
74.81335496902466,1638.0799560546875,-8074.9501953125,-1960.800048828125,-400000.0625,-12375.7900390625,-400000.0625,-400000.0625,-400000.0625
74.93056988716125,1633.449951171875,-8079.669921875,-1963.5699462890625,-400000.0625,-12383.1796875,-400000.0625,-400000.0625,-400000.0625
75.0362401008606,1620.5799560546875,-8085.490234375,-1971.199951171875,-400000.0625,-12379.169921875,-400000.0625,-400000.0625,-400000.0625
75.15670895576477,1621.6800537109375,-8085.2001953125,-1974.25,-400000.0625,-12391.66015625,-400000.0625,-400000.0625,-400000.0625
75.25428438186646,1628.1099853515625,-8078.669921875,-1965.0,-400000.0625,-12382.4599609375,-400000.0625,-400000.0625,-400000.0625
75.29751300811768,1633.5,-8073.56982421875,-1957.27001953125,-400000.0625,-12360.8603515625,-400000.0625,-400000.0625,-400000.0625
75.41985034942627,1628.5400390625,-8078.669921875,-1963.81005859375,-400000.0625,-12361.0,-400000.0625,-400000.0625,-400000.0625
75.52813410758972,1629.68994140625,-8090.1201171875,-1971.9100341796875,-400000.0625,-12369.58984375,-400000.0625,-400000.0625,-400000.0625
75.62943649291992,1629.31005859375,-8091.93017578125,-1975.9200439453125,-400000.0625,-12376.259765625,-400000.0625,-400000.0625,-400000.0625
75.75826144218445,1631.8299560546875,-8089.64013671875,-1971.3900146484375,-400000.0625,-12375.2099609375,-400000.0625,-400000.0625,-400000.0625
75.87833285331726,1633.9300537109375,-8082.68017578125,-1960.800048828125,-400000.0625,-12368.8701171875,-400000.0625,-400000.0625,-400000.0625
75.99368214607239,1625.6300048828125,-8077.91015625,-1963.4200439453125,-400000.0625,-12364.8701171875,-400000.0625,-400000.0625,-400000.0625
76.09613513946533,1616.719970703125,-8082.33984375,-1969.530029296875,-400000.0625,-12376.259765625,-400000.0625,-400000.0625,-400000.0625
76.21734356880188,1622.719970703125,-8080.33984375,-1968.1500244140625,-400000.0625,-12389.759765625,-400000.0625,-400000.0625,-400000.0625
76.33237838745117,1628.3499755859375,-8080.39013671875,-1961.469970703125,-400000.0625,-12387.9404296875,-400000.0625,-400000.0625,-400000.0625
76.4494252204895,1631.2099609375,-8084.16015625,-1962.3800048828125,-400000.0625,-12366.73046875,-400000.0625,-400000.0625,-400000.0625
76.64838123321533,1850.510009765625,-8133.7001953125,-2193.8798828125,-400000.0625,-12384.990234375,-400000.0625,-400000.0625,-400000.0625
76.82558703422546,1831.199951171875,-8133.509765625,-2184.820068359375,-400000.0625,-12383.080078125,-400000.0625,-400000.0625,-400000.0625
76.97770690917969,1843.1199951171875,-8136.93994140625,-2192.830078125,-400000.0625,-12369.7802734375,-400000.0625,-400000.0625,-400000.0625
77.16333651542664,1838.8800048828125,-8143.7099609375,-2201.320068359375,-400000.0625,-12402.349609375,-400000.0625,-400000.0625,-400000.0625
77.4072253704071,1843.6400146484375,-8135.3701171875,-2189.2099609375,-400000.0625,-12370.919921875,-400000.0625,-400000.0625,-400000.0625
77.5589427947998,1842.739990234375,-8132.5498046875,-2178.47998046875,-400000.0625,-12384.849609375,-400000.0625,-400000.0625,-400000.0625
77.83073139190674,1844.7900390625,-8111.14013671875,-2156.31005859375,-400000.0625,-12379.26953125,-400000.0625,-400000.0625,-400000.0625
77.99170279502869,1848.510009765625,-8116.81982421875,-2153.43994140625,-400000.0625,-12384.1298828125,-400000.0625,-400000.0625,-400000.0625
78.30766534805298,1840.260009765625,-8146.47998046875,-2164.219970703125,-400000.0625,-12398.240234375,-400000.0625,-400000.0625,-400000.0625
78.53394675254822,1827.6700439453125,-8159.58984375,-2169.93994140625,-400000.0625,-12416.650390625,-400000.0625,-400000.0625,-400000.0625
78.71524477005005,1834.8699951171875,-8154.81982421875,-2158.7900390625,-400000.0625,-12412.5,-400000.0625,-400000.0625,-400000.0625
78.90280032157898,1829.4300537109375,-8159.2998046875,-2157.780029296875,-400000.0625,-12385.8896484375,-400000.0625,-400000.0625,-400000.0625
79.06803584098816,1741.699951171875,-8316.23046875,-2203.080078125,-400000.0625,-12379.2197265625,-400000.0625,-400000.0625,-400000.0625
79.20702147483826,1762.06005859375,-8258.9599609375,-2171.139892578125,-400000.0625,-12384.4599609375,-400000.0625,-400000.0625,-400000.0625
79.46641492843628,1753.469970703125,-8297.0595703125,-2195.219970703125,-400000.0625,-12409.16015625,-400000.0625,-400000.0625,-400000.0625
79.64717221260071,1748.6600341796875,-8296.16015625,-2190.300048828125,-400000.0625,-12364.8203125,-400000.0625,-400000.0625,-400000.0625
79.83326435089111,1744.3199462890625,-8288.5302734375,-2185.389892578125,-400000.0625,-12394.7197265625,-400000.0625,-400000.0625,-400000.0625
79.97449922561646,1752.7099609375,-8278.23046875,-2176.139892578125,-400000.0625,-12359.099609375,-400000.0625,-400000.0625,-400000.0625
80.16656303405762,1749.1800537109375,-8291.5302734375,-2182.10009765625,-400000.0625,-12379.5,-400000.0625,-400000.0625,-400000.0625
80.61463189125061,1774.739990234375,-8243.990234375,-2169.89990234375,-400000.0625,-12378.8798828125,-400000.0625,-400000.0625,-400000.0625
80.76097011566162,1764.300048828125,-8253.3798828125,-2174.330078125,-400000.0625,-12373.6396484375,-400000.0625,-400000.0625,-400000.0625
80.99872064590454,1785.6600341796875,-8186.06005859375,-2160.169921875,-400000.0625,-12380.7900390625,-400000.0625,-400000.0625,-400000.0625
81.18286395072937,1815.8399658203125,-8125.2099609375,-2141.7099609375,-400000.0625,-12388.330078125,-400000.0625,-400000.0625,-400000.0625
81.37300395965576,1827.8599853515625,-8120.490234375,-2150.25,-400000.0625,-12408.16015625,-400000.0625,-400000.0625,-400000.0625
81.57957220077515,1817.1800537109375,-8124.16015625,-2140.18994140625,-400000.0625,-12376.5498046875,-400000.0625,-400000.0625,-400000.0625
81.96141910552979,1826.81005859375,-8125.830078125,-2161.840087890625,-400000.0625,-12402.8203125,-400000.0625,-400000.0625,-400000.0625
82.29479622840881,1823.22998046875,-8097.169921875,-2139.0,-400000.0625,-12389.08984375,-400000.0625,-400000.0625,-400000.0625
82.48203682899475,1830.5799560546875,-8106.56982421875,-2144.14990234375,-400000.0625,-12404.6298828125,-400000.0625,-400000.0625,-400000.0625
82.66312837600708,1823.0899658203125,-8123.10986328125,-2142.52001953125,-400000.0625,-12378.5,-400000.0625,-400000.0625,-400000.0625
82.91267418861389,1818.1300048828125,-8126.2099609375,-2151.679931640625,-400000.0625,-12395.48046875,-400000.0625,-400000.0625,-400000.0625
83.10111212730408,1812.510009765625,-8136.85009765625,-2160.639892578125,-400000.0625,-12388.08984375,-400000.0625,-400000.0625,-400000.0625
83.30534219741821,1889.989990234375,-8018.97021484375,-2124.02001953125,-400000.0625,-12405.919921875,-400000.0625,-400000.0625,-400000.0625
83.5679988861084,1873.6400146484375,-8032.0400390625,-2131.989990234375,-400000.0625,-12404.5400390625,-400000.0625,-400000.0625,-400000.0625
83.81169819831848,1869.489990234375,-8023.5498046875,-2128.219970703125,-400000.0625,-12405.01953125,-400000.0625,-400000.0625,-400000.0625
83.93731117248535,1884.8399658203125,-8001.759765625,-2111.239990234375,-400000.0625,-12407.9697265625,-400000.0625,-400000.0625,-400000.0625
84.13522434234619,1875.9300537109375,-8009.6298828125,-2107.860107421875,-400000.0625,-12388.2802734375,-400000.0625,-400000.0625,-400000.0625
84.32439637184143,1869.8699951171875,-8026.080078125,-2124.070068359375,-400000.0625,-12405.0595703125,-400000.0625,-400000.0625,-400000.0625
84.46813440322876,1874.02001953125,-8025.89013671875,-2124.830078125,-400000.0625,-12404.7802734375,-400000.0625,-400000.0625,-400000.0625
84.65360832214355,1868.8699951171875,-8009.85986328125,-2121.5400390625,-400000.0625,-12412.5498046875,-400000.0625,-400000.0625,-400000.0625
84.85434603691101,1874.1099853515625,-8011.6298828125,-2119.35009765625,-400000.0625,-12399.099609375,-400000.0625,-400000.0625,-400000.0625
84.98082137107849,1862.9599609375,-8023.740234375,-2128.97998046875,-400000.0625,-12400.099609375,-400000.0625,-400000.0625,-400000.0625
85.14505290985107,1855.9000244140625,-8027.7900390625,-2132.080078125,-400000.0625,-12391.66015625,-400000.0625,-400000.0625,-400000.0625
85.26168251037598,1861.81005859375,-8020.1201171875,-2128.030029296875,-400000.0625,-12388.990234375,-400000.0625,-400000.0625,-400000.0625
85.39009952545166,1874.1099853515625,-8007.33984375,-2115.679931640625,-400000.0625,-12388.0400390625,-400000.0625,-400000.0625,-400000.0625
85.49427032470703,1877.550048828125,-8001.7099609375,-2108.14990234375,-400000.0625,-12384.9404296875,-400000.0625,-400000.0625,-400000.0625
85.62043786048889,1868.1500244140625,-8015.81982421875,-2124.739990234375,-400000.0625,-12395.5302734375,-400000.0625,-400000.0625,-400000.0625
85.7430682182312,1859.949951171875,-8029.41015625,-2135.469970703125,-400000.0625,-12406.490234375,-400000.0625,-400000.0625,-400000.0625
85.86834669113159,1866.8699951171875,-8020.830078125,-2125.169921875,-400000.0625,-12410.3603515625,-400000.0625,-400000.0625,-400000.0625
85.96709656715393,1875.449951171875,-8005.85986328125,-2116.5400390625,-400000.0625,-12400.76953125,-400000.0625,-400000.0625,-400000.0625
86.0108232498169,1875.1099853515625,-8011.2900390625,-2121.2099609375,-400000.0625,-12389.1396484375,-400000.0625,-400000.0625,-400000.0625
86.15530228614807,1868.1500244140625,-8019.5,-2127.409912109375,-400000.0625,-12389.4697265625,-400000.0625,-400000.0625,-400000.0625
86.2839744091034,1857.18994140625,-8027.93994140625,-2136.56005859375,-400000.0625,-12405.2099609375,-400000.0625,-400000.0625,-400000.0625
86.42198014259338,1860.52001953125,-8028.080078125,-2136.56005859375,-400000.0625,-12416.3203125,-400000.0625,-400000.0625,-400000.0625
86.53445100784302,1868.010009765625,-8018.97021484375,-2126.7900390625,-400000.0625,-12405.4404296875,-400000.0625,-400000.0625,-400000.0625
86.66986203193665,1871.489990234375,-8017.919921875,-2125.1201171875,-400000.0625,-12391.900390625,-400000.0625,-400000.0625,-400000.0625
86.82400703430176,1869.9599609375,-8019.5400390625,-2129.60009765625,-400000.0625,-12401.3896484375,-400000.0625,-400000.0625,-400000.0625
86.94078707695007,1862.0999755859375,-8031.66015625,-2135.1298828125,-400000.0625,-12407.5400390625,-400000.0625,-400000.0625,-400000.0625
87.04474830627441,1869.300048828125,-8029.02978515625,-2128.320068359375,-400000.0625,-12397.0,-400000.0625,-400000.0625,-400000.0625
87.18197536468506,1878.0699462890625,-8015.2001953125,-2118.39990234375,-400000.0625,-12394.6201171875,-400000.0625,-400000.0625,-400000.0625
87.2948362827301,1878.8800048828125,-8005.759765625,-2113.199951171875,-400000.0625,-12386.7001953125,-400000.0625,-400000.0625,-400000.0625
87.43595433235168,1870.6800537109375,-8013.2998046875,-2121.070068359375,-400000.0625,-12390.2802734375,-400000.0625,-400000.0625,-400000.0625
87.57168316841125,1860.949951171875,-8027.7001953125,-2134.989990234375,-400000.0625,-12407.1103515625,-400000.0625,-400000.0625,-400000.0625
87.71237230300903,1860.5699462890625,-8023.8798828125,-2130.989990234375,-400000.0625,-12408.5400390625,-400000.0625,-400000.0625,-400000.0625
87.82647466659546,1867.9100341796875,-8012.81982421875,-2121.2099609375,-400000.0625,-12403.8203125,-400000.0625,-400000.0625,-400000.0625
87.93336582183838,1871.780029296875,-8012.2001953125,-2116.8701171875,-400000.0625,-12393.5703125,-400000.0625,-400000.0625,-400000.0625
88.04930257797241,1865.9100341796875,-8020.4501953125,-2126.5,-400000.0625,-12399.4404296875,-400000.0625,-400000.0625,-400000.0625
88.15324258804321,1860.5699462890625,-8021.8798828125,-2126.030029296875,-400000.0625,-12393.9501953125,-400000.0625,-400000.0625,-400000.0625
88.29509019851685,1864.3399658203125,-8016.97021484375,-2120.070068359375,-400000.0625,-12383.0302734375,-400000.0625,-400000.0625,-400000.0625
88.40036177635193,1869.72998046875,-8016.2099609375,-2119.830078125,-400000.0625,-12383.7998046875,-400000.0625,-400000.0625,-400000.0625
88.50906443595886,1870.300048828125,-8015.68017578125,-2123.449951171875,-400000.0625,-12392.0,-400000.0625,-400000.0625,-400000.0625
88.63942670822144,1861.239990234375,-8026.22021484375,-2133.419921875,-400000.0625,-12409.5498046875,-400000.0625,-400000.0625,-400000.0625
88.76441216468811,1853.93994140625,-8030.27001953125,-2135.7099609375,-400000.0625,-12419.080078125,-400000.0625,-400000.0625,-400000.0625
88.88683199882507,1859.239990234375,-8025.5498046875,-2128.4599609375,-400000.0625,-12405.9697265625,-400000.0625,-400000.0625,-400000.0625
89.02586364746094,1867.199951171875,-8018.39990234375,-2125.360107421875,-400000.0625,-12387.23046875,-400000.0625,-400000.0625,-400000.0625
89.16003036499023,1867.199951171875,-8015.009765625,-2123.68994140625,-400000.0625,-12388.66015625,-400000.0625,-400000.0625,-400000.0625
89.27547550201416,1861.5699462890625,-8020.2099609375,-2125.31005859375,-400000.0625,-12397.9599609375,-400000.0625,-400000.0625,-400000.0625
89.4135069847107,1856.9000244140625,-8026.740234375,-2125.169921875,-400000.0625,-12402.6796875,-400000.0625,-400000.0625,-400000.0625
89.54970932006836,1857.949951171875,-8024.41015625,-2127.1201171875,-400000.0625,-12400.7197265625,-400000.0625,-400000.0625,-400000.0625
89.65490078926086,1860.1400146484375,-8015.39990234375,-2120.780029296875,-400000.0625,-12387.3701171875,-400000.0625,-400000.0625,-400000.0625
89.75179076194763,1858.6600341796875,-8017.10986328125,-2125.1201171875,-400000.0625,-12393.669921875,-400000.0625,-400000.0625,-400000.0625
89.81569862365723,1858.18994140625,-8031.56005859375,-2134.320068359375,-400000.0625,-12400.099609375,-400000.0625,-400000.0625,-400000.0625
90.06380558013916,1873.02001953125,-8073.14013671875,-2049.919921875,-400000.0625,-12350.7998046875,-400000.0625,-400000.0625,-400000.0625
90.26909470558167,1882.1700439453125,-8099.41015625,-2078.77001953125,-400000.0625,-12349.0302734375,-400000.0625,-400000.0625,-400000.0625
90.39620900154114,1873.449951171875,-8107.47021484375,-2088.39990234375,-400000.0625,-12373.7802734375,-400000.0625,-400000.0625,-400000.0625
90.54752898216248,1880.8399658203125,-8124.8798828125,-2101.469970703125,-400000.0625,-12349.419921875,-400000.0625,-400000.0625,-400000.0625
90.71962022781372,1860.4300537109375,-8140.27978515625,-2124.8798828125,-400000.0625,-12357.8603515625,-400000.0625,-400000.0625,-400000.0625
90.90803170204163,1870.06005859375,-8120.77978515625,-2112.9599609375,-400000.0625,-12341.41015625,-400000.0625,-400000.0625,-400000.0625
91.12018847465515,1886.699951171875,-8107.0,-2116.159912109375,-400000.0625,-12357.759765625,-400000.0625,-400000.0625,-400000.0625
91.3667356967926,1885.4100341796875,-8105.85009765625,-2123.39990234375,-400000.0625,-12350.1796875,-400000.0625,-400000.0625,-400000.0625
91.61748218536377,1872.06005859375,-8129.22021484375,-2139.469970703125,-400000.0625,-12366.919921875,-400000.0625,-400000.0625,-400000.0625
91.74502277374268,1866.530029296875,-8136.7001953125,-2153.2099609375,-400000.0625,-12367.580078125,-400000.0625,-400000.0625,-400000.0625
91.87861657142639,1872.72998046875,-8129.4501953125,-2148.909912109375,-400000.0625,-12371.8798828125,-400000.0625,-400000.0625,-400000.0625
92.00048279762268,1866.9599609375,-8138.66015625,-2154.780029296875,-400000.0625,-12349.080078125,-400000.0625,-400000.0625,-400000.0625
92.2003870010376,1871.780029296875,-8134.7001953125,-2153.489990234375,-400000.0625,-12369.9697265625,-400000.0625,-400000.0625,-400000.0625
92.40887570381165,2028.1300048828125,-8202.0302734375,-2296.8798828125,-400000.0625,-12380.7900390625,-400000.0625,-400000.0625,-400000.0625
92.6032178401947,2054.97998046875,-8182.81005859375,-2278.949951171875,-400000.0625,-12395.1904296875,-400000.0625,-400000.0625,-400000.0625
92.78183817863464,2059.64990234375,-8190.43994140625,-2290.110107421875,-400000.0625,-12431.099609375,-400000.0625,-400000.0625,-400000.0625
93.1298885345459,2060.75,-8175.0400390625,-2288.719970703125,-400000.0625,-12386.23046875,-400000.0625,-400000.0625,-400000.0625
93.2836525440216,2045.3499755859375,-8195.9296875,-2310.610107421875,-400000.0625,-12409.740234375,-400000.0625,-400000.0625,-400000.0625
93.66876029968262,2057.360107421875,-8194.73046875,-2309.3701171875,-400000.0625,-12404.490234375,-400000.0625,-400000.0625,-400000.0625
94.04965853691101,1906.5899658203125,-8081.8701171875,-2153.679931640625,-400000.0625,-12353.1396484375,-400000.0625,-400000.0625,-400000.0625
94.26095652580261,1876.550048828125,-8103.27978515625,-2156.590087890625,-400000.0625,-12356.0400390625,-400000.0625,-400000.0625,-400000.0625
94.52339363098145,1882.31005859375,-8101.1298828125,-2150.14990234375,-400000.0625,-12363.33984375,-400000.0625,-400000.0625,-400000.0625
94.74891948699951,1889.6099853515625,-8085.2998046875,-2139.6201171875,-400000.0625,-12337.2099609375,-400000.0625,-400000.0625,-400000.0625
94.90096926689148,1868.9599609375,-8104.56005859375,-2155.2099609375,-400000.0625,-12357.2802734375,-400000.0625,-400000.0625,-400000.0625
95.076345205307,1874.260009765625,-8089.06982421875,-2138.7099609375,-400000.0625,-12335.400390625,-400000.0625,-400000.0625,-400000.0625
95.40642976760864,1884.56005859375,-8075.6201171875,-2119.72998046875,-400000.0625,-12344.4599609375,-400000.0625,-400000.0625,-400000.0625
95.7193214893341,1874.5899658203125,-8119.81982421875,-2146.909912109375,-400000.0625,-12358.4296875,-400000.0625,-400000.0625,-400000.0625
95.86119818687439,1888.699951171875,-8110.85986328125,-2138.3798828125,-400000.0625,-12355.4697265625,-400000.0625,-400000.0625,-400000.0625
96.11719369888306,1901.43994140625,-8092.39990234375,-2116.010009765625,-400000.0625,-12345.1201171875,-400000.0625,-400000.0625,-400000.0625
96.30371308326721,1875.449951171875,-8119.39013671875,-2130.699951171875,-400000.0625,-12346.080078125,-400000.0625,-400000.0625,-400000.0625
96.49346661567688,1828.239990234375,-8099.89013671875,-2096.219970703125,-400000.0625,-12357.759765625,-400000.0625,-400000.0625,-400000.0625
96.61885857582092,1665.4000244140625,-8022.68994140625,-1928.280029296875,-400000.0625,-12306.5498046875,-400000.0625,-400000.0625,-400000.0625
96.80310297012329,1674.6500244140625,-8019.16015625,-1925.75,-400000.0625,-12314.7001953125,-400000.0625,-400000.0625,-400000.0625
97.11886429786682,1682.469970703125,-8039.56982421875,-1933.18994140625,-400000.0625,-12320.4697265625,-400000.0625,-400000.0625,-400000.0625
97.33634853363037,1692.9599609375,-8040.56982421875,-1913.9300537109375,-400000.0625,-12278.1298828125,-400000.0625,-400000.0625,-400000.0625
97.51149463653564,1689.3399658203125,-8046.72021484375,-1914.260009765625,-400000.0625,-12294.48046875,-400000.0625,-400000.0625,-400000.0625
97.64912366867065,1681.949951171875,-8055.5400390625,-1908.969970703125,-400000.0625,-12289.759765625,-400000.0625,-400000.0625,-400000.0625
97.82469606399536,1667.68994140625,-8071.47021484375,-1919.510009765625,-400000.0625,-12304.259765625,-400000.0625,-400000.0625,-400000.0625
97.97061848640442,1681.6099853515625,-8074.52001953125,-1922.8900146484375,-400000.0625,-12287.7099609375,-400000.0625,-400000.0625,-400000.0625
98.20971202850342,1672.6500244140625,-8092.5,-1926.949951171875,-400000.0625,-12309.0302734375,-400000.0625,-400000.0625,-400000.0625
98.32336711883545,1673.93994140625,-8088.4501953125,-1923.510009765625,-400000.0625,-12303.4501953125,-400000.0625,-400000.0625,-400000.0625
98.4620897769928,1688.6700439453125,-8074.9501953125,-1909.1099853515625,-400000.0625,-12301.6396484375,-400000.0625,-400000.0625,-400000.0625
98.56871724128723,1691.8699951171875,-8069.3701171875,-1904.43994140625,-400000.0625,-12283.2802734375,-400000.0625,-400000.0625,-400000.0625
98.73346996307373,1678.989990234375,-8079.580078125,-1915.8800048828125,-400000.0625,-12296.150390625,-400000.0625,-400000.0625,-400000.0625
98.85199022293091,1673.510009765625,-8088.830078125,-1922.56005859375,-400000.0625,-12325.669921875,-400000.0625,-400000.0625,-400000.0625
98.94844436645508,1681.1400146484375,-8085.009765625,-1915.030029296875,-400000.0625,-12306.0703125,-400000.0625,-400000.0625,-400000.0625
99.0078957080841,1682.6199951171875,-8082.490234375,-1914.739990234375,-400000.0625,-12284.419921875,-400000.0625,-400000.0625,-400000.0625
99.14527750015259,1674.56005859375,-8087.77978515625,-1921.6099853515625,-400000.0625,-12292.669921875,-400000.0625,-400000.0625,-400000.0625
99.25821137428284,1675.1800537109375,-8087.68017578125,-1919.5999755859375,-400000.0625,-12298.349609375,-400000.0625,-400000.0625,-400000.0625
99.39400720596313,1681.280029296875,-8077.72021484375,-1914.550048828125,-400000.0625,-12311.2197265625,-400000.0625,-400000.0625,-400000.0625
99.51285600662231,1675.800048828125,-8084.25,-1921.510009765625,-400000.0625,-12330.8701171875,-400000.0625,-400000.0625,-400000.0625
99.61490964889526,1675.93994140625,-8088.919921875,-1920.3199462890625,-400000.0625,-12309.509765625,-400000.0625,-400000.0625,-400000.0625
99.71134829521179,1682.469970703125,-8080.009765625,-1910.9300537109375,-400000.0625,-12273.0302734375,-400000.0625,-400000.0625,-400000.0625
99.77314853668213,1680.6600341796875,-8081.77001953125,-1913.1700439453125,-400000.0625,-12270.7900390625,-400000.0625,-400000.0625,-400000.0625
99.88290643692017,1666.97998046875,-8096.27001953125,-1924.22998046875,-400000.0625,-12287.330078125,-400000.0625,-400000.0625,-400000.0625
100.00592398643494,1664.1099853515625,-8094.60009765625,-1925.989990234375,-400000.0625,-12306.41015625,-400000.0625,-400000.0625,-400000.0625
100.14969205856323,1679.52001953125,-8078.39013671875,-1915.4599609375,-400000.0625,-12313.2197265625,-400000.0625,-400000.0625,-400000.0625
100.2691490650177,1681.800048828125,-8072.66015625,-1911.780029296875,-400000.0625,-12302.16015625,-400000.0625,-400000.0625,-400000.0625
100.39083337783813,1677.699951171875,-8086.16015625,-1917.510009765625,-400000.0625,-12300.6796875,-400000.0625,-400000.0625,-400000.0625
100.52841544151306,1674.3699951171875,-8092.5498046875,-1923.6099853515625,-400000.0625,-12316.5595703125,-400000.0625,-400000.0625,-400000.0625
100.65858578681946,1671.4599609375,-8090.58984375,-1922.510009765625,-400000.0625,-12306.41015625,-400000.0625,-400000.0625,-400000.0625
100.77623057365417,1676.56005859375,-8084.06005859375,-1916.8399658203125,-400000.0625,-12287.8095703125,-400000.0625,-400000.0625,-400000.0625
100.90027117729187,1684.0899658203125,-8074.7099609375,-1908.2099609375,-400000.0625,-12286.1904296875,-400000.0625,-400000.0625,-400000.0625
101.03934001922607,1678.8499755859375,-8081.10009765625,-1912.739990234375,-400000.0625,-12301.8798828125,-400000.0625,-400000.0625,-400000.0625
101.160653591156,1670.550048828125,-8091.06982421875,-1926.1400146484375,-400000.0625,-12301.2998046875,-400000.0625,-400000.0625,-400000.0625
101.36074638366699,1665.5400390625,-8091.1201171875,-1921.989990234375,-400000.0625,-12294.8203125,-400000.0625,-400000.0625,-400000.0625
101.46156549453735,1675.0799560546875,-8081.580078125,-1913.8299560546875,-400000.0625,-12289.0498046875,-400000.0625,-400000.0625,-400000.0625
101.57166934013367,1679.3699951171875,-8075.10009765625,-1909.3499755859375,-400000.0625,-12303.2099609375,-400000.0625,-400000.0625,-400000.0625
101.67897176742554,1672.030029296875,-8075.52001953125,-1912.02001953125,-400000.0625,-12310.509765625,-400000.0625,-400000.0625,-400000.0625
101.78053545951843,1666.5899658203125,-8092.93017578125,-1925.800048828125,-400000.0625,-12305.98046875,-400000.0625,-400000.0625,-400000.0625
101.90429091453552,1677.3699951171875,-8085.5400390625,-1916.4599609375,-400000.0625,-12283.419921875,-400000.0625,-400000.0625,-400000.0625
102.0161063671112,1687.050048828125,-8073.89990234375,-1907.8699951171875,-400000.0625,-12281.7099609375,-400000.0625,-400000.0625,-400000.0625
102.1339693069458,1686.47998046875,-8081.6298828125,-1909.2099609375,-400000.0625,-12296.6298828125,-400000.0625,-400000.0625,-400000.0625
102.28769111633301,1675.6500244140625,-8083.580078125,-1915.260009765625,-400000.0625,-12302.73046875,-400000.0625,-400000.0625,-400000.0625
102.42013764381409,1662.1600341796875,-8083.39013671875,-1921.3699951171875,-400000.0625,-12305.6904296875,-400000.0625,-400000.0625,-400000.0625
102.52883052825928,1663.3499755859375,-8093.31005859375,-1924.7099609375,-400000.0625,-12310.41015625,-400000.0625,-400000.0625,-400000.0625
102.6327314376831,1680.22998046875,-8077.43017578125,-1909.5899658203125,-400000.0625,-12305.6396484375,-400000.0625,-400000.0625,-400000.0625
102.73300194740295,1688.0,-8065.509765625,-1903.489990234375,-400000.0625,-12304.8798828125,-400000.0625,-400000.0625,-400000.0625
102.84865403175354,1683.4300537109375,-8078.10009765625,-1911.5,-400000.0625,-12299.73046875,-400000.0625,-400000.0625,-400000.0625
102.98660898208618,1671.4599609375,-8085.2001953125,-1921.4599609375,-400000.0625,-12281.849609375,-400000.0625,-400000.0625,-400000.0625
103.10235166549683,1670.8900146484375,-8083.6298828125,-1920.6500244140625,-400000.0625,-12282.51953125,-400000.0625,-400000.0625,-400000.0625
103.27608942985535,1910.02001953125,-8154.43994140625,-2088.550048828125,-400000.0625,-12349.419921875,-400000.0625,-400000.0625,-400000.0625
103.51063680648804,1919.6500244140625,-8138.0400390625,-2072.669921875,-400000.0625,-12354.4697265625,-400000.0625,-400000.0625,-400000.0625
103.78688979148865,1920.8399658203125,-8127.8798828125,-2059.030029296875,-400000.0625,-12328.669921875,-400000.0625,-400000.0625,-400000.0625
103.96380066871643,1911.2099609375,-8143.7099609375,-2063.179931640625,-400000.0625,-12336.6796875,-400000.0625,-400000.0625,-400000.0625
104.18624067306519,1916.68994140625,-8157.830078125,-2078.719970703125,-400000.0625,-12340.7900390625,-400000.0625,-400000.0625,-400000.0625
104.30528283119202,1920.030029296875,-8161.31005859375,-2079.110107421875,-400000.0625,-12367.150390625,-400000.0625,-400000.0625,-400000.0625
104.48358511924744,1928.3800048828125,-8166.27001953125,-2083.300048828125,-400000.0625,-12347.83984375,-400000.0625,-400000.0625,-400000.0625
104.61807513237,1920.219970703125,-8175.08984375,-2086.639892578125,-400000.0625,-12339.16015625,-400000.0625,-400000.0625,-400000.0625
104.92339181900024,1936.0999755859375,-8173.31982421875,-2079.820068359375,-400000.0625,-12369.6796875,-400000.0625,-400000.0625,-400000.0625
105.20286321640015,1945.6400146484375,-8166.169921875,-2070.860107421875,-400000.0625,-12344.2197265625,-400000.0625,-400000.0625,-400000.0625
105.48146724700928,1941.5899658203125,-8167.080078125,-2076.820068359375,-400000.0625,-12328.580078125,-400000.0625,-400000.0625,-400000.0625
105.65440917015076,1945.9200439453125,-8156.58984375,-2071.669921875,-400000.0625,-12325.2900390625,-400000.0625,-400000.0625,-400000.0625
105.89876461029053,1875.5899658203125,-8308.599609375,-2118.43994140625,-400000.0625,-12342.98046875,-400000.0625,-400000.0625,-400000.0625
106.0755455493927,1874.8800048828125,-8274.1298828125,-2109.429931640625,-400000.0625,-12356.08984375,-400000.0625,-400000.0625,-400000.0625
106.27581357955933,1860.0,-8274.509765625,-2115.679931640625,-400000.0625,-12361.580078125,-400000.0625,-400000.0625,-400000.0625
106.46276092529297,1863.9100341796875,-8274.3701171875,-2120.72998046875,-400000.0625,-12346.3603515625,-400000.0625,-400000.0625,-400000.0625
106.96888303756714,1856.52001953125,-8268.6396484375,-2130.510009765625,-400000.0625,-12364.7197265625,-400000.0625,-400000.0625,-400000.0625
107.25507116317749,1846.8900146484375,-8269.98046875,-2132.22998046875,-400000.0625,-12356.1904296875,-400000.0625,-400000.0625,-400000.0625
107.42646503448486,1855.469970703125,-8257.6796875,-2122.449951171875,-400000.0625,-12330.580078125,-400000.0625,-400000.0625,-400000.0625
107.87790536880493,1860.47998046875,-8217.6201171875,-2126.739990234375,-400000.0625,-12365.76953125,-400000.0625,-400000.0625,-400000.0625
108.21273946762085,1920.4100341796875,-8071.27978515625,-2074.530029296875,-400000.0625,-12369.6298828125,-400000.0625,-400000.0625,-400000.0625
108.45154976844788,1923.8499755859375,-8066.7001953125,-2056.7900390625,-400000.0625,-12353.759765625,-400000.0625,-400000.0625,-400000.0625
108.61509323120117,1918.699951171875,-8089.5,-2060.699951171875,-400000.0625,-12364.7197265625,-400000.0625,-400000.0625,-400000.0625
108.7619936466217,1932.47998046875,-8086.2998046875,-2046.489990234375,-400000.0625,-12340.6396484375,-400000.0625,-400000.0625,-400000.0625
108.9085419178009,1930.760009765625,-8083.2998046875,-2039.77001953125,-400000.0625,-12360.0,-400000.0625,-400000.0625,-400000.0625
109.0286808013916,1925.8499755859375,-8097.1298828125,-2047.72998046875,-400000.0625,-12340.830078125,-400000.0625,-400000.0625,-400000.0625
109.28550601005554,1924.0899658203125,-8081.39013671875,-2035.3800048828125,-400000.0625,-12329.150390625,-400000.0625,-400000.0625,-400000.0625
109.47071409225464,1920.0799560546875,-8090.77978515625,-2035.7099609375,-400000.0625,-12335.16015625,-400000.0625,-400000.0625,-400000.0625
