time,ch1,ch2,ch3,ch4,ch5
timestamp,ch7,ch2,ch3,ch5,is_pause
timestamp,ch7,ch2,ch3,ch5,is_pause
timestamp,ch7,ch2,ch3,ch5,is_pause
timestamp,ch7,ch2,ch3,ch5,is_pause
timestamp,ch7,ch2,ch3,ch5,is_pause
timestamp,ch7,ch2,ch3,ch5,is_pause
0.09180140495300293,-400000.0625,-850.4400024414062,4474.31005859375,-400000.0625,-1739.7900390625,-400000.0625,5670.740234375,-400000.0625
0.09201264381408691,-400000.0625,-844.9099731445312,4477.5498046875,-400000.0625,-1737.1199951171875,-400000.0625,5672.259765625,-400000.0625
0.0920560359954834,-400000.0625,-848.8699951171875,4475.1201171875,-400000.0625,-1741.739990234375,-400000.0625,5674.89013671875,-400000.0625
0.09208202362060547,-400000.0625,-854.9199829101562,4469.2998046875,-400000.0625,-1744.699951171875,-400000.0625,5660.919921875,-400000.0625
0.0921025276184082,-400000.0625,-862.8800048828125,4462.52978515625,-400000.0625,-1750.7099609375,-400000.0625,5650.3798828125,-400000.0625
0.09212589263916016,-400000.0625,-866.8400268554688,4459.9501953125,-400000.0625,-1748.510009765625,-400000.0625,5657.6298828125,-400000.0625
0.09214425086975098,-400000.0625,-859.8800048828125,4467.580078125,-400000.0625,-1745.6099853515625,-400000.0625,5667.06982421875,-400000.0625
0.09216165542602539,-400000.0625,-854.780029296875,4467.77001953125,-400000.0625,-1741.5999755859375,-400000.0625,5663.8701171875,-400000.0625
0.09218025207519531,-400000.0625,-860.4099731445312,4463.669921875,-400000.0625,-1743.030029296875,-400000.0625,5661.8701171875,-400000.0625
0.09219980239868164,-400000.0625,-862.4099731445312,4461.9599609375,-400000.0625,-1749.8499755859375,-400000.0625,5664.490234375,-400000.0625
0.09221863746643066,-400000.0625,-854.9199829101562,4469.2998046875,-400000.0625,-1746.4200439453125,-400000.0625,5674.509765625,-400000.0625
0.09223651885986328,-400000.0625,-845.4299926757812,4475.4501953125,-400000.0625,-1745.3199462890625,-400000.0625,5679.56005859375,-400000.0625
0.09225678443908691,-400000.0625,-859.6400146484375,4465.9599609375,-400000.0625,-1750.3699951171875,-400000.0625,5668.06982421875,-400000.0625
0.09227514266967773,-400000.0625,-870.6599731445312,4454.18017578125,-400000.0625,-1750.3299560546875,-400000.0625,5656.2001953125,-400000.0625
0.09229540824890137,-400000.0625,-871.0399780273438,4453.27978515625,-400000.0625,-1755.2900390625,-400000.0625,5658.91015625,-400000.0625
0.092315673828125,-400000.0625,-858.1199951171875,4467.009765625,-400000.0625,-1742.8900146484375,-400000.0625,5669.740234375,-400000.0625
timestamp,ch7,ch2,ch3,ch5,is_pause
timestamp,ch7,ch2,ch3,ch5,is_pause
timestamp,ch7,ch2,ch3,ch5,is_pause
0.1353151798248291,-400000.0625,-849.010009765625,4474.39990234375,-400000.0625,-1742.3199462890625,-400000.0625,5676.89013671875,-400000.0625
0.13541722297668457,-400000.0625,-859.6400146484375,4465.68017578125,-400000.0625,-1753.6199951171875,-400000.0625,5666.4501953125,-400000.0625
0.13542532920837402,-400000.0625,-869.8499755859375,4456.89990234375,-400000.0625,-1756.6199951171875,-400000.0625,5661.77001953125,-400000.0625
0.13543224334716797,-400000.0625,-862.9299926757812,4460.759765625,-400000.0625,-1747.6600341796875,-400000.0625,5666.4501953125,-400000.0625
0.1354386806488037,-400000.0625,-850.2999877929688,4471.25,-400000.0625,-1736.0699462890625,-400000.0625,5678.990234375,-400000.0625
timestamp,ch7,ch2,ch3,ch5,is_pause
0.14613938331604004,-400000.0625,-848.719970703125,4472.2998046875,-400000.0625,-1734.780029296875,-400000.0625,5681.990234375,-400000.0625
0.1462564468383789,-400000.0625,-868.9400024414062,4457.27978515625,-400000.0625,-1750.280029296875,-400000.0625,5666.2099609375,-400000.0625
0.14627647399902344,-400000.0625,-878.4299926757812,4449.27001953125,-400000.0625,-1761.9599609375,-400000.0625,5655.18994140625,-400000.0625
0.14629340171813965,-400000.0625,-866.27001953125,4456.43017578125,-400000.0625,-1756.530029296875,-400000.0625,5662.81982421875,-400000.0625
0.14631128311157227,-400000.0625,-856.2100219726562,4468.68017578125,-400000.0625,-1748.8499755859375,-400000.0625,5674.4599609375,-400000.0625
0.14632701873779297,-400000.0625,-852.25,4474.68994140625,-400000.0625,-1739.5999755859375,-400000.0625,5680.75,-400000.0625
0.14634323120117188,-400000.0625,-855.02001953125,4471.06005859375,-400000.0625,-1748.3199462890625,-400000.0625,5675.83984375,-400000.0625
0.14635968208312988,-400000.0625,-867.6500244140625,4459.52001953125,-400000.0625,-1752.4200439453125,-400000.0625,5667.77978515625,-400000.0625
0.14637517929077148,-400000.0625,-866.989990234375,4459.43017578125,-400000.0625,-1750.8499755859375,-400000.0625,5670.830078125,-400000.0625
0.14640545845031738,-400000.0625,-862.4099731445312,4466.580078125,-400000.0625,-1744.3699951171875,-400000.0625,5672.41015625,-400000.0625
0.1464231014251709,-400000.0625,-860.9299926757812,4466.43994140625,-400000.0625,-1750.7099609375,-400000.0625,5672.68994140625,-400000.0625
timestamp,ch7,ch2,ch3,ch5,is_pause
timestamp,ch7,ch2,ch3,ch5,is_pause
timestamp,ch7,ch2,ch3,ch5,is_pause
timestamp,ch7,ch2,ch3,ch5,is_pause
timestamp,ch7,ch2,ch3,ch5,is_pause
timestamp,ch7,ch2,ch3,ch5,is_pause
timestamp,ch7,ch2,ch3,ch5,is_pause
0.24549365043640137,-400000.0625,-864.5499877929688,4461.47998046875,-400000.0625,-1759.239990234375,-400000.0625,5667.830078125,-400000.0625
0.25051164627075195,-400000.0625,-863.1699829101562,4460.10009765625,-400000.0625,-1752.5699462890625,-400000.0625,5661.2001953125,-400000.0625
0.2506392002105713,-400000.0625,-859.3599853515625,4465.39013671875,-400000.0625,-1753.949951171875,-400000.0625,5666.64013671875,-400000.0625
0.25066494941711426,-400000.0625,-854.72998046875,4473.35009765625,-400000.0625,-1747.989990234375,-400000.0625,5672.97998046875,-400000.0625
0.2506842613220215,-400000.0625,-849.77001953125,4476.02001953125,-400000.0625,-1730.8699951171875,-400000.0625,5677.4599609375,-400000.0625
0.2507014274597168,-400000.0625,-856.5,4468.25,-400000.0625,-1741.5,-400000.0625,5676.4599609375,-400000.0625
0.2507185935974121,-400000.0625,-861.219970703125,4461.52978515625,-400000.0625,-1749.6099853515625,-400000.0625,5666.39990234375,-400000.0625
0.2507355213165283,-400000.0625,-854.6799926757812,4463.10009765625,-400000.0625,-1748.280029296875,-400000.0625,5663.58984375,-400000.0625
0.25075197219848633,-400000.0625,-845.77001953125,4475.97998046875,-400000.0625,-1744.510009765625,-400000.0625,5678.60986328125,-400000.0625
0.25076818466186523,-400000.0625,-849.2899780273438,4474.2099609375,-400000.0625,-1751.1800537109375,-400000.0625,5678.56005859375,-400000.0625
0.25078511238098145,-400000.0625,-856.6400146484375,4463.9599609375,-400000.0625,-1759.77001953125,-400000.0625,5665.490234375,-400000.0625
0.25081300735473633,-400000.0625,-861.4500122070312,4463.14990234375,-400000.0625,-1749.1300048828125,-400000.0625,5663.58984375,-400000.0625
0.25083160400390625,-400000.0625,-859.6900024414062,4463.81982421875,-400000.0625,-1744.510009765625,-400000.0625,5667.259765625,-400000.0625
0.25084710121154785,-400000.0625,-847.6699829101562,4473.72998046875,-400000.0625,-1741.030029296875,-400000.0625,5677.080078125,-400000.0625
0.25086236000061035,-400000.0625,-845.0499877929688,4474.06982421875,-400000.0625,-1751.6099853515625,-400000.0625,5678.31982421875,-400000.0625
0.25087738037109375,-400000.0625,-859.3099975585938,4462.18994140625,-400000.0625,-1755.6700439453125,-400000.0625,5664.5400390625,-400000.0625
timestamp,ch7,ch2,ch3,ch5,is_pause
0.2621793746948242,-400000.0625,-864.7899780273438,4456.7099609375,-400000.0625,-1752.0,-400000.0625,5660.2001953125,-400000.0625
0.2623717784881592,-400000.0625,-850.010009765625,4468.2998046875,-400000.0625,-1741.5,-400000.0625,5675.1298828125,-400000.0625
0.26239609718322754,-400000.0625,-851.25,4467.72998046875,-400000.0625,-1747.0799560546875,-400000.0625,5675.4599609375,-400000.0625
0.26241493225097656,-400000.0625,-855.5399780273438,4462.39013671875,-400000.0625,-1750.989990234375,-400000.0625,5669.259765625,-400000.0625
0.2624328136444092,-400000.0625,-865.4600219726562,4456.7099609375,-400000.0625,-1755.81005859375,-400000.0625,5663.10986328125,-400000.0625
0.2624506950378418,-400000.0625,-872.7999877929688,4450.990234375,-400000.0625,-1756.6199951171875,-400000.0625,5658.580078125,-400000.0625
0.2624683380126953,-400000.0625,-862.5999755859375,4458.85986328125,-400000.0625,-1749.4200439453125,-400000.0625,5663.35009765625,-400000.0625
0.26248955726623535,-400000.0625,-845.719970703125,4476.259765625,-400000.0625,-1742.1700439453125,-400000.0625,5678.56005859375,-400000.0625
0.2625088691711426,-400000.0625,-853.1599731445312,4471.06005859375,-400000.0625,-1745.030029296875,-400000.0625,5677.509765625,-400000.0625
0.26253604888916016,-400000.0625,-861.219970703125,4462.2900390625,-400000.0625,-1748.4200439453125,-400000.0625,5670.4501953125,-400000.0625
0.2625570297241211,-400000.0625,-866.7000122070312,4456.3798828125,-400000.0625,-1759.3900146484375,-400000.0625,5659.2900390625,-400000.0625
0.2625885009765625,-400000.0625,-861.219970703125,4458.08984375,-400000.0625,-1755.2900390625,-400000.0625,5659.81982421875,-400000.0625
0.2626075744628906,-400000.0625,-858.3499755859375,4467.8701171875,-400000.0625,-1741.31005859375,-400000.0625,5666.77978515625,-400000.0625
0.26262569427490234,-400000.0625,-854.3499755859375,4471.10986328125,-400000.0625,-1740.31005859375,-400000.0625,5669.06982421875,-400000.0625
0.26264381408691406,-400000.0625,-857.5900268554688,4464.39013671875,-400000.0625,-1745.699951171875,-400000.0625,5665.35009765625,-400000.0625
0.2626612186431885,-400000.0625,-866.4099731445312,4458.0,-400000.0625,-1757.3399658203125,-400000.0625,5659.009765625,-400000.0625
timestamp,ch7,ch2,ch3,ch5,is_pause
timestamp,ch7,ch2,ch3,ch5,is_pause
timestamp,ch7,ch2,ch3,ch5,is_pause
timestamp,ch7,ch2,ch3,ch5,is_pause
0.33547163009643555,-400000.0625,-867.9400024414062,4454.759765625,-400000.0625,-1756.050048828125,-400000.0625,5657.6298828125,-400000.0625
timestamp,ch7,ch2,ch3,ch5,is_pause
0.358370304107666,-400000.0625,-862.3099975585938,4461.10009765625,-400000.0625,-1745.030029296875,-400000.0625,5667.06982421875,-400000.0625
timestamp,ch7,ch2,ch3,ch5,is_pause
timestamp,ch7,ch2,ch3,ch5,is_pause
timestamp,ch7,ch2,ch3,ch5,is_pause
0.3954620361328125,-400000.0625,-856.6900024414062,4466.2001953125,-400000.0625,-1747.27001953125,-400000.0625,5667.16015625,-400000.0625
0.40715909004211426,-400000.0625,-862.6900024414062,4461.77001953125,-400000.0625,-1753.52001953125,-400000.0625,5658.8701171875,-400000.0625
timestamp,ch7,ch2,ch3,ch5,is_pause
timestamp,ch7,ch2,ch3,ch5,is_pause
0.4291861057281494,-400000.0625,-872.0399780273438,4454.56982421875,-400000.0625,-1754.239990234375,-400000.0625,5657.0498046875,-400000.0625
timestamp,ch7,ch2,ch3,ch5,is_pause
0.4508788585662842,-400000.0625,-865.27001953125,4460.0,-400000.0625,-1748.989990234375,-400000.0625,5661.5400390625,-400000.0625
timestamp,ch7,ch2,ch3,ch5,is_pause
0.4693942070007324,-400000.0625,-855.4500122070312,4467.77001953125,-400000.0625,-1742.8900146484375,-400000.0625,5665.490234375,-400000.0625
timestamp,ch7,ch2,ch3,ch5,is_pause
timestamp,ch7,ch2,ch3,ch5,is_pause
0.4982595443725586,-400000.0625,-855.489990234375,4465.490234375,-400000.0625,-1745.510009765625,-400000.0625,5671.5498046875,-400000.0625
timestamp,ch7,ch2,ch3,ch5,is_pause
0.515819787979126,-400000.0625,-858.3099975585938,4465.25,-400000.0625,-1740.27001953125,-400000.0625,5670.4501953125,-400000.0625
timestamp,ch7,ch2,ch3,ch5,is_pause
timestamp,ch7,ch2,ch3,ch5,is_pause
0.5375206470489502,-400000.0625,-857.2100219726562,4466.52978515625,-400000.0625,-1739.550048828125,-400000.0625,5666.259765625,-400000.0625
0.5478928089141846,-400000.0625,-855.260009765625,4468.43994140625,-400000.0625,-1746.699951171875,-400000.0625,5662.97021484375,-400000.0625
timestamp,ch7,ch2,ch3,ch5,is_pause
0.563018798828125,-400000.0625,-849.3400268554688,4470.68017578125,-400000.0625,-1744.1300048828125,-400000.0625,5668.4501953125,-400000.0625
timestamp,ch7,ch2,ch3,ch5,is_pause
0.5859153270721436,-400000.0625,-848.6300048828125,4475.06982421875,-400000.0625,-1735.969970703125,-400000.0625,5666.259765625,-400000.0625
timestamp,ch7,ch2,ch3,ch5,is_pause
timestamp,ch7,ch2,ch3,ch5,is_pause
0.6235561370849609,-400000.0625,-857.6400146484375,4465.72021484375,-400000.0625,-1741.219970703125,-400000.0625,5661.2998046875,-400000.0625
timestamp,ch7,ch2,ch3,ch5,is_pause
0.6384298801422119,-400000.0625,-866.9400024414062,4454.66015625,-400000.0625,-1750.1800537109375,-400000.0625,5653.56982421875,-400000.0625
timestamp,ch7,ch2,ch3,ch5,is_pause
0.6525495052337646,-400000.0625,-859.739990234375,4463.10009765625,-400000.0625,-1743.1300048828125,-400000.0625,5655.669921875,-400000.0625
timestamp,ch7,ch2,ch3,ch5,is_pause
0.6751525402069092,-400000.0625,-842.47998046875,4478.60009765625,-400000.0625,-1737.2099609375,-400000.0625,5675.75,-400000.0625
timestamp,ch7,ch2,ch3,ch5,is_pause
timestamp,ch7,ch2,ch3,ch5,is_pause
0.694805383682251,-400000.0625,-844.6199951171875,4479.31005859375,-400000.0625,-1742.3599853515625,-400000.0625,5675.4599609375,-400000.0625
timestamp,ch7,ch2,ch3,ch5,is_pause
timestamp,ch7,ch2,ch3,ch5,is_pause
0.7312462329864502,-400000.0625,-854.4400024414062,4471.8701171875,-400000.0625,-1745.3699951171875,-400000.0625,5664.490234375,-400000.0625
timestamp,ch7,ch2,ch3,ch5,is_pause
0.7510838508605957,-400000.0625,-868.989990234375,4457.6201171875,-400000.0625,-1754.3299560546875,-400000.0625,5654.240234375,-400000.0625
timestamp,ch7,ch2,ch3,ch5,is_pause
0.768871545791626,-400000.0625,-861.8400268554688,4466.25,-400000.0625,-1741.739990234375,-400000.0625,5660.9599609375,-400000.0625
timestamp,ch7,ch2,ch3,ch5,is_pause
0.7909777164459229,-400000.0625,-848.25,4478.4599609375,-400000.0625,-1733.4000244140625,-400000.0625,5672.41015625,-400000.0625
timestamp,ch7,ch2,ch3,ch5,is_pause
0.8073828220367432,-400000.0625,-855.02001953125,4473.5400390625,-400000.0625,-1738.449951171875,-400000.0625,5666.830078125,-400000.0625
timestamp,ch7,ch2,ch3,ch5,is_pause
timestamp,ch7,ch2,ch3,ch5,is_pause
0.8360052108764648,-400000.0625,-864.5999755859375,4459.0,-400000.0625,-1749.800048828125,-400000.0625,5657.81982421875,-400000.0625
timestamp,ch7,ch2,ch3,ch5,is_pause
0.8533909320831299,-400000.0625,-862.8800048828125,4459.330078125,-400000.0625,-1753.81005859375,-400000.0625,5656.39013671875,-400000.0625
timestamp,ch7,ch2,ch3,ch5,is_pause
0.8729891777038574,-400000.0625,-852.6799926757812,4472.919921875,-400000.0625,-1743.8399658203125,-400000.0625,5669.02001953125,-400000.0625
timestamp,ch7,ch2,ch3,ch5,is_pause
0.8886740207672119,-400000.0625,-849.2000122070312,4475.02001953125,-400000.0625,-1739.6500244140625,-400000.0625,5671.7900390625,-400000.0625
timestamp,ch7,ch2,ch3,ch5,is_pause
0.9082164764404297,-400000.0625,-859.3099975585938,4469.25,-400000.0625,-1753.81005859375,-400000.0625,5658.2900390625,-400000.0625
timestamp,ch7,ch2,ch3,ch5,is_pause
timestamp,ch7,ch2,ch3,ch5,is_pause
timestamp,ch7,ch2,ch3,ch5,is_pause
0.9469966888427734,-400000.0625,-870.989990234375,4458.85986328125,-400000.0625,-1762.25,-400000.0625,5647.7998046875,-400000.0625
timestamp,ch7,ch2,ch3,ch5,is_pause
0.9631819725036621,-400000.0625,-865.7000122070312,4461.6201171875,-400000.0625,-1748.7099609375,-400000.0625,5650.08984375,-400000.0625
timestamp,ch7,ch2,ch3,ch5,is_pause
0.9833924770355225,-400000.0625,-857.72998046875,4471.64013671875,-400000.0625,-1740.5,-400000.0625,5660.33984375,-400000.0625
timestamp,ch7,ch2,ch3,ch5,is_pause
1.000645637512207,-400000.0625,-851.1099853515625,4477.169921875,-400000.0625,-1731.9200439453125,-400000.0625,5664.830078125,-400000.0625
timestamp,ch7,ch2,ch3,ch5,is_pause
1.0238871574401855,-400000.0625,-858.3499755859375,4472.16015625,-400000.0625,-1742.1199951171875,-400000.0625,5663.490234375,-400000.0625
timestamp,ch7,ch2,ch3,ch5,is_pause
timestamp,ch7,ch2,ch3,ch5,is_pause
1.056152105331421,-400000.0625,-854.9199829101562,4473.77978515625,-400000.0625,-1744.8399658203125,-400000.0625,5662.919921875,-400000.0625
timestamp,ch7,ch2,ch3,ch5,is_pause
1.0695416927337646,-400000.0625,-859.4500122070312,4465.2900390625,-400000.0625,-1753.1400146484375,-400000.0625,5655.14990234375,-400000.0625
timestamp,ch7,ch2,ch3,ch5,is_pause
1.0914983749389648,-400000.0625,-859.5900268554688,4467.33984375,-400000.0625,-1749.8499755859375,-400000.0625,5658.2900390625,-400000.0625
timestamp,ch7,ch2,ch3,ch5,is_pause
1.1070358753204346,-400000.0625,-849.9600219726562,4471.97021484375,-400000.0625,-1735.8800048828125,-400000.0625,5662.43994140625,-400000.0625
timestamp,ch7,ch2,ch3,ch5,is_pause
1.1217412948608398,-400000.0625,-851.489990234375,4473.97021484375,-400000.0625,-1731.489990234375,-400000.0625,5662.97021484375,-400000.0625
timestamp,ch7,ch2,ch3,ch5,is_pause
1.1331815719604492,-400000.0625,-858.260009765625,4471.2099609375,-400000.0625,-1739.0699462890625,-400000.0625,5657.669921875,-400000.0625
timestamp,ch7,ch2,ch3,ch5,is_pause
timestamp,ch7,ch2,ch3,ch5,is_pause
1.1629905700683594,-400000.0625,-864.8400268554688,4462.77001953125,-400000.0625,-1748.1300048828125,-400000.0625,5646.1298828125,-400000.0625
1.1724815368652344,-400000.0625,-859.5,4464.43994140625,-400000.0625,-1748.0899658203125,-400000.0625,5652.0,-400000.0625
timestamp,ch7,ch2,ch3,ch5,is_pause
1.1865792274475098,-400000.0625,-847.8200073242188,4476.169921875,-400000.0625,-1738.97998046875,-400000.0625,5667.4501953125,-400000.0625
timestamp,ch7,ch2,ch3,ch5,is_pause
1.2028486728668213,-400000.0625,-852.2999877929688,4474.31005859375,-400000.0625,-1744.75,-400000.0625,5662.919921875,-400000.0625
timestamp,ch7,ch2,ch3,ch5,is_pause
1.2244718074798584,-400000.0625,-861.219970703125,4467.14990234375,-400000.0625,-1751.8499755859375,-400000.0625,5650.18994140625,-400000.0625
timestamp,ch7,ch2,ch3,ch5,is_pause
1.238297700881958,-400000.0625,-864.739990234375,4466.009765625,-400000.0625,-1751.949951171875,-400000.0625,5648.7998046875,-400000.0625
timestamp,ch7,ch2,ch3,ch5,is_pause
timestamp,ch7,ch2,ch3,ch5,is_pause
1.268951654434204,-400000.0625,-859.4500122070312,4468.8701171875,-400000.0625,-1747.3199462890625,-400000.0625,5654.52978515625,-400000.0625
timestamp,ch7,ch2,ch3,ch5,is_pause
1.284900188446045,-400000.0625,-845.4299926757812,4483.60009765625,-400000.0625,-1732.8699951171875,-400000.0625,5667.72998046875,-400000.0625
timestamp,ch7,ch2,ch3,ch5,is_pause
1.2962379455566406,-400000.0625,-840.52001953125,4487.990234375,-400000.0625,-1731.8299560546875,-400000.0625,5672.41015625,-400000.0625
1.303624153137207,-400000.0625,-859.7899780273438,4471.2099609375,-400000.0625,-1743.8399658203125,-400000.0625,5657.14990234375,-400000.0625
timestamp,ch7,ch2,ch3,ch5,is_pause
1.3219246864318848,-400000.0625,-866.75,4464.33984375,-400000.0625,-1749.3299560546875,-400000.0625,5646.27978515625,-400000.0625
timestamp,ch7,ch2,ch3,ch5,is_pause
1.3342344760894775,-400000.0625,-856.02001953125,4468.009765625,-400000.0625,-1744.93994140625,-400000.0625,5653.52978515625,-400000.0625
timestamp,ch7,ch2,ch3,ch5,is_pause
1.3538944721221924,-400000.0625,-845.77001953125,4479.35986328125,-400000.0625,-1741.5,-400000.0625,5666.64013671875,-400000.0625
timestamp,ch7,ch2,ch3,ch5,is_pause
timestamp,ch7,ch2,ch3,ch5,is_pause
1.3854310512542725,-400000.0625,-842.6199951171875,4484.93994140625,-400000.0625,-1738.6400146484375,-400000.0625,5664.72998046875,-400000.0625
timestamp,ch7,ch2,ch3,ch5,is_pause
1.4019615650177002,-400000.0625,-853.72998046875,4476.259765625,-400000.0625,-1740.97998046875,-400000.0625,5659.43994140625,-400000.0625
timestamp,ch7,ch2,ch3,ch5,is_pause
1.4217619895935059,-400000.0625,-860.3099975585938,4469.2998046875,-400000.0625,-1749.52001953125,-400000.0625,5656.85986328125,-400000.0625
timestamp,ch7,ch2,ch3,ch5,is_pause
1.442603349685669,-400000.0625,-858.969970703125,4471.2998046875,-400000.0625,-1750.0899658203125,-400000.0625,5660.009765625,-400000.0625
timestamp,ch7,ch2,ch3,ch5,is_pause
1.4591970443725586,-400000.0625,-850.25,4479.93017578125,-400000.0625,-1740.1199951171875,-400000.0625,5668.830078125,-400000.0625
timestamp,ch7,ch2,ch3,ch5,is_pause
timestamp,ch7,ch2,ch3,ch5,is_pause
1.492826223373413,-400000.0625,-845.8599853515625,4483.89013671875,-400000.0625,-1739.739990234375,-400000.0625,5669.5,-400000.0625
timestamp,ch7,ch2,ch3,ch5,is_pause
1.5179615020751953,-400000.0625,-855.8800048828125,4473.35009765625,-400000.0625,-1747.469970703125,-400000.0625,5658.9599609375,-400000.0625
timestamp,ch7,ch2,ch3,ch5,is_pause
timestamp,ch7,ch2,ch3,ch5,is_pause
1.5394325256347656,-400000.0625,-865.75,4465.72021484375,-400000.0625,-1749.52001953125,-400000.0625,5653.52978515625,-400000.0625
timestamp,ch7,ch2,ch3,ch5,is_pause
1.5622913837432861,-400000.0625,-862.5999755859375,4469.25,-400000.0625,-1749.800048828125,-400000.0625,5658.009765625,-400000.0625
timestamp,ch7,ch2,ch3,ch5,is_pause
timestamp,ch7,ch2,ch3,ch5,is_pause
1.5905182361602783,-400000.0625,-855.260009765625,4474.16015625,-400000.0625,-1740.4599609375,-400000.0625,5663.81982421875,-400000.0625
timestamp,ch7,ch2,ch3,ch5,is_pause
1.6029047966003418,-400000.0625,-851.2999877929688,4475.93017578125,-400000.0625,-1734.8299560546875,-400000.0625,5661.77001953125,-400000.0625
timestamp,ch7,ch2,ch3,ch5,is_pause
1.614720344543457,-400000.0625,-858.4500122070312,4471.919921875,-400000.0625,-1745.4100341796875,-400000.0625,5657.77001953125,-400000.0625
1.6240952014923096,-400000.0625,-855.6799926757812,4472.06982421875,-400000.0625,-1751.1400146484375,-400000.0625,5654.81005859375,-400000.0625
timestamp,ch7,ch2,ch3,ch5,is_pause
1.6345207691192627,-400000.0625,-847.530029296875,4482.4599609375,-400000.0625,-1742.030029296875,-400000.0625,5667.02001953125,-400000.0625
timestamp,ch7,ch2,ch3,ch5,is_pause
1.6497573852539062,-400000.0625,-841.0900268554688,4486.27978515625,-400000.0625,-1736.9300537109375,-400000.0625,5669.97998046875,-400000.0625
timestamp,ch7,ch2,ch3,ch5,is_pause
1.6676421165466309,-400000.0625,-851.4400024414062,4477.41015625,-400000.0625,-1735.1600341796875,-400000.0625,5664.5400390625,-400000.0625
timestamp,ch7,ch2,ch3,ch5,is_pause
timestamp,ch7,ch2,ch3,ch5,is_pause
1.6983132362365723,-400000.0625,-857.5,4471.830078125,-400000.0625,-1736.739990234375,-400000.0625,5658.2900390625,-400000.0625
timestamp,ch7,ch2,ch3,ch5,is_pause
1.7077147960662842,-400000.0625,-863.3599853515625,4465.009765625,-400000.0625,-1750.3699951171875,-400000.0625,5648.60986328125,-400000.0625
1.7210814952850342,-400000.0625,-860.739990234375,4468.43994140625,-400000.0625,-1747.93994140625,-400000.0625,5654.0498046875,-400000.0625
timestamp,ch7,ch2,ch3,ch5,is_pause
1.7313454151153564,-400000.0625,-855.3499755859375,4475.1201171875,-400000.0625,-1747.800048828125,-400000.0625,5659.2900390625,-400000.0625
1.7386975288391113,-400000.0625,-850.010009765625,4476.5498046875,-400000.0625,-1741.1700439453125,-400000.0625,5661.43994140625,-400000.0625
timestamp,ch7,ch2,ch3,ch5,is_pause
1.7528724670410156,-400000.0625,-854.4400024414062,4472.64013671875,-400000.0625,-1742.97998046875,-400000.0625,5659.580078125,-400000.0625
timestamp,ch7,ch2,ch3,ch5,is_pause
1.7659258842468262,-400000.0625,-864.4600219726562,4468.16015625,-400000.0625,-1746.8499755859375,-400000.0625,5653.3798828125,-400000.0625
timestamp,ch7,ch2,ch3,ch5,is_pause
1.777416706085205,-400000.0625,-865.0800170898438,4468.2001953125,-400000.0625,-1744.3199462890625,-400000.0625,5657.0498046875,-400000.0625
timestamp,ch7,ch2,ch3,ch5,is_pause
1.7997550964355469,-400000.0625,-851.77001953125,4476.1201171875,-400000.0625,-1738.97998046875,-400000.0625,5664.35009765625,-400000.0625
timestamp,ch7,ch2,ch3,ch5,is_pause
1.8128647804260254,-400000.0625,-847.530029296875,4477.169921875,-400000.0625,-1736.739990234375,-400000.0625,5663.2001953125,-400000.0625
timestamp,ch7,ch2,ch3,ch5,is_pause
1.823699712753296,-400000.0625,-861.260009765625,4468.39013671875,-400000.0625,-1742.550048828125,-400000.0625,5660.10986328125,-400000.0625
1.830514907836914,-400000.0625,-868.75,4460.85986328125,-400000.0625,-1745.93994140625,-400000.0625,5650.08984375,-400000.0625
1.8378498554229736,-400000.0625,-868.5599975585938,4461.81005859375,-400000.0625,-1747.699951171875,-400000.0625,5648.9501953125,-400000.0625
timestamp,ch7,ch2,ch3,ch5,is_pause
1.8514952659606934,-400000.0625,-858.1199951171875,4469.43994140625,-400000.0625,-1746.8499755859375,-400000.0625,5655.240234375,-400000.0625
timestamp,ch7,ch2,ch3,ch5,is_pause
1.865790605545044,-400000.0625,-857.8300170898438,4470.06005859375,-400000.0625,-1750.280029296875,-400000.0625,5657.009765625,-400000.0625
1.8741979598999023,-400000.0625,-859.3099975585938,4472.39990234375,-400000.0625,-1746.0799560546875,-400000.0625,5664.39990234375,-400000.0625
timestamp,ch7,ch2,ch3,ch5,is_pause
1.8869836330413818,-400000.0625,-864.030029296875,4464.669921875,-400000.0625,-1746.93994140625,-400000.0625,5654.759765625,-400000.0625
timestamp,ch7,ch2,ch3,ch5,is_pause
1.9037165641784668,-400000.0625,-864.9400024414062,4464.47998046875,-400000.0625,-1743.56005859375,-400000.0625,5649.85009765625,-400000.0625
timestamp,ch7,ch2,ch3,ch5,is_pause
timestamp,ch7,ch2,ch3,ch5,is_pause
1.9237651824951172,-400000.0625,-850.0599975585938,4476.830078125,-400000.0625,-1739.0699462890625,-400000.0625,5666.02001953125,-400000.0625
1.9326508045196533,-400000.0625,-852.5399780273438,4472.5400390625,-400000.0625,-1747.0400390625,-400000.0625,5660.68017578125,-400000.0625
timestamp,ch7,ch2,ch3,ch5,is_pause
1.9455480575561523,-400000.0625,-865.27001953125,4461.580078125,-400000.0625,-1745.510009765625,-400000.0625,5650.43017578125,-400000.0625
1.9559741020202637,-400000.0625,-870.4199829101562,4457.85986328125,-400000.0625,-1751.52001953125,-400000.0625,5644.47021484375,-400000.0625
timestamp,ch7,ch2,ch3,ch5,is_pause
1.9679765701293945,-400000.0625,-863.219970703125,4464.43994140625,-400000.0625,-1755.4300537109375,-400000.0625,5648.3798828125,-400000.0625
timestamp,ch7,ch2,ch3,ch5,is_pause
1.978790283203125,-400000.0625,-853.5900268554688,4476.35986328125,-400000.0625,-1737.2099609375,-400000.0625,5660.77001953125,-400000.0625
1.9872760772705078,-400000.0625,-855.0599975585938,4476.60009765625,-400000.0625,-1734.8299560546875,-400000.0625,5659.52978515625,-400000.0625
timestamp,ch7,ch2,ch3,ch5,is_pause
2.005762815475464,-400000.0625,-866.8900146484375,4464.10009765625,-400000.0625,-1754.0,-400000.0625,5647.990234375,-400000.0625
timestamp,ch7,ch2,ch3,ch5,is_pause
2.0223655700683594,-400000.0625,-864.219970703125,4463.2900390625,-400000.0625,-1747.0400390625,-400000.0625,5645.22998046875,-400000.0625
timestamp,ch7,ch2,ch3,ch5,is_pause
2.032688856124878,-400000.0625,-858.6400146484375,4470.10986328125,-400000.0625,-1740.1199951171875,-400000.0625,5650.14013671875,-400000.0625
timestamp,ch7,ch2,ch3,ch5,is_pause
2.045031785964966,-400000.0625,-849.0999755859375,4480.41015625,-400000.0625,-1738.260009765625,-400000.0625,5661.5400390625,-400000.0625
timestamp,ch7,ch2,ch3,ch5,is_pause
2.064741373062134,-400000.0625,-845.3800048828125,4482.22021484375,-400000.0625,-1737.9300537109375,-400000.0625,5665.02001953125,-400000.0625
timestamp,ch7,ch2,ch3,ch5,is_pause
2.07436203956604,-400000.0625,-860.1699829101562,4473.16015625,-400000.0625,-1737.6400146484375,-400000.0625,5657.81982421875,-400000.0625
2.0808911323547363,-400000.0625,-864.8400268554688,4465.2900390625,-400000.0625,-1741.1700439453125,-400000.0625,5648.89990234375,-400000.0625
timestamp,ch7,ch2,ch3,ch5,is_pause
2.0954225063323975,-400000.0625,-861.3599853515625,4466.490234375,-400000.0625,-1737.7900390625,-400000.0625,5648.18017578125,-400000.0625
timestamp,ch7,ch2,ch3,ch5,is_pause
timestamp,ch7,ch2,ch3,ch5,is_pause
timestamp,ch7,ch2,ch3,ch5,is_pause
2.1315176486968994,-400000.0625,-851.4400024414062,4475.4501953125,-400000.0625,-1739.7900390625,-400000.0625,5657.43994140625,-400000.0625
2.1406469345092773,-400000.0625,-851.2000122070312,4475.259765625,-400000.0625,-1743.030029296875,-400000.0625,5659.72021484375,-400000.0625
timestamp,ch7,ch2,ch3,ch5,is_pause
2.153698205947876,-400000.0625,-860.97998046875,4467.2998046875,-400000.0625,-1742.5999755859375,-400000.0625,5650.759765625,-400000.0625
timestamp,ch7,ch2,ch3,ch5,is_pause
2.169771909713745,-400000.0625,-871.7999877929688,4461.33984375,-400000.0625,-1748.22998046875,-400000.0625,5644.85009765625,-400000.0625
timestamp,ch7,ch2,ch3,ch5,is_pause
2.1814451217651367,-400000.0625,-860.739990234375,4470.02001953125,-400000.0625,-1745.510009765625,-400000.0625,5657.39013671875,-400000.0625
timestamp,ch7,ch2,ch3,ch5,is_pause
2.1927924156188965,-400000.0625,-853.72998046875,4475.259765625,-400000.0625,-1736.02001953125,-400000.0625,5661.2998046875,-400000.0625
timestamp,ch7,ch2,ch3,ch5,is_pause
2.208075761795044,-400000.0625,-853.6300048828125,4476.68994140625,-400000.0625,-1734.969970703125,-400000.0625,5663.35009765625,-400000.0625
timestamp,ch7,ch2,ch3,ch5,is_pause
2.2355446815490723,-400000.0625,-851.0599975585938,4476.35986328125,-400000.0625,-1736.31005859375,-400000.0625,5654.759765625,-400000.0625
timestamp,ch7,ch2,ch3,ch5,is_pause
2.2476398944854736,-400000.0625,-858.4000244140625,4471.830078125,-400000.0625,-1738.68994140625,-400000.0625,5649.3798828125,-400000.0625
timestamp,ch7,ch2,ch3,ch5,is_pause
2.258178234100342,-400000.0625,-859.9299926757812,4472.02001953125,-400000.0625,-1742.1199951171875,-400000.0625,5654.14013671875,-400000.0625
timestamp,ch7,ch2,ch3,ch5,is_pause
2.274329423904419,-400000.0625,-852.2999877929688,4475.2099609375,-400000.0625,-1744.56005859375,-400000.0625,5659.2900390625,-400000.0625
timestamp,ch7,ch2,ch3,ch5,is_pause
2.2910032272338867,-400000.0625,-848.2000122070312,4480.22021484375,-400000.0625,-1740.5999755859375,-400000.0625,5665.39990234375,-400000.0625
timestamp,ch7,ch2,ch3,ch5,is_pause
2.3097646236419678,-400000.0625,-855.4000244140625,4476.1201171875,-400000.0625,-1739.3599853515625,-400000.0625,5661.72998046875,-400000.0625
timestamp,ch7,ch2,ch3,ch5,is_pause
timestamp,ch7,ch2,ch3,ch5,is_pause
2.3407716751098633,-400000.0625,-869.7999877929688,4467.39013671875,-400000.0625,-1751.0400390625,-400000.0625,5650.66015625,-400000.0625
timestamp,ch7,ch2,ch3,ch5,is_pause
2.35313081741333,-400000.0625,-859.5499877929688,4472.72998046875,-400000.0625,-1738.97998046875,-400000.0625,5652.56982421875,-400000.0625
timestamp,ch7,ch2,ch3,ch5,is_pause
2.373962640762329,-400000.0625,-844.1900024414062,4482.169921875,-400000.0625,-1734.9200439453125,-400000.0625,5668.02001953125,-400000.0625
timestamp,ch7,ch2,ch3,ch5,is_pause
2.384408712387085,-400000.0625,-850.3900146484375,4478.02978515625,-400000.0625,-1741.4599609375,-400000.0625,5665.4501953125,-400000.0625
timestamp,ch7,ch2,ch3,ch5,is_pause
2.401815176010132,-400000.0625,-864.1199951171875,4468.16015625,-400000.0625,-1751.22998046875,-400000.0625,5653.91015625,-400000.0625
timestamp,ch7,ch2,ch3,ch5,is_pause
2.4141199588775635,-400000.0625,-870.1799926757812,4462.85986328125,-400000.0625,-1757.5699462890625,-400000.0625,5646.990234375,-400000.0625
timestamp,ch7,ch2,ch3,ch5,is_pause
2.435436725616455,-400000.0625,-870.280029296875,4466.72021484375,-400000.0625,-1744.1800537109375,-400000.0625,5651.89990234375,-400000.0625
timestamp,ch7,ch2,ch3,ch5,is_pause
2.446431875228882,-400000.0625,-856.3499755859375,4474.1201171875,-400000.0625,-1736.3599853515625,-400000.0625,5657.9599609375,-400000.0625
timestamp,ch7,ch2,ch3,ch5,is_pause
2.4558639526367188,-400000.0625,-846.4299926757812,4481.35986328125,-400000.0625,-1731.1099853515625,-400000.0625,5665.259765625,-400000.0625
timestamp,ch7,ch2,ch3,ch5,is_pause
2.476112127304077,-400000.0625,-858.969970703125,4473.4501953125,-400000.0625,-1744.0799560546875,-400000.0625,5654.0498046875,-400000.0625
2.484079360961914,-400000.0625,-866.3200073242188,4468.77978515625,-400000.0625,-1747.93994140625,-400000.0625,5648.419921875,-400000.0625
timestamp,ch7,ch2,ch3,ch5,is_pause
timestamp,ch7,ch2,ch3,ch5,is_pause
2.5042006969451904,-400000.0625,-861.4500122070312,4471.490234375,-400000.0625,-1742.510009765625,-400000.0625,5648.89990234375,-400000.0625
2.5133635997772217,-400000.0625,-862.219970703125,4472.06982421875,-400000.0625,-1746.93994140625,-400000.0625,5653.669921875,-400000.0625
timestamp,ch7,ch2,ch3,ch5,is_pause
2.5259809494018555,-400000.0625,-865.6500244140625,4470.68017578125,-400000.0625,-1749.3699951171875,-400000.0625,5653.14013671875,-400000.0625
timestamp,ch7,ch2,ch3,ch5,is_pause
timestamp,ch7,ch2,ch3,ch5,is_pause
2.5567708015441895,-400000.0625,-867.75,4469.43994140625,-400000.0625,-1746.22998046875,-400000.0625,5651.759765625,-400000.0625
timestamp,ch7,ch2,ch3,ch5,is_pause
2.580662250518799,-400000.0625,-863.8900146484375,4470.2099609375,-400000.0625,-1744.800048828125,-400000.0625,5650.89990234375,-400000.0625
timestamp,ch7,ch2,ch3,ch5,is_pause
2.5992321968078613,-400000.0625,-853.72998046875,4477.31005859375,-400000.0625,-1737.8299560546875,-400000.0625,5656.85986328125,-400000.0625
timestamp,ch7,ch2,ch3,ch5,is_pause
2.617311477661133,-400000.0625,-850.25,4481.5498046875,-400000.0625,-1736.260009765625,-400000.0625,5666.39990234375,-400000.0625
timestamp,ch7,ch2,ch3,ch5,is_pause
2.6325817108154297,-400000.0625,-848.77001953125,4478.41015625,-400000.0625,-1733.8299560546875,-400000.0625,5661.6298828125,-400000.0625
timestamp,ch7,ch2,ch3,ch5,is_pause
timestamp,ch7,ch2,ch3,ch5,is_pause
2.666849374771118,-400000.0625,-866.219970703125,4460.240234375,-400000.0625,-1745.8900146484375,-400000.0625,5644.990234375,-400000.0625
timestamp,ch7,ch2,ch3,ch5,is_pause
2.6840760707855225,-400000.0625,-871.1300048828125,4461.580078125,-400000.0625,-1745.6099853515625,-400000.0625,5645.60986328125,-400000.0625
timestamp,ch7,ch2,ch3,ch5,is_pause
2.702167272567749,-400000.0625,-861.739990234375,4470.490234375,-400000.0625,-1744.0799560546875,-400000.0625,5658.009765625,-400000.0625
timestamp,ch7,ch2,ch3,ch5,is_pause
2.7233598232269287,-400000.0625,-856.5900268554688,4475.64013671875,-400000.0625,-1743.75,-400000.0625,5661.06005859375,-400000.0625
timestamp,ch7,ch2,ch3,ch5,is_pause
2.7370946407318115,-400000.0625,-858.4500122070312,4474.5498046875,-400000.0625,-1742.219970703125,-400000.0625,5656.2001953125,-400000.0625
timestamp,ch7,ch2,ch3,ch5,is_pause
timestamp,ch7,ch2,ch3,ch5,is_pause
2.767895221710205,-400000.0625,-860.97998046875,4472.10986328125,-400000.0625,-1740.550048828125,-400000.0625,5648.56982421875,-400000.0625
timestamp,ch7,ch2,ch3,ch5,is_pause
2.7836036682128906,-400000.0625,-861.4099731445312,4473.02001953125,-400000.0625,-1739.260009765625,-400000.0625,5648.52001953125,-400000.0625
timestamp,ch7,ch2,ch3,ch5,is_pause
2.800563097000122,-400000.0625,-853.6300048828125,4476.7900390625,-400000.0625,-1736.969970703125,-400000.0625,5660.72998046875,-400000.0625
timestamp,ch7,ch2,ch3,ch5,is_pause
2.81437087059021,-400000.0625,-846.530029296875,4480.4599609375,-400000.0625,-1733.72998046875,-400000.0625,5668.2099609375,-400000.0625
timestamp,ch7,ch2,ch3,ch5,is_pause
2.828195095062256,-400000.0625,-847.0499877929688,4486.1298828125,-400000.0625,-1731.489990234375,-400000.0625,5671.68994140625,-400000.0625
timestamp,ch7,ch2,ch3,ch5,is_pause
2.8432352542877197,-400000.0625,-850.6799926757812,4482.93994140625,-400000.0625,-1734.300048828125,-400000.0625,5666.2998046875,-400000.0625
timestamp,ch7,ch2,ch3,ch5,is_pause
timestamp,ch7,ch2,ch3,ch5,is_pause
2.8754570484161377,-400000.0625,-860.7899780273438,4471.72998046875,-400000.0625,-1741.5,-400000.0625,5652.56982421875,-400000.0625
timestamp,ch7,ch2,ch3,ch5,is_pause
2.892369270324707,-400000.0625,-860.1699829101562,4474.06982421875,-400000.0625,-1745.93994140625,-400000.0625,5649.66015625,-400000.0625
timestamp,ch7,ch2,ch3,ch5,is_pause
2.9040520191192627,-400000.0625,-852.2999877929688,4481.93994140625,-400000.0625,-1731.6800537109375,-400000.0625,5655.47998046875,-400000.0625
timestamp,ch7,ch2,ch3,ch5,is_pause
2.921093702316284,-400000.0625,-847.9099731445312,4485.18017578125,-400000.0625,-1729.969970703125,-400000.0625,5657.240234375,-400000.0625
2.9291958808898926,-400000.0625,-859.3099975585938,4475.31005859375,-400000.0625,-1747.6600341796875,-400000.0625,5652.47998046875,-400000.0625
timestamp,ch7,ch2,ch3,ch5,is_pause
timestamp,ch7,ch2,ch3,ch5,is_pause
2.9521849155426025,-400000.0625,-865.4099731445312,4472.35009765625,-400000.0625,-1747.93994140625,-400000.0625,5645.509765625,-400000.0625
timestamp,ch7,ch2,ch3,ch5,is_pause
timestamp,ch7,ch2,ch3,ch5,is_pause
2.9843430519104004,-400000.0625,-861.3599853515625,4475.740234375,-400000.0625,-1740.030029296875,-400000.0625,5651.6201171875,-400000.0625
timestamp,ch7,ch2,ch3,ch5,is_pause
2.9990556240081787,-400000.0625,-859.1199951171875,4473.64013671875,-400000.0625,-1739.5999755859375,-400000.0625,5660.14990234375,-400000.0625
3.008981227874756,-400000.0625,-852.489990234375,4480.93017578125,-400000.0625,-1734.300048828125,-400000.0625,5663.2998046875,-400000.0625
timestamp,ch7,ch2,ch3,ch5,is_pause
3.0227394104003906,-400000.0625,-856.2100219726562,4479.60009765625,-400000.0625,-1738.1700439453125,-400000.0625,5661.39013671875,-400000.0625
timestamp,ch7,ch2,ch3,ch5,is_pause
3.0373988151550293,-400000.0625,-862.6500244140625,4472.58984375,-400000.0625,-1740.68994140625,-400000.0625,5654.14013671875,-400000.0625
timestamp,ch7,ch2,ch3,ch5,is_pause
timestamp,ch7,ch2,ch3,ch5,is_pause
3.062349796295166,-400000.0625,-866.6500244140625,4467.5400390625,-400000.0625,-1746.22998046875,-400000.0625,5649.22998046875,-400000.0625
timestamp,ch7,ch2,ch3,ch5,is_pause
timestamp,ch7,ch2,ch3,ch5,is_pause
3.0923690795898438,-400000.0625,-863.4099731445312,4472.16015625,-400000.0625,-1743.510009765625,-400000.0625,5652.6201171875,-400000.0625
3.101550340652466,-400000.0625,-861.9299926757812,4469.8701171875,-400000.0625,-1737.0699462890625,-400000.0625,5656.2900390625,-400000.0625
timestamp,ch7,ch2,ch3,ch5,is_pause
3.121925115585327,-400000.0625,-868.030029296875,4465.52978515625,-400000.0625,-1740.1199951171875,-400000.0625,5652.47998046875,-400000.0625
timestamp,ch7,ch2,ch3,ch5,is_pause
3.1357109546661377,-400000.0625,-870.22998046875,4467.919921875,-400000.0625,-1746.8900146484375,-400000.0625,5651.330078125,-400000.0625
timestamp,ch7,ch2,ch3,ch5,is_pause
3.1511809825897217,-400000.0625,-864.6500244140625,4474.2099609375,-400000.0625,-1736.02001953125,-400000.0625,5658.43994140625,-400000.0625
timestamp,ch7,ch2,ch3,ch5,is_pause
3.1666479110717773,-400000.0625,-857.2100219726562,4476.64013671875,-400000.0625,-1734.5400390625,-400000.0625,5655.33984375,-400000.0625
timestamp,ch7,ch2,ch3,ch5,is_pause
timestamp,ch7,ch2,ch3,ch5,is_pause
3.1994128227233887,-400000.0625,-852.5399780273438,4480.169921875,-400000.0625,-1736.1199951171875,-400000.0625,5664.39990234375,-400000.0625
timestamp,ch7,ch2,ch3,ch5,is_pause
3.2159321308135986,-400000.0625,-860.8800048828125,4472.5400390625,-400000.0625,-1738.260009765625,-400000.0625,5657.77001953125,-400000.0625
timestamp,ch7,ch2,ch3,ch5,is_pause
3.2308990955352783,-400000.0625,-874.8099975585938,4460.43017578125,-400000.0625,-1747.93994140625,-400000.0625,5644.419921875,-400000.0625
timestamp,ch7,ch2,ch3,ch5,is_pause
3.2418885231018066,-400000.0625,-874.8099975585938,4464.2900390625,-400000.0625,-1755.3299560546875,-400000.0625,5649.22998046875,-400000.0625
3.2536935806274414,-400000.0625,-859.5900268554688,4475.35986328125,-400000.0625,-1745.75,-400000.0625,5659.81982421875,-400000.0625
timestamp,ch7,ch2,ch3,ch5,is_pause
3.2677130699157715,-400000.0625,-856.72998046875,4477.169921875,-400000.0625,-1735.260009765625,-400000.0625,5659.52978515625,-400000.0625
timestamp,ch7,ch2,ch3,ch5,is_pause
timestamp,ch7,ch2,ch3,ch5,is_pause
3.2951884269714355,-400000.0625,-867.5599975585938,4466.72021484375,-400000.0625,-1739.8399658203125,-400000.0625,5649.27978515625,-400000.0625
3.3026044368743896,-400000.0625,-870.280029296875,4463.39013671875,-400000.0625,-1741.550048828125,-400000.0625,5648.60986328125,-400000.0625
timestamp,ch7,ch2,ch3,ch5,is_pause
3.314265727996826,-400000.0625,-865.1300048828125,4472.77978515625,-400000.0625,-1743.3599853515625,-400000.0625,5654.759765625,-400000.0625
timestamp,ch7,ch2,ch3,ch5,is_pause
3.3262648582458496,-400000.0625,-856.5,4479.7900390625,-400000.0625,-1738.449951171875,-400000.0625,5663.25,-400000.0625
timestamp,ch7,ch2,ch3,ch5,is_pause
3.335906744003296,-400000.0625,-857.5900268554688,4480.22021484375,-400000.0625,-1732.9200439453125,-400000.0625,5663.2998046875,-400000.0625
timestamp,ch7,ch2,ch3,ch5,is_pause
3.3481099605560303,-400000.0625,-869.7999877929688,4469.919921875,-400000.0625,-1740.0699462890625,-400000.0625,5651.81005859375,-400000.0625
timestamp,ch7,ch2,ch3,ch5,is_pause
3.3618664741516113,-400000.0625,-875.8099975585938,4461.6201171875,-400000.0625,-1752.22998046875,-400000.0625,5639.27001953125,-400000.0625
timestamp,ch7,ch2,ch3,ch5,is_pause
3.376054286956787,-400000.0625,-869.9400024414062,4470.72998046875,-400000.0625,-1752.5699462890625,-400000.0625,5643.18017578125,-400000.0625
timestamp,ch7,ch2,ch3,ch5,is_pause
3.398306131362915,-400000.0625,-860.3099975585938,4479.97998046875,-400000.0625,-1740.030029296875,-400000.0625,5654.91015625,-400000.0625
timestamp,ch7,ch2,ch3,ch5,is_pause
3.410121440887451,-400000.0625,-863.739990234375,4477.7900390625,-400000.0625,-1729.489990234375,-400000.0625,5654.0498046875,-400000.0625
timestamp,ch7,ch2,ch3,ch5,is_pause
3.419146776199341,-400000.0625,-873.6099853515625,4467.14990234375,-400000.0625,-1744.93994140625,-400000.0625,5638.93017578125,-400000.0625
3.428372383117676,-400000.0625,-874.9500122070312,4465.39013671875,-400000.0625,-1741.31005859375,-400000.0625,5638.1201171875,-400000.0625
timestamp,ch7,ch2,ch3,ch5,is_pause
3.4398584365844727,-400000.0625,-867.3699951171875,4470.8701171875,-400000.0625,-1733.72998046875,-400000.0625,5650.81005859375,-400000.0625
timestamp,ch7,ch2,ch3,ch5,is_pause
3.45121693611145,-400000.0625,-851.5399780273438,4481.02978515625,-400000.0625,-1725.9599609375,-400000.0625,5661.6298828125,-400000.0625
timestamp,ch7,ch2,ch3,ch5,is_pause
3.463395118713379,-400000.0625,-856.969970703125,4474.4501953125,-400000.0625,-1737.739990234375,-400000.0625,5648.60986328125,-400000.0625
timestamp,ch7,ch2,ch3,ch5,is_pause
3.47687029838562,-400000.0625,-871.75,4464.43994140625,-400000.0625,-1755.1400146484375,-400000.0625,5636.41015625,-400000.0625
timestamp,ch7,ch2,ch3,ch5,is_pause
3.497887372970581,-400000.0625,-874.6099853515625,4465.43994140625,-400000.0625,-1754.1400146484375,-400000.0625,5643.27001953125,-400000.0625
timestamp,ch7,ch2,ch3,ch5,is_pause
3.509972095489502,-400000.0625,-865.7899780273438,4462.91015625,-400000.0625,-1749.4200439453125,-400000.0625,5654.6201171875,-400000.0625
timestamp,ch7,ch2,ch3,ch5,is_pause
3.519190549850464,-400000.0625,-845.8099975585938,4473.72998046875,-400000.0625,-1743.27001953125,-400000.0625,5670.259765625,-400000.0625
timestamp,ch7,ch2,ch3,ch5,is_pause
3.5336601734161377,-400000.0625,-832.4099731445312,4478.02978515625,-400000.0625,-1747.93994140625,-400000.0625,5675.4599609375,-400000.0625
timestamp,ch7,ch2,ch3,ch5,is_pause
3.545846939086914,-400000.0625,-834.8900146484375,4470.72998046875,-400000.0625,-1756.2900390625,-400000.0625,5666.39990234375,-400000.0625
3.5535974502563477,-400000.0625,-833.7999877929688,4469.10986328125,-400000.0625,-1759.199951171875,-400000.0625,5672.64990234375,-400000.0625
timestamp,ch7,ch2,ch3,ch5,is_pause
3.5657670497894287,-400000.0625,-810.719970703125,4484.02978515625,-400000.0625,-1756.2900390625,-400000.0625,5692.52978515625,-400000.0625
timestamp,ch7,ch2,ch3,ch5,is_pause
3.5761971473693848,-400000.0625,-785.9199829101562,4501.25,-400000.0625,-1747.22998046875,-400000.0625,5710.97998046875,-400000.0625
3.5833816528320312,-400000.0625,-780.9199829101562,4506.490234375,-400000.0625,-1745.3199462890625,-400000.0625,5716.990234375,-400000.0625
timestamp,ch7,ch2,ch3,ch5,is_pause
timestamp,ch7,ch2,ch3,ch5,is_pause
3.6080000400543213,-400000.0625,-785.1599731445312,4499.9599609375,-400000.0625,-1754.1400146484375,-400000.0625,5706.4501953125,-400000.0625
timestamp,ch7,ch2,ch3,ch5,is_pause
3.6183419227600098,-400000.0625,-784.969970703125,4494.81005859375,-400000.0625,-1755.6199951171875,-400000.0625,5703.77978515625,-400000.0625
timestamp,ch7,ch2,ch3,ch5,is_pause
3.633147954940796,-400000.0625,-779.25,4497.669921875,-400000.0625,-1754.3800048828125,-400000.0625,5711.3701171875,-400000.0625
3.6418721675872803,-400000.0625,-772.8099975585938,4506.06005859375,-400000.0625,-1748.3699951171875,-400000.0625,5714.93994140625,-400000.0625
timestamp,ch7,ch2,ch3,ch5,is_pause
3.652097463607788,-400000.0625,-777.530029296875,4508.4501953125,-400000.0625,-1747.0799560546875,-400000.0625,5716.08984375,-400000.0625
timestamp,ch7,ch2,ch3,ch5,is_pause
3.6693315505981445,-400000.0625,-771.9500122070312,4514.41015625,-400000.0625,-1745.3699951171875,-400000.0625,5718.85009765625,-400000.0625
timestamp,ch7,ch2,ch3,ch5,is_pause
3.6863622665405273,-400000.0625,-783.72998046875,4499.8701171875,-400000.0625,-1754.6700439453125,-400000.0625,5708.169921875,-400000.0625
timestamp,ch7,ch2,ch3,ch5,is_pause
3.711501359939575,-400000.0625,-789.7899780273438,4494.330078125,-400000.0625,-1762.530029296875,-400000.0625,5706.22021484375,-400000.0625
timestamp,ch7,ch2,ch3,ch5,is_pause
3.7235536575317383,-400000.0625,-777.4400024414062,4506.2998046875,-400000.0625,-1747.0799560546875,-400000.0625,5715.509765625,-400000.0625
timestamp,ch7,ch2,ch3,ch5,is_pause
3.735659599304199,-400000.0625,-778.2899780273438,4502.580078125,-400000.0625,-1742.510009765625,-400000.0625,5712.7001953125,-400000.0625
timestamp,ch7,ch2,ch3,ch5,is_pause
3.747063159942627,-400000.0625,-789.97998046875,4492.43017578125,-400000.0625,-1753.949951171875,-400000.0625,5701.259765625,-400000.0625
3.7541322708129883,-400000.0625,-799.8499755859375,4489.08984375,-400000.0625,-1761.9599609375,-400000.0625,5698.06005859375,-400000.0625
timestamp,ch7,ch2,ch3,ch5,is_pause
3.7666685581207275,-400000.0625,-794.3599853515625,4494.0,-400000.0625,-1756.6700439453125,-400000.0625,5702.68994140625,-400000.0625
timestamp,ch7,ch2,ch3,ch5,is_pause
3.7769486904144287,-400000.0625,-781.72998046875,4503.25,-400000.0625,-1754.949951171875,-400000.0625,5712.18017578125,-400000.0625
3.7835519313812256,-400000.0625,-775.9099731445312,4509.1201171875,-400000.0625,-1754.0899658203125,-400000.0625,5718.419921875,-400000.0625
timestamp,ch7,ch2,ch3,ch5,is_pause
3.792961835861206,-400000.0625,-791.739990234375,4499.9599609375,-400000.0625,-1755.949951171875,-400000.0625,5708.080078125,-400000.0625
timestamp,ch7,ch2,ch3,ch5,is_pause
3.80959415435791,-400000.0625,-797.1300048828125,4493.0,-400000.0625,-1758.8599853515625,-400000.0625,5701.58984375,-400000.0625
timestamp,ch7,ch2,ch3,ch5,is_pause
3.8189525604248047,-400000.0625,-792.6900024414062,4499.2001953125,-400000.0625,-1753.6199951171875,-400000.0625,5710.509765625,-400000.0625
timestamp,ch7,ch2,ch3,ch5,is_pause
3.8301007747650146,-400000.0625,-775.6699829101562,4514.64990234375,-400000.0625,-1742.8900146484375,-400000.0625,5718.47021484375,-400000.0625
timestamp,ch7,ch2,ch3,ch5,is_pause
3.8405942916870117,-400000.0625,-777.77001953125,4508.68994140625,-400000.0625,-1748.75,-400000.0625,5713.83984375,-400000.0625
3.8491756916046143,-400000.0625,-790.9299926757812,4497.85986328125,-400000.0625,-1758.81005859375,-400000.0625,5710.5498046875,-400000.0625
timestamp,ch7,ch2,ch3,ch5,is_pause
3.858689785003662,-400000.0625,-793.1699829101562,4501.72021484375,-400000.0625,-1762.1500244140625,-400000.0625,5709.89013671875,-400000.0625
3.869011402130127,-400000.0625,-785.8800048828125,4511.64013671875,-400000.0625,-1752.0400390625,-400000.0625,5714.419921875,-400000.0625
timestamp,ch7,ch2,ch3,ch5,is_pause
3.879720687866211,-400000.0625,-770.760009765625,4522.1298828125,-400000.0625,-1745.510009765625,-400000.0625,5724.85986328125,-400000.0625
3.8866991996765137,-400000.0625,-769.0399780273438,4520.7998046875,-400000.0625,-1743.510009765625,-400000.0625,5725.2900390625,-400000.0625
timestamp,ch7,ch2,ch3,ch5,is_pause
3.89827823638916,-400000.0625,-777.6699829101562,4512.93017578125,-400000.0625,-1750.9000244140625,-400000.0625,5714.89013671875,-400000.0625
timestamp,ch7,ch2,ch3,ch5,is_pause
3.9159703254699707,-400000.0625,-783.1599731445312,4509.35009765625,-400000.0625,-1754.8599853515625,-400000.0625,5711.080078125,-400000.0625
timestamp,ch7,ch2,ch3,ch5,is_pause
3.930922031402588,-400000.0625,-782.8200073242188,4513.35986328125,-400000.0625,-1750.1800537109375,-400000.0625,5715.509765625,-400000.0625
timestamp,ch7,ch2,ch3,ch5,is_pause
3.9430763721466064,-400000.0625,-767.760009765625,4527.81005859375,-400000.0625,-1742.1700439453125,-400000.0625,5725.6201171875,-400000.0625
timestamp,ch7,ch2,ch3,ch5,is_pause
3.954525947570801,-400000.0625,-773.239990234375,4523.9501953125,-400000.0625,-1749.56005859375,-400000.0625,5724.43017578125,-400000.0625
timestamp,ch7,ch2,ch3,ch5,is_pause
3.9702963829040527,-400000.0625,-786.1099853515625,4509.5400390625,-400000.0625,-1762.010009765625,-400000.0625,5708.22021484375,-400000.0625
timestamp,ch7,ch2,ch3,ch5,is_pause
3.9802160263061523,-400000.0625,-786.72998046875,4505.06005859375,-400000.0625,-1764.06005859375,-400000.0625,5704.93017578125,-400000.0625
3.9866180419921875,-400000.0625,-779.3400268554688,4510.5498046875,-400000.0625,-1755.1400146484375,-400000.0625,5713.22998046875,-400000.0625
timestamp,ch7,ch2,ch3,ch5,is_pause
4.001357555389404,-400000.0625,-768.3800048828125,4525.419921875,-400000.0625,-1752.9000244140625,-400000.0625,5727.43017578125,-400000.0625
timestamp,ch7,ch2,ch3,ch5,is_pause
4.019591808319092,-400000.0625,-772.9099731445312,4523.22998046875,-400000.0625,-1760.77001953125,-400000.0625,5733.2001953125,-400000.0625
timestamp,ch7,ch2,ch3,ch5,is_pause
4.033890247344971,-400000.0625,-776.0499877929688,4518.31982421875,-400000.0625,-1750.7099609375,-400000.0625,5724.3798828125,-400000.0625
timestamp,ch7,ch2,ch3,ch5,is_pause
4.048314571380615,-400000.0625,-782.489990234375,4510.35986328125,-400000.0625,-1756.719970703125,-400000.0625,5715.509765625,-400000.0625
timestamp,ch7,ch2,ch3,ch5,is_pause
4.061747074127197,-400000.0625,-784.6400146484375,4508.31005859375,-400000.0625,-1766.43994140625,-400000.0625,5712.64990234375,-400000.0625
timestamp,ch7,ch2,ch3,ch5,is_pause
4.078731298446655,-400000.0625,-774.9099731445312,4521.75,-400000.0625,-1755.6199951171875,-400000.0625,5721.240234375,-400000.0625
4.085692644119263,-400000.0625,-768.22998046875,4527.330078125,-400000.0625,-1745.93994140625,-400000.0625,5722.330078125,-400000.0625
timestamp,ch7,ch2,ch3,ch5,is_pause
timestamp,ch7,ch2,ch3,ch5,is_pause
4.105663299560547,-400000.0625,-780.3900146484375,4515.7900390625,-400000.0625,-1752.22998046875,-400000.0625,5716.52001953125,-400000.0625
timestamp,ch7,ch2,ch3,ch5,is_pause
4.128525972366333,-400000.0625,-785.4500122070312,4507.2099609375,-400000.0625,-1759.1500244140625,-400000.0625,5708.4599609375,-400000.0625
timestamp,ch7,ch2,ch3,ch5,is_pause
4.141139268875122,-400000.0625,-784.9199829101562,4509.68994140625,-400000.0625,-1761.6300048828125,-400000.0625,5710.89013671875,-400000.0625
timestamp,ch7,ch2,ch3,ch5,is_pause
4.150386571884155,-400000.0625,-769.8099975585938,4521.89013671875,-400000.0625,-1752.280029296875,-400000.0625,5725.91015625,-400000.0625
timestamp,ch7,ch2,ch3,ch5,is_pause
4.16160249710083,-400000.0625,-755.6900024414062,4533.47998046875,-400000.0625,-1743.4100341796875,-400000.0625,5734.10986328125,-400000.0625
timestamp,ch7,ch2,ch3,ch5,is_pause
4.172155857086182,-400000.0625,-761.5599975585938,4517.75,-400000.0625,-1756.239990234375,-400000.0625,5716.31982421875,-400000.0625
4.181564569473267,-400000.0625,-771.52001953125,4514.02978515625,-400000.0625,-1761.77001953125,-400000.0625,5717.52001953125,-400000.0625
timestamp,ch7,ch2,ch3,ch5,is_pause
4.193817138671875,-400000.0625,-755.1199951171875,4525.52001953125,-400000.0625,-1756.530029296875,-400000.0625,5729.39013671875,-400000.0625
timestamp,ch7,ch2,ch3,ch5,is_pause
4.207207679748535,-400000.0625,-742.0999755859375,4537.919921875,-400000.0625,-1748.469970703125,-400000.0625,5739.830078125,-400000.0625
timestamp,ch7,ch2,ch3,ch5,is_pause
4.227355718612671,-400000.0625,-740.6199951171875,4538.43994140625,-400000.0625,-1753.6600341796875,-400000.0625,5749.75,-400000.0625
timestamp,ch7,ch2,ch3,ch5,is_pause
4.23831582069397,-400000.0625,-745.5800170898438,4532.0,-400000.0625,-1761.530029296875,-400000.0625,5743.31005859375,-400000.0625
timestamp,ch7,ch2,ch3,ch5,is_pause
4.248642683029175,-400000.0625,-749.5399780273438,4527.0400390625,-400000.0625,-1761.25,-400000.0625,5733.5400390625,-400000.0625
4.258326292037964,-400000.0625,-736.3300170898438,4537.14990234375,-400000.0625,-1755.050048828125,-400000.0625,5740.64013671875,-400000.0625
timestamp,ch7,ch2,ch3,ch5,is_pause
4.272754907608032,-400000.0625,-724.3200073242188,4545.35986328125,-400000.0625,-1753.18994140625,-400000.0625,5752.14013671875,-400000.0625
timestamp,ch7,ch2,ch3,ch5,is_pause
4.282836437225342,-400000.0625,-722.030029296875,4550.89013671875,-400000.0625,-1745.1800537109375,-400000.0625,5756.85986328125,-400000.0625
timestamp,ch7,ch2,ch3,ch5,is_pause
4.293322324752808,-400000.0625,-734.6599731445312,4543.58984375,-400000.0625,-1756.5699462890625,-400000.0625,5750.080078125,-400000.0625
timestamp,ch7,ch2,ch3,ch5,is_pause
4.303810358047485,-400000.0625,-735.0900268554688,4541.10986328125,-400000.0625,-1760.77001953125,-400000.0625,5744.93017578125,-400000.0625
4.313857078552246,-400000.0625,-727.7999877929688,4542.5400390625,-400000.0625,-1752.3800048828125,-400000.0625,5746.75,-400000.0625
timestamp,ch7,ch2,ch3,ch5,is_pause
timestamp,ch7,ch2,ch3,ch5,is_pause
4.33590841293335,-400000.0625,-724.9400024414062,4547.02001953125,-400000.0625,-1757.0999755859375,-400000.0625,5752.0400390625,-400000.0625
4.343979120254517,-400000.0625,-720.5499877929688,4547.41015625,-400000.0625,-1753.8499755859375,-400000.0625,5748.93994140625,-400000.0625
timestamp,ch7,ch2,ch3,ch5,is_pause
4.3528525829315186,-400000.0625,-723.510009765625,4539.39013671875,-400000.0625,-1750.0899658203125,-400000.0625,5743.89013671875,-400000.0625
timestamp,ch7,ch2,ch3,ch5,is_pause
4.365445137023926,-400000.0625,-736.9500122070312,4533.10009765625,-400000.0625,-1760.3399658203125,-400000.0625,5737.8798828125,-400000.0625
timestamp,ch7,ch2,ch3,ch5,is_pause
4.377234220504761,-400000.0625,-735.8099975585938,4533.580078125,-400000.0625,-1774.3599853515625,-400000.0625,5735.830078125,-400000.0625
4.384993314743042,-400000.0625,-729.0800170898438,4542.490234375,-400000.0625,-1756.3800048828125,-400000.0625,5745.1298828125,-400000.0625
timestamp,ch7,ch2,ch3,ch5,is_pause
4.3989417552948,-400000.0625,-730.9000244140625,4542.490234375,-400000.0625,-1759.8199462890625,-400000.0625,5747.4599609375,-400000.0625
timestamp,ch7,ch2,ch3,ch5,is_pause
4.412517786026001,-400000.0625,-737.8599853515625,4531.14990234375,-400000.0625,-1767.2099609375,-400000.0625,5739.1201171875,-400000.0625
timestamp,ch7,ch2,ch3,ch5,is_pause
4.422606945037842,-400000.0625,-743.2899780273438,4529.6201171875,-400000.0625,-1759.050048828125,-400000.0625,5736.02001953125,-400000.0625
timestamp,ch7,ch2,ch3,ch5,is_pause
4.443163633346558,-400000.0625,-737.0900268554688,4533.14990234375,-400000.0625,-1758.9599609375,-400000.0625,5745.60009765625,-400000.0625
timestamp,ch7,ch2,ch3,ch5,is_pause
4.452881097793579,-400000.0625,-728.22998046875,4542.77978515625,-400000.0625,-1750.469970703125,-400000.0625,5755.85009765625,-400000.0625
timestamp,ch7,ch2,ch3,ch5,is_pause
4.464807510375977,-400000.0625,-732.760009765625,4538.2001953125,-400000.0625,-1756.6199951171875,-400000.0625,5752.89990234375,-400000.0625
timestamp,ch7,ch2,ch3,ch5,is_pause
4.474741220474243,-400000.0625,-736.5700073242188,4534.77001953125,-400000.0625,-1770.31005859375,-400000.0625,5744.7001953125,-400000.0625
4.484530925750732,-400000.0625,-740.8099975585938,4529.81005859375,-400000.0625,-1762.8199462890625,-400000.0625,5736.97021484375,-400000.0625
timestamp,ch7,ch2,ch3,ch5,is_pause
4.49717116355896,-400000.0625,-738.0,4527.85986328125,-400000.0625,-1761.1500244140625,-400000.0625,5739.39990234375,-400000.0625
timestamp,ch7,ch2,ch3,ch5,is_pause
4.50881814956665,-400000.0625,-728.510009765625,4537.72998046875,-400000.0625,-1764.8699951171875,-400000.0625,5752.89990234375,-400000.0625
4.516401529312134,-400000.0625,-728.9400024414062,4543.919921875,-400000.0625,-1759.0,-400000.0625,5758.10009765625,-400000.0625
timestamp,ch7,ch2,ch3,ch5,is_pause
4.523770332336426,-400000.0625,-740.47998046875,4534.14990234375,-400000.0625,-1758.050048828125,-400000.0625,5746.75,-400000.0625
timestamp,ch7,ch2,ch3,ch5,is_pause
4.538804054260254,-400000.0625,-743.5800170898438,4529.0498046875,-400000.0625,-1761.9599609375,-400000.0625,5740.1201171875,-400000.0625
timestamp,ch7,ch2,ch3,ch5,is_pause
4.550846815109253,-400000.0625,-731.1799926757812,4536.580078125,-400000.0625,-1758.77001953125,-400000.0625,5749.419921875,-400000.0625
timestamp,ch7,ch2,ch3,ch5,is_pause
4.56161642074585,-400000.0625,-717.4500122070312,4551.31982421875,-400000.0625,-1744.699951171875,-400000.0625,5762.240234375,-400000.0625
4.569594144821167,-400000.0625,-731.1300048828125,4546.8798828125,-400000.0625,-1748.4200439453125,-400000.0625,5756.759765625,-400000.0625
timestamp,ch7,ch2,ch3,ch5,is_pause
4.581989765167236,-400000.0625,-757.4600219726562,4534.6298828125,-400000.0625,-1763.77001953125,-400000.0625,5735.16015625,-400000.0625
timestamp,ch7,ch2,ch3,ch5,is_pause
4.59186863899231,-400000.0625,-768.760009765625,4529.85986328125,-400000.0625,-1762.9100341796875,-400000.0625,5728.33984375,-400000.0625
4.5986433029174805,-400000.0625,-760.3599853515625,4528.52001953125,-400000.0625,-1756.050048828125,-400000.0625,5723.47998046875,-400000.0625
timestamp,ch7,ch2,ch3,ch5,is_pause
4.608258962631226,-400000.0625,-758.3599853515625,4526.08984375,-400000.0625,-1743.8900146484375,-400000.0625,5722.240234375,-400000.0625
timestamp,ch7,ch2,ch3,ch5,is_pause
4.6194987297058105,-400000.0625,-776.9600219726562,4516.5498046875,-400000.0625,-1743.8900146484375,-400000.0625,5708.60009765625,-400000.0625
timestamp,ch7,ch2,ch3,ch5,is_pause
4.627920627593994,-400000.0625,-795.8400268554688,4500.2900390625,-400000.0625,-1752.0899658203125,-400000.0625,5695.72998046875,-400000.0625
timestamp,ch7,ch2,ch3,ch5,is_pause
4.6515913009643555,-400000.0625,-811.9600219726562,4487.0400390625,-400000.0625,-1741.1700439453125,-400000.0625,5684.08984375,-400000.0625
timestamp,ch7,ch2,ch3,ch5,is_pause
4.668791055679321,-400000.0625,-826.7899780273438,4488.27978515625,-400000.0625,-1734.0699462890625,-400000.0625,5675.22021484375,-400000.0625
timestamp,ch7,ch2,ch3,ch5,is_pause
4.68294882774353,-400000.0625,-818.0599975585938,4493.27978515625,-400000.0625,-1721.0999755859375,-400000.0625,5680.0400390625,-400000.0625
timestamp,ch7,ch2,ch3,ch5,is_pause
4.692686557769775,-400000.0625,-830.1699829101562,4478.83984375,-400000.0625,-1716.760009765625,-400000.0625,5667.31005859375,-400000.0625
timestamp,ch7,ch2,ch3,ch5,is_pause
4.703063249588013,-400000.0625,-860.7899780273438,4457.89990234375,-400000.0625,-1733.6800537109375,-400000.0625,5646.27978515625,-400000.0625
timestamp,ch7,ch2,ch3,ch5,is_pause
4.716776609420776,-400000.0625,-868.030029296875,4457.0498046875,-400000.0625,-1733.969970703125,-400000.0625,5642.93994140625,-400000.0625
timestamp,ch7,ch2,ch3,ch5,is_pause
4.729557752609253,-400000.0625,-865.8900146484375,4455.47021484375,-400000.0625,-1729.1500244140625,-400000.0625,5646.85009765625,-400000.0625
timestamp,ch7,ch2,ch3,ch5,is_pause
timestamp,ch7,ch2,ch3,ch5,is_pause
4.761513710021973,-400000.0625,-865.5999755859375,4458.240234375,-400000.0625,-1728.3399658203125,-400000.0625,5645.419921875,-400000.0625
timestamp,ch7,ch2,ch3,ch5,is_pause
4.7793474197387695,-400000.0625,-871.280029296875,4453.330078125,-400000.0625,-1737.2099609375,-400000.0625,5639.93994140625,-400000.0625
timestamp,ch7,ch2,ch3,ch5,is_pause
4.794764995574951,-400000.0625,-877.8099975585938,4450.419921875,-400000.0625,-1742.4599609375,-400000.0625,5628.490234375,-400000.0625
timestamp,ch7,ch2,ch3,ch5,is_pause
4.805563449859619,-400000.0625,-888.5900268554688,4449.75,-400000.0625,-1741.219970703125,-400000.0625,5627.16015625,-400000.0625
timestamp,ch7,ch2,ch3,ch5,is_pause
timestamp,ch7,ch2,ch3,ch5,is_pause
4.822250127792358,-400000.0625,-886.1099853515625,4452.66015625,-400000.0625,-1729.3900146484375,-400000.0625,5630.02001953125,-400000.0625
4.829702138900757,-400000.0625,-873.6599731445312,4465.009765625,-400000.0625,-1724.0999755859375,-400000.0625,5640.60009765625,-400000.0625
timestamp,ch7,ch2,ch3,ch5,is_pause
timestamp,ch7,ch2,ch3,ch5,is_pause
4.849199056625366,-400000.0625,-868.510009765625,4465.33984375,-400000.0625,-1731.8299560546875,-400000.0625,5647.14013671875,-400000.0625
timestamp,ch7,ch2,ch3,ch5,is_pause
4.859107732772827,-400000.0625,-880.8099975585938,4455.27978515625,-400000.0625,-1739.31005859375,-400000.0625,5639.169921875,-400000.0625
timestamp,ch7,ch2,ch3,ch5,is_pause
4.867482900619507,-400000.0625,-887.9199829101562,4452.60986328125,-400000.0625,-1731.969970703125,-400000.0625,5635.31005859375,-400000.0625
4.87700891494751,-400000.0625,-877.9500122070312,4458.47998046875,-400000.0625,-1732.300048828125,-400000.0625,5638.1201171875,-400000.0625
timestamp,ch7,ch2,ch3,ch5,is_pause
4.888043403625488,-400000.0625,-870.280029296875,4465.77001953125,-400000.0625,-1729.300048828125,-400000.0625,5645.1298828125,-400000.0625
timestamp,ch7,ch2,ch3,ch5,is_pause
4.896877288818359,-400000.0625,-872.3300170898438,4468.009765625,-400000.0625,-1730.6300048828125,-400000.0625,5647.330078125,-400000.0625
timestamp,ch7,ch2,ch3,ch5,is_pause
4.908851146697998,-400000.0625,-876.3800048828125,4462.9599609375,-400000.0625,-1732.300048828125,-400000.0625,5641.02978515625,-400000.0625
timestamp,ch7,ch2,ch3,ch5,is_pause
timestamp,ch7,ch2,ch3,ch5,is_pause
4.928609848022461,-400000.0625,-878.3300170898438,4462.43017578125,-400000.0625,-1739.4100341796875,-400000.0625,5640.60009765625,-400000.0625
4.935786247253418,-400000.0625,-870.0399780273438,4468.35009765625,-400000.0625,-1734.780029296875,-400000.0625,5648.0400390625,-400000.0625
timestamp,ch7,ch2,ch3,ch5,is_pause
timestamp,ch7,ch2,ch3,ch5,is_pause
4.963304042816162,-400000.0625,-871.1799926757812,4471.4501953125,-400000.0625,-1730.06005859375,-400000.0625,5652.47998046875,-400000.0625
timestamp,ch7,ch2,ch3,ch5,is_pause
4.977096080780029,-400000.0625,-877.7100219726562,4466.33984375,-400000.0625,-1733.72998046875,-400000.0625,5648.56982421875,-400000.0625
timestamp,ch7,ch2,ch3,ch5,is_pause
4.987942934036255,-400000.0625,-886.0599975585938,4459.18994140625,-400000.0625,-1735.1600341796875,-400000.0625,5639.7900390625,-400000.0625
timestamp,ch7,ch2,ch3,ch5,is_pause
5.000028610229492,-400000.0625,-887.72998046875,4458.0,-400000.0625,-1738.5,-400000.0625,5637.06982421875,-400000.0625
timestamp,ch7,ch2,ch3,ch5,is_pause
5.010756731033325,-400000.0625,-884.8200073242188,4459.330078125,-400000.0625,-1735.1600341796875,-400000.0625,5639.35986328125,-400000.0625
timestamp,ch7,ch2,ch3,ch5,is_pause
5.025290012359619,-400000.0625,-873.9500122070312,4467.77001953125,-400000.0625,-1734.3499755859375,-400000.0625,5647.330078125,-400000.0625
timestamp,ch7,ch2,ch3,ch5,is_pause
5.035806655883789,-400000.0625,-878.3800048828125,4469.58984375,-400000.0625,-1727.43994140625,-400000.0625,5649.85009765625,-400000.0625
timestamp,ch7,ch2,ch3,ch5,is_pause
timestamp,ch7,ch2,ch3,ch5,is_pause
5.064613103866577,-400000.0625,-884.9600219726562,4461.240234375,-400000.0625,-1740.68994140625,-400000.0625,5641.02978515625,-400000.0625
timestamp,ch7,ch2,ch3,ch5,is_pause
5.079122304916382,-400000.0625,-883.9099731445312,4460.6201171875,-400000.0625,-1738.8800048828125,-400000.0625,5636.60009765625,-400000.0625
timestamp,ch7,ch2,ch3,ch5,is_pause
5.088384628295898,-400000.0625,-882.77001953125,4465.25,-400000.0625,-1734.260009765625,-400000.0625,5643.31982421875,-400000.0625
5.0954811573028564,-400000.0625,-871.3699951171875,4476.2099609375,-400000.0625,-1728.3900146484375,-400000.0625,5654.669921875,-400000.0625
timestamp,ch7,ch2,ch3,ch5,is_pause
5.102716445922852,-400000.0625,-875.5700073242188,4471.58984375,-400000.0625,-1732.72998046875,-400000.0625,5647.85009765625,-400000.0625
timestamp,ch7,ch2,ch3,ch5,is_pause
5.1136555671691895,-400000.0625,-885.9600219726562,4463.47998046875,-400000.0625,-1735.2099609375,-400000.0625,5639.83984375,-400000.0625
timestamp,ch7,ch2,ch3,ch5,is_pause
5.125093221664429,-400000.0625,-884.5800170898438,4464.2001953125,-400000.0625,-1731.5400390625,-400000.0625,5640.89013671875,-400000.0625
5.132938385009766,-400000.0625,-880.9099731445312,4465.10009765625,-400000.0625,-1732.4000244140625,-400000.0625,5640.4599609375,-400000.0625
timestamp,ch7,ch2,ch3,ch5,is_pause
5.142485857009888,-400000.0625,-874.6099853515625,4472.10986328125,-400000.0625,-1733.4000244140625,-400000.0625,5649.6201171875,-400000.0625
timestamp,ch7,ch2,ch3,ch5,is_pause
timestamp,ch7,ch2,ch3,ch5,is_pause
5.163893461227417,-400000.0625,-876.8099975585938,4472.2998046875,-400000.0625,-1736.449951171875,-400000.0625,5652.0498046875,-400000.0625
5.172458648681641,-400000.0625,-886.25,4466.39013671875,-400000.0625,-1737.8800048828125,-400000.0625,5639.740234375,-400000.0625
timestamp,ch7,ch2,ch3,ch5,is_pause
5.183893442153931,-400000.0625,-893.1199951171875,4460.47998046875,-400000.0625,-1736.68994140625,-400000.0625,5631.39990234375,-400000.0625
timestamp,ch7,ch2,ch3,ch5,is_pause
5.193718671798706,-400000.0625,-883.47998046875,4468.25,-400000.0625,-1728.3399658203125,-400000.0625,5641.83984375,-400000.0625
timestamp,ch7,ch2,ch3,ch5,is_pause
5.202068328857422,-400000.0625,-877.8099975585938,4473.97021484375,-400000.0625,-1722.18994140625,-400000.0625,5647.22998046875,-400000.0625
timestamp,ch7,ch2,ch3,ch5,is_pause
5.212920904159546,-400000.0625,-874.5700073242188,4472.5400390625,-400000.0625,-1720.9100341796875,-400000.0625,5643.93994140625,-400000.0625
5.220731735229492,-400000.0625,-887.3900146484375,4461.6201171875,-400000.0625,-1735.260009765625,-400000.0625,5643.419921875,-400000.0625
timestamp,ch7,ch2,ch3,ch5,is_pause
5.228615045547485,-400000.0625,-887.489990234375,4463.009765625,-400000.0625,-1732.5899658203125,-400000.0625,5639.509765625,-400000.0625
timestamp,ch7,ch2,ch3,ch5,is_pause
5.235332489013672,-400000.0625,-884.9099731445312,4465.52978515625,-400000.0625,-1731.06005859375,-400000.0625,5644.509765625,-400000.0625
5.244431495666504,-400000.0625,-877.1900024414062,4473.830078125,-400000.0625,-1723.5799560546875,-400000.0625,5650.0,-400000.0625
timestamp,ch7,ch2,ch3,ch5,is_pause
timestamp,ch7,ch2,ch3,ch5,is_pause
5.263516187667847,-400000.0625,-876.8599853515625,4475.06982421875,-400000.0625,-1728.6800537109375,-400000.0625,5648.330078125,-400000.0625
timestamp,ch7,ch2,ch3,ch5,is_pause
5.2724175453186035,-400000.0625,-889.1599731445312,4463.009765625,-400000.0625,-1735.2099609375,-400000.0625,5638.64990234375,-400000.0625
timestamp,ch7,ch2,ch3,ch5,is_pause
5.2836267948150635,-400000.0625,-890.780029296875,4457.89990234375,-400000.0625,-1734.300048828125,-400000.0625,5631.259765625,-400000.0625
5.290303707122803,-400000.0625,-884.8699951171875,4466.2998046875,-400000.0625,-1732.489990234375,-400000.0625,5635.740234375,-400000.0625
timestamp,ch7,ch2,ch3,ch5,is_pause
5.297478914260864,-400000.0625,-874.9500122070312,4477.68994140625,-400000.0625,-1720.3800048828125,-400000.0625,5650.22998046875,-400000.0625
timestamp,ch7,ch2,ch3,ch5,is_pause
5.304462909698486,-400000.0625,-873.1799926757812,4477.169921875,-400000.0625,-1722.4300537109375,-400000.0625,5654.47998046875,-400000.0625
timestamp,ch7,ch2,ch3,ch5,is_pause
5.317995548248291,-400000.0625,-893.5900268554688,4459.240234375,-400000.0625,-1736.5,-400000.0625,5637.7900390625,-400000.0625
5.325042009353638,-400000.0625,-899.5499877929688,4456.66015625,-400000.0625,-1738.260009765625,-400000.0625,5630.06005859375,-400000.0625
timestamp,ch7,ch2,ch3,ch5,is_pause
5.332578659057617,-400000.0625,-889.489990234375,4462.240234375,-400000.0625,-1729.8699951171875,-400000.0625,5635.31005859375,-400000.0625
timestamp,ch7,ch2,ch3,ch5,is_pause
5.344055891036987,-400000.0625,-879.0,4472.8798828125,-400000.0625,-1721.81005859375,-400000.0625,5648.3798828125,-400000.0625
5.3527326583862305,-400000.0625,-879.4299926757812,4475.740234375,-400000.0625,-1729.06005859375,-400000.0625,5648.14013671875,-400000.0625
timestamp,ch7,ch2,ch3,ch5,is_pause
timestamp,ch7,ch2,ch3,ch5,is_pause
5.36950945854187,-400000.0625,-880.3400268554688,4473.72998046875,-400000.0625,-1727.06005859375,-400000.0625,5640.7001953125,-400000.0625
timestamp,ch7,ch2,ch3,ch5,is_pause
5.381531715393066,-400000.0625,-882.3400268554688,4472.97021484375,-400000.0625,-1727.530029296875,-400000.0625,5642.75,-400000.0625
5.38956880569458,-400000.0625,-880.47998046875,4472.2998046875,-400000.0625,-1728.25,-400000.0625,5650.47021484375,-400000.0625
timestamp,ch7,ch2,ch3,ch5,is_pause
5.397036552429199,-400000.0625,-870.9000244140625,4484.509765625,-400000.0625,-1721.8599853515625,-400000.0625,5652.08984375,-400000.0625
timestamp,ch7,ch2,ch3,ch5,is_pause
5.403959035873413,-400000.0625,-876.52001953125,4479.83984375,-400000.0625,-1723.4300537109375,-400000.0625,5645.509765625,-400000.0625
5.412613153457642,-400000.0625,-888.6799926757812,4471.4501953125,-400000.0625,-1729.300048828125,-400000.0625,5637.4599609375,-400000.0625
timestamp,ch7,ch2,ch3,ch5,is_pause
5.421611547470093,-400000.0625,-889.2100219726562,4467.77001953125,-400000.0625,-1732.2099609375,-400000.0625,5635.5,-400000.0625
timestamp,ch7,ch2,ch3,ch5,is_pause
5.428958415985107,-400000.0625,-884.9600219726562,4472.259765625,-400000.0625,-1733.02001953125,-400000.0625,5644.22998046875,-400000.0625
5.43517541885376,-400000.0625,-875.52001953125,4481.5498046875,-400000.0625,-1721.81005859375,-400000.0625,5652.56982421875,-400000.0625
timestamp,ch7,ch2,ch3,ch5,is_pause
5.444983005523682,-400000.0625,-879.0499877929688,4475.1201171875,-400000.0625,-1723.6700439453125,-400000.0625,5645.75,-400000.0625
timestamp,ch7,ch2,ch3,ch5,is_pause
5.455304145812988,-400000.0625,-887.25,4466.6298828125,-400000.0625,-1732.489990234375,-400000.0625,5634.4501953125,-400000.0625
timestamp,ch7,ch2,ch3,ch5,is_pause
5.4706244468688965,-400000.0625,-890.5399780273438,4465.2900390625,-400000.0625,-1729.9200439453125,-400000.0625,5632.830078125,-400000.0625
timestamp,ch7,ch2,ch3,ch5,is_pause
5.481545925140381,-400000.0625,-876.52001953125,4476.2099609375,-400000.0625,-1726.3399658203125,-400000.0625,5646.419921875,-400000.0625
timestamp,ch7,ch2,ch3,ch5,is_pause
5.488976240158081,-400000.0625,-867.4099731445312,4485.66015625,-400000.0625,-1718.469970703125,-400000.0625,5651.669921875,-400000.0625
timestamp,ch7,ch2,ch3,ch5,is_pause
5.497529029846191,-400000.0625,-874.9500122070312,4482.31982421875,-400000.0625,-1723.1500244140625,-400000.0625,5643.080078125,-400000.0625
5.506500959396362,-400000.0625,-883.5800170898438,4471.39990234375,-400000.0625,-1729.3499755859375,-400000.0625,5635.68994140625,-400000.0625
timestamp,ch7,ch2,ch3,ch5,is_pause
5.521836757659912,-400000.0625,-888.0599975585938,4467.2001953125,-400000.0625,-1738.4100341796875,-400000.0625,5633.259765625,-400000.0625
timestamp,ch7,ch2,ch3,ch5,is_pause
5.530295133590698,-400000.0625,-880.719970703125,4475.5498046875,-400000.0625,-1735.5400390625,-400000.0625,5639.27001953125,-400000.0625
5.537222146987915,-400000.0625,-879.239990234375,4479.68994140625,-400000.0625,-1727.489990234375,-400000.0625,5642.83984375,-400000.0625
timestamp,ch7,ch2,ch3,ch5,is_pause
5.5509843826293945,-400000.0625,-886.8200073242188,4471.97021484375,-400000.0625,-1733.8800048828125,-400000.0625,5635.169921875,-400000.0625
timestamp,ch7,ch2,ch3,ch5,is_pause
5.55986475944519,-400000.0625,-885.1500244140625,4473.58984375,-400000.0625,-1730.3900146484375,-400000.0625,5627.43994140625,-400000.0625
timestamp,ch7,ch2,ch3,ch5,is_pause
timestamp,ch7,ch2,ch3,ch5,is_pause
5.581660032272339,-400000.0625,-877.1900024414062,4474.77978515625,-400000.0625,-1726.2900390625,-400000.0625,5624.68017578125,-400000.0625
timestamp,ch7,ch2,ch3,ch5,is_pause
5.591374397277832,-400000.0625,-869.4600219726562,4480.83984375,-400000.0625,-1722.3800048828125,-400000.0625,5632.830078125,-400000.0625
5.598272323608398,-400000.0625,-860.1699829101562,4494.56982421875,-400000.0625,-1715.6099853515625,-400000.0625,5640.93994140625,-400000.0625
timestamp,ch7,ch2,ch3,ch5,is_pause
5.606779098510742,-400000.0625,-863.8400268554688,4493.85986328125,-400000.0625,-1726.199951171875,-400000.0625,5640.31982421875,-400000.0625
timestamp,ch7,ch2,ch3,ch5,is_pause
5.617077112197876,-400000.0625,-867.8900146484375,4485.31982421875,-400000.0625,-1734.68994140625,-400000.0625,5629.490234375,-400000.0625
timestamp,ch7,ch2,ch3,ch5,is_pause
5.626849174499512,-400000.0625,-870.4199829101562,4479.31005859375,-400000.0625,-1730.8199462890625,-400000.0625,5623.52978515625,-400000.0625
5.633456468582153,-400000.0625,-875.0900268554688,4478.35986328125,-400000.0625,-1734.449951171875,-400000.0625,5627.10986328125,-400000.0625
timestamp,ch7,ch2,ch3,ch5,is_pause
5.642918109893799,-400000.0625,-863.3099975585938,4486.75,-400000.0625,-1726.9100341796875,-400000.0625,5630.5400390625,-400000.0625
timestamp,ch7,ch2,ch3,ch5,is_pause
5.6522979736328125,-400000.0625,-861.6900024414062,4484.89013671875,-400000.0625,-1726.719970703125,-400000.0625,5632.259765625,-400000.0625
timestamp,ch7,ch2,ch3,ch5,is_pause
5.663824081420898,-400000.0625,-871.4199829101562,4478.740234375,-400000.0625,-1735.780029296875,-400000.0625,5630.64013671875,-400000.0625
timestamp,ch7,ch2,ch3,ch5,is_pause
timestamp,ch7,ch2,ch3,ch5,is_pause
5.70127272605896,-400000.0625,-874.469970703125,4474.93017578125,-400000.0625,-1728.489990234375,-400000.0625,5624.06005859375,-400000.0625
timestamp,ch7,ch2,ch3,ch5,is_pause
5.710769414901733,-400000.0625,-865.1300048828125,4484.22021484375,-400000.0625,-1724.0,-400000.0625,5629.97021484375,-400000.0625
timestamp,ch7,ch2,ch3,ch5,is_pause
5.721549034118652,-400000.0625,-858.6400146484375,4490.419921875,-400000.0625,-1728.25,-400000.0625,5637.22021484375,-400000.0625
timestamp,ch7,ch2,ch3,ch5,is_pause
5.733055353164673,-400000.0625,-857.9299926757812,4492.08984375,-400000.0625,-1721.6700439453125,-400000.0625,5637.68994140625,-400000.0625
timestamp,ch7,ch2,ch3,ch5,is_pause
5.747373342514038,-400000.0625,-867.27001953125,4483.3701171875,-400000.0625,-1727.5799560546875,-400000.0625,5632.06982421875,-400000.0625
timestamp,ch7,ch2,ch3,ch5,is_pause
5.757178068161011,-400000.0625,-869.6099853515625,4480.1201171875,-400000.0625,-1730.5400390625,-400000.0625,5626.25,-400000.0625
5.763990640640259,-400000.0625,-868.1300048828125,4479.35986328125,-400000.0625,-1735.31005859375,-400000.0625,5626.81982421875,-400000.0625
timestamp,ch7,ch2,ch3,ch5,is_pause
timestamp,ch7,ch2,ch3,ch5,is_pause
5.785085201263428,-400000.0625,-862.6900024414062,4487.89990234375,-400000.0625,-1730.489990234375,-400000.0625,5637.60009765625,-400000.0625
timestamp,ch7,ch2,ch3,ch5,is_pause
5.794400453567505,-400000.0625,-867.0800170898438,4485.509765625,-400000.0625,-1720.239990234375,-400000.0625,5636.8798828125,-400000.0625
5.8013763427734375,-400000.0625,-872.4199829101562,4479.68994140625,-400000.0625,-1732.4000244140625,-400000.0625,5628.490234375,-400000.0625
timestamp,ch7,ch2,ch3,ch5,is_pause
5.809609651565552,-400000.0625,-871.6599731445312,4477.22021484375,-400000.0625,-1735.780029296875,-400000.0625,5625.2998046875,-400000.0625
timestamp,ch7,ch2,ch3,ch5,is_pause
5.81763482093811,-400000.0625,-868.3699951171875,4481.02978515625,-400000.0625,-1725.77001953125,-400000.0625,5629.5400390625,-400000.0625
5.824118375778198,-400000.0625,-857.5900268554688,4492.18994140625,-400000.0625,-1720.52001953125,-400000.0625,5641.89013671875,-400000.0625
timestamp,ch7,ch2,ch3,ch5,is_pause
5.831664323806763,-400000.0625,-862.6900024414062,4490.27978515625,-400000.0625,-1720.0,-400000.0625,5641.1298828125,-400000.0625
timestamp,ch7,ch2,ch3,ch5,is_pause
5.839523553848267,-400000.0625,-874.8099975585938,4479.41015625,-400000.0625,-1721.47998046875,-400000.0625,5631.97021484375,-400000.0625
5.847852945327759,-400000.0625,-870.3699951171875,4484.080078125,-400000.0625,-1725.1500244140625,-400000.0625,5633.64013671875,-400000.0625
timestamp,ch7,ch2,ch3,ch5,is_pause
5.854925870895386,-400000.0625,-869.989990234375,4484.18017578125,-400000.0625,-1729.43994140625,-400000.0625,5633.5498046875,-400000.0625
timestamp,ch7,ch2,ch3,ch5,is_pause
5.862706184387207,-400000.0625,-868.4600219726562,4485.66015625,-400000.0625,-1724.4300537109375,-400000.0625,5635.97998046875,-400000.0625
5.868851900100708,-400000.0625,-864.1199951171875,4489.60986328125,-400000.0625,-1718.4300537109375,-400000.0625,5638.02978515625,-400000.0625
timestamp,ch7,ch2,ch3,ch5,is_pause
timestamp,ch7,ch2,ch3,ch5,is_pause
5.885316610336304,-400000.0625,-884.719970703125,4472.39990234375,-400000.0625,-1735.9300537109375,-400000.0625,5625.009765625,-400000.0625
5.891688585281372,-400000.0625,-887.3499755859375,4467.72998046875,-400000.0625,-1733.1600341796875,-400000.0625,5618.0498046875,-400000.0625
timestamp,ch7,ch2,ch3,ch5,is_pause
5.897859811782837,-400000.0625,-878.760009765625,4475.740234375,-400000.0625,-1727.3900146484375,-400000.0625,5624.68017578125,-400000.0625
5.903319835662842,-400000.0625,-871.469970703125,4481.7900390625,-400000.0625,-1721.6700439453125,-400000.0625,5631.35009765625,-400000.0625
timestamp,ch7,ch2,ch3,ch5,is_pause
5.915549039840698,-400000.0625,-866.7000122070312,4484.419921875,-400000.0625,-1722.530029296875,-400000.0625,5632.2099609375,-400000.0625
timestamp,ch7,ch2,ch3,ch5,is_pause
5.92443060874939,-400000.0625,-878.1400146484375,4478.02978515625,-400000.0625,-1729.5400390625,-400000.0625,5623.77001953125,-400000.0625
5.930925607681274,-400000.0625,-886.8699951171875,4471.35009765625,-400000.0625,-1730.6300048828125,-400000.0625,5617.0498046875,-400000.0625
timestamp,ch7,ch2,ch3,ch5,is_pause
5.938772201538086,-400000.0625,-882.2899780273438,4472.4501953125,-400000.0625,-1729.5400390625,-400000.0625,5617.6201171875,-400000.0625
timestamp,ch7,ch2,ch3,ch5,is_pause
5.948980808258057,-400000.0625,-871.3200073242188,4483.75,-400000.0625,-1720.47998046875,-400000.0625,5630.8798828125,-400000.0625
5.956010103225708,-400000.0625,-872.760009765625,4482.31982421875,-400000.0625,-1718.6199951171875,-400000.0625,5632.259765625,-400000.0625
timestamp,ch7,ch2,ch3,ch5,is_pause
5.964962720870972,-400000.0625,-890.3499755859375,4469.009765625,-400000.0625,-1725.9599609375,-400000.0625,5617.669921875,-400000.0625
timestamp,ch7,ch2,ch3,ch5,is_pause
5.9728052616119385,-400000.0625,-890.9199829101562,4466.9599609375,-400000.0625,-1730.300048828125,-400000.0625,5612.66015625,-400000.0625
timestamp,ch7,ch2,ch3,ch5,is_pause
5.991206884384155,-400000.0625,-882.2000122070312,4472.830078125,-400000.0625,-1729.6800537109375,-400000.0625,5619.10009765625,-400000.0625
timestamp,ch7,ch2,ch3,ch5,is_pause
5.998236417770386,-400000.0625,-876.239990234375,4480.41015625,-400000.0625,-1720.47998046875,-400000.0625,5627.2001953125,-400000.0625
6.003910779953003,-400000.0625,-872.469970703125,4482.4599609375,-400000.0625,-1720.3800048828125,-400000.0625,5629.2099609375,-400000.0625
timestamp,ch7,ch2,ch3,ch5,is_pause
6.01282262802124,-400000.0625,-885.4400024414062,4473.64013671875,-400000.0625,-1724.1500244140625,-400000.0625,5619.10009765625,-400000.0625
timestamp,ch7,ch2,ch3,ch5,is_pause
6.0235583782196045,-400000.0625,-885.25,4471.72998046875,-400000.0625,-1729.5400390625,-400000.0625,5616.240234375,-400000.0625
timestamp,ch7,ch2,ch3,ch5,is_pause
6.030133485794067,-400000.0625,-882.9099731445312,4473.39990234375,-400000.0625,-1727.0999755859375,-400000.0625,5621.2001953125,-400000.0625
6.036051511764526,-400000.0625,-875.760009765625,4483.89013671875,-400000.0625,-1713.56005859375,-400000.0625,5627.68017578125,-400000.0625
timestamp,ch7,ch2,ch3,ch5,is_pause
6.048794984817505,-400000.0625,-878.760009765625,4484.080078125,-400000.0625,-1715.7099609375,-400000.0625,5628.72998046875,-400000.0625
timestamp,ch7,ch2,ch3,ch5,is_pause
6.056401014328003,-400000.0625,-886.8200073242188,4475.35986328125,-400000.0625,-1723.18994140625,-400000.0625,5619.10009765625,-400000.0625
6.062572956085205,-400000.0625,-879.0499877929688,4474.06982421875,-400000.0625,-1723.3900146484375,-400000.0625,5612.7998046875,-400000.0625
timestamp,ch7,ch2,ch3,ch5,is_pause
6.069799423217773,-400000.0625,-868.1799926757812,4481.31982421875,-400000.0625,-1718.7099609375,-400000.0625,5613.3798828125,-400000.0625
timestamp,ch7,ch2,ch3,ch5,is_pause
6.079680919647217,-400000.0625,-868.510009765625,4492.18994140625,-400000.0625,-1718.469970703125,-400000.0625,5634.8798828125,-400000.0625
timestamp,ch7,ch2,ch3,ch5,is_pause
6.094072341918945,-400000.0625,-863.8900146484375,4484.1298828125,-400000.0625,-1727.5799560546875,-400000.0625,5644.7998046875,-400000.0625
timestamp,ch7,ch2,ch3,ch5,is_pause
6.100814580917358,-400000.0625,-861.3599853515625,4473.68994140625,-400000.0625,-1736.739990234375,-400000.0625,5644.22998046875,-400000.0625
6.107650995254517,-400000.0625,-848.8699951171875,4475.8798828125,-400000.0625,-1741.5999755859375,-400000.0625,5649.52001953125,-400000.0625
timestamp,ch7,ch2,ch3,ch5,is_pause
6.1202616691589355,-400000.0625,-827.4600219726562,4486.75,-400000.0625,-1741.5,-400000.0625,5663.68017578125,-400000.0625
timestamp,ch7,ch2,ch3,ch5,is_pause
6.128760576248169,-400000.0625,-801.0900268554688,4497.580078125,-400000.0625,-1745.4100341796875,-400000.0625,5688.0,-400000.0625
6.134909391403198,-400000.0625,-783.4000244140625,4502.580078125,-400000.0625,-1742.7900390625,-400000.0625,5699.58984375,-400000.0625
timestamp,ch7,ch2,ch3,ch5,is_pause
6.144006252288818,-400000.0625,-774.3800048828125,4502.68017578125,-400000.0625,-1750.469970703125,-400000.0625,5695.06005859375,-400000.0625
timestamp,ch7,ch2,ch3,ch5,is_pause
6.151519060134888,-400000.0625,-770.1900024414062,4503.16015625,-400000.0625,-1757.77001953125,-400000.0625,5697.35009765625,-400000.0625
6.158700227737427,-400000.0625,-758.7899780273438,4510.16015625,-400000.0625,-1754.469970703125,-400000.0625,5708.169921875,-400000.0625
timestamp,ch7,ch2,ch3,ch5,is_pause
6.167010545730591,-400000.0625,-739.47998046875,4526.81005859375,-400000.0625,-1743.3599853515625,-400000.0625,5718.14013671875,-400000.0625
timestamp,ch7,ch2,ch3,ch5,is_pause
6.1755430698394775,-400000.0625,-742.9600219726562,4527.759765625,-400000.0625,-1743.1700439453125,-400000.0625,5725.0498046875,-400000.0625
6.1846230030059814,-400000.0625,-748.9199829101562,4521.89013671875,-400000.0625,-1745.6099853515625,-400000.0625,5716.93994140625,-400000.0625
timestamp,ch7,ch2,ch3,ch5,is_pause
timestamp,ch7,ch2,ch3,ch5,is_pause
6.1990251541137695,-400000.0625,-747.010009765625,4522.27978515625,-400000.0625,-1744.1800537109375,-400000.0625,5711.83984375,-400000.0625
6.205090761184692,-400000.0625,-736.5700073242188,4528.81005859375,-400000.0625,-1738.02001953125,-400000.0625,5718.18017578125,-400000.0625
timestamp,ch7,ch2,ch3,ch5,is_pause
6.216428995132446,-400000.0625,-719.6900024414062,4543.919921875,-400000.0625,-1735.1199951171875,-400000.0625,5732.68017578125,-400000.0625
timestamp,ch7,ch2,ch3,ch5,is_pause
6.225198030471802,-400000.0625,-723.219970703125,4543.72998046875,-400000.0625,-1734.780029296875,-400000.0625,5730.52978515625,-400000.0625
6.231143474578857,-400000.0625,-744.0599975585938,4525.85009765625,-400000.0625,-1739.31005859375,-400000.0625,5721.0498046875,-400000.0625
timestamp,ch7,ch2,ch3,ch5,is_pause
6.239080190658569,-400000.0625,-752.3099975585938,4521.93994140625,-400000.0625,-1747.6600341796875,-400000.0625,5711.509765625,-400000.0625
timestamp,ch7,ch2,ch3,ch5,is_pause
6.248794317245483,-400000.0625,-748.010009765625,4525.9501953125,-400000.0625,-1754.3299560546875,-400000.0625,5710.93994140625,-400000.0625
6.254964828491211,-400000.0625,-742.0499877929688,4534.0498046875,-400000.0625,-1738.97998046875,-400000.0625,5719.47021484375,-400000.0625
timestamp,ch7,ch2,ch3,ch5,is_pause
6.261581897735596,-400000.0625,-738.9099731445312,4536.2998046875,-400000.0625,-1730.43994140625,-400000.0625,5720.0400390625,-400000.0625
6.2674620151519775,-400000.0625,-748.780029296875,4524.759765625,-400000.0625,-1746.8499755859375,-400000.0625,5709.080078125,-400000.0625
timestamp,ch7,ch2,ch3,ch5,is_pause
6.2762744426727295,-400000.0625,-754.9299926757812,4524.52001953125,-400000.0625,-1749.6099853515625,-400000.0625,5707.169921875,-400000.0625
timestamp,ch7,ch2,ch3,ch5,is_pause
6.2853264808654785,-400000.0625,-748.6799926757812,4530.10009765625,-400000.0625,-1743.3599853515625,-400000.0625,5712.60986328125,-400000.0625
timestamp,ch7,ch2,ch3,ch5,is_pause
6.299254894256592,-400000.0625,-743.4400024414062,4536.10009765625,-400000.0625,-1740.4100341796875,-400000.0625,5721.47021484375,-400000.0625
timestamp,ch7,ch2,ch3,ch5,is_pause
6.306222677230835,-400000.0625,-734.0900268554688,4546.169921875,-400000.0625,-1732.5899658203125,-400000.0625,5726.72021484375,-400000.0625
timestamp,ch7,ch2,ch3,ch5,is_pause
6.3161866664886475,-400000.0625,-736.760009765625,4543.5,-400000.0625,-1742.1700439453125,-400000.0625,5725.3798828125,-400000.0625
6.323139667510986,-400000.0625,-736.9500122070312,4540.39990234375,-400000.0625,-1742.0799560546875,-400000.0625,5718.22998046875,-400000.0625
timestamp,ch7,ch2,ch3,ch5,is_pause
6.330150365829468,-400000.0625,-738.5700073242188,4545.5,-400000.0625,-1732.8699951171875,-400000.0625,5719.9501953125,-400000.0625
6.335714340209961,-400000.0625,-736.8099975585938,4548.1201171875,-400000.0625,-1743.4100341796875,-400000.0625,5724.56982421875,-400000.0625
timestamp,ch7,ch2,ch3,ch5,is_pause
6.3442888259887695,-400000.0625,-738.1400146484375,4546.35986328125,-400000.0625,-1738.8800048828125,-400000.0625,5721.27978515625,-400000.0625
timestamp,ch7,ch2,ch3,ch5,is_pause
6.3537774085998535,-400000.0625,-740.9099731445312,4546.06982421875,-400000.0625,-1737.4000244140625,-400000.0625,5717.08984375,-400000.0625
timestamp,ch7,ch2,ch3,ch5,is_pause
6.361945390701294,-400000.0625,-745.489990234375,4541.2099609375,-400000.0625,-1748.22998046875,-400000.0625,5716.0400390625,-400000.0625
6.369558572769165,-400000.0625,-737.9500122070312,4549.35986328125,-400000.0625,-1738.1700439453125,-400000.0625,5719.47021484375,-400000.0625
timestamp,ch7,ch2,ch3,ch5,is_pause
6.380674600601196,-400000.0625,-728.510009765625,4559.22998046875,-400000.0625,-1727.719970703125,-400000.0625,5731.72998046875,-400000.0625
timestamp,ch7,ch2,ch3,ch5,is_pause
6.387689828872681,-400000.0625,-730.9400024414062,4555.3701171875,-400000.0625,-1736.02001953125,-400000.0625,5729.06005859375,-400000.0625
timestamp,ch7,ch2,ch3,ch5,is_pause
6.401226997375488,-400000.0625,-740.0499877929688,4548.22021484375,-400000.0625,-1736.1199951171875,-400000.0625,5721.14013671875,-400000.0625
timestamp,ch7,ch2,ch3,ch5,is_pause
6.411575555801392,-400000.0625,-745.010009765625,4544.06982421875,-400000.0625,-1733.9200439453125,-400000.0625,5718.56982421875,-400000.0625
timestamp,ch7,ch2,ch3,ch5,is_pause
6.4200356006622314,-400000.0625,-739.2899780273438,4545.97998046875,-400000.0625,-1733.300048828125,-400000.0625,5721.14013671875,-400000.0625
6.426441192626953,-400000.0625,-729.1799926757812,4554.02978515625,-400000.0625,-1730.489990234375,-400000.0625,5733.5400390625,-400000.0625
timestamp,ch7,ch2,ch3,ch5,is_pause
6.433199644088745,-400000.0625,-737.3300170898438,4550.35986328125,-400000.0625,-1735.1199951171875,-400000.0625,5727.580078125,-400000.0625
6.4401514530181885,-400000.0625,-746.489990234375,4544.5400390625,-400000.0625,-1742.3599853515625,-400000.0625,5714.7998046875,-400000.0625
timestamp,ch7,ch2,ch3,ch5,is_pause
6.449768781661987,-400000.0625,-749.4500122070312,4541.77978515625,-400000.0625,-1740.8800048828125,-400000.0625,5710.080078125,-400000.0625
timestamp,ch7,ch2,ch3,ch5,is_pause
6.456914901733398,-400000.0625,-745.72998046875,4541.06005859375,-400000.0625,-1746.3699951171875,-400000.0625,5711.22021484375,-400000.0625
6.462935447692871,-400000.0625,-742.5800170898438,4548.1201171875,-400000.0625,-1740.4100341796875,-400000.0625,5724.0,-400000.0625
timestamp,ch7,ch2,ch3,ch5,is_pause
6.469343185424805,-400000.0625,-731.52001953125,4557.75,-400000.0625,-1730.3900146484375,-400000.0625,5730.06005859375,-400000.0625
timestamp,ch7,ch2,ch3,ch5,is_pause
6.4809887409210205,-400000.0625,-739.2899780273438,4552.509765625,-400000.0625,-1732.6800537109375,-400000.0625,5722.08984375,-400000.0625
timestamp,ch7,ch2,ch3,ch5,is_pause
6.489626169204712,-400000.0625,-748.2100219726562,4544.02001953125,-400000.0625,-1744.3699951171875,-400000.0625,5709.7001953125,-400000.0625
timestamp,ch7,ch2,ch3,ch5,is_pause
6.502134561538696,-400000.0625,-744.0599975585938,4545.740234375,-400000.0625,-1740.7900390625,-400000.0625,5711.31982421875,-400000.0625
6.509517431259155,-400000.0625,-744.8200073242188,4549.06982421875,-400000.0625,-1739.550048828125,-400000.0625,5711.509765625,-400000.0625
timestamp,ch7,ch2,ch3,ch5,is_pause
6.5181803703308105,-400000.0625,-742.239990234375,4548.7900390625,-400000.0625,-1736.6400146484375,-400000.0625,5711.60009765625,-400000.0625
timestamp,ch7,ch2,ch3,ch5,is_pause
6.525583505630493,-400000.0625,-745.3900146484375,4545.2099609375,-400000.0625,-1737.2099609375,-400000.0625,5706.83984375,-400000.0625
6.531351804733276,-400000.0625,-747.3900146484375,4543.06982421875,-400000.0625,-1738.8800048828125,-400000.0625,5712.83984375,-400000.0625
timestamp,ch7,ch2,ch3,ch5,is_pause
6.538473606109619,-400000.0625,-748.72998046875,4543.06982421875,-400000.0625,-1741.4599609375,-400000.0625,5716.52001953125,-400000.0625
timestamp,ch7,ch2,ch3,ch5,is_pause
6.547224760055542,-400000.0625,-743.4400024414062,4547.06982421875,-400000.0625,-1741.3599853515625,-400000.0625,5718.60986328125,-400000.0625
6.554035186767578,-400000.0625,-741.77001953125,4546.60009765625,-400000.0625,-1742.219970703125,-400000.0625,5722.0498046875,-400000.0625
timestamp,ch7,ch2,ch3,ch5,is_pause
6.56089448928833,-400000.0625,-749.72998046875,4540.490234375,-400000.0625,-1746.4200439453125,-400000.0625,5717.7998046875,-400000.0625
6.568575620651245,-400000.0625,-749.5399780273438,4539.919921875,-400000.0625,-1751.9000244140625,-400000.0625,5715.1298828125,-400000.0625
timestamp,ch7,ch2,ch3,ch5,is_pause
6.579612731933594,-400000.0625,-744.8200073242188,4543.919921875,-400000.0625,-1745.1800537109375,-400000.0625,5717.08984375,-400000.0625
timestamp,ch7,ch2,ch3,ch5,is_pause
6.587160587310791,-400000.0625,-741.8200073242188,4544.64013671875,-400000.0625,-1737.550048828125,-400000.0625,5721.7099609375,-400000.0625
timestamp,ch7,ch2,ch3,ch5,is_pause
6.593940019607544,-400000.0625,-745.77001953125,4545.8798828125,-400000.0625,-1740.3599853515625,-400000.0625,5721.08984375,-400000.0625
timestamp,ch7,ch2,ch3,ch5,is_pause
6.610037565231323,-400000.0625,-751.8300170898438,4540.06005859375,-400000.0625,-1745.6500244140625,-400000.0625,5710.93994140625,-400000.0625
timestamp,ch7,ch2,ch3,ch5,is_pause
6.620407581329346,-400000.0625,-749.9199829101562,4541.77978515625,-400000.0625,-1741.27001953125,-400000.0625,5716.18017578125,-400000.0625
6.626628875732422,-400000.0625,-749.8699951171875,4543.02001953125,-400000.0625,-1740.27001953125,-400000.0625,5721.47021484375,-400000.0625
timestamp,ch7,ch2,ch3,ch5,is_pause
6.632815837860107,-400000.0625,-737.52001953125,4552.080078125,-400000.0625,-1740.030029296875,-400000.0625,5726.2900390625,-400000.0625
6.640083312988281,-400000.0625,-733.3300170898438,4554.990234375,-400000.0625,-1736.3599853515625,-400000.0625,5730.06005859375,-400000.0625
timestamp,ch7,ch2,ch3,ch5,is_pause
6.6513330936431885,-400000.0625,-745.4400024414062,4543.259765625,-400000.0625,-1733.72998046875,-400000.0625,5722.330078125,-400000.0625
timestamp,ch7,ch2,ch3,ch5,is_pause
6.66013503074646,-400000.0625,-753.3099975585938,4532.6201171875,-400000.0625,-1744.8399658203125,-400000.0625,5713.7998046875,-400000.0625
timestamp,ch7,ch2,ch3,ch5,is_pause
6.668150901794434,-400000.0625,-754.6900024414062,4531.33984375,-400000.0625,-1754.8599853515625,-400000.0625,5714.56005859375,-400000.0625
timestamp,ch7,ch2,ch3,ch5,is_pause
6.681472063064575,-400000.0625,-750.8300170898438,4536.10009765625,-400000.0625,-1743.6500244140625,-400000.0625,5715.7998046875,-400000.0625
6.689320802688599,-400000.0625,-753.4500122070312,4536.52978515625,-400000.0625,-1737.97998046875,-400000.0625,5716.990234375,-400000.0625
timestamp,ch7,ch2,ch3,ch5,is_pause
6.6975743770599365,-400000.0625,-756.6500244140625,4536.68017578125,-400000.0625,-1736.260009765625,-400000.0625,5711.89013671875,-400000.0625
timestamp,ch7,ch2,ch3,ch5,is_pause
timestamp,ch7,ch2,ch3,ch5,is_pause
6.715406894683838,-400000.0625,-747.8699951171875,4543.02001953125,-400000.0625,-1731.6800537109375,-400000.0625,5722.0498046875,-400000.0625
6.72265887260437,-400000.0625,-742.2899780273438,4547.5498046875,-400000.0625,-1726.199951171875,-400000.0625,5725.0498046875,-400000.0625
timestamp,ch7,ch2,ch3,ch5,is_pause
6.730262279510498,-400000.0625,-744.4400024414062,4548.83984375,-400000.0625,-1733.489990234375,-400000.0625,5720.330078125,-400000.0625
6.736515045166016,-400000.0625,-738.4299926757812,4551.35986328125,-400000.0625,-1735.8299560546875,-400000.0625,5721.6201171875,-400000.0625
timestamp,ch7,ch2,ch3,ch5,is_pause
timestamp,ch7,ch2,ch3,ch5,is_pause
6.752408981323242,-400000.0625,-741.0999755859375,4552.169921875,-400000.0625,-1732.06005859375,-400000.0625,5720.759765625,-400000.0625
6.760324001312256,-400000.0625,-748.5900268554688,4544.64013671875,-400000.0625,-1736.2099609375,-400000.0625,5713.509765625,-400000.0625
timestamp,ch7,ch2,ch3,ch5,is_pause
6.767394065856934,-400000.0625,-747.5900268554688,4542.72998046875,-400000.0625,-1735.0699462890625,-400000.0625,5717.22998046875,-400000.0625
timestamp,ch7,ch2,ch3,ch5,is_pause
6.778486967086792,-400000.0625,-744.010009765625,4546.2099609375,-400000.0625,-1730.010009765625,-400000.0625,5721.14013671875,-400000.0625
timestamp,ch7,ch2,ch3,ch5,is_pause
6.7885870933532715,-400000.0625,-749.6799926757812,4545.8798828125,-400000.0625,-1735.8800048828125,-400000.0625,5718.52001953125,-400000.0625
6.7957823276519775,-400000.0625,-756.219970703125,4542.2998046875,-400000.0625,-1737.4000244140625,-400000.0625,5717.52001953125,-400000.0625
timestamp,ch7,ch2,ch3,ch5,is_pause
6.802834749221802,-400000.0625,-750.780029296875,4542.02001953125,-400000.0625,-1733.72998046875,-400000.0625,5722.56982421875,-400000.0625
timestamp,ch7,ch2,ch3,ch5,is_pause
6.8212339878082275,-400000.0625,-740.719970703125,4545.64013671875,-400000.0625,-1735.02001953125,-400000.0625,5725.91015625,-400000.0625
timestamp,ch7,ch2,ch3,ch5,is_pause
6.830260276794434,-400000.0625,-741.47998046875,4544.93017578125,-400000.0625,-1732.4000244140625,-400000.0625,5722.85986328125,-400000.0625
timestamp,ch7,ch2,ch3,ch5,is_pause
6.83739161491394,-400000.0625,-746.1500244140625,4544.77978515625,-400000.0625,-1728.3399658203125,-400000.0625,5720.52001953125,-400000.0625
timestamp,ch7,ch2,ch3,ch5,is_pause
6.847487926483154,-400000.0625,-741.4299926757812,4549.41015625,-400000.0625,-1727.3399658203125,-400000.0625,5719.7099609375,-400000.0625
6.854435920715332,-400000.0625,-746.77001953125,4546.169921875,-400000.0625,-1727.719970703125,-400000.0625,5718.85009765625,-400000.0625
timestamp,ch7,ch2,ch3,ch5,is_pause
6.8618927001953125,-400000.0625,-757.5,4538.77978515625,-400000.0625,-1733.1099853515625,-400000.0625,5715.66015625,-400000.0625
6.8676910400390625,-400000.0625,-757.739990234375,4539.2998046875,-400000.0625,-1737.550048828125,-400000.0625,5716.7099609375,-400000.0625
timestamp,ch7,ch2,ch3,ch5,is_pause
6.87618350982666,-400000.0625,-751.4500122070312,4543.77978515625,-400000.0625,-1727.9200439453125,-400000.0625,5720.08984375,-400000.0625
timestamp,ch7,ch2,ch3,ch5,is_pause
6.885336875915527,-400000.0625,-748.5399780273438,4547.830078125,-400000.0625,-1730.489990234375,-400000.0625,5721.52001953125,-400000.0625
6.891624450683594,-400000.0625,-747.3900146484375,4546.93017578125,-400000.0625,-1731.2099609375,-400000.0625,5722.85986328125,-400000.0625
timestamp,ch7,ch2,ch3,ch5,is_pause
6.898349285125732,-400000.0625,-747.010009765625,4545.16015625,-400000.0625,-1735.31005859375,-400000.0625,5721.85986328125,-400000.0625
timestamp,ch7,ch2,ch3,ch5,is_pause
6.90571403503418,-400000.0625,-745.1099853515625,4547.68994140625,-400000.0625,-1734.3499755859375,-400000.0625,5721.81005859375,-400000.0625
timestamp,ch7,ch2,ch3,ch5,is_pause
6.922537565231323,-400000.0625,-744.25,4552.169921875,-400000.0625,-1735.0699462890625,-400000.0625,5724.240234375,-400000.0625
timestamp,ch7,ch2,ch3,ch5,is_pause
6.9307146072387695,-400000.0625,-748.2100219726562,4549.169921875,-400000.0625,-1733.1099853515625,-400000.0625,5723.18994140625,-400000.0625
6.936938285827637,-400000.0625,-750.8800048828125,4548.02978515625,-400000.0625,-1727.8699951171875,-400000.0625,5721.759765625,-400000.0625
timestamp,ch7,ch2,ch3,ch5,is_pause
timestamp,ch7,ch2,ch3,ch5,is_pause
6.952911376953125,-400000.0625,-754.0700073242188,4543.5,-400000.0625,-1730.969970703125,-400000.0625,5719.52001953125,-400000.0625
6.9605114459991455,-400000.0625,-748.4000244140625,4545.31005859375,-400000.0625,-1733.8299560546875,-400000.0625,5721.0,-400000.0625
timestamp,ch7,ch2,ch3,ch5,is_pause
6.967639446258545,-400000.0625,-749.0599975585938,4545.5,-400000.0625,-1736.449951171875,-400000.0625,5718.990234375,-400000.0625
6.974747896194458,-400000.0625,-749.8699951171875,4548.740234375,-400000.0625,-1728.9599609375,-400000.0625,5722.3798828125,-400000.0625
timestamp,ch7,ch2,ch3,ch5,is_pause
timestamp,ch7,ch2,ch3,ch5,is_pause
6.989105224609375,-400000.0625,-748.9199829101562,4547.93017578125,-400000.0625,-1729.3900146484375,-400000.0625,5718.0400390625,-400000.0625
timestamp,ch7,ch2,ch3,ch5,is_pause
6.999435663223267,-400000.0625,-742.47998046875,4552.169921875,-400000.0625,-1729.8699951171875,-400000.0625,5721.52001953125,-400000.0625
7.0068299770355225,-400000.0625,-749.4500122070312,4547.22021484375,-400000.0625,-1733.260009765625,-400000.0625,5712.64990234375,-400000.0625
timestamp,ch7,ch2,ch3,ch5,is_pause
timestamp,ch7,ch2,ch3,ch5,is_pause
7.026617050170898,-400000.0625,-752.8800048828125,4546.31005859375,-400000.0625,-1738.8299560546875,-400000.0625,5711.990234375,-400000.0625
timestamp,ch7,ch2,ch3,ch5,is_pause
7.0337138175964355,-400000.0625,-740.530029296875,4558.85009765625,-400000.0625,-1721.949951171875,-400000.0625,5726.9599609375,-400000.0625
7.041602611541748,-400000.0625,-732.6099853515625,4565.18994140625,-400000.0625,-1719.4300537109375,-400000.0625,5734.2998046875,-400000.0625
timestamp,ch7,ch2,ch3,ch5,is_pause
7.051590919494629,-400000.0625,-748.1099853515625,4551.35986328125,-400000.0625,-1734.5899658203125,-400000.0625,5719.3798828125,-400000.0625
timestamp,ch7,ch2,ch3,ch5,is_pause
7.0593883991241455,-400000.0625,-769.9500122070312,4527.27978515625,-400000.0625,-1752.5699462890625,-400000.0625,5693.10009765625,-400000.0625
7.065545082092285,-400000.0625,-767.0399780273438,4530.10009765625,-400000.0625,-1750.949951171875,-400000.0625,5695.77001953125,-400000.0625
timestamp,ch7,ch2,ch3,ch5,is_pause
7.073238372802734,-400000.0625,-732.6599731445312,4561.6201171875,-400000.0625,-1721.3800048828125,-400000.0625,5728.43994140625,-400000.0625
timestamp,ch7,ch2,ch3,ch5,is_pause
7.083140850067139,-400000.0625,-717.2100219726562,4576.10986328125,-400000.0625,-1698.6800537109375,-400000.0625,5743.89013671875,-400000.0625
7.090730428695679,-400000.0625,-745.3900146484375,4551.93994140625,-400000.0625,-1725.2900390625,-400000.0625,5715.89990234375,-400000.0625
timestamp,ch7,ch2,ch3,ch5,is_pause
7.098140478134155,-400000.0625,-775.3800048828125,4522.3701171875,-400000.0625,-1755.81005859375,-400000.0625,5686.18994140625,-400000.0625
timestamp,ch7,ch2,ch3,ch5,is_pause
7.105607509613037,-400000.0625,-769.9000244140625,4528.08984375,-400000.0625,-1748.0899658203125,-400000.0625,5692.2001953125,-400000.0625
timestamp,ch7,ch2,ch3,ch5,is_pause
7.118876218795776,-400000.0625,-735.1400146484375,4562.81005859375,-400000.0625,-1721.6700439453125,-400000.0625,5724.9599609375,-400000.0625
timestamp,ch7,ch2,ch3,ch5,is_pause
7.134516716003418,-400000.0625,-710.72998046875,4584.35986328125,-400000.0625,-1707.4100341796875,-400000.0625,5742.5,-400000.0625
7.141692876815796,-400000.0625,-728.27001953125,4565.0,-400000.0625,-1716.6600341796875,-400000.0625,5725.2900390625,-400000.0625
timestamp,ch7,ch2,ch3,ch5,is_pause
7.150918483734131,-400000.0625,-770.7100219726562,4526.419921875,-400000.0625,-1749.7099609375,-400000.0625,5691.43017578125,-400000.0625
timestamp,ch7,ch2,ch3,ch5,is_pause
7.159219264984131,-400000.0625,-770.4299926757812,4527.0,-400000.0625,-1753.6199951171875,-400000.0625,5689.91015625,-400000.0625
timestamp,ch7,ch2,ch3,ch5,is_pause
7.165935516357422,-400000.0625,-727.4600219726562,4571.33984375,-400000.0625,-1718.0400390625,-400000.0625,5729.25,-400000.0625
7.173037528991699,-400000.0625,-703.4299926757812,4595.3798828125,-400000.0625,-1695.72998046875,-400000.0625,5753.759765625,-400000.0625
timestamp,ch7,ch2,ch3,ch5,is_pause
7.182378768920898,-400000.0625,-730.3200073242188,4568.72021484375,-400000.0625,-1721.4300537109375,-400000.0625,5726.240234375,-400000.0625
7.188898086547852,-400000.0625,-768.4199829101562,4529.10009765625,-400000.0625,-1752.0,-400000.0625,5684.08984375,-400000.0625
timestamp,ch7,ch2,ch3,ch5,is_pause
7.195833444595337,-400000.0625,-768.1400146484375,4533.580078125,-400000.0625,-1747.1800537109375,-400000.0625,5689.759765625,-400000.0625
timestamp,ch7,ch2,ch3,ch5,is_pause
7.202047348022461,-400000.0625,-722.4600219726562,4579.02001953125,-400000.0625,-1709.27001953125,-400000.0625,5734.39990234375,-400000.0625
7.209140300750732,-400000.0625,-699.8499755859375,4599.669921875,-400000.0625,-1688.81005859375,-400000.0625,5748.83984375,-400000.0625
timestamp,ch7,ch2,ch3,ch5,is_pause
7.223000526428223,-400000.0625,-733.1799926757812,4565.669921875,-400000.0625,-1717.760009765625,-400000.0625,5718.14013671875,-400000.0625
timestamp,ch7,ch2,ch3,ch5,is_pause
7.239006042480469,-400000.0625,-772.52001953125,4526.08984375,-400000.0625,-1754.050048828125,-400000.0625,5685.9501953125,-400000.0625
timestamp,ch7,ch2,ch3,ch5,is_pause
7.2494118213653564,-400000.0625,-770.4299926757812,4529.14013671875,-400000.0625,-1756.6199951171875,-400000.0625,5686.14013671875,-400000.0625
timestamp,ch7,ch2,ch3,ch5,is_pause
7.2582268714904785,-400000.0625,-737.47998046875,4562.85986328125,-400000.0625,-1731.3499755859375,-400000.0625,5719.81005859375,-400000.0625
7.264358043670654,-400000.0625,-710.3900146484375,4590.7001953125,-400000.0625,-1701.8299560546875,-400000.0625,5747.83984375,-400000.0625
timestamp,ch7,ch2,ch3,ch5,is_pause
7.271852493286133,-400000.0625,-738.1900024414062,4560.56982421875,-400000.0625,-1723.1500244140625,-400000.0625,5712.89013671875,-400000.0625
timestamp,ch7,ch2,ch3,ch5,is_pause
7.2811057567596436,-400000.0625,-783.6799926757812,4515.89013671875,-400000.0625,-1764.6300048828125,-400000.0625,5674.60009765625,-400000.0625
7.287430047988892,-400000.0625,-776.8599853515625,4523.0400390625,-400000.0625,-1752.4200439453125,-400000.0625,5684.89990234375,-400000.0625
timestamp,ch7,ch2,ch3,ch5,is_pause
7.294249773025513,-400000.0625,-727.3699951171875,4567.9599609375,-400000.0625,-1710.1300048828125,-400000.0625,5731.14990234375,-400000.0625
7.300145387649536,-400000.0625,-707.0999755859375,4586.27001953125,-400000.0625,-1695.9200439453125,-400000.0625,5748.22021484375,-400000.0625
timestamp,ch7,ch2,ch3,ch5,is_pause
7.309587001800537,-400000.0625,-741.1500244140625,4557.31982421875,-400000.0625,-1722.2900390625,-400000.0625,5713.89013671875,-400000.0625
timestamp,ch7,ch2,ch3,ch5,is_pause
7.318815231323242,-400000.0625,-790.1699829101562,4511.31005859375,-400000.0625,-1767.6800537109375,-400000.0625,5669.5498046875,-400000.0625
timestamp,ch7,ch2,ch3,ch5,is_pause
7.326822280883789,-400000.0625,-788.1199951171875,4510.06982421875,-400000.0625,-1774.219970703125,-400000.0625,5670.5,-400000.0625
timestamp,ch7,ch2,ch3,ch5,is_pause
7.342407941818237,-400000.0625,-739.0499877929688,4562.89990234375,-400000.0625,-1716.22998046875,-400000.0625,5722.85986328125,-400000.0625
7.350264310836792,-400000.0625,-710.0599975585938,4591.18017578125,-400000.0625,-1688.239990234375,-400000.0625,5749.93994140625,-400000.0625
timestamp,ch7,ch2,ch3,ch5,is_pause
7.358172655105591,-400000.0625,-744.8699951171875,4553.89013671875,-400000.0625,-1727.6800537109375,-400000.0625,5714.1298828125,-400000.0625
timestamp,ch7,ch2,ch3,ch5,is_pause
7.364909887313843,-400000.0625,-792.6900024414062,4506.830078125,-400000.0625,-1771.5,-400000.0625,5671.97998046875,-400000.0625
7.370599031448364,-400000.0625,-782.969970703125,4517.56005859375,-400000.0625,-1762.8699951171875,-400000.0625,5679.7001953125,-400000.0625
timestamp,ch7,ch2,ch3,ch5,is_pause
7.383515119552612,-400000.0625,-731.469970703125,4569.43994140625,-400000.0625,-1710.8900146484375,-400000.0625,5730.77001953125,-400000.0625
timestamp,ch7,ch2,ch3,ch5,is_pause
7.391154766082764,-400000.0625,-711.6300048828125,4590.080078125,-400000.0625,-1691.8199462890625,-400000.0625,5752.9501953125,-400000.0625
timestamp,ch7,ch2,ch3,ch5,is_pause
7.398141622543335,-400000.0625,-748.9199829101562,4554.31982421875,-400000.0625,-1727.06005859375,-400000.0625,5715.47021484375,-400000.0625
7.404837369918823,-400000.0625,-791.6900024414062,4507.259765625,-400000.0625,-1763.199951171875,-400000.0625,5671.1201171875,-400000.0625
timestamp,ch7,ch2,ch3,ch5,is_pause
7.417851448059082,-400000.0625,-788.8300170898438,4510.68994140625,-400000.0625,-1764.300048828125,-400000.0625,5674.97998046875,-400000.0625
timestamp,ch7,ch2,ch3,ch5,is_pause
7.425539970397949,-400000.0625,-735.280029296875,4564.43017578125,-400000.0625,-1724.77001953125,-400000.0625,5723.85986328125,-400000.0625
timestamp,ch7,ch2,ch3,ch5,is_pause
7.432984828948975,-400000.0625,-710.1500244140625,4591.509765625,-400000.0625,-1695.199951171875,-400000.0625,5748.990234375,-400000.0625
timestamp,ch7,ch2,ch3,ch5,is_pause
7.4499921798706055,-400000.0625,-750.8800048828125,4550.5498046875,-400000.0625,-1731.6800537109375,-400000.0625,5707.5498046875,-400000.0625
timestamp,ch7,ch2,ch3,ch5,is_pause
7.459992408752441,-400000.0625,-798.27001953125,4502.9599609375,-400000.0625,-1773.4100341796875,-400000.0625,5664.2998046875,-400000.0625
timestamp,ch7,ch2,ch3,ch5,is_pause
7.467007875442505,-400000.0625,-779.0599975585938,4522.3701171875,-400000.0625,-1750.0899658203125,-400000.0625,5682.60986328125,-400000.0625
7.473844051361084,-400000.0625,-718.6400146484375,4579.97021484375,-400000.0625,-1707.5999755859375,-400000.0625,5742.83984375,-400000.0625
timestamp,ch7,ch2,ch3,ch5,is_pause
7.482519865036011,-400000.0625,-708.25,4591.22998046875,-400000.0625,-1694.3499755859375,-400000.0625,5752.330078125,-400000.0625
7.488872289657593,-400000.0625,-755.739990234375,4545.259765625,-400000.0625,-1724.6700439453125,-400000.0625,5703.8798828125,-400000.0625
timestamp,ch7,ch2,ch3,ch5,is_pause
7.496969223022461,-400000.0625,-796.3200073242188,4505.39990234375,-400000.0625,-1761.3900146484375,-400000.0625,5664.06005859375,-400000.0625
timestamp,ch7,ch2,ch3,ch5,is_pause
7.50349497795105,-400000.0625,-788.5,4510.31005859375,-400000.0625,-1759.0,-400000.0625,5676.7001953125,-400000.0625
7.51482629776001,-400000.0625,-734.760009765625,4566.56982421875,-400000.0625,-1713.800048828125,-400000.0625,5728.0498046875,-400000.0625
timestamp,ch7,ch2,ch3,ch5,is_pause
7.52248477935791,-400000.0625,-709.5800170898438,4588.41015625,-400000.0625,-1689.6199951171875,-400000.0625,5748.990234375,-400000.0625
7.528591156005859,-400000.0625,-752.780029296875,4544.35009765625,-400000.0625,-1731.43994140625,-400000.0625,5707.259765625,-400000.0625
timestamp,ch7,ch2,ch3,ch5,is_pause
7.535492658615112,-400000.0625,-789.5900268554688,4508.72998046875,-400000.0625,-1767.06005859375,-400000.0625,5671.02001953125,-400000.0625
timestamp,ch7,ch2,ch3,ch5,is_pause
timestamp,ch7,ch2,ch3,ch5,is_pause
7.557678461074829,-400000.0625,-776.1500244140625,4528.0,-400000.0625,-1754.81005859375,-400000.0625,5684.85009765625,-400000.0625
7.5642194747924805,-400000.0625,-725.97998046875,4575.6298828125,-400000.0625,-1710.219970703125,-400000.0625,5735.39990234375,-400000.0625
timestamp,ch7,ch2,ch3,ch5,is_pause
7.573773384094238,-400000.0625,-703.2899780273438,4596.3798828125,-400000.0625,-1686.9100341796875,-400000.0625,5757.7099609375,-400000.0625
timestamp,ch7,ch2,ch3,ch5,is_pause
7.583458423614502,-400000.0625,-745.6300048828125,4555.66015625,-400000.0625,-1725.719970703125,-400000.0625,5717.9501953125,-400000.0625
timestamp,ch7,ch2,ch3,ch5,is_pause
7.592267036437988,-400000.0625,-791.3099975585938,4511.06982421875,-400000.0625,-1769.1099853515625,-400000.0625,5673.5498046875,-400000.0625
7.599607706069946,-400000.0625,-789.1199951171875,4514.169921875,-400000.0625,-1759.239990234375,-400000.0625,5674.509765625,-400000.0625
timestamp,ch7,ch2,ch3,ch5,is_pause
7.607181787490845,-400000.0625,-747.780029296875,4555.0400390625,-400000.0625,-1719.469970703125,-400000.0625,5718.60986328125,-400000.0625
timestamp,ch7,ch2,ch3,ch5,is_pause
7.6172707080841064,-400000.0625,-721.260009765625,4582.02001953125,-400000.0625,-1706.8399658203125,-400000.0625,5742.60009765625,-400000.0625
7.624768018722534,-400000.0625,-757.030029296875,4550.509765625,-400000.0625,-1731.2099609375,-400000.0625,5710.60009765625,-400000.0625
timestamp,ch7,ch2,ch3,ch5,is_pause
7.633260488510132,-400000.0625,-800.510009765625,4508.06982421875,-400000.0625,-1766.1600341796875,-400000.0625,5666.16015625,-400000.0625
timestamp,ch7,ch2,ch3,ch5,is_pause
7.6422789096832275,-400000.0625,-787.8300170898438,4518.080078125,-400000.0625,-1756.0,-400000.0625,5673.5498046875,-400000.0625
timestamp,ch7,ch2,ch3,ch5,is_pause
7.658875942230225,-400000.0625,-740.3400268554688,4565.52978515625,-400000.0625,-1714.0400390625,-400000.0625,5722.9501953125,-400000.0625
timestamp,ch7,ch2,ch3,ch5,is_pause
timestamp,ch7,ch2,ch3,ch5,is_pause
7.677647113800049,-400000.0625,-714.02001953125,4589.7001953125,-400000.0625,-1698.1099853515625,-400000.0625,5747.22021484375,-400000.0625
7.685531854629517,-400000.0625,-755.6400146484375,4550.89013671875,-400000.0625,-1728.489990234375,-400000.0625,5711.22021484375,-400000.0625
timestamp,ch7,ch2,ch3,ch5,is_pause
7.694081783294678,-400000.0625,-800.1300048828125,4507.02001953125,-400000.0625,-1764.1500244140625,-400000.0625,5666.68994140625,-400000.0625
timestamp,ch7,ch2,ch3,ch5,is_pause
7.701860666275024,-400000.0625,-789.02001953125,4519.64990234375,-400000.0625,-1753.8499755859375,-400000.0625,5674.740234375,-400000.0625
timestamp,ch7,ch2,ch3,ch5,is_pause
7.7148356437683105,-400000.0625,-741.6199951171875,4563.3798828125,-400000.0625,-1709.8900146484375,-400000.0625,5721.43017578125,-400000.0625
timestamp,ch7,ch2,ch3,ch5,is_pause
7.722641468048096,-400000.0625,-728.22998046875,4576.68017578125,-400000.0625,-1698.1099853515625,-400000.0625,5738.5,-400000.0625
7.729382753372192,-400000.0625,-770.0399780273438,4535.9599609375,-400000.0625,-1733.260009765625,-400000.0625,5698.2998046875,-400000.0625
timestamp,ch7,ch2,ch3,ch5,is_pause
7.736138820648193,-400000.0625,-801.22998046875,4503.919921875,-400000.0625,-1762.43994140625,-400000.0625,5664.39990234375,-400000.0625
timestamp,ch7,ch2,ch3,ch5,is_pause
7.7479636669158936,-400000.0625,-788.6400146484375,4514.89013671875,-400000.0625,-1748.510009765625,-400000.0625,5677.22021484375,-400000.0625
timestamp,ch7,ch2,ch3,ch5,is_pause
7.765346050262451,-400000.0625,-743.6300048828125,4559.52001953125,-400000.0625,-1710.1300048828125,-400000.0625,5720.66015625,-400000.0625
timestamp,ch7,ch2,ch3,ch5,is_pause
7.774954080581665,-400000.0625,-724.4600219726562,4574.77978515625,-400000.0625,-1695.25,-400000.0625,5735.4501953125,-400000.0625
timestamp,ch7,ch2,ch3,ch5,is_pause
7.786747217178345,-400000.0625,-768.8499755859375,4531.0498046875,-400000.0625,-1739.4100341796875,-400000.0625,5696.14990234375,-400000.0625
timestamp,ch7,ch2,ch3,ch5,is_pause
7.794551610946655,-400000.0625,-813.2899780273438,4495.33984375,-400000.0625,-1772.1700439453125,-400000.0625,5655.18994140625,-400000.0625
7.801023244857788,-400000.0625,-796.9400024414062,4511.830078125,-400000.0625,-1756.81005859375,-400000.0625,5670.60009765625,-400000.0625
timestamp,ch7,ch2,ch3,ch5,is_pause
7.812499046325684,-400000.0625,-746.8699951171875,4559.18017578125,-400000.0625,-1709.75,-400000.0625,5721.3798828125,-400000.0625
timestamp,ch7,ch2,ch3,ch5,is_pause
7.823631048202515,-400000.0625,-720.260009765625,4584.27001953125,-400000.0625,-1684.050048828125,-400000.0625,5744.97998046875,-400000.0625
7.830910682678223,-400000.0625,-760.7899780273438,4542.58984375,-400000.0625,-1719.18994140625,-400000.0625,5705.39990234375,-400000.0625
timestamp,ch7,ch2,ch3,ch5,is_pause
7.840070009231567,-400000.0625,-813.0999755859375,4493.18994140625,-400000.0625,-1766.780029296875,-400000.0625,5654.240234375,-400000.0625
timestamp,ch7,ch2,ch3,ch5,is_pause
7.85059380531311,-400000.0625,-806.8099975585938,4500.06005859375,-400000.0625,-1762.199951171875,-400000.0625,5660.490234375,-400000.0625
timestamp,ch7,ch2,ch3,ch5,is_pause
7.866575479507446,-400000.0625,-749.72998046875,4554.02978515625,-400000.0625,-1710.3699951171875,-400000.0625,5712.89013671875,-400000.0625
timestamp,ch7,ch2,ch3,ch5,is_pause
7.875495910644531,-400000.0625,-723.7899780273438,4579.4501953125,-400000.0625,-1687.050048828125,-400000.0625,5741.31005859375,-400000.0625
timestamp,ch7,ch2,ch3,ch5,is_pause
7.884429454803467,-400000.0625,-767.7999877929688,4536.2998046875,-400000.0625,-1728.010009765625,-400000.0625,5699.2998046875,-400000.0625
timestamp,ch7,ch2,ch3,ch5,is_pause
7.891963958740234,-400000.0625,-810.719970703125,4495.14013671875,-400000.0625,-1765.3499755859375,-400000.0625,5656.85986328125,-400000.0625
7.899108171463013,-400000.0625,-789.02001953125,4515.169921875,-400000.0625,-1747.93994140625,-400000.0625,5675.4599609375,-400000.0625
timestamp,ch7,ch2,ch3,ch5,is_pause
7.907992362976074,-400000.0625,-733.3800048828125,4569.33984375,-400000.0625,-1702.02001953125,-400000.0625,5727.43017578125,-400000.0625
timestamp,ch7,ch2,ch3,ch5,is_pause
7.917989253997803,-400000.0625,-715.4500122070312,4590.7001953125,-400000.0625,-1684.3800048828125,-400000.0625,5750.3701171875,-400000.0625
7.925007104873657,-400000.0625,-756.4500122070312,4550.509765625,-400000.0625,-1718.0899658203125,-400000.0625,5709.080078125,-400000.0625
timestamp,ch7,ch2,ch3,ch5,is_pause
7.933243036270142,-400000.0625,-804.5700073242188,4504.16015625,-400000.0625,-1760.2900390625,-400000.0625,5662.490234375,-400000.0625
timestamp,ch7,ch2,ch3,ch5,is_pause
7.942031621932983,-400000.0625,-789.8800048828125,4518.89013671875,-400000.0625,-1751.8499755859375,-400000.0625,5678.1298828125,-400000.0625
timestamp,ch7,ch2,ch3,ch5,is_pause
7.951065540313721,-400000.0625,-736.52001953125,4575.2998046875,-400000.0625,-1705.1199951171875,-400000.0625,5732.009765625,-400000.0625
timestamp,ch7,ch2,ch3,ch5,is_pause
7.966296911239624,-400000.0625,-714.5900268554688,4595.3798828125,-400000.0625,-1687.2900390625,-400000.0625,5749.419921875,-400000.0625
timestamp,ch7,ch2,ch3,ch5,is_pause
7.9781694412231445,-400000.0625,-756.219970703125,4552.31982421875,-400000.0625,-1720.81005859375,-400000.0625,5706.02001953125,-400000.0625
timestamp,ch7,ch2,ch3,ch5,is_pause
7.988549470901489,-400000.0625,-819.489990234375,4495.6201171875,-400000.0625,-1765.6800537109375,-400000.0625,5650.14013671875,-400000.0625
timestamp,ch7,ch2,ch3,ch5,is_pause
7.999912738800049,-400000.0625,-805.8099975585938,4508.259765625,-400000.0625,-1750.469970703125,-400000.0625,5661.8701171875,-400000.0625
8.00761604309082,-400000.0625,-740.3900146484375,4572.43994140625,-400000.0625,-1698.02001953125,-400000.0625,5723.759765625,-400000.0625
timestamp,ch7,ch2,ch3,ch5,is_pause
8.018233299255371,-400000.0625,-708.9099731445312,4603.2900390625,-400000.0625,-1671.8399658203125,-400000.0625,5753.18017578125,-400000.0625
timestamp,ch7,ch2,ch3,ch5,is_pause
8.029818296432495,-400000.0625,-751.0700073242188,4558.27978515625,-400000.0625,-1714.56005859375,-400000.0625,5705.35986328125,-400000.0625
timestamp,ch7,ch2,ch3,ch5,is_pause
8.037245512008667,-400000.0625,-804.469970703125,4508.68994140625,-400000.0625,-1754.3299560546875,-400000.0625,5653.52978515625,-400000.0625
8.044975996017456,-400000.0625,-794.4099731445312,4524.14013671875,-400000.0625,-1747.1300048828125,-400000.0625,5667.77978515625,-400000.0625
timestamp,ch7,ch2,ch3,ch5,is_pause
8.055274724960327,-400000.0625,-725.030029296875,4588.64990234375,-400000.0625,-1688.5799560546875,-400000.0625,5733.16015625,-400000.0625
timestamp,ch7,ch2,ch3,ch5,is_pause
8.069374322891235,-400000.0625,-715.2999877929688,4602.10009765625,-400000.0625,-1673.56005859375,-400000.0625,5750.7998046875,-400000.0625
timestamp,ch7,ch2,ch3,ch5,is_pause
8.08113431930542,-400000.0625,-771.9500122070312,4547.06982421875,-400000.0625,-1719.280029296875,-400000.0625,5693.25,-400000.0625
timestamp,ch7,ch2,ch3,ch5,is_pause
8.089112758636475,-400000.0625,-821.2999877929688,4494.18994140625,-400000.0625,-1768.2099609375,-400000.0625,5637.5,-400000.0625
timestamp,ch7,ch2,ch3,ch5,is_pause
8.09667706489563,-400000.0625,-802.7100219726562,4510.8798828125,-400000.0625,-1750.989990234375,-400000.0625,5656.77001953125,-400000.0625
8.10251235961914,-400000.0625,-735.4299926757812,4576.39990234375,-400000.0625,-1692.8199462890625,-400000.0625,5721.85986328125,-400000.0625
timestamp,ch7,ch2,ch3,ch5,is_pause
8.110868692398071,-400000.0625,-717.8300170898438,4596.759765625,-400000.0625,-1676.0799560546875,-400000.0625,5747.02978515625,-400000.0625
timestamp,ch7,ch2,ch3,ch5,is_pause
8.122603416442871,-400000.0625,-769.52001953125,4544.830078125,-400000.0625,-1719.1400146484375,-400000.0625,5692.43017578125,-400000.0625
timestamp,ch7,ch2,ch3,ch5,is_pause
8.130743265151978,-400000.0625,-819.0599975585938,4496.6201171875,-400000.0625,-1760.8599853515625,-400000.0625,5641.169921875,-400000.0625
8.137972116470337,-400000.0625,-801.7100219726562,4511.60009765625,-400000.0625,-1748.4200439453125,-400000.0625,5654.52978515625,-400000.0625
timestamp,ch7,ch2,ch3,ch5,is_pause
8.151096105575562,-400000.0625,-735.0900268554688,4579.1201171875,-400000.0625,-1689.050048828125,-400000.0625,5724.6201171875,-400000.0625
timestamp,ch7,ch2,ch3,ch5,is_pause
8.159175157546997,-400000.0625,-718.0700073242188,4598.759765625,-400000.0625,-1671.0799560546875,-400000.0625,5746.4599609375,-400000.0625
timestamp,ch7,ch2,ch3,ch5,is_pause
8.175858974456787,-400000.0625,-772.9099731445312,4542.8798828125,-400000.0625,-1727.300048828125,-400000.0625,5688.85986328125,-400000.0625
timestamp,ch7,ch2,ch3,ch5,is_pause
8.184595823287964,-400000.0625,-829.7899780273438,4487.22998046875,-400000.0625,-1774.8399658203125,-400000.0625,5631.02001953125,-400000.0625
timestamp,ch7,ch2,ch3,ch5,is_pause
8.192317247390747,-400000.0625,-816.5399780273438,4501.77001953125,-400000.0625,-1756.949951171875,-400000.0625,5647.22998046875,-400000.0625
8.201355457305908,-400000.0625,-746.77001953125,4569.669921875,-400000.0625,-1697.489990234375,-400000.0625,5717.66015625,-400000.0625
timestamp,ch7,ch2,ch3,ch5,is_pause
8.211403846740723,-400000.0625,-720.1699829101562,4596.27978515625,-400000.0625,-1675.8399658203125,-400000.0625,5746.27001953125,-400000.0625
timestamp,ch7,ch2,ch3,ch5,is_pause
8.222433805465698,-400000.0625,-776.0,4543.2099609375,-400000.0625,-1719.6700439453125,-400000.0625,5689.56982421875,-400000.0625
8.228873014450073,-400000.0625,-831.1699829101562,4488.52001953125,-400000.0625,-1765.1600341796875,-400000.0625,5636.60009765625,-400000.0625
timestamp,ch7,ch2,ch3,ch5,is_pause
8.236136198043823,-400000.0625,-810.3400268554688,4508.259765625,-400000.0625,-1747.6600341796875,-400000.0625,5658.580078125,-400000.0625
timestamp,ch7,ch2,ch3,ch5,is_pause
8.246384382247925,-400000.0625,-742.239990234375,4577.39990234375,-400000.0625,-1694.72998046875,-400000.0625,5724.10009765625,-400000.0625
timestamp,ch7,ch2,ch3,ch5,is_pause
