time,ch1,ch2,ch3,ch4,ch5,ch6,ch7,ch8
0.06795167922973633,-6668.0400390625,-17865.23046875,169.22999572753906,-400000.0625,-3975.530029296875,-400000.0625,-400000.0625,-400000.0625
0.06807160377502441,-6686.16015625,-17882.5390625,153.4499969482422,-400000.0625,-3994.27001953125,-400000.0625,-400000.0625,-400000.0625
0.06808018684387207,-6628.18017578125,-17825.939453125,198.0800018310547,-400000.0625,-3951.97998046875,-400000.0625,-400000.0625,-400000.0625
0.0680851936340332,-6572.490234375,-17765.7109375,243.57000732421875,-400000.0625,-3906.110107421875,-400000.0625,-400000.0625,-400000.0625
0.06808900833129883,-6599.0,-17788.509765625,228.36000061035156,-400000.0625,-3920.840087890625,-400000.0625,-400000.0625,-400000.0625
0.06809306144714355,-6665.18017578125,-17860.83984375,175.19000244140625,-400000.0625,-3976.8701171875,-400000.0625,-400000.0625,-400000.0625
0.06809663772583008,-6683.8701171875,-17883.970703125,157.25999450683594,-400000.0625,-3995.93994140625,-400000.0625,-400000.0625,-400000.0625
0.0680999755859375,-6627.47021484375,-17826.4609375,201.94000244140625,-400000.0625,-3953.889892578125,-400000.0625,-400000.0625,-400000.0625
0.06810355186462402,-6572.77001953125,-17774.150390625,245.13999938964844,-400000.0625,-3910.8798828125,-400000.0625,-400000.0625,-400000.0625
0.06810736656188965,-6593.7998046875,-17796.759765625,230.41000366210938,-400000.0625,-3924.3701171875,-400000.0625,-400000.0625,-400000.0625
0.06811094284057617,-6666.47021484375,-17868.330078125,177.10000610351562,-400000.0625,-3976.25,-400000.0625,-400000.0625,-400000.0625
0.0681145191192627,-6685.39990234375,-17889.55078125,163.94000244140625,-400000.0625,-3992.179931640625,-400000.0625,-400000.0625,-400000.0625
0.06811809539794922,-6627.75,-17829.609375,206.75999450683594,-400000.0625,-3948.590087890625,-400000.0625,-400000.0625,-400000.0625
0.06812143325805664,-6577.72998046875,-17775.919921875,248.10000610351562,-400000.0625,-3901.199951171875,-400000.0625,-400000.0625,-400000.0625
0.06812500953674316,-6600.759765625,-17799.5703125,231.22000122070312,-400000.0625,-3913.159912109375,-400000.0625,-400000.0625,-400000.0625
0.0681302547454834,-6668.9501953125,-17870.48046875,176.57000732421875,-400000.0625,-3968.139892578125,-400000.0625,-400000.0625,-400000.0625
0.11673927307128906,-6687.259765625,-17893.26953125,164.41000366210938,-400000.0625,-3989.550048828125,-400000.0625,-400000.0625,-400000.0625
0.11685681343078613,-6631.52001953125,-17835.140625,207.13999938964844,-400000.0625,-3953.1201171875,-400000.0625,-400000.0625,-400000.0625
0.11686253547668457,-6577.68017578125,-17773.919921875,251.77000427246094,-400000.0625,-3909.06005859375,-400000.0625,-400000.0625,-400000.0625
0.1168663501739502,-6602.72021484375,-17801.330078125,231.36000061035156,-400000.0625,-3926.610107421875,-400000.0625,-400000.0625,-400000.0625
0.11687016487121582,-6672.18994140625,-17874.05078125,174.9499969482422,-400000.0625,-3974.580078125,-400000.0625,-400000.0625,-400000.0625
0.12177062034606934,-6686.68994140625,-17887.7890625,167.50999450683594,-400000.0625,-3986.929931640625,-400000.0625,-400000.0625,-400000.0625
0.12184572219848633,-6630.3701171875,-17833.0,208.27999877929688,-400000.0625,-3951.739990234375,-400000.0625,-400000.0625,-400000.0625
0.12185525894165039,-6576.35009765625,-17775.439453125,254.05999755859375,-400000.0625,-3901.10009765625,-400000.0625,-400000.0625,-400000.0625
0.12186336517333984,-6602.240234375,-17795.140625,237.66000366210938,-400000.0625,-3912.39990234375,-400000.0625,-400000.0625,-400000.0625
0.1218726634979248,-6672.43017578125,-17872.2890625,179.1999969482422,-400000.0625,-3970.18994140625,-400000.0625,-400000.0625,-400000.0625
0.12188029289245605,-6690.4599609375,-17889.359375,166.17999267578125,-400000.0625,-3987.68994140625,-400000.0625,-400000.0625,-400000.0625
0.1218879222869873,-6631.22998046875,-17828.75,214.0500030517578,-400000.0625,-3948.739990234375,-400000.0625,-400000.0625,-400000.0625
0.12192416191101074,-6579.97021484375,-17773.25,255.6300048828125,-400000.0625,-3903.389892578125,-400000.0625,-400000.0625,-400000.0625
0.12195563316345215,-6600.7099609375,-17799.810546875,235.27000427246094,-400000.0625,-3918.4599609375,-400000.0625,-400000.0625,-400000.0625
0.12196040153503418,-6669.3798828125,-17869.94921875,181.00999450683594,-400000.0625,-3975.110107421875,-400000.0625,-400000.0625,-400000.0625
0.1219644546508789,-6686.97021484375,-17888.0703125,168.61000061035156,-400000.0625,-3990.080078125,-400000.0625,-400000.0625,-400000.0625
0.17633628845214844,-6630.0400390625,-17833.189453125,212.19000244140625,-400000.0625,-3946.830078125,-400000.0625,-400000.0625,-400000.0625
0.17643499374389648,-6578.8798828125,-17777.970703125,249.77000427246094,-400000.0625,-3899.669921875,-400000.0625,-400000.0625,-400000.0625
0.17644619941711426,-6607.77001953125,-17807.76953125,226.8800048828125,-400000.0625,-3911.780029296875,-400000.0625,-400000.0625,-400000.0625
0.17645525932312012,-6679.9599609375,-17877.720703125,172.66000366210938,-400000.0625,-3971.530029296875,-400000.0625,-400000.0625,-400000.0625
0.17646336555480957,-6692.35986328125,-17890.029296875,161.60000610351562,-400000.0625,-3988.699951171875,-400000.0625,-400000.0625,-400000.0625
0.17647147178649902,-6634.08984375,-17833.810546875,204.94000244140625,-400000.0625,-3944.969970703125,-400000.0625,-400000.0625,-400000.0625
0.17647933959960938,-6584.93017578125,-17781.640625,244.19000244140625,-400000.0625,-3903.6298828125,-400000.0625,-400000.0625,-400000.0625
0.17648744583129883,-6612.830078125,-17808.73046875,222.2100067138672,-400000.0625,-3920.889892578125,-400000.0625,-400000.0625,-400000.0625
0.17649579048156738,-6680.68017578125,-17883.109375,166.4600067138672,-400000.0625,-3973.43994140625,-400000.0625,-400000.0625,-400000.0625
0.17650413513183594,-6696.080078125,-17896.849609375,158.41000366210938,-400000.0625,-3988.64990234375,-400000.0625,-400000.0625,-400000.0625
0.1765122413635254,-6639.2001953125,-17839.529296875,203.66000366210938,-400000.0625,-3947.780029296875,-400000.0625,-400000.0625,-400000.0625
0.17652654647827148,-6586.740234375,-17781.359375,246.3800048828125,-400000.0625,-3900.0,-400000.0625,-400000.0625,-400000.0625
0.17653584480285645,-6614.02001953125,-17809.060546875,225.02000427246094,-400000.0625,-3917.64990234375,-400000.0625,-400000.0625,-400000.0625
0.1765437126159668,-6680.72998046875,-17882.30078125,173.42999267578125,-400000.0625,-3973.06005859375,-400000.0625,-400000.0625,-400000.0625
0.17655134201049805,-6697.990234375,-17900.1796875,159.8800048828125,-400000.0625,-3991.75,-400000.0625,-400000.0625,-400000.0625
0.1765594482421875,-6638.85986328125,-17838.720703125,202.94000244140625,-400000.0625,-3950.360107421875,-400000.0625,-400000.0625,-400000.0625
0.24133753776550293,-6583.41015625,-17783.740234375,243.08999633789062,-400000.0625,-3907.010009765625,-400000.0625,-400000.0625,-400000.0625
0.24372363090515137,-6608.2001953125,-17809.580078125,223.2100067138672,-400000.0625,-3919.219970703125,-400000.0625,-400000.0625,-400000.0625
0.24374127388000488,-6680.580078125,-17883.779296875,167.27000427246094,-400000.0625,-3971.050048828125,-400000.0625,-400000.0625,-400000.0625
0.24375200271606445,-6695.83984375,-17898.080078125,157.63999938964844,-400000.0625,-3986.929931640625,-400000.0625,-400000.0625,-400000.0625
0.2437729835510254,-6632.7099609375,-17836.720703125,205.9499969482422,-400000.0625,-3945.2099609375,-400000.0625,-400000.0625,-400000.0625
0.2437906265258789,-6581.39990234375,-17779.2109375,248.72000122070312,-400000.0625,-3900.0,-400000.0625,-400000.0625,-400000.0625
0.24379587173461914,-6607.009765625,-17803.099609375,226.8800048828125,-400000.0625,-3915.68994140625,-400000.0625,-400000.0625,-400000.0625
0.24380040168762207,-6679.39013671875,-17872.0,175.2899932861328,-400000.0625,-3971.2900390625,-400000.0625,-400000.0625,-400000.0625
0.2438042163848877,-6692.64990234375,-17891.890625,160.1699981689453,-400000.0625,-3996.56005859375,-400000.0625,-400000.0625,-400000.0625
0.24381113052368164,-6632.08984375,-17836.529296875,204.99000549316406,-400000.0625,-3953.169921875,-400000.0625,-400000.0625,-400000.0625
0.24381518363952637,-6580.5400390625,-17785.55078125,242.13999938964844,-400000.0625,-3901.2900390625,-400000.0625,-400000.0625,-400000.0625
0.2438192367553711,-6614.4501953125,-17813.970703125,220.49000549316406,-400000.0625,-3916.929931640625,-400000.0625,-400000.0625,-400000.0625
0.24382281303405762,-6670.89990234375,-17891.119140625,155.58999633789062,-400000.0625,-3978.919921875,-400000.0625,-400000.0625,-400000.0625
0.24382662773132324,-6667.60986328125,-17916.30078125,133.22999572753906,-400000.0625,-3994.179931640625,-400000.0625,-400000.0625,-400000.0625
0.24383020401000977,-6599.9501953125,-17854.169921875,170.27999877929688,-400000.0625,-3950.639892578125,-400000.0625,-400000.0625,-400000.0625
0.2438340187072754,-6536.2900390625,-17800.2890625,198.97999572753906,-400000.0625,-3914.639892578125,-400000.0625,-400000.0625,-400000.0625
0.30884218215942383,-6551.31005859375,-17838.529296875,157.97999572753906,-400000.0625,-3938.9599609375,-400000.0625,-400000.0625,-400000.0625
0.3169879913330078,-6613.02001953125,-17920.5390625,80.48999786376953,-400000.0625,-3998.179931640625,-400000.0625,-400000.0625,-400000.0625
0.3220207691192627,-6610.35009765625,-17932.66015625,56.40999984741211,-400000.0625,-4012.780029296875,-400000.0625,-400000.0625,-400000.0625
0.32752037048339844,-6533.33984375,-17877.25,88.30999755859375,-400000.0625,-3977.110107421875,-400000.0625,-400000.0625,-400000.0625
0.33261656761169434,-6468.43994140625,-17825.1796875,111.95999908447266,-400000.0625,-3941.25,-400000.0625,-400000.0625,-400000.0625
0.3383922576904297,-6488.7099609375,-17862.560546875,77.44000244140625,-400000.0625,-3955.219970703125,-400000.0625,-400000.0625,-400000.0625
0.3428969383239746,-6550.1201171875,-17942.529296875,10.399999618530273,-400000.0625,-4005.6201171875,-400000.0625,-400000.0625,-400000.0625
0.34968066215515137,-6553.56005859375,-17962.310546875,-9.539999961853027,-400000.0625,-4024.1201171875,-400000.0625,-400000.0625,-400000.0625
0.35513854026794434,-6488.31982421875,-17903.849609375,29.709999084472656,-400000.0625,-3986.449951171875,-400000.0625,-400000.0625,-400000.0625
0.3624589443206787,-6433.77001953125,-17849.970703125,68.13999938964844,-400000.0625,-3946.639892578125,-400000.0625,-400000.0625,-400000.0625
0.36836719512939453,-6464.2001953125,-17873.240234375,46.400001525878906,-400000.0625,-3959.469970703125,-400000.0625,-400000.0625,-400000.0625
0.37271642684936523,-6536.43994140625,-17942.380859375,-8.869999885559082,-400000.0625,-4007.860107421875,-400000.0625,-400000.0625,-400000.0625
0.372722864151001,-6548.35986328125,-17959.599609375,-21.549999237060547,-400000.0625,-4025.360107421875,-400000.0625,-400000.0625,-400000.0625
0.3727283477783203,-6486.22998046875,-17898.279296875,24.600000381469727,-400000.0625,-3986.7900390625,-400000.0625,-400000.0625,-400000.0625
0.37273263931274414,-6434.919921875,-17841.2890625,68.80999755859375,-400000.0625,-3939.820068359375,-400000.0625,-400000.0625,-400000.0625
0.37273693084716797,-6461.91015625,-17869.669921875,44.349998474121094,-400000.0625,-3959.3701171875,-400000.0625,-400000.0625,-400000.0625
0.43038058280944824,-6538.6298828125,-17950.439453125,-14.880000114440918,-400000.0625,-4015.8798828125,-400000.0625,-400000.0625,-400000.0625
0.4365816116333008,-6556.60986328125,-17971.140625,-28.229999542236328,-400000.0625,-4031.85009765625,-400000.0625,-400000.0625,-400000.0625
0.4418909549713135,-6495.2900390625,-17908.91015625,21.170000076293945,-400000.0625,-3989.550048828125,-400000.0625,-400000.0625,-400000.0625
0.44649600982666016,-6440.5400390625,-17850.830078125,66.2300033569336,-400000.0625,-3942.919921875,-400000.0625,-400000.0625,-400000.0625
0.45234084129333496,-6472.35009765625,-17882.2109375,44.869998931884766,-400000.0625,-3959.1298828125,-400000.0625,-400000.0625,-400000.0625
0.4609525203704834,-6544.35009765625,-17950.970703125,-8.149999618530273,-400000.0625,-4011.919921875,-400000.0625,-400000.0625,-400000.0625
0.4751303195953369,-6553.509765625,-17969.75,-20.739999771118164,-400000.0625,-4032.52001953125,-400000.0625,-400000.0625,-400000.0625
0.48389267921447754,-6484.7001953125,-17906.05078125,27.799999237060547,-400000.0625,-3993.800048828125,-400000.0625,-400000.0625,-400000.0625
0.4893527030944824,-6437.2998046875,-17854.98046875,66.66000366210938,-400000.0625,-3952.60009765625,-400000.0625,-400000.0625,-400000.0625
0.4946286678314209,-6471.58984375,-17886.740234375,39.959999084472656,-400000.0625,-3965.89990234375,-400000.0625,-400000.0625,-400000.0625
0.5080320835113525,-6541.830078125,-17959.880859375,-16.020000457763672,-400000.0625,-4012.5400390625,-400000.0625,-400000.0625,-400000.0625
0.5126333236694336,-6553.02978515625,-17977.099609375,-26.559999465942383,-400000.0625,-4033.89990234375,-400000.0625,-400000.0625,-400000.0625
0.5126419067382812,-6494.14013671875,-17915.5390625,23.649999618530273,-400000.0625,-3994.1298828125,-400000.0625,-400000.0625,-400000.0625
0.5126473903656006,-6439.10986328125,-17854.98046875,69.13999938964844,-400000.0625,-3944.159912109375,-400000.0625,-400000.0625,-400000.0625
0.5126521587371826,-6469.5400390625,-17886.55078125,44.29999923706055,-400000.0625,-3961.419921875,-400000.0625,-400000.0625,-400000.0625
0.5126562118530273,-6539.97021484375,-17959.169921875,-10.779999732971191,-400000.0625,-4020.97998046875,-400000.0625,-400000.0625,-400000.0625
0.5126602649688721,-6551.93017578125,-17972.51953125,-17.739999771118164,-400000.0625,-4035.090087890625,-400000.0625,-400000.0625,-400000.0625
0.5126667022705078,-6488.18017578125,-17908.859375,32.0,-400000.0625,-3990.030029296875,-400000.0625,-400000.0625,-400000.0625
0.5126707553863525,-6433.81982421875,-17855.650390625,72.7699966430664,-400000.0625,-3953.1201171875,-400000.0625,-400000.0625,-400000.0625
0.5126781463623047,-6462.2900390625,-17887.400390625,49.06999969482422,-400000.0625,-3965.0400390625,-400000.0625,-400000.0625,-400000.0625
0.5126817226409912,-6528.85986328125,-17956.119140625,-0.949999988079071,-400000.0625,-4007.2900390625,-400000.0625,-400000.0625,-400000.0625
0.5126857757568359,-6544.259765625,-17970.470703125,-10.680000305175781,-400000.0625,-4020.639892578125,-400000.0625,-400000.0625,-400000.0625
0.5126898288726807,-6485.02978515625,-17908.380859375,34.709999084472656,-400000.0625,-3986.449951171875,-400000.0625,-400000.0625,-400000.0625
0.5126941204071045,-6429.240234375,-17856.740234375,73.80999755859375,-400000.0625,-3950.070068359375,-400000.0625,-400000.0625,-400000.0625
0.5126979351043701,-6459.330078125,-17885.2109375,48.45000076293945,-400000.0625,-3960.419921875,-400000.0625,-400000.0625,-400000.0625
0.5127017498016357,-6529.14013671875,-17958.359375,-6.289999961853027,-400000.0625,-4008.820068359375,-400000.0625,-400000.0625,-400000.0625
0.5127055644989014,-6541.919921875,-17971.990234375,-14.59000015258789,-400000.0625,-4032.469970703125,-400000.0625,-400000.0625,-400000.0625
0.512709379196167,-6481.740234375,-17914.5390625,30.520000457763672,-400000.0625,-3994.659912109375,-400000.0625,-400000.0625,-400000.0625
0.5127129554748535,-6427.72021484375,-17863.08984375,69.94999694824219,-400000.0625,-3951.219970703125,-400000.0625,-400000.0625,-400000.0625
0.5127179622650146,-6456.47021484375,-17886.119140625,49.689998626708984,-400000.0625,-3967.139892578125,-400000.0625,-400000.0625,-400000.0625
0.5127217769622803,-6521.93994140625,-17960.9296875,-5.389999866485596,-400000.0625,-4015.590087890625,-400000.0625,-400000.0625,-400000.0625
0.512725830078125,-6534.6201171875,-17977.05078125,-16.639999389648438,-400000.0625,-4029.469970703125,-400000.0625,-400000.0625,-400000.0625
0.5127296447753906,-6474.16015625,-17916.630859375,31.190000534057617,-400000.0625,-3986.929931640625,-400000.0625,-400000.0625,-400000.0625
0.5127344131469727,-6426.669921875,-17864.560546875,71.29000091552734,-400000.0625,-3942.110107421875,-400000.0625,-400000.0625,-400000.0625
0.5127384662628174,-6458.9501953125,-17892.3203125,47.25,-400000.0625,-3957.1298828125,-400000.0625,-400000.0625,-400000.0625
0.5127432346343994,-6528.330078125,-17963.55078125,-5.289999961853027,-400000.0625,-4011.25,-400000.0625,-400000.0625,-400000.0625
0.512747049331665,-6540.6298828125,-17977.48046875,-16.780000686645508,-400000.0625,-4031.800048828125,-400000.0625,-400000.0625,-400000.0625
0.5127511024475098,-6479.31005859375,-17914.76953125,31.56999969482422,-400000.0625,-3995.989990234375,-400000.0625,-400000.0625,-400000.0625
0.5127549171447754,-6426.47998046875,-17860.80078125,70.70999908447266,-400000.0625,-3954.840087890625,-400000.0625,-400000.0625,-400000.0625
0.5127589702606201,-6460.47998046875,-17890.650390625,45.779998779296875,-400000.0625,-3967.239990234375,-400000.0625,-400000.0625,-400000.0625
0.5127625465393066,-6535.2001953125,-17963.650390625,-12.779999732971191,-400000.0625,-4012.489990234375,-400000.0625,-400000.0625,-400000.0625
0.5127668380737305,-6547.64013671875,-17978.529296875,-21.790000915527344,-400000.0625,-4024.97998046875,-400000.0625,-400000.0625,-400000.0625
0.5127708911895752,-6486.0400390625,-17919.880859375,25.84000015258789,-400000.0625,-3991.75,-400000.0625,-400000.0625,-400000.0625
0.5127747058868408,-6434.009765625,-17862.419921875,68.62000274658203,-400000.0625,-3956.219970703125,-400000.0625,-400000.0625,-400000.0625
0.5127787590026855,-6463.47998046875,-17887.7890625,49.63999938964844,-400000.0625,-3962.800048828125,-400000.0625,-400000.0625,-400000.0625
0.5127825736999512,-6533.39013671875,-17959.01953125,0.4300000071525574,-400000.0625,-4007.14990234375,-400000.0625,-400000.0625,-400000.0625
0.512786865234375,-6545.35009765625,-17971.94921875,-11.0600004196167,-400000.0625,-4023.739990234375,-400000.0625,-400000.0625,-400000.0625
0.512794017791748,-6488.419921875,-17912.9609375,34.47999954223633,-400000.0625,-3990.219970703125,-400000.0625,-400000.0625,-400000.0625
0.5678093433380127,-6438.2998046875,-17861.939453125,74.33999633789062,-400000.0625,-3951.5,-400000.0625,-400000.0625,-400000.0625
0.5787677764892578,-6461.9501953125,-17892.890625,49.2599983215332,-400000.0625,-3966.52001953125,-400000.0625,-400000.0625,-400000.0625
0.5845327377319336,-6533.6201171875,-17961.029296875,-3.5299999713897705,-400000.0625,-4018.8798828125,-400000.0625,-400000.0625,-400000.0625
0.5892477035522461,-6549.1201171875,-17973.759765625,-12.970000267028809,-400000.0625,-4033.570068359375,-400000.0625,-400000.0625,-400000.0625
0.5892574787139893,-6488.22998046875,-17918.5390625,28.31999969482422,-400000.0625,-3990.699951171875,-400000.0625,-400000.0625,-400000.0625
0.5892617702484131,-6437.58984375,-17866.5703125,68.0,-400000.0625,-3950.260009765625,-400000.0625,-400000.0625,-400000.0625
0.589266300201416,-6464.669921875,-17901.94921875,43.25,-400000.0625,-3969.570068359375,-400000.0625,-400000.0625,-400000.0625
0.5892701148986816,-6533.0498046875,-17989.349609375,-14.829999923706055,-400000.0625,-4027.030029296875,-400000.0625,-400000.0625,-400000.0625
0.5892741680145264,-6549.169921875,-17982.19921875,-10.109999656677246,-400000.0625,-4033.090087890625,-400000.0625,-400000.0625,-400000.0625
0.589277982711792,-6502.9599609375,-17883.259765625,55.7400016784668,-400000.0625,-3982.35009765625,-400000.0625,-400000.0625,-400000.0625
0.5892817974090576,-6465.14990234375,-17825.080078125,102.47000122070312,-400000.0625,-3935.429931640625,-400000.0625,-400000.0625,-400000.0625
0.5892856121063232,-6501.8701171875,-17856.5,95.12999725341797,-400000.0625,-3944.02001953125,-400000.0625,-400000.0625,-400000.0625
0.5892939567565918,-6585.8798828125,-17914.150390625,63.130001068115234,-400000.0625,-3992.219970703125,-400000.0625,-400000.0625,-400000.0625
0.5892980098724365,-6614.830078125,-17913.73046875,67.94999694824219,-400000.0625,-4010.14990234375,-400000.0625,-400000.0625,-400000.0625
0.5893020629882812,-6572.52978515625,-17843.6796875,126.88999938964844,-400000.0625,-3969.18994140625,-400000.0625,-400000.0625,-400000.0625
0.5893058776855469,-6535.009765625,-17771.2890625,185.5399932861328,-400000.0625,-3922.75,-400000.0625,-400000.0625,-400000.0625
0.6248576641082764,-6578.5400390625,-17788.509765625,179.52999877929688,-400000.0625,-3933.669921875,-400000.0625,-400000.0625,-400000.0625
0.6318721771240234,-6658.75,-17859.3203125,139.13999938964844,-400000.0625,-3984.639892578125,-400000.0625,-400000.0625,-400000.0625
0.6378176212310791,-6682.58984375,-17875.76953125,138.47000122070312,-400000.0625,-4001.89990234375,-400000.0625,-400000.0625,-400000.0625
0.6423025131225586,-6635.14013671875,-17809.919921875,190.8300018310547,-400000.0625,-3957.610107421875,-400000.0625,-400000.0625,-400000.0625
0.6423118114471436,-6584.93017578125,-17748.7890625,237.32000732421875,-400000.0625,-3912.8798828125,-400000.0625,-400000.0625,-400000.0625
0.6423172950744629,-6610.72998046875,-17778.640625,215.91000366210938,-400000.0625,-3931.81005859375,-400000.0625,-400000.0625,-400000.0625
0.6423213481903076,-6678.72998046875,-17852.169921875,162.60000610351562,-400000.0625,-3981.5400390625,-400000.0625,-400000.0625,-400000.0625
0.6423251628875732,-6691.41015625,-17867.419921875,155.5399932861328,-400000.0625,-3994.75,-400000.0625,-400000.0625,-400000.0625
0.642329216003418,-6628.3701171875,-17805.580078125,200.88999938964844,-400000.0625,-3958.56005859375,-400000.0625,-400000.0625,-400000.0625
0.6423380374908447,-6579.5,-17756.939453125,236.94000244140625,-400000.0625,-3919.7900390625,-400000.0625,-400000.0625,-400000.0625
0.6423418521881104,-6610.06005859375,-17783.98046875,216.14999389648438,-400000.0625,-3933.330078125,-400000.0625,-400000.0625,-400000.0625
0.642345666885376,-6674.6201171875,-17852.169921875,165.27000427246094,-400000.0625,-3983.639892578125,-400000.0625,-400000.0625,-400000.0625
0.6423494815826416,-6685.58984375,-17869.05078125,154.69000244140625,-400000.0625,-4000.429931640625,-400000.0625,-400000.0625,-400000.0625
0.6423535346984863,-6628.7001953125,-17810.439453125,201.94000244140625,-400000.0625,-3960.280029296875,-400000.0625,-400000.0625,-400000.0625
0.642357587814331,-6578.919921875,-17755.83984375,243.52000427246094,-400000.0625,-3915.5,-400000.0625,-400000.0625,-400000.0625
0.6423614025115967,-6610.39013671875,-17791.369140625,216.6699981689453,-400000.0625,-3930.570068359375,-400000.0625,-400000.0625,-400000.0625
0.6975178718566895,-6680.2998046875,-17858.359375,163.50999450683594,-400000.0625,-3985.070068359375,-400000.0625,-400000.0625,-400000.0625
0.7132580280303955,-6690.83984375,-17870.51953125,155.25999450683594,-400000.0625,-3999.7099609375,-400000.0625,-400000.0625,-400000.0625
0.7181925773620605,-6627.89013671875,-17810.8203125,200.55999755859375,-400000.0625,-3957.840087890625,-400000.0625,-400000.0625,-400000.0625
0.7182033061981201,-6576.81982421875,-17756.23046875,243.47000122070312,-400000.0625,-3910.780029296875,-400000.0625,-400000.0625,-400000.0625
0.7182083129882812,-6606.2001953125,-17786.359375,222.25,-400000.0625,-3926.1298828125,-400000.0625,-400000.0625,-400000.0625
0.7182126045227051,-6673.9599609375,-17856.359375,168.7100067138672,-400000.0625,-3980.2099609375,-400000.0625,-400000.0625,-400000.0625
0.7182166576385498,-6685.35009765625,-17873.9609375,156.30999755859375,-400000.0625,-4002.2900390625,-400000.0625,-400000.0625,-400000.0625
0.7182204723358154,-6626.7001953125,-17816.259765625,201.99000549316406,-400000.0625,-3957.989990234375,-400000.0625,-400000.0625,-400000.0625
0.7182366847991943,-6576.10986328125,-17759.849609375,245.7100067138672,-400000.0625,-3908.110107421875,-400000.0625,-400000.0625,-400000.0625
0.7182407379150391,-6604.240234375,-17786.9296875,224.97000122070312,-400000.0625,-3925.3701171875,-400000.0625,-400000.0625,-400000.0625
0.7182447910308838,-6670.81005859375,-17856.26953125,170.99000549316406,-400000.0625,-3978.159912109375,-400000.0625,-400000.0625,-400000.0625
0.7182486057281494,-6684.259765625,-17868.849609375,162.22000122070312,-400000.0625,-3993.320068359375,-400000.0625,-400000.0625,-400000.0625
0.7182526588439941,-6623.83984375,-17808.73046875,209.3800048828125,-400000.0625,-3951.739990234375,-400000.0625,-400000.0625,-400000.0625
0.7182576656341553,-6576.5400390625,-17758.900390625,246.57000732421875,-400000.0625,-3910.830078125,-400000.0625,-400000.0625,-400000.0625
0.7182614803314209,-6604.91015625,-17790.130859375,223.77999877929688,-400000.0625,-3931.050048828125,-400000.0625,-400000.0625,-400000.0625
0.7229721546173096,-6672.43017578125,-17861.849609375,167.66000366210938,-400000.0625,-3984.639892578125,-400000.0625,-400000.0625,-400000.0625
0.8100793361663818,-6685.2099609375,-17877.439453125,158.36000061035156,-400000.0625,-4000.0400390625,-400000.0625,-400000.0625,-400000.0625
0.8209614753723145,-6624.41015625,-17811.970703125,209.27999877929688,-400000.0625,-3957.610107421875,-400000.0625,-400000.0625,-400000.0625
0.8254945278167725,-6569.2900390625,-17756.990234375,253.33999633789062,-400000.0625,-3912.070068359375,-400000.0625,-400000.0625,-400000.0625
0.8255040645599365,-6600.6201171875,-17786.41015625,232.88999938964844,-400000.0625,-3923.75,-400000.0625,-400000.0625,-400000.0625
0.8255085945129395,-6671.52001953125,-17855.0703125,181.25,-400000.0625,-3977.8701171875,-400000.0625,-400000.0625,-400000.0625
0.8255128860473633,-6681.68017578125,-17868.23046875,171.3300018310547,-400000.0625,-4001.280029296875,-400000.0625,-400000.0625,-400000.0625
0.8255236148834229,-6621.64990234375,-17804.48046875,219.67999267578125,-400000.0625,-3962.800048828125,-400000.0625,-400000.0625,-400000.0625
0.8255279064178467,-6567.0498046875,-17751.080078125,260.1099853515625,-400000.0625,-3912.1201171875,-400000.0625,-400000.0625,-400000.0625
0.8255317211151123,-6599.0498046875,-17785.41015625,233.27000427246094,-400000.0625,-3917.7900390625,-400000.0625,-400000.0625,-400000.0625
0.8255355358123779,-6675.669921875,-17861.4609375,172.52000427246094,-400000.0625,-3974.10009765625,-400000.0625,-400000.0625,-400000.0625
0.8255393505096436,-6687.93017578125,-17876.099609375,162.74000549316406,-400000.0625,-3993.699951171875,-400000.0625,-400000.0625,-400000.0625
0.8255431652069092,-6625.75,-17814.349609375,209.0,-400000.0625,-3956.179931640625,-400000.0625,-400000.0625,-400000.0625
0.8255467414855957,-6574.580078125,-17759.80078125,248.42999267578125,-400000.0625,-3914.360107421875,-400000.0625,-400000.0625,-400000.0625
0.8255505561828613,-6601.56982421875,-17788.939453125,227.1199951171875,-400000.0625,-3931.330078125,-400000.0625,-400000.0625,-400000.0625
0.825554370880127,-6669.14013671875,-17858.560546875,176.47999572753906,-400000.0625,-3987.1201171875,-400000.0625,-400000.0625,-400000.0625
0.8255581855773926,-6679.5400390625,-17870.08984375,170.4199981689453,-400000.0625,-4010.9599609375,-400000.0625,-400000.0625,-400000.0625
0.8496239185333252,-6617.64013671875,-17812.6796875,219.25,-400000.0625,-3965.280029296875,-400000.0625,-400000.0625,-400000.0625
0.8550012111663818,-6571.14990234375,-17756.890625,259.7799987792969,-400000.0625,-3907.8701171875,-400000.0625,-400000.0625,-400000.0625
0.8602697849273682,-6600.759765625,-17784.740234375,235.17999267578125,-400000.0625,-3923.22998046875,-400000.0625,-400000.0625,-400000.0625
0.8646166324615479,-6667.81005859375,-17860.69921875,176.2899932861328,-400000.0625,-3983.550048828125,-400000.0625,-400000.0625,-400000.0625
0.8646271228790283,-6678.2001953125,-17877.76953125,167.27000427246094,-400000.0625,-3998.090087890625,-400000.0625,-400000.0625,-400000.0625
0.8646323680877686,-6616.93017578125,-17812.640625,216.25,-400000.0625,-3954.510009765625,-400000.0625,-400000.0625,-400000.0625
0.8646364212036133,-6566.6201171875,-17761.08984375,253.33999633789062,-400000.0625,-3916.1201171875,-400000.0625,-400000.0625,-400000.0625
0.8646407127380371,-6599.27978515625,-17792.23046875,226.4499969482422,-400000.0625,-3936.47998046875,-400000.0625,-400000.0625,-400000.0625
0.8646447658538818,-6669.240234375,-17862.1796875,171.3800048828125,-400000.0625,-3992.64990234375,-400000.0625,-400000.0625,-400000.0625
0.8646512031555176,-6678.52978515625,-17873.380859375,164.27000427246094,-400000.0625,-4006.10009765625,-400000.0625,-400000.0625,-400000.0625
0.8646550178527832,-6614.77978515625,-17812.5390625,210.08999633789062,-400000.0625,-3965.570068359375,-400000.0625,-400000.0625,-400000.0625
0.864659309387207,-6567.10009765625,-17757.609375,252.8699951171875,-400000.0625,-3921.93994140625,-400000.0625,-400000.0625,-400000.0625
0.8646631240844727,-6598.43017578125,-17788.75,230.02999877929688,-400000.0625,-3930.89990234375,-400000.0625,-400000.0625,-400000.0625
0.8646669387817383,-6668.43017578125,-17862.0390625,173.27999877929688,-400000.0625,-3981.780029296875,-400000.0625,-400000.0625,-400000.0625
0.8646707534790039,-6680.580078125,-17878.630859375,161.83999633789062,-400000.0625,-4000.0400390625,-400000.0625,-400000.0625,-400000.0625
0.8646748065948486,-6620.02978515625,-17816.970703125,209.57000732421875,-400000.0625,-3956.64990234375,-400000.0625,-400000.0625,-400000.0625
0.8837053775787354,-6566.18994140625,-17761.849609375,249.33999633789062,-400000.0625,-3917.97998046875,-400000.0625,-400000.0625,-400000.0625
0.8887810707092285,-6599.759765625,-17794.330078125,222.97000122070312,-400000.0625,-3939.010009765625,-400000.0625,-400000.0625,-400000.0625
0.8931586742401123,-6669.27978515625,-17860.220703125,170.66000366210938,-400000.0625,-3982.969970703125,-400000.0625,-400000.0625,-400000.0625
0.8931674957275391,-6679.81982421875,-17873.4296875,159.92999267578125,-400000.0625,-3996.800048828125,-400000.0625,-400000.0625,-400000.0625
0.8931722640991211,-6616.740234375,-17816.259765625,205.66000366210938,-400000.0625,-3959.22998046875,-400000.0625,-400000.0625,-400000.0625
0.8931765556335449,-6569.47998046875,-17762.66015625,245.0,-400000.0625,-3918.1201171875,-400000.0625,-400000.0625,-400000.0625
0.8931808471679688,-6605.009765625,-17794.7109375,218.49000549316406,-400000.0625,-3942.300048828125,-400000.0625,-400000.0625,-400000.0625
0.8931849002838135,-6674.9599609375,-17871.189453125,161.5,-400000.0625,-3997.179931640625,-400000.0625,-400000.0625,-400000.0625
0.8931887149810791,-6682.72998046875,-17884.830078125,151.67999267578125,-400000.0625,-4000.570068359375,-400000.0625,-400000.0625,-400000.0625
0.8931927680969238,-6620.06982421875,-17821.169921875,199.88999938964844,-400000.0625,-3954.64990234375,-400000.0625,-400000.0625,-400000.0625
0.8931965827941895,-6573.6298828125,-17774.8203125,235.22000122070312,-400000.0625,-3920.1298828125,-400000.0625,-400000.0625,-400000.0625
0.8932008743286133,-6605.47998046875,-17807.33984375,210.57000732421875,-400000.0625,-3939.919921875,-400000.0625,-400000.0625,-400000.0625
0.8932046890258789,-6675.85986328125,-17879.919921875,157.30999755859375,-400000.0625,-3993.22998046875,-400000.0625,-400000.0625,-400000.0625
0.893233060836792,-6684.16015625,-17893.26953125,147.38999938964844,-400000.0625,-4015.02001953125,-400000.0625,-400000.0625,-400000.0625
0.893237829208374,-6624.89013671875,-17827.75,196.30999755859375,-400000.0625,-3970.909912109375,-400000.0625,-400000.0625,-400000.0625
0.8932418823242188,-6577.5400390625,-17778.44921875,235.88999938964844,-400000.0625,-3923.3701171875,-400000.0625,-400000.0625,-400000.0625
0.9642379283905029,-6609.39013671875,-17810.6796875,209.27999877929688,-400000.0625,-3937.340087890625,-400000.0625,-400000.0625,-400000.0625
0.973376989364624,-6676.52978515625,-17880.19921875,156.25999450683594,-400000.0625,-3994.93994140625,-400000.0625,-400000.0625,-400000.0625
0.977583646774292,-6686.259765625,-17892.080078125,149.72999572753906,-400000.0625,-4008.6298828125,-400000.0625,-400000.0625,-400000.0625
0.9775927066802979,-6625.31982421875,-17830.08984375,196.4600067138672,-400000.0625,-3953.929931640625,-400000.0625,-400000.0625,-400000.0625
0.9775972366333008,-6570.2900390625,-17779.0703125,236.0800018310547,-400000.0625,-3908.35009765625,-400000.0625,-400000.0625,-400000.0625
0.9776017665863037,-6600.7099609375,-17804.099609375,216.5800018310547,-400000.0625,-3928.610107421875,-400000.0625,-400000.0625,-400000.0625
0.9776055812835693,-6668.0400390625,-17875.2890625,161.92999267578125,-400000.0625,-3988.31005859375,-400000.0625,-400000.0625,-400000.0625
0.9776096343994141,-6682.58984375,-17886.9296875,153.97000122070312,-400000.0625,-4007.050048828125,-400000.0625,-400000.0625,-400000.0625
0.9776136875152588,-6623.60009765625,-17829.7109375,199.60000610351562,-400000.0625,-3963.800048828125,-400000.0625,-400000.0625,-400000.0625
0.9776184558868408,-6570.43994140625,-17783.01953125,234.02999877929688,-400000.0625,-3927.22998046875,-400000.0625,-400000.0625,-400000.0625
0.9776222705841064,-6603.72021484375,-17810.8203125,209.7100067138672,-400000.0625,-3944.489990234375,-400000.0625,-400000.0625,-400000.0625
0.977625846862793,-6673.2900390625,-17884.779296875,154.11000061035156,-400000.0625,-3997.139892578125,-400000.0625,-400000.0625,-400000.0625
0.9776296615600586,-6679.81982421875,-17893.169921875,148.1999969482422,-400000.0625,-4013.919921875,-400000.0625,-400000.0625,-400000.0625
0.9776334762573242,-6616.259765625,-17826.419921875,200.1300048828125,-400000.0625,-3962.22998046875,-400000.0625,-400000.0625,-400000.0625
0.9776427745819092,-6570.91015625,-17776.30078125,237.75,-400000.0625,-3917.4599609375,-400000.0625,-400000.0625,-400000.0625
0.9776465892791748,-6608.33984375,-17817.740234375,208.08999633789062,-400000.0625,-3936.669921875,-400000.0625,-400000.0625,-400000.0625
1.016190767288208,-6675.2001953125,-17892.740234375,154.58999633789062,-400000.0625,-3989.320068359375,-400000.0625,-400000.0625,-400000.0625
1.0217318534851074,-6672.43017578125,-17893.75,146.67999267578125,-400000.0625,-4005.6201171875,-400000.0625,-400000.0625,-400000.0625
1.026212453842163,-6602.14990234375,-17825.939453125,187.67999267578125,-400000.0625,-3961.989990234375,-400000.0625,-400000.0625,-400000.0625
1.0262212753295898,-6553.75,-17788.080078125,214.72000122070312,-400000.0625,-3924.320068359375,-400000.0625,-400000.0625,-400000.0625
1.0262260437011719,-6587.080078125,-17827.080078125,186.1999969482422,-400000.0625,-3944.679931640625,-400000.0625,-400000.0625,-400000.0625
1.0262303352355957,-6651.39990234375,-17902.66015625,128.60000610351562,-400000.0625,-3999.419921875,-400000.0625,-400000.0625,-400000.0625
1.0262341499328613,-6658.31982421875,-17910.390625,121.12000274658203,-400000.0625,-4009.820068359375,-400000.0625,-400000.0625,-400000.0625
1.026237964630127,-6595.66015625,-17847.400390625,166.17999267578125,-400000.0625,-3968.719970703125,-400000.0625,-400000.0625,-400000.0625
1.0262420177459717,-6546.16015625,-17797.900390625,200.88999938964844,-400000.0625,-3928.89990234375,-400000.0625,-400000.0625,-400000.0625
1.0262460708618164,-6577.58984375,-17830.80078125,177.2899932861328,-400000.0625,-3945.969970703125,-400000.0625,-400000.0625,-400000.0625
1.0262503623962402,-6644.8701171875,-17901.849609375,126.2699966430664,-400000.0625,-4000.0,-400000.0625,-400000.0625,-400000.0625
1.026254415512085,-6653.740234375,-17913.060546875,115.77999877929688,-400000.0625,-4015.449951171875,-400000.0625,-400000.0625,-400000.0625
1.0262598991394043,-6594.60986328125,-17852.9296875,160.97999572753906,-400000.0625,-3972.14990234375,-400000.0625,-400000.0625,-400000.0625
1.0262641906738281,-6545.740234375,-17799.4296875,200.4600067138672,-400000.0625,-3926.659912109375,-400000.0625,-400000.0625,-400000.0625
1.0262682437896729,-6576.10986328125,-17837.48046875,171.61000061035156,-400000.0625,-3946.72998046875,-400000.0625,-400000.0625,-400000.0625
1.0262722969055176,-6647.10986328125,-17905.240234375,120.93000030517578,-400000.0625,-3998.800048828125,-400000.0625,-400000.0625,-400000.0625
1.0736818313598633,-6654.5498046875,-17911.720703125,115.11000061035156,-400000.0625,-4012.159912109375,-400000.0625,-400000.0625,-400000.0625
1.0840752124786377,-6589.02978515625,-17858.7890625,158.2100067138672,-400000.0625,-3968.669921875,-400000.0625,-400000.0625,-400000.0625
1.0883991718292236,-6544.919921875,-17805.91015625,198.55999755859375,-400000.0625,-3929.7099609375,-400000.0625,-400000.0625,-400000.0625
1.0884089469909668,-6581.93017578125,-17837.48046875,174.3300018310547,-400000.0625,-3947.449951171875,-400000.0625,-400000.0625,-400000.0625
1.0884134769439697,-6649.919921875,-17912.91015625,119.3499984741211,-400000.0625,-3995.510009765625,-400000.0625,-400000.0625,-400000.0625
1.0884177684783936,-6653.740234375,-17918.869140625,118.16000366210938,-400000.0625,-4009.389892578125,-400000.0625,-400000.0625,-400000.0625
1.0884215831756592,-6592.7998046875,-17854.169921875,166.17999267578125,-400000.0625,-3970.0,-400000.0625,-400000.0625,-400000.0625
1.088425636291504,-6549.06982421875,-17805.009765625,204.3699951171875,-400000.0625,-3923.4599609375,-400000.0625,-400000.0625,-400000.0625
1.0884296894073486,-6584.97998046875,-17842.19921875,178.52999877929688,-400000.0625,-3942.199951171875,-400000.0625,-400000.0625,-400000.0625
1.0884332656860352,-6650.16015625,-17908.810546875,126.9800033569336,-400000.0625,-3992.93994140625,-400000.0625,-400000.0625,-400000.0625
1.0884385108947754,-6654.64013671875,-17914.150390625,123.63999938964844,-400000.0625,-4006.820068359375,-400000.0625,-400000.0625,-400000.0625
1.088442325592041,-6593.31982421875,-17856.69921875,167.6999969482422,-400000.0625,-3967.949951171875,-400000.0625,-400000.0625,-400000.0625
1.0884463787078857,-6548.5498046875,-17808.150390625,203.8000030517578,-400000.0625,-3930.280029296875,-400000.0625,-400000.0625,-400000.0625
1.088451862335205,-6582.02001953125,-17837.099609375,182.49000549316406,-400000.0625,-3949.1201171875,-400000.0625,-400000.0625,-400000.0625
1.0884556770324707,-6650.64013671875,-17907.720703125,128.02999877929688,-400000.0625,-4006.239990234375,-400000.0625,-400000.0625,-400000.0625
1.0884594917297363,-6661.31982421875,-17919.400390625,118.58999633789062,-400000.0625,-4014.2099609375,-400000.0625,-400000.0625,-400000.0625
1.1625726222991943,-6597.22998046875,-17858.939453125,168.3699951171875,-400000.0625,-3963.89990234375,-400000.0625,-400000.0625,-400000.0625
1.1686451435089111,-6548.41015625,-17804.669921875,206.9499969482422,-400000.0625,-3924.22998046875,-400000.0625,-400000.0625,-400000.0625
1.1730265617370605,-6579.919921875,-17838.619140625,180.14999389648438,-400000.0625,-3941.489990234375,-400000.0625,-400000.0625,-400000.0625
1.1730358600616455,-6650.06982421875,-17911.19921875,126.36000061035156,-400000.0625,-3992.409912109375,-400000.0625,-400000.0625,-400000.0625
1.1730406284332275,-6656.27001953125,-17919.970703125,120.26000213623047,-400000.0625,-4005.9599609375,-400000.0625,-400000.0625,-400000.0625
1.1730446815490723,-6589.64990234375,-17853.599609375,173.22999572753906,-400000.0625,-3962.179931640625,-400000.0625,-400000.0625,-400000.0625
1.173048734664917,-6543.259765625,-17805.630859375,209.86000061035156,-400000.0625,-3925.1298828125,-400000.0625,-400000.0625,-400000.0625
1.1730530261993408,-6580.58984375,-17842.580078125,178.3800048828125,-400000.0625,-3948.070068359375,-400000.0625,-400000.0625,-400000.0625
1.1730620861053467,-6648.259765625,-17913.390625,126.5,-400000.0625,-3998.949951171875,-400000.0625,-400000.0625,-400000.0625
1.173067331314087,-6653.259765625,-17917.73046875,124.79000091552734,-400000.0625,-4007.14990234375,-400000.0625,-400000.0625,-400000.0625
1.1730711460113525,-6587.22021484375,-17849.58984375,175.75999450683594,-400000.0625,-3962.760009765625,-400000.0625,-400000.0625,-400000.0625
1.1730754375457764,-6536.77001953125,-17800.48046875,212.42999267578125,-400000.0625,-3922.27001953125,-400000.0625,-400000.0625,-400000.0625
1.173079252243042,-6572.52978515625,-17837.099609375,184.67999267578125,-400000.0625,-3941.919921875,-400000.0625,-400000.0625,-400000.0625
1.173083782196045,-6644.72998046875,-17911.2890625,126.93000030517578,-400000.0625,-4001.239990234375,-400000.0625,-400000.0625,-400000.0625
1.1730899810791016,-6650.68994140625,-17919.5390625,122.36000061035156,-400000.0625,-4021.219970703125,-400000.0625,-400000.0625,-400000.0625
1.1730942726135254,-6585.7900390625,-17852.740234375,171.9499969482422,-400000.0625,-3969.6201171875,-400000.0625,-400000.0625,-400000.0625
1.2168872356414795,-6539.81982421875,-17805.2890625,207.13999938964844,-400000.0625,-3924.800048828125,-400000.0625,-400000.0625,-400000.0625
1.2310094833374023,-6577.64013671875,-17840.669921875,179.2899932861328,-400000.0625,-3943.159912109375,-400000.0625,-400000.0625,-400000.0625
1.236025094985962,-6646.97021484375,-17913.439453125,125.41000366210938,-400000.0625,-3996.1298828125,-400000.0625,-400000.0625,-400000.0625
1.2406325340270996,-6653.4501953125,-17919.259765625,123.06999969482422,-400000.0625,-4008.47998046875,-400000.0625,-400000.0625,-400000.0625
1.2406413555145264,-6588.60009765625,-17852.169921875,170.3699951171875,-400000.0625,-3967.570068359375,-400000.0625,-400000.0625,-400000.0625
1.2406456470489502,-6537.8701171875,-17795.51953125,213.42999267578125,-400000.0625,-3931.330078125,-400000.0625,-400000.0625,-400000.0625
1.2406501770019531,-6573.06005859375,-17824.990234375,188.8800048828125,-400000.0625,-3944.2099609375,-400000.0625,-400000.0625,-400000.0625
1.240657091140747,-6643.14990234375,-17899.419921875,133.50999450683594,-400000.0625,-3987.8798828125,-400000.0625,-400000.0625,-400000.0625
1.240661382675171,-6647.8701171875,-17907.859375,128.83999633789062,-400000.0625,-4002.050048828125,-400000.0625,-400000.0625,-400000.0625
1.2406649589538574,-6588.41015625,-17847.01953125,175.0500030517578,-400000.0625,-3962.330078125,-400000.0625,-400000.0625,-400000.0625
1.240668773651123,-6546.77978515625,-17798.7109375,210.08999633789062,-400000.0625,-3917.60009765625,-400000.0625,-400000.0625,-400000.0625
1.2406725883483887,-6583.35986328125,-17836.2890625,184.05999755859375,-400000.0625,-3935.6201171875,-400000.0625,-400000.0625,-400000.0625
1.2406761646270752,-6654.93017578125,-17905.4296875,132.1300048828125,-400000.0625,-3990.7900390625,-400000.0625,-400000.0625,-400000.0625
1.2406799793243408,-6657.4599609375,-17913.9609375,126.08000183105469,-400000.0625,-4005.6201171875,-400000.0625,-400000.0625,-400000.0625
1.2406837940216064,-6589.75,-17842.529296875,181.10000610351562,-400000.0625,-3964.469970703125,-400000.0625,-400000.0625,-400000.0625
1.240687608718872,-6539.5400390625,-17787.740234375,222.49000549316406,-400000.0625,-3918.1201171875,-400000.0625,-400000.0625,-400000.0625
1.2699263095855713,-6574.490234375,-17827.23046875,191.5,-400000.0625,-3941.820068359375,-400000.0625,-400000.0625,-400000.0625
1.2749245166778564,-6645.5400390625,-17902.23046875,134.61000061035156,-400000.0625,-3995.510009765625,-400000.0625,-400000.0625,-400000.0625
1.2749340534210205,-6651.1201171875,-17910.859375,127.2699966430664,-400000.0625,-4006.050048828125,-400000.0625,-400000.0625,-400000.0625
1.2749388217926025,-6589.41015625,-17847.30078125,173.57000732421875,-400000.0625,-3963.659912109375,-400000.0625,-400000.0625,-400000.0625
1.2802207469940186,-6544.77978515625,-17794.609375,212.6699981689453,-400000.0625,-3920.27001953125,-400000.0625,-400000.0625,-400000.0625
1.2846157550811768,-6580.31005859375,-17831.94921875,183.14999389648438,-400000.0625,-3944.969970703125,-400000.0625,-400000.0625,-400000.0625
1.2846240997314453,-6654.22021484375,-17910.669921875,121.16000366210938,-400000.0625,-4007.2900390625,-400000.0625,-400000.0625,-400000.0625
1.2846283912658691,-6658.1298828125,-17910.91015625,119.44999694824219,-400000.0625,-4018.35009765625,-400000.0625,-400000.0625,-400000.0625
1.2846324443817139,-6588.169921875,-17842.439453125,174.7100067138672,-400000.0625,-3964.330078125,-400000.0625,-400000.0625,-400000.0625
1.2846364974975586,-6540.58984375,-17789.080078125,213.2899932861328,-400000.0625,-3915.02001953125,-400000.0625,-400000.0625,-400000.0625
1.2846403121948242,-6583.1201171875,-17826.939453125,179.47999572753906,-400000.0625,-3942.919921875,-400000.0625,-400000.0625,-400000.0625
1.2846441268920898,-6655.8798828125,-17905.4296875,117.7300033569336,-400000.0625,-4001.6201171875,-400000.0625,-400000.0625,-400000.0625
1.2846479415893555,-6662.18017578125,-17906.2890625,110.72000122070312,-400000.0625,-4009.10009765625,-400000.0625,-400000.0625,-400000.0625
1.284651756286621,-6600.08984375,-17829.470703125,165.32000732421875,-400000.0625,-3960.7099609375,-400000.0625,-400000.0625,-400000.0625
1.2846553325653076,-6543.490234375,-17779.779296875,209.13999938964844,-400000.0625,-3928.85009765625,-400000.0625,-400000.0625,-400000.0625
1.2846591472625732,-6565.14013671875,-17800.05078125,193.2100067138672,-400000.0625,-3949.929931640625,-400000.0625,-400000.0625,-400000.0625
1.333855152130127,-6630.18017578125,-17846.490234375,142.14999389648438,-400000.0625,-4009.010009765625,-400000.0625,-400000.0625,-400000.0625
1.3449976444244385,-6628.60986328125,-17825.3203125,139.52000427246094,-400000.0625,-4021.360107421875,-400000.0625,-400000.0625,-400000.0625
1.3495948314666748,-6554.56005859375,-17737.6796875,200.17999267578125,-400000.0625,-3972.820068359375,-400000.0625,-400000.0625,-400000.0625
1.349604606628418,-6496.2900390625,-17656.5703125,248.42999267578125,-400000.0625,-3930.6201171875,-400000.0625,-400000.0625,-400000.0625
1.349609375,-6516.97998046875,-17669.439453125,219.97000122070312,-400000.0625,-3959.0400390625,-400000.0625,-400000.0625,-400000.0625
1.349613904953003,-6573.009765625,-17722.470703125,170.75999450683594,-400000.0625,-4022.169921875,-400000.0625,-400000.0625,-400000.0625
1.3496179580688477,-6567.0498046875,-17710.01953125,176.86000061035156,-400000.0625,-4035.81005859375,-400000.0625,-400000.0625,-400000.0625
1.3496220111846924,-6490.9501953125,-17626.5703125,231.4600067138672,-400000.0625,-3984.97998046875,-400000.0625,-400000.0625,-400000.0625
1.349626064300537,-6438.06982421875,-17565.490234375,270.79998779296875,-400000.0625,-3946.590087890625,-400000.0625,-400000.0625,-400000.0625
1.3496298789978027,-6473.02001953125,-17599.869140625,243.22999572753906,-400000.0625,-3973.909912109375,-400000.0625,-400000.0625,-400000.0625
1.3496336936950684,-6539.72998046875,-17664.240234375,189.97000122070312,-400000.0625,-4028.4599609375,-400000.0625,-400000.0625,-400000.0625
1.349637746810913,-6536.68017578125,-17661.0,192.36000061035156,-400000.0625,-4037.81005859375,-400000.0625,-400000.0625,-400000.0625
1.3496496677398682,-6473.16015625,-17590.619140625,248.5800018310547,-400000.0625,-3987.169921875,-400000.0625,-400000.0625,-400000.0625
1.349653720855713,-6426.33984375,-17547.75,282.1000061035156,-400000.0625,-3951.5,-400000.0625,-400000.0625,-400000.0625
1.3496572971343994,-6462.85986328125,-17589.4296875,248.86000061035156,-400000.0625,-3974.06005859375,-400000.0625,-400000.0625,-400000.0625
1.3496618270874023,-6533.43017578125,-17656.51953125,201.88999938964844,-400000.0625,-4024.1201171875,-400000.0625,-400000.0625,-400000.0625
1.41013765335083,-6537.14990234375,-17663.48046875,197.41000366210938,-400000.0625,-4034.18994140625,-400000.0625,-400000.0625,-400000.0625
1.415522575378418,-6471.72998046875,-17599.73046875,248.33999633789062,-400000.0625,-3990.1298828125,-400000.0625,-400000.0625,-400000.0625
1.420403003692627,-6425.81005859375,-17548.990234375,289.1499938964844,-400000.0625,-3951.360107421875,-400000.0625,-400000.0625,-400000.0625
1.4204130172729492,-6462.669921875,-17586.900390625,259.2099914550781,-400000.0625,-3964.18994140625,-400000.0625,-400000.0625,-400000.0625
1.4204177856445312,-6533.47998046875,-17661.4296875,203.0399932861328,-400000.0625,-4020.2099609375,-400000.0625,-400000.0625,-400000.0625
1.420422077178955,-6533.580078125,-17668.060546875,199.27000427246094,-400000.0625,-4036.429931640625,-400000.0625,-400000.0625,-400000.0625
1.420426607131958,-6466.33984375,-17601.060546875,251.47999572753906,-400000.0625,-3983.449951171875,-400000.0625,-400000.0625,-400000.0625
1.4204306602478027,-6423.43017578125,-17554.4296875,284.6700134277344,-400000.0625,-3940.25,-400000.0625,-400000.0625,-400000.0625
1.4204347133636475,-6466.81982421875,-17593.48046875,252.5800018310547,-400000.0625,-3967.669921875,-400000.0625,-400000.0625,-400000.0625
1.4204387664794922,-6535.240234375,-17668.25,198.50999450683594,-400000.0625,-4024.510009765625,-400000.0625,-400000.0625,-400000.0625
1.4204425811767578,-6536.68017578125,-17674.640625,195.74000549316406,-400000.0625,-4033.0400390625,-400000.0625,-400000.0625,-400000.0625
1.4204463958740234,-6472.4501953125,-17606.55078125,248.24000549316406,-400000.0625,-3988.169921875,-400000.0625,-400000.0625,-400000.0625
1.420450210571289,-6427.240234375,-17557.76953125,286.3900146484375,-400000.0625,-3948.929931640625,-400000.0625,-400000.0625,-400000.0625
1.420454502105713,-6463.9599609375,-17594.529296875,256.82000732421875,-400000.0625,-3972.860107421875,-400000.0625,-400000.0625,-400000.0625
1.4204673767089844,-6533.0,-17666.580078125,202.99000549316406,-400000.0625,-4025.7900390625,-400000.0625,-400000.0625,-400000.0625
1.4204721450805664,-6540.68017578125,-17671.58984375,201.27000427246094,-400000.0625,-4028.419921875,-400000.0625,-400000.0625,-400000.0625
1.457463264465332,-6474.4501953125,-17606.9296875,253.6300048828125,-400000.0625,-3979.159912109375,-400000.0625,-400000.0625,-400000.0625
1.4685654640197754,-6429.6298828125,-17559.33984375,289.67999267578125,-400000.0625,-3940.77001953125,-400000.0625,-400000.0625,-400000.0625
1.4738104343414307,-6465.25,-17595.150390625,262.8800048828125,-400000.0625,-3961.52001953125,-400000.0625,-400000.0625,-400000.0625
1.4781742095947266,-6531.14013671875,-17671.919921875,209.3300018310547,-400000.0625,-4016.02001953125,-400000.0625,-400000.0625,-400000.0625
1.4781818389892578,-6533.9599609375,-17673.30078125,206.7100067138672,-400000.0625,-4027.27001953125,-400000.0625,-400000.0625,-400000.0625
1.4781866073608398,-6469.68017578125,-17607.7890625,259.29998779296875,-400000.0625,-3984.739990234375,-400000.0625,-400000.0625,-400000.0625
1.4781911373138428,-6419.52001953125,-17562.19921875,292.8299865722656,-400000.0625,-3952.5,-400000.0625,-400000.0625,-400000.0625
1.4781949520111084,-6458.85986328125,-17599.349609375,260.5,-400000.0625,-3976.199951171875,-400000.0625,-400000.0625,-400000.0625
1.4781990051269531,-6523.7099609375,-17669.25,207.75999450683594,-400000.0625,-4026.409912109375,-400000.0625,-400000.0625,-400000.0625
1.4782030582427979,-6526.759765625,-17670.919921875,207.47000122070312,-400000.0625,-4027.800048828125,-400000.0625,-400000.0625,-400000.0625
1.4782071113586426,-6464.33984375,-17605.58984375,258.1600036621094,-400000.0625,-3975.580078125,-400000.0625,-400000.0625,-400000.0625
1.4782109260559082,-6416.22998046875,-17554.08984375,296.2099914550781,-400000.0625,-3935.389892578125,-400000.0625,-400000.0625,-400000.0625
1.4782147407531738,-6453.08984375,-17590.330078125,267.9800109863281,-400000.0625,-3963.760009765625,-400000.0625,-400000.0625,-400000.0625
1.4782261848449707,-6522.85009765625,-17661.05078125,213.5800018310547,-400000.0625,-4021.219970703125,-400000.0625,-400000.0625,-400000.0625
1.4782299995422363,-6525.7998046875,-17670.970703125,209.6699981689453,-400000.0625,-4031.3701171875,-400000.0625,-400000.0625,-400000.0625
1.478233814239502,-6460.52001953125,-17602.869140625,261.1199951171875,-400000.0625,-3988.60009765625,-400000.0625,-400000.0625,-400000.0625
1.524033546447754,-6416.990234375,-17559.19921875,294.45001220703125,-400000.0625,-3952.550048828125,-400000.0625,-400000.0625,-400000.0625
1.5293469429016113,-6459.08984375,-17597.9609375,262.69000244140625,-400000.0625,-3967.090087890625,-400000.0625,-400000.0625,-400000.0625
1.5343828201293945,-6524.60986328125,-17665.390625,214.0500030517578,-400000.0625,-4014.43994140625,-400000.0625,-400000.0625,-400000.0625
1.538978099822998,-6524.89990234375,-17673.259765625,212.47999572753906,-400000.0625,-4023.27001953125,-400000.0625,-400000.0625,-400000.0625
1.5389869213104248,-6461.18994140625,-17612.7890625,259.489990234375,-400000.0625,-3978.5400390625,-400000.0625,-400000.0625,-400000.0625
1.538991928100586,-6418.0400390625,-17561.76953125,295.5899963378906,-400000.0625,-3938.47998046875,-400000.0625,-400000.0625,-400000.0625
1.5389962196350098,-6456.52001953125,-17593.9609375,268.94000244140625,-400000.0625,-3964.0,-400000.0625,-400000.0625,-400000.0625
1.5390002727508545,-6523.31982421875,-17671.2109375,213.10000610351562,-400000.0625,-4024.64990234375,-400000.0625,-400000.0625,-400000.0625
1.5390040874481201,-6522.85009765625,-17674.73046875,215.72000122070312,-400000.0625,-4042.010009765625,-400000.0625,-400000.0625,-400000.0625
1.539008378982544,-6462.56982421875,-17598.390625,273.3699951171875,-400000.0625,-3991.080078125,-400000.0625,-400000.0625,-400000.0625
1.5390121936798096,-6424.6201171875,-17547.1796875,308.989990234375,-400000.0625,-3935.2900390625,-400000.0625,-400000.0625,-400000.0625
1.5390160083770752,-6460.72021484375,-17580.4609375,280.7099914550781,-400000.0625,-3958.27001953125,-400000.0625,-400000.0625,-400000.0625
1.539029598236084,-6530.240234375,-17652.509765625,227.39999389648438,-400000.0625,-4013.5400390625,-400000.0625,-400000.0625,-400000.0625
1.5390336513519287,-6533.77001953125,-17656.66015625,227.07000732421875,-400000.0625,-4024.219970703125,-400000.0625,-400000.0625,-400000.0625
1.5390374660491943,-6464.81982421875,-17588.08984375,277.6099853515625,-400000.0625,-3985.2099609375,-400000.0625,-400000.0625,-400000.0625
1.5390429496765137,-6417.93994140625,-17540.310546875,314.1400146484375,-400000.0625,-3943.919921875,-400000.0625,-400000.0625,-400000.0625
1.6051373481750488,-6456.3798828125,-17576.41015625,286.2900085449219,-400000.0625,-3968.669921875,-400000.0625,-400000.0625,-400000.0625
1.6163499355316162,-6528.89990234375,-17646.98046875,231.41000366210938,-400000.0625,-4023.360107421875,-400000.0625,-400000.0625,-400000.0625
1.6210880279541016,-6532.3798828125,-17651.890625,226.69000244140625,-400000.0625,-4027.4599609375,-400000.0625,-400000.0625,-400000.0625
1.6210963726043701,-6473.16015625,-17590.4296875,270.6499938964844,-400000.0625,-3983.68994140625,-400000.0625,-400000.0625,-400000.0625
1.621100902557373,-6430.10009765625,-17543.41015625,307.510009765625,-400000.0625,-3948.159912109375,-400000.0625,-400000.0625,-400000.0625
1.6211049556732178,-6467.52978515625,-17582.130859375,278.42999267578125,-400000.0625,-3967.3798828125,-400000.0625,-400000.0625,-400000.0625
1.6211087703704834,-6533.91015625,-17653.560546875,225.97000122070312,-400000.0625,-4017.159912109375,-400000.0625,-400000.0625,-400000.0625
1.6211128234863281,-6533.580078125,-17659.94921875,224.16000366210938,-400000.0625,-4028.419921875,-400000.0625,-400000.0625,-400000.0625
1.6211163997650146,-6469.35009765625,-17590.669921875,275.989990234375,-400000.0625,-3978.830078125,-400000.0625,-400000.0625,-400000.0625
1.6211202144622803,-6426.669921875,-17545.849609375,309.989990234375,-400000.0625,-3942.72998046875,-400000.0625,-400000.0625,-400000.0625
1.6211297512054443,-6466.009765625,-17589.140625,275.5199890136719,-400000.0625,-3973.719970703125,-400000.0625,-400000.0625,-400000.0625
1.62113356590271,-6535.52978515625,-17660.759765625,220.9199981689453,-400000.0625,-4022.8798828125,-400000.0625,-400000.0625,-400000.0625
1.6211376190185547,-6538.25,-17664.630859375,218.52999877929688,-400000.0625,-4032.89990234375,-400000.0625,-400000.0625,-400000.0625
1.6211414337158203,-6473.06982421875,-17601.30078125,268.510009765625,-400000.0625,-3983.5,-400000.0625,-400000.0625,-400000.0625
1.621145248413086,-6428.77001953125,-17548.1796875,308.17999267578125,-400000.0625,-3943.159912109375,-400000.0625,-400000.0625,-400000.0625
1.6211493015289307,-6466.6298828125,-17584.1796875,280.5199890136719,-400000.0625,-3970.050048828125,-400000.0625,-400000.0625,-400000.0625
1.6562840938568115,-6533.52978515625,-17654.560546875,228.36000061035156,-400000.0625,-4033.419921875,-400000.0625,-400000.0625,-400000.0625
1.6618282794952393,-6534.85986328125,-17653.0390625,231.30999755859375,-400000.0625,-4042.719970703125,-400000.0625,-400000.0625,-400000.0625
1.6667540073394775,-6470.68017578125,-17587.94921875,279.8599853515625,-400000.0625,-3979.300048828125,-400000.0625,-400000.0625,-400000.0625
1.6667633056640625,-6426.240234375,-17545.4609375,311.7099914550781,-400000.0625,-3933.139892578125,-400000.0625,-400000.0625,-400000.0625
1.6667683124542236,-6464.91015625,-17579.69921875,284.4800109863281,-400000.0625,-3956.699951171875,-400000.0625,-400000.0625,-400000.0625
1.6667728424072266,-6529.0498046875,-17647.359375,231.83999633789062,-400000.0625,-4013.6298828125,-400000.0625,-400000.0625,-400000.0625
1.6667768955230713,-6530.759765625,-17651.80078125,229.30999755859375,-400000.0625,-4026.1298828125,-400000.0625,-400000.0625,-400000.0625
1.6667811870574951,-6467.52978515625,-17586.23046875,281.95001220703125,-400000.0625,-3977.72998046875,-400000.0625,-400000.0625,-400000.0625
1.6667852401733398,-6419.3701171875,-17540.169921875,314.42999267578125,-400000.0625,-3940.8701171875,-400000.0625,-400000.0625,-400000.0625
1.6667981147766113,-6462.6201171875,-17577.359375,284.3900146484375,-400000.0625,-3965.659912109375,-400000.0625,-400000.0625,-400000.0625
1.666801929473877,-6532.91015625,-17652.849609375,230.07000732421875,-400000.0625,-4023.169921875,-400000.0625,-400000.0625,-400000.0625
1.6668059825897217,-6534.9599609375,-17657.470703125,228.30999755859375,-400000.0625,-4039.239990234375,-400000.0625,-400000.0625,-400000.0625
1.6668100357055664,-6470.39013671875,-17592.9609375,277.19000244140625,-400000.0625,-3985.5,-400000.0625,-400000.0625,-400000.0625
1.6668140888214111,-6428.39013671875,-17549.759765625,310.989990234375,-400000.0625,-3936.719970703125,-400000.0625,-400000.0625,-400000.0625
1.6668190956115723,-6470.25,-17590.94921875,278.57000732421875,-400000.0625,-3961.1298828125,-400000.0625,-400000.0625,-400000.0625
1.666823148727417,-6539.81982421875,-17662.05078125,223.49000549316406,-400000.0625,-4017.739990234375,-400000.0625,-400000.0625,-400000.0625
1.7312743663787842,-6543.72998046875,-17668.33984375,219.8699951171875,-400000.0625,-4029.659912109375,-400000.0625,-400000.0625,-400000.0625
1.744030475616455,-6480.06982421875,-17602.44921875,267.4599914550781,-400000.0625,-3987.840087890625,-400000.0625,-400000.0625,-400000.0625
1.7496373653411865,-6432.919921875,-17555.5703125,301.1700134277344,-400000.0625,-3952.4599609375,-400000.0625,-400000.0625,-400000.0625
1.7542011737823486,-6471.6298828125,-17593.669921875,271.75,-400000.0625,-3976.389892578125,-400000.0625,-400000.0625,-400000.0625
1.7542099952697754,-6541.2099609375,-17662.859375,219.82000732421875,-400000.0625,-4028.27001953125,-400000.0625,-400000.0625,-400000.0625
1.7542147636413574,-6542.64013671875,-17670.5390625,217.49000549316406,-400000.0625,-4038.6201171875,-400000.0625,-400000.0625,-400000.0625
1.7542328834533691,-6475.830078125,-17602.349609375,267.92999267578125,-400000.0625,-3990.030029296875,-400000.0625,-400000.0625,-400000.0625
1.7542369365692139,-6431.6298828125,-17551.94921875,304.6499938964844,-400000.0625,-3943.159912109375,-400000.0625,-400000.0625,-400000.0625
1.7542407512664795,-6468.919921875,-17593.720703125,274.2799987792969,-400000.0625,-3967.81005859375,-400000.0625,-400000.0625,-400000.0625
1.7542448043823242,-6538.77001953125,-17666.060546875,222.05999755859375,-400000.0625,-4025.169921875,-400000.0625,-400000.0625,-400000.0625
1.7542486190795898,-6542.58984375,-17669.19921875,221.58999633789062,-400000.0625,-4031.85009765625,-400000.0625,-400000.0625,-400000.0625
1.7542526721954346,-6473.16015625,-17602.779296875,269.989990234375,-400000.0625,-3983.39990234375,-400000.0625,-400000.0625,-400000.0625
1.754256248474121,-6430.009765625,-17552.470703125,302.6000061035156,-400000.0625,-3952.4599609375,-400000.0625,-400000.0625,-400000.0625
1.7542600631713867,-6469.68017578125,-17595.9609375,269.8399963378906,-400000.0625,-3982.35009765625,-400000.0625,-400000.0625,-400000.0625
1.7542641162872314,-6539.5400390625,-17668.060546875,216.8699951171875,-400000.0625,-4037.330078125,-400000.0625,-400000.0625,-400000.0625
1.7542705535888672,-6539.10986328125,-17671.30078125,214.14999389648438,-400000.0625,-4038.530029296875,-400000.0625,-400000.0625,-400000.0625
1.7788312435150146,-6474.919921875,-17606.359375,262.3599853515625,-400000.0625,-3981.68994140625,-400000.0625,-400000.0625,-400000.0625
1.7841908931732178,-6432.580078125,-17557.099609375,300.30999755859375,-400000.0625,-3940.389892578125,-400000.0625,-400000.0625,-400000.0625
1.789139747619629,-6468.72998046875,-17598.109375,266.8399963378906,-400000.0625,-3969.3798828125,-400000.0625,-400000.0625,-400000.0625
1.7891490459442139,-6539.43994140625,-17662.48046875,221.00999450683594,-400000.0625,-4021.739990234375,-400000.0625,-400000.0625,-400000.0625
1.7891533374786377,-6540.77978515625,-17667.8203125,219.6300048828125,-400000.0625,-4033.469970703125,-400000.0625,-400000.0625,-400000.0625
1.7891573905944824,-6477.68994140625,-17605.830078125,266.5,-400000.0625,-3990.889892578125,-400000.0625,-400000.0625,-400000.0625
1.7891614437103271,-6432.14990234375,-17555.099609375,302.1199951171875,-400000.0625,-3952.64990234375,-400000.0625,-400000.0625,-400000.0625
1.7891654968261719,-6470.39013671875,-17594.4296875,270.32000732421875,-400000.0625,-3979.830078125,-400000.0625,-400000.0625,-400000.0625
1.7891693115234375,-6539.5400390625,-17664.33984375,221.72999572753906,-400000.0625,-4031.0400390625,-400000.0625,-400000.0625,-400000.0625
1.7891733646392822,-6541.5400390625,-17670.19921875,221.8699951171875,-400000.0625,-4032.22998046875,-400000.0625,-400000.0625,-400000.0625
1.7891769409179688,-6476.4501953125,-17603.73046875,270.0799865722656,-400000.0625,-3982.5,-400000.0625,-400000.0625,-400000.0625
1.7891807556152344,-6429.669921875,-17549.609375,304.4100036621094,-400000.0625,-3946.72998046875,-400000.0625,-400000.0625,-400000.0625
1.7891845703125,-6471.490234375,-17586.470703125,271.6499938964844,-400000.0625,-3977.8701171875,-400000.0625,-400000.0625,-400000.0625
1.7891883850097656,-6539.919921875,-17666.869140625,216.2899932861328,-400000.0625,-4032.330078125,-400000.0625,-400000.0625,-400000.0625
1.7891919612884521,-6539.68017578125,-17675.640625,214.47999572753906,-400000.0625,-4034.3798828125,-400000.0625,-400000.0625,-400000.0625
1.7891957759857178,-6476.5,-17602.58984375,266.8399963378906,-400000.0625,-3985.31005859375,-400000.0625,-400000.0625,-400000.0625
1.9050910472869873,-6432.009765625,-17559.580078125,296.69000244140625,-400000.0625,-3955.219970703125,-400000.0625,-400000.0625,-400000.0625
1.914799451828003,-6474.06982421875,-17603.0703125,259.8299865722656,-400000.0625,-3984.260009765625,-400000.0625,-400000.0625,-400000.0625
1.9199566841125488,-6541.6298828125,-17668.490234375,211.3800048828125,-400000.0625,-4034.22998046875,-400000.0625,-400000.0625,-400000.0625
1.924837350845337,-6543.39990234375,-17672.970703125,212.19000244140625,-400000.0625,-4038.6201171875,-400000.0625,-400000.0625,-400000.0625
1.924846887588501,-6473.58984375,-17607.01953125,262.2099914550781,-400000.0625,-3987.169921875,-400000.0625,-400000.0625,-400000.0625
1.924851894378662,-6430.91015625,-17557.05078125,299.9800109863281,-400000.0625,-3949.260009765625,-400000.0625,-400000.0625,-400000.0625
1.924856185913086,-6471.919921875,-17598.150390625,268.0299987792969,-400000.0625,-3982.8798828125,-400000.0625,-400000.0625,-400000.0625
1.9248600006103516,-6540.43994140625,-17674.259765625,211.19000244140625,-400000.0625,-4039.860107421875,-400000.0625,-400000.0625,-400000.0625
1.9248638153076172,-6542.58984375,-17675.16015625,211.2899932861328,-400000.0625,-4040.18994140625,-400000.0625,-400000.0625,-400000.0625
1.9248690605163574,-6476.740234375,-17605.310546875,266.1199951171875,-400000.0625,-3982.159912109375,-400000.0625,-400000.0625,-400000.0625
1.924872875213623,-6434.580078125,-17564.16015625,295.8800048828125,-400000.0625,-3947.780029296875,-400000.0625,-400000.0625,-400000.0625
1.9248764514923096,-6477.8798828125,-17606.689453125,259.8800048828125,-400000.0625,-3984.97998046875,-400000.0625,-400000.0625,-400000.0625
1.9248805046081543,-6549.93017578125,-17674.5,207.19000244140625,-400000.0625,-4034.139892578125,-400000.0625,-400000.0625,-400000.0625
1.92488431930542,-6543.06005859375,-17674.73046875,209.89999389648438,-400000.0625,-4037.239990234375,-400000.0625,-400000.0625,-400000.0625
1.9248881340026855,-6474.35009765625,-17606.400390625,263.07000732421875,-400000.0625,-3989.739990234375,-400000.0625,-400000.0625,-400000.0625
1.9249026775360107,-6430.2900390625,-17559.05078125,295.5899963378906,-400000.0625,-3960.7099609375,-400000.0625,-400000.0625,-400000.0625
1.9249072074890137,-6468.72998046875,-17601.109375,263.739990234375,-400000.0625,-3992.27001953125,-400000.0625,-400000.0625,-400000.0625
1.9249114990234375,-6539.77001953125,-17670.869140625,210.57000732421875,-400000.0625,-4043.8701171875,-400000.0625,-400000.0625,-400000.0625
1.9249165058135986,-6543.58984375,-17675.5,207.9499969482422,-400000.0625,-4041.14990234375,-400000.0625,-400000.0625,-400000.0625
1.9249203205108643,-6475.16015625,-17608.5,260.92999267578125,-400000.0625,-3982.260009765625,-400000.0625,-400000.0625,-400000.0625
1.9249241352081299,-6429.6298828125,-17563.630859375,295.7799987792969,-400000.0625,-3948.31005859375,-400000.0625,-400000.0625,-400000.0625
1.9249279499053955,-6471.43994140625,-17605.349609375,261.2099914550781,-400000.0625,-3980.72998046875,-400000.0625,-400000.0625,-400000.0625
1.9249317646026611,-6538.25,-17674.880859375,209.80999755859375,-400000.0625,-4035.18994140625,-400000.0625,-400000.0625,-400000.0625
1.9249358177185059,-6537.8701171875,-17674.640625,213.0500030517578,-400000.0625,-4040.429931640625,-400000.0625,-400000.0625,-400000.0625
1.9249393939971924,-6468.6298828125,-17603.2109375,267.0299987792969,-400000.0625,-3987.60009765625,-400000.0625,-400000.0625,-400000.0625
1.924943208694458,-6422.27978515625,-17554.7109375,303.32000732421875,-400000.0625,-3952.360107421875,-400000.0625,-400000.0625,-400000.0625
1.9249470233917236,-6463.9599609375,-17599.390625,265.6499938964844,-400000.0625,-3980.969970703125,-400000.0625,-400000.0625,-400000.0625
1.9249505996704102,-6537.490234375,-17673.58984375,210.19000244140625,-400000.0625,-4029.610107421875,-400000.0625,-400000.0625,-400000.0625
1.9249544143676758,-6537.6298828125,-17674.2109375,209.7100067138672,-400000.0625,-4034.85009765625,-400000.0625,-400000.0625,-400000.0625
1.924959421157837,-6469.2001953125,-17603.44921875,261.69000244140625,-400000.0625,-3980.2099609375,-400000.0625,-400000.0625,-400000.0625
1.924964189529419,-6426.9599609375,-17557.380859375,296.07000732421875,-400000.0625,-3944.830078125,-400000.0625,-400000.0625,-400000.0625
1.9299418926239014,-6467.580078125,-17599.16015625,264.6000061035156,-400000.0625,-3977.159912109375,-400000.0625,-400000.0625,-400000.0625
1.968756914138794,-6536.2001953125,-17668.919921875,213.10000610351562,-400000.0625,-4036.6201171875,-400000.0625,-400000.0625,-400000.0625
1.974531650543213,-6535.47998046875,-17671.16015625,212.24000549316406,-400000.0625,-4042.909912109375,-400000.0625,-400000.0625,-400000.0625
1.9798104763031006,-6464.91015625,-17601.30078125,265.260009765625,-400000.0625,-3988.169921875,-400000.0625,-400000.0625,-400000.0625
1.9844725131988525,-6422.43017578125,-17552.810546875,300.3599853515625,-400000.0625,-3957.800048828125,-400000.0625,-400000.0625,-400000.0625
1.9844818115234375,-6470.5400390625,-17599.009765625,263.1199951171875,-400000.0625,-3994.75,-400000.0625,-400000.0625,-400000.0625
1.9844863414764404,-6539.2998046875,-17669.630859375,207.66000366210938,-400000.0625,-4038.2900390625,-400000.0625,-400000.0625,-400000.0625
1.9844908714294434,-6534.2900390625,-17672.16015625,211.6699981689453,-400000.0625,-4033.659912109375,-400000.0625,-400000.0625,-400000.0625
1.9844956398010254,-6468.25,-17601.2109375,264.92999267578125,-400000.0625,-3983.360107421875,-400000.0625,-400000.0625,-400000.0625
1.984499454498291,-6427.72021484375,-17555.05078125,297.739990234375,-400000.0625,-3952.219970703125,-400000.0625,-400000.0625,-400000.0625
1.9845032691955566,-6470.25,-17598.9609375,262.69000244140625,-400000.0625,-3979.159912109375,-400000.0625,-400000.0625,-400000.0625
1.9845070838928223,-6536.52978515625,-17668.439453125,211.57000732421875,-400000.0625,-4031.469970703125,-400000.0625,-400000.0625,-400000.0625
1.9845106601715088,-6532.72021484375,-17664.2890625,217.00999450683594,-400000.0625,-4037.18994140625,-400000.0625,-400000.0625,-400000.0625
1.9845144748687744,-6461.72021484375,-17594.9609375,271.1300048828125,-400000.0625,-3989.510009765625,-400000.0625,-400000.0625,-400000.0625
1.984527587890625,-6419.22998046875,-17550.470703125,303.4100036621094,-400000.0625,-3956.840087890625,-400000.0625,-400000.0625,-400000.0625
1.9845316410064697,-6466.39013671875,-17595.8203125,266.9800109863281,-400000.0625,-3988.080078125,-400000.0625,-400000.0625,-400000.0625
1.9845354557037354,-6535.240234375,-17670.25,213.19000244140625,-400000.0625,-4032.419921875,-400000.0625,-400000.0625,-400000.0625
2.0364456176757812,-6530.3798828125,-17667.919921875,212.80999755859375,-400000.0625,-4029.800048828125,-400000.0625,-400000.0625,-400000.0625
2.0482921600341797,-6463.47998046875,-17599.25,265.3599853515625,-400000.0625,-3979.8701171875,-400000.0625,-400000.0625,-400000.0625
2.0528781414031982,-6428.2900390625,-17565.060546875,292.8699951171875,-400000.0625,-3952.929931640625,-400000.0625,-400000.0625,-400000.0625
2.052886962890625,-6471.43994140625,-17606.740234375,259.7300109863281,-400000.0625,-3984.5,-400000.0625,-400000.0625,-400000.0625
2.052891492843628,-6535.14990234375,-17675.400390625,208.22999572753906,-400000.0625,-4041.580078125,-400000.0625,-400000.0625,-400000.0625
2.0528955459594727,-6530.14013671875,-17670.490234375,212.9600067138672,-400000.0625,-4043.47998046875,-400000.0625,-400000.0625,-400000.0625
2.0528995990753174,-6465.39013671875,-17602.6796875,263.07000732421875,-400000.0625,-3987.409912109375,-400000.0625,-400000.0625,-400000.0625
2.052903652191162,-6422.0,-17563.439453125,293.3999938964844,-400000.0625,-3957.030029296875,-400000.0625,-400000.0625,-400000.0625
2.0529074668884277,-6467.8701171875,-17606.830078125,260.2099914550781,-400000.0625,-3986.449951171875,-400000.0625,-400000.0625,-400000.0625
2.0529112815856934,-6536.72021484375,-17674.0703125,207.9499969482422,-400000.0625,-4035.330078125,-400000.0625,-400000.0625,-400000.0625
2.052921772003174,-6532.9599609375,-17673.830078125,209.7100067138672,-400000.0625,-4036.0,-400000.0625,-400000.0625,-400000.0625
2.0529260635375977,-6464.81982421875,-17604.73046875,262.739990234375,-400000.0625,-3985.68994140625,-400000.0625,-400000.0625,-400000.0625
2.0529301166534424,-6428.77001953125,-17563.919921875,291.1099853515625,-400000.0625,-3952.1201171875,-400000.0625,-400000.0625,-400000.0625
2.052933692932129,-6474.02001953125,-17610.4609375,252.77000427246094,-400000.0625,-3984.5,-400000.0625,-400000.0625,-400000.0625
2.0529375076293945,-6541.16015625,-17680.740234375,199.50999450683594,-400000.0625,-4041.77001953125,-400000.0625,-400000.0625,-400000.0625
2.05294132232666,-6539.009765625,-17678.41015625,203.3699951171875,-400000.0625,-4047.110107421875,-400000.0625,-400000.0625,-400000.0625
2.0964245796203613,-6474.16015625,-17607.400390625,259.9700012207031,-400000.0625,-3991.889892578125,-400000.0625,-400000.0625,-400000.0625
2.107677936553955,-6434.06005859375,-17565.919921875,289.7300109863281,-400000.0625,-3952.409912109375,-400000.0625,-400000.0625,-400000.0625
2.1122782230377197,-6474.77978515625,-17607.259765625,255.72999572753906,-400000.0625,-3988.4599609375,-400000.0625,-400000.0625,-400000.0625
2.112286329269409,-6543.35009765625,-17673.640625,205.4199981689453,-400000.0625,-4047.35009765625,-400000.0625,-400000.0625,-400000.0625
2.1122913360595703,-6540.10986328125,-17675.349609375,206.89999389648438,-400000.0625,-4042.010009765625,-400000.0625,-400000.0625,-400000.0625
2.112295389175415,-6470.97021484375,-17606.830078125,260.07000732421875,-400000.0625,-3982.68994140625,-400000.0625,-400000.0625,-400000.0625
2.112299680709839,-6431.06005859375,-17564.25,292.5400085449219,-400000.0625,-3947.830078125,-400000.0625,-400000.0625,-400000.0625
2.1123039722442627,-6476.02001953125,-17608.359375,259.6400146484375,-400000.0625,-3980.8798828125,-400000.0625,-400000.0625,-400000.0625
2.1123080253601074,-6539.72998046875,-17673.109375,212.0,-400000.0625,-4036.3798828125,-400000.0625,-400000.0625,-400000.0625
2.1123199462890625,-6536.77001953125,-17670.919921875,215.91000366210938,-400000.0625,-4039.909912109375,-400000.0625,-400000.0625,-400000.0625
2.1123244762420654,-6474.68994140625,-17609.41015625,261.260009765625,-400000.0625,-3992.800048828125,-400000.0625,-400000.0625,-400000.0625
2.112328290939331,-6434.43994140625,-17567.58984375,291.44000244140625,-400000.0625,-3954.510009765625,-400000.0625,-400000.0625,-400000.0625
2.112332344055176,-6480.31005859375,-17609.98046875,256.9200134277344,-400000.0625,-3984.8798828125,-400000.0625,-400000.0625,-400000.0625
2.1123363971710205,-6543.97021484375,-17676.310546875,205.47000122070312,-400000.0625,-4037.47998046875,-400000.0625,-400000.0625,-400000.0625
2.112340211868286,-6540.72998046875,-17674.779296875,206.61000061035156,-400000.0625,-4039.0,-400000.0625,-400000.0625,-400000.0625
2.112344264984131,-6475.740234375,-17608.7890625,258.7799987792969,-400000.0625,-3987.27001953125,-400000.0625,-400000.0625,-400000.0625
2.1851837635040283,-6437.72998046875,-17570.16015625,287.20001220703125,-400000.0625,-3951.550048828125,-400000.0625,-400000.0625,-400000.0625
2.194884777069092,-6481.27001953125,-17612.55078125,253.8699951171875,-400000.0625,-3983.39990234375,-400000.0625,-400000.0625,-400000.0625
2.199542284011841,-6547.169921875,-17683.650390625,198.88999938964844,-400000.0625,-4041.429931640625,-400000.0625,-400000.0625,-400000.0625
2.199551582336426,-6540.35009765625,-17678.359375,205.13999938964844,-400000.0625,-4043.010009765625,-400000.0625,-400000.0625,-400000.0625
2.19956111907959,-6472.02001953125,-17605.5,262.2099914550781,-400000.0625,-3989.510009765625,-400000.0625,-400000.0625,-400000.0625
2.1995656490325928,-6434.16015625,-17561.33984375,293.1600036621094,-400000.0625,-3959.469970703125,-400000.0625,-400000.0625,-400000.0625
2.199570894241333,-6480.35986328125,-17609.169921875,257.29998779296875,-400000.0625,-3986.169921875,-400000.0625,-400000.0625,-400000.0625
2.1995747089385986,-6547.830078125,-17677.169921875,204.22999572753906,-400000.0625,-4034.22998046875,-400000.0625,-400000.0625,-400000.0625
2.1995787620544434,-6544.58984375,-17678.169921875,205.75999450683594,-400000.0625,-4038.050048828125,-400000.0625,-400000.0625,-400000.0625
2.199582576751709,-6476.58984375,-17611.169921875,256.8699951171875,-400000.0625,-3987.7900390625,-400000.0625,-400000.0625,-400000.0625
2.1995861530303955,-6435.72998046875,-17571.830078125,285.2900085449219,-400000.0625,-3951.8798828125,-400000.0625,-400000.0625,-400000.0625
2.199589967727661,-6481.1201171875,-17611.509765625,251.77000427246094,-400000.0625,-3985.739990234375,-400000.0625,-400000.0625,-400000.0625
2.1995937824249268,-6544.2998046875,-17682.220703125,199.41000366210938,-400000.0625,-4042.10009765625,-400000.0625,-400000.0625,-400000.0625
2.1995975971221924,-6539.009765625,-17675.58984375,205.66000366210938,-400000.0625,-4048.590087890625,-400000.0625,-400000.0625,-400000.0625
2.199601888656616,-6474.5400390625,-17608.220703125,258.45001220703125,-400000.0625,-3991.4599609375,-400000.0625,-400000.0625,-400000.0625
2.199605703353882,-6434.68017578125,-17569.2109375,289.3399963378906,-400000.0625,-3948.639892578125,-400000.0625,-400000.0625,-400000.0625
2.263256072998047,-6477.5498046875,-17606.119140625,257.1099853515625,-400000.0625,-3981.5400390625,-400000.0625,-400000.0625,-400000.0625
2.2691564559936523,-6543.10986328125,-17676.16015625,207.61000061035156,-400000.0625,-4035.81005859375,-400000.0625,-400000.0625,-400000.0625
2.273690700531006,-6540.35009765625,-17670.779296875,215.86000061035156,-400000.0625,-4032.56005859375,-400000.0625,-400000.0625,-400000.0625
2.2736997604370117,-6470.5400390625,-17597.30078125,269.8399963378906,-400000.0625,-3978.919921875,-400000.0625,-400000.0625,-400000.0625
2.2737176418304443,-6434.2998046875,-17561.150390625,294.9700012207031,-400000.0625,-3946.590087890625,-400000.0625,-400000.0625,-400000.0625
2.273721933364868,-6478.41015625,-17609.41015625,261.07000732421875,-400000.0625,-3980.06005859375,-400000.0625,-400000.0625,-400000.0625
2.273726224899292,-6540.25,-17676.310546875,210.0,-400000.0625,-4037.760009765625,-400000.0625,-400000.0625,-400000.0625
2.2737302780151367,-6535.14990234375,-17671.400390625,212.86000061035156,-400000.0625,-4039.81005859375,-400000.0625,-400000.0625,-400000.0625
2.2737340927124023,-6471.10986328125,-17609.119140625,260.30999755859375,-400000.0625,-3982.5400390625,-400000.0625,-400000.0625,-400000.0625
2.273737907409668,-6432.490234375,-17566.970703125,289.3900146484375,-400000.0625,-3950.2099609375,-400000.0625,-400000.0625,-400000.0625
2.2737414836883545,-6473.490234375,-17602.060546875,262.07000732421875,-400000.0625,-3981.919921875,-400000.0625,-400000.0625,-400000.0625
2.273745536804199,-6540.490234375,-17672.16015625,210.47999572753906,-400000.0625,-4032.419921875,-400000.0625,-400000.0625,-400000.0625
2.2737491130828857,-6540.16015625,-17672.25,208.08999633789062,-400000.0625,-4030.75,-400000.0625,-400000.0625,-400000.0625
2.2737529277801514,-6473.830078125,-17603.970703125,259.29998779296875,-400000.0625,-3977.489990234375,-400000.0625,-400000.0625,-400000.0625
2.273756742477417,-6436.97021484375,-17566.16015625,288.3900146484375,-400000.0625,-3949.449951171875,-400000.0625,-400000.0625,-400000.0625
2.2737605571746826,-6478.60009765625,-17605.970703125,257.05999755859375,-400000.0625,-3978.5400390625,-400000.0625,-400000.0625,-400000.0625
2.2983269691467285,-6542.2099609375,-17672.970703125,207.3300018310547,-400000.0625,-4032.610107421875,-400000.0625,-400000.0625,-400000.0625
2.3143022060394287,-6538.52978515625,-17672.44921875,211.0500030517578,-400000.0625,-4036.139892578125,-400000.0625,-400000.0625,-400000.0625
2.3193933963775635,-6471.009765625,-17607.55078125,259.5899963378906,-400000.0625,-3993.080078125,-400000.0625,-400000.0625,-400000.0625
2.324185609817505,-6435.5400390625,-17563.580078125,289.6300048828125,-400000.0625,-3958.419921875,-400000.0625,-400000.0625,-400000.0625
2.3241937160491943,-6484.080078125,-17607.119140625,256.010009765625,-400000.0625,-3984.550048828125,-400000.0625,-400000.0625,-400000.0625
2.3241991996765137,-6546.06982421875,-17678.259765625,202.3699951171875,-400000.0625,-4031.7099609375,-400000.0625,-400000.0625,-400000.0625
2.3242039680480957,-6539.06005859375,-17671.630859375,208.89999389648438,-400000.0625,-4026.219970703125,-400000.0625,-400000.0625,-400000.0625
2.3242087364196777,-6473.72998046875,-17604.310546875,260.92999267578125,-400000.0625,-3979.300048828125,-400000.0625,-400000.0625,-400000.0625
2.3242130279541016,-6434.6298828125,-17563.30078125,290.25,-400000.0625,-3948.449951171875,-400000.0625,-400000.0625,-400000.0625
2.3242173194885254,-6482.22021484375,-17609.55078125,253.8699951171875,-400000.0625,-3979.159912109375,-400000.0625,-400000.0625,-400000.0625
2.324221611022949,-6548.60009765625,-17681.119140625,199.41000366210938,-400000.0625,-4033.280029296875,-400000.0625,-400000.0625,-400000.0625
2.324226140975952,-6543.2099609375,-17672.830078125,206.61000061035156,-400000.0625,-4034.949951171875,-400000.0625,-400000.0625,-400000.0625
2.324230670928955,-6474.35009765625,-17606.55078125,260.7300109863281,-400000.0625,-3989.080078125,-400000.0625,-400000.0625,-400000.0625
2.3242347240448,-6435.35009765625,-17566.2109375,289.9599914550781,-400000.0625,-3956.030029296875,-400000.0625,-400000.0625,-400000.0625
2.3242390155792236,-6482.509765625,-17612.41015625,250.86000061035156,-400000.0625,-3983.929931640625,-400000.0625,-400000.0625,-400000.0625
2.3242437839508057,-6546.35986328125,-17681.7890625,198.50999450683594,-400000.0625,-4035.570068359375,-400000.0625,-400000.0625,-400000.0625
2.3551478385925293,-6540.8701171875,-17676.400390625,206.61000061035156,-400000.0625,-4036.949951171875,-400000.0625,-400000.0625,-400000.0625
2.3614490032196045,-6474.919921875,-17605.830078125,260.9700012207031,-400000.0625,-3989.360107421875,-400000.0625,-400000.0625,-400000.0625
2.3662304878234863,-6433.009765625,-17562.33984375,292.8699951171875,-400000.0625,-3948.5,-400000.0625,-400000.0625,-400000.0625
2.366239309310913,-6481.7001953125,-17611.740234375,254.5800018310547,-400000.0625,-3972.10009765625,-400000.0625,-400000.0625,-400000.0625
2.366244077682495,-6549.1201171875,-17685.369140625,198.7899932861328,-400000.0625,-4029.1298828125,-400000.0625,-400000.0625,-400000.0625
2.366248369216919,-6543.490234375,-17677.98046875,206.3800048828125,-400000.0625,-4033.330078125,-400000.0625,-400000.0625,-400000.0625
2.3662524223327637,-6472.490234375,-17610.740234375,260.260009765625,-400000.0625,-3982.02001953125,-400000.0625,-400000.0625,-400000.0625
2.3662562370300293,-6431.33984375,-17569.779296875,292.44000244140625,-400000.0625,-3946.5400390625,-400000.0625,-400000.0625,-400000.0625
2.366260290145874,-6476.68994140625,-17611.9296875,259.2099914550781,-400000.0625,-3978.72998046875,-400000.0625,-400000.0625,-400000.0625
2.3662641048431396,-6541.39990234375,-17676.259765625,207.3300018310547,-400000.0625,-4033.89990234375,-400000.0625,-400000.0625,-400000.0625
2.3662679195404053,-6532.9599609375,-17670.779296875,213.2899932861328,-400000.0625,-4037.47998046875,-400000.0625,-400000.0625,-400000.0625
2.366276264190674,-6463.85986328125,-17601.58984375,269.75,-400000.0625,-3984.8798828125,-400000.0625,-400000.0625,-400000.0625
2.3662805557250977,-6427.10009765625,-17561.390625,297.8299865722656,-400000.0625,-3945.780029296875,-400000.0625,-400000.0625,-400000.0625
2.3662846088409424,-6469.39013671875,-17606.359375,263.0199890136719,-400000.0625,-3976.5400390625,-400000.0625,-400000.0625,-400000.0625
2.366288423538208,-6533.81005859375,-17675.01953125,211.52000427246094,-400000.0625,-4028.419921875,-400000.0625,-400000.0625,-400000.0625
2.36629319190979,-6530.81005859375,-17674.310546875,213.72000122070312,-400000.0625,-4026.219970703125,-400000.0625,-400000.0625,-400000.0625
2.418184518814087,-6464.91015625,-17606.880859375,262.92999267578125,-400000.0625,-3975.199951171875,-400000.0625,-400000.0625,-400000.0625
2.428630828857422,-6425.669921875,-17562.869140625,294.9200134277344,-400000.0625,-3944.919921875,-400000.0625,-400000.0625,-400000.0625
2.433485269546509,-6471.58984375,-17604.689453125,261.54998779296875,-400000.0625,-3976.969970703125,-400000.0625,-400000.0625,-400000.0625
2.4334945678710938,-6536.2001953125,-17672.400390625,212.80999755859375,-400000.0625,-4031.22998046875,-400000.0625,-400000.0625,-400000.0625
2.433499336242676,-6524.990234375,-17666.8203125,218.77000427246094,-400000.0625,-4034.330078125,-400000.0625,-400000.0625,-400000.0625
2.4335031509399414,-6454.66015625,-17597.30078125,273.4700012207031,-400000.0625,-3982.969970703125,-400000.0625,-400000.0625,-400000.0625
2.4335074424743652,-6418.93994140625,-17560.529296875,301.5,-400000.0625,-3950.7900390625,-400000.0625,-400000.0625,-400000.0625
2.433511257171631,-6468.81982421875,-17609.41015625,261.260009765625,-400000.0625,-3977.679931640625,-400000.0625,-400000.0625,-400000.0625
2.4335150718688965,-6538.009765625,-17672.16015625,209.52000427246094,-400000.0625,-4024.080078125,-400000.0625,-400000.0625,-400000.0625
2.433518886566162,-6529.0498046875,-17667.439453125,212.33999633789062,-400000.0625,-4029.85009765625,-400000.0625,-400000.0625,-400000.0625
2.4335227012634277,-6462.18994140625,-17605.349609375,262.1199951171875,-400000.0625,-3985.1201171875,-400000.0625,-400000.0625,-400000.0625
2.4335265159606934,-6427.10009765625,-17566.01953125,292.3999938964844,-400000.0625,-3948.02001953125,-400000.0625,-400000.0625,-400000.0625
2.433530330657959,-6473.830078125,-17611.7890625,257.1600036621094,-400000.0625,-3973.47998046875,-400000.0625,-400000.0625,-400000.0625
2.433539628982544,-6539.77001953125,-17686.3203125,201.85000610351562,-400000.0625,-4032.659912109375,-400000.0625,-400000.0625,-400000.0625
2.433544635772705,-6532.72021484375,-17677.259765625,207.57000732421875,-400000.0625,-4032.659912109375,-400000.0625,-400000.0625,-400000.0625
2.4335484504699707,-6462.85986328125,-17603.970703125,263.6400146484375,-400000.0625,-3980.8798828125,-400000.0625,-400000.0625,-400000.0625
2.4837121963500977,-6426.759765625,-17567.060546875,290.5400085449219,-400000.0625,-3949.639892578125,-400000.0625,-400000.0625,-400000.0625
2.489802122116089,-6475.830078125,-17617.849609375,251.00999450683594,-400000.0625,-3979.780029296875,-400000.0625,-400000.0625,-400000.0625
2.4944820404052734,-6544.10986328125,-17692.0390625,194.69000244140625,-400000.0625,-4029.989990234375,-400000.0625,-400000.0625,-400000.0625
2.4944915771484375,-6536.43994140625,-17685.509765625,199.50999450683594,-400000.0625,-4031.85009765625,-400000.0625,-400000.0625,-400000.0625
2.4944963455200195,-6468.919921875,-17613.3203125,256.44000244140625,-400000.0625,-3980.35009765625,-400000.0625,-400000.0625,-400000.0625
2.4945003986358643,-6433.14990234375,-17573.599609375,284.42999267578125,-400000.0625,-3949.97998046875,-400000.0625,-400000.0625,-400000.0625
2.494504690170288,-6478.02001953125,-17618.130859375,249.9600067138672,-400000.0625,-3983.070068359375,-400000.0625,-400000.0625,-400000.0625
2.4945085048675537,-6541.919921875,-17686.369140625,201.17999267578125,-400000.0625,-4034.570068359375,-400000.0625,-400000.0625,-400000.0625
2.4945125579833984,-6533.52978515625,-17679.98046875,206.85000610351562,-400000.0625,-4029.22998046875,-400000.0625,-400000.0625,-400000.0625
2.494516611099243,-6466.47998046875,-17612.130859375,258.29998779296875,-400000.0625,-3977.590087890625,-400000.0625,-400000.0625,-400000.0625
2.494520664215088,-6430.009765625,-17571.7890625,286.3900146484375,-400000.0625,-3949.929931640625,-400000.0625,-400000.0625,-400000.0625
2.4945247173309326,-6475.1201171875,-17620.330078125,250.72000122070312,-400000.0625,-3977.489990234375,-400000.0625,-400000.0625,-400000.0625
2.4945414066314697,-6538.81982421875,-17687.419921875,200.6999969482422,-400000.0625,-4029.610107421875,-400000.0625,-400000.0625,-400000.0625
2.4945480823516846,-6534.2001953125,-17680.359375,204.32000732421875,-400000.0625,-4031.179931640625,-400000.0625,-400000.0625,-400000.0625
2.49455189704895,-6469.35009765625,-17612.650390625,255.3000030517578,-400000.0625,-3982.02001953125,-400000.0625,-400000.0625,-400000.0625
2.494555950164795,-6430.2900390625,-17573.41015625,283.3800048828125,-400000.0625,-3949.260009765625,-400000.0625,-400000.0625,-400000.0625
2.566291332244873,-6475.5400390625,-17618.470703125,249.1999969482422,-400000.0625,-3982.1201171875,-400000.0625,-400000.0625,-400000.0625
2.578296184539795,-6540.8701171875,-17685.990234375,198.1699981689453,-400000.0625,-4036.280029296875,-400000.0625,-400000.0625,-400000.0625
2.5848865509033203,-6533.72021484375,-17674.01953125,207.85000610351562,-400000.0625,-4031.93994140625,-400000.0625,-400000.0625,-400000.0625
2.590222120285034,-6466.52978515625,-17606.259765625,257.29998779296875,-400000.0625,-3981.919921875,-400000.0625,-400000.0625,-400000.0625
2.5951426029205322,-6430.14990234375,-17570.349609375,283.3800048828125,-400000.0625,-3949.929931640625,-400000.0625,-400000.0625,-400000.0625
2.595151901245117,-6481.27001953125,-17617.900390625,249.24000549316406,-400000.0625,-3978.830078125,-400000.0625,-400000.0625,-400000.0625
2.595156192779541,-6545.1201171875,-17685.650390625,197.22000122070312,-400000.0625,-4031.7099609375,-400000.0625,-400000.0625,-400000.0625
2.595160484313965,-6534.669921875,-17674.400390625,208.89999389648438,-400000.0625,-4026.4599609375,-400000.0625,-400000.0625,-400000.0625
2.5951857566833496,-6467.43994140625,-17603.970703125,262.8800048828125,-400000.0625,-3978.72998046875,-400000.0625,-400000.0625,-400000.0625
2.5951900482177734,-6432.6298828125,-17567.5390625,288.3900146484375,-400000.0625,-3948.639892578125,-400000.0625,-400000.0625,-400000.0625
2.595193862915039,-6479.68994140625,-17616.939453125,252.77000427246094,-400000.0625,-3975.919921875,-400000.0625,-400000.0625,-400000.0625
2.595197916030884,-6539.919921875,-17680.689453125,204.52000427246094,-400000.0625,-4025.56005859375,-400000.0625,-400000.0625,-400000.0625
2.5952017307281494,-6532.85986328125,-17677.880859375,210.0500030517578,-400000.0625,-4024.360107421875,-400000.0625,-400000.0625,-400000.0625
2.595205545425415,-6466.47998046875,-17609.310546875,263.8299865722656,-400000.0625,-3975.25,-400000.0625,-400000.0625,-400000.0625
2.5952095985412598,-6431.39013671875,-17570.2109375,292.67999267578125,-400000.0625,-3948.780029296875,-400000.0625,-400000.0625,-400000.0625
2.5952136516571045,-6483.35986328125,-17616.69921875,254.77000427246094,-400000.0625,-3982.39990234375,-400000.0625,-400000.0625,-400000.0625
2.6395535469055176,-6548.97998046875,-17683.130859375,203.55999755859375,-400000.0625,-4029.510009765625,-400000.0625,-400000.0625,-400000.0625
2.6461098194122314,-6537.8701171875,-17678.310546875,208.08999633789062,-400000.0625,-4023.840087890625,-400000.0625,-400000.0625,-400000.0625
2.651571035385132,-6471.2998046875,-17608.259765625,262.54998779296875,-400000.0625,-3975.77001953125,-400000.0625,-400000.0625,-400000.0625
2.6577486991882324,-6432.490234375,-17567.109375,293.3999938964844,-400000.0625,-3942.110107421875,-400000.0625,-400000.0625,-400000.0625
2.6626482009887695,-6479.5,-17618.0390625,254.33999633789062,-400000.0625,-3976.679931640625,-400000.0625,-400000.0625,-400000.0625
2.662656307220459,-6543.97021484375,-17683.130859375,205.17999267578125,-400000.0625,-4031.989990234375,-400000.0625,-400000.0625,-400000.0625
2.662660598754883,-6534.2900390625,-17678.599609375,207.7100067138672,-400000.0625,-4035.85009765625,-400000.0625,-400000.0625,-400000.0625
2.6626646518707275,-6467.06005859375,-17608.55078125,260.7300109863281,-400000.0625,-3979.06005859375,-400000.0625,-400000.0625,-400000.0625
2.6626691818237305,-6428.33984375,-17570.55078125,289.05999755859375,-400000.0625,-3947.5,-400000.0625,-400000.0625,-400000.0625
2.662672996520996,-6477.06982421875,-17617.609375,251.9600067138672,-400000.0625,-3985.639892578125,-400000.0625,-400000.0625,-400000.0625
2.6626765727996826,-6544.8798828125,-17685.029296875,201.3699951171875,-400000.0625,-4035.429931640625,-400000.0625,-400000.0625,-400000.0625
2.6626808643341064,-6535.47998046875,-17682.7890625,208.3800048828125,-400000.0625,-4032.89990234375,-400000.0625,-400000.0625,-400000.0625
2.662684679031372,-6467.6298828125,-17612.41015625,262.69000244140625,-400000.0625,-3983.68994140625,-400000.0625,-400000.0625,-400000.0625
2.6626884937286377,-6430.9599609375,-17571.01953125,292.7300109863281,-400000.0625,-3948.1201171875,-400000.0625,-400000.0625,-400000.0625
2.6626923084259033,-6481.1201171875,-17618.3203125,256.44000244140625,-400000.0625,-3979.8701171875,-400000.0625,-400000.0625,-400000.0625
2.662696361541748,-6544.77978515625,-17686.609375,204.94000244140625,-400000.0625,-4037.050048828125,-400000.0625,-400000.0625,-400000.0625
2.6769063472747803,-6543.490234375,-17684.560546875,206.57000732421875,-400000.0625,-4034.7099609375,-400000.0625,-400000.0625,-400000.0625
2.688138246536255,-6476.39990234375,-17619.94921875,259.2099914550781,-400000.0625,-3980.919921875,-400000.0625,-400000.0625,-400000.0625
2.6932427883148193,-6437.8701171875,-17574.880859375,290.1099853515625,-400000.0625,-3950.31005859375,-400000.0625,-400000.0625,-400000.0625
2.705113172531128,-6485.31982421875,-17619.80078125,255.00999450683594,-400000.0625,-3976.679931640625,-400000.0625,-400000.0625,-400000.0625
2.710879325866699,-6548.740234375,-17687.66015625,206.61000061035156,-400000.0625,-4027.320068359375,-400000.0625,-400000.0625,-400000.0625
2.7162342071533203,-6539.43994140625,-17681.220703125,213.52999877929688,-400000.0625,-4032.610107421875,-400000.0625,-400000.0625,-400000.0625
2.721374750137329,-6470.25,-17605.970703125,269.4599914550781,-400000.0625,-3976.010009765625,-400000.0625,-400000.0625,-400000.0625
2.7262203693389893,-6434.6298828125,-17567.30078125,297.260009765625,-400000.0625,-3941.110107421875,-400000.0625,-400000.0625,-400000.0625
2.7262279987335205,-6482.740234375,-17620.23046875,259.29998779296875,-400000.0625,-3979.679931640625,-400000.0625,-400000.0625,-400000.0625
2.7262325286865234,-6549.5498046875,-17685.83984375,209.6199951171875,-400000.0625,-4032.090087890625,-400000.0625,-400000.0625,-400000.0625
2.7262370586395264,-6541.43994140625,-17677.01953125,216.91000366210938,-400000.0625,-4027.3701171875,-400000.0625,-400000.0625,-400000.0625
2.726241111755371,-6472.919921875,-17609.169921875,267.8900146484375,-400000.0625,-3978.110107421875,-400000.0625,-400000.0625,-400000.0625
2.7262449264526367,-6438.68994140625,-17568.830078125,294.8299865722656,-400000.0625,-3944.06005859375,-400000.0625,-400000.0625,-400000.0625
2.7262489795684814,-6485.419921875,-17617.0390625,258.7799987792969,-400000.0625,-3976.110107421875,-400000.0625,-400000.0625,-400000.0625
2.726253032684326,-6551.740234375,-17685.75,207.66000366210938,-400000.0625,-4029.510009765625,-400000.0625,-400000.0625,-400000.0625
2.726257085800171,-6538.81982421875,-17678.01953125,214.2899932861328,-400000.0625,-4026.989990234375,-400000.0625,-400000.0625,-400000.0625
2.736625909805298,-6464.52978515625,-17608.310546875,269.94000244140625,-400000.0625,-3977.6298828125,-400000.0625,-400000.0625,-400000.0625
2.7427239418029785,-6424.6201171875,-17565.630859375,300.69000244140625,-400000.0625,-3946.300048828125,-400000.0625,-400000.0625,-400000.0625
2.7481207847595215,-6474.5400390625,-17614.990234375,261.69000244140625,-400000.0625,-3982.39990234375,-400000.0625,-400000.0625,-400000.0625
2.753563642501831,-6543.35009765625,-17686.939453125,205.7100067138672,-400000.0625,-4039.909912109375,-400000.0625,-400000.0625,-400000.0625
2.7588016986846924,-6533.580078125,-17677.689453125,210.47999572753906,-400000.0625,-4038.429931640625,-400000.0625,-400000.0625,-400000.0625
2.7634923458099365,-6460.56982421875,-17610.650390625,264.30999755859375,-400000.0625,-3984.360107421875,-400000.0625,-400000.0625,-400000.0625
2.7634999752044678,-6425.2900390625,-17570.880859375,294.45001220703125,-400000.0625,-3944.449951171875,-400000.0625,-400000.0625,-400000.0625
2.763504981994629,-6476.830078125,-17612.55078125,261.7799987792969,-400000.0625,-3979.06005859375,-400000.0625,-400000.0625,-400000.0625
2.7635092735290527,-6542.10986328125,-17682.359375,207.22999572753906,-400000.0625,-4032.760009765625,-400000.0625,-400000.0625,-400000.0625
2.7635130882263184,-6532.72021484375,-17679.310546875,210.13999938964844,-400000.0625,-4030.179931640625,-400000.0625,-400000.0625,-400000.0625
2.763517379760742,-6464.39013671875,-17604.640625,266.5,-400000.0625,-3976.35009765625,-400000.0625,-400000.0625,-400000.0625
2.763521194458008,-6426.56982421875,-17563.25,297.3599853515625,-400000.0625,-3943.5400390625,-400000.0625,-400000.0625,-400000.0625
2.7635252475738525,-6475.16015625,-17615.419921875,258.489990234375,-400000.0625,-3981.8798828125,-400000.0625,-400000.0625,-400000.0625
2.763529062271118,-6541.72998046875,-17679.650390625,208.42999267578125,-400000.0625,-4037.7099609375,-400000.0625,-400000.0625,-400000.0625
2.763532876968384,-6533.580078125,-17670.400390625,213.10000610351562,-400000.0625,-4033.760009765625,-400000.0625,-400000.0625,-400000.0625
2.7635366916656494,-6460.9501953125,-17596.2890625,269.7900085449219,-400000.0625,-3978.8701171875,-400000.0625,-400000.0625,-400000.0625
2.816291332244873,-6426.2900390625,-17560.9609375,294.07000732421875,-400000.0625,-3949.39990234375,-400000.0625,-400000.0625,-400000.0625
2.8284716606140137,-6482.89013671875,-17614.990234375,251.47999572753906,-400000.0625,-3982.2099609375,-400000.0625,-400000.0625,-400000.0625
2.8343985080718994,-6552.22021484375,-17684.560546875,200.22000122070312,-400000.0625,-4035.570068359375,-400000.0625,-400000.0625,-400000.0625
2.839466094970703,-6539.72998046875,-17673.919921875,208.47000122070312,-400000.0625,-4033.760009765625,-400000.0625,-400000.0625,-400000.0625
2.8442440032958984,-6467.77001953125,-17602.400390625,264.92999267578125,-400000.0625,-3974.300048828125,-400000.0625,-400000.0625,-400000.0625
2.844251871109009,-6429.72021484375,-17564.580078125,296.0199890136719,-400000.0625,-3938.10009765625,-400000.0625,-400000.0625,-400000.0625
2.844256639480591,-6482.4599609375,-17614.1796875,255.8699951171875,-400000.0625,-3974.06005859375,-400000.0625,-400000.0625,-400000.0625
2.8442606925964355,-6546.5,-17680.740234375,207.7100067138672,-400000.0625,-4029.75,-400000.0625,-400000.0625,-400000.0625
2.844264507293701,-6535.77001953125,-17672.109375,216.00999450683594,-400000.0625,-4030.699951171875,-400000.0625,-400000.0625,-400000.0625
2.844268560409546,-6464.2001953125,-17600.19921875,269.6000061035156,-400000.0625,-3979.830078125,-400000.0625,-400000.0625,-400000.0625
2.8442721366882324,-6431.25,-17563.109375,293.3500061035156,-400000.0625,-3950.550048828125,-400000.0625,-400000.0625,-400000.0625
2.844275951385498,-6484.7001953125,-17616.130859375,251.44000244140625,-400000.0625,-3985.360107421875,-400000.0625,-400000.0625,-400000.0625
2.8442795276641846,-6551.89013671875,-17685.029296875,198.88999938964844,-400000.0625,-4035.469970703125,-400000.0625,-400000.0625,-400000.0625
2.84428334236145,-6541.919921875,-17686.990234375,203.27999877929688,-400000.0625,-4032.22998046875,-400000.0625,-400000.0625,-400000.0625
2.8442869186401367,-6472.64013671875,-17625.51953125,256.82000732421875,-400000.0625,-3977.300048828125,-400000.0625,-400000.0625,-400000.0625
2.8442907333374023,-6433.81982421875,-17583.419921875,290.9700012207031,-400000.0625,-3946.830078125,-400000.0625,-400000.0625,-400000.0625
2.871873617172241,-6486.3701171875,-17634.439453125,247.0,-400000.0625,-3983.1201171875,-400000.0625,-400000.0625,-400000.0625
2.8778460025787354,-6555.64990234375,-17704.919921875,186.5399932861328,-400000.0625,-4038.3798828125,-400000.0625,-400000.0625,-400000.0625
2.883223056793213,-6543.02001953125,-17700.8203125,190.72999572753906,-400000.0625,-4033.7099609375,-400000.0625,-400000.0625,-400000.0625
2.8887226581573486,-6470.6298828125,-17628.619140625,248.86000061035156,-400000.0625,-3974.77001953125,-400000.0625,-400000.0625,-400000.0625
2.8936617374420166,-6443.64013671875,-17593.4296875,273.2300109863281,-400000.0625,-3948.739990234375,-400000.0625,-400000.0625,-400000.0625
2.8936705589294434,-6497.669921875,-17652.23046875,228.8300018310547,-400000.0625,-3991.320068359375,-400000.0625,-400000.0625,-400000.0625
2.8936753273010254,-6560.27978515625,-17723.419921875,176.75999450683594,-400000.0625,-4038.6201171875,-400000.0625,-400000.0625,-400000.0625
2.89367938041687,-6549.5498046875,-17716.98046875,182.8699951171875,-400000.0625,-4031.93994140625,-400000.0625,-400000.0625,-400000.0625
2.893683433532715,-6475.35009765625,-17641.740234375,240.27999877929688,-400000.0625,-3973.820068359375,-400000.0625,-400000.0625,-400000.0625
2.8936874866485596,-6439.68994140625,-17605.640625,265.6000061035156,-400000.0625,-3944.969970703125,-400000.0625,-400000.0625,-400000.0625
2.8936917781829834,-6498.43017578125,-17655.80078125,225.58999633789062,-400000.0625,-3981.300048828125,-400000.0625,-400000.0625,-400000.0625
2.8936972618103027,-6559.7099609375,-17722.69921875,177.52999877929688,-400000.0625,-4032.3701171875,-400000.0625,-400000.0625,-400000.0625
2.8937010765075684,-6545.06982421875,-17709.349609375,188.25999450683594,-400000.0625,-4035.85009765625,-400000.0625,-400000.0625,-400000.0625
2.893704891204834,-6474.16015625,-17637.349609375,244.19000244140625,-400000.0625,-3986.409912109375,-400000.0625,-400000.0625,-400000.0625
2.8937084674835205,-6440.35009765625,-17598.19921875,273.79998779296875,-400000.0625,-3945.110107421875,-400000.0625,-400000.0625,-400000.0625
2.8937125205993652,-6496.14013671875,-17649.939453125,231.36000061035156,-400000.0625,-3980.02001953125,-400000.0625,-400000.0625,-400000.0625
2.9313018321990967,-6561.14013671875,-17720.650390625,178.0,-400000.0625,-4032.090087890625,-400000.0625,-400000.0625,-400000.0625
2.942061185836792,-6547.5498046875,-17710.2109375,189.69000244140625,-400000.0625,-4024.840087890625,-400000.0625,-400000.0625,-400000.0625
2.9470293521881104,-6471.009765625,-17635.869140625,247.42999267578125,-400000.0625,-3969.909912109375,-400000.0625,-400000.0625,-400000.0625
2.9470393657684326,-6438.4501953125,-17594.390625,277.57000732421875,-400000.0625,-3937.820068359375,-400000.0625,-400000.0625,-400000.0625
2.9470438957214355,-6492.66015625,-17650.1796875,237.4199981689453,-400000.0625,-3974.719970703125,-400000.0625,-400000.0625,-400000.0625
2.9470486640930176,-6555.509765625,-17717.7890625,186.97000122070312,-400000.0625,-4025.1298828125,-400000.0625,-400000.0625,-400000.0625
2.947052478790283,-6544.2998046875,-17705.390625,195.1699981689453,-400000.0625,-4029.699951171875,-400000.0625,-400000.0625,-400000.0625
2.947056293487549,-6471.35009765625,-17632.009765625,249.2899932861328,-400000.0625,-3976.199951171875,-400000.0625,-400000.0625,-400000.0625
2.9470603466033936,-6442.60009765625,-17600.400390625,273.1300048828125,-400000.0625,-3940.300048828125,-400000.0625,-400000.0625,-400000.0625
2.9470643997192383,-6495.14013671875,-17655.5703125,228.1199951171875,-400000.0625,-3983.969970703125,-400000.0625,-400000.0625,-400000.0625
2.947068452835083,-6559.66015625,-17724.08984375,178.47999572753906,-400000.0625,-4039.570068359375,-400000.0625,-400000.0625,-400000.0625
2.9527976512908936,-6548.06982421875,-17714.599609375,188.5399932861328,-400000.0625,-4026.510009765625,-400000.0625,-400000.0625,-400000.0625
2.9584872722625732,-6472.58984375,-17634.16015625,247.6199951171875,-400000.0625,-3968.139892578125,-400000.0625,-400000.0625,-400000.0625
2.963245153427124,-6436.2998046875,-17595.2890625,277.0899963378906,-400000.0625,-3940.9599609375,-400000.0625,-400000.0625,-400000.0625
2.963254451751709,-6490.89990234375,-17653.1796875,235.41000366210938,-400000.0625,-3985.97998046875,-400000.0625,-400000.0625,-400000.0625
2.96325945854187,-6559.419921875,-17722.23046875,183.6300048828125,-400000.0625,-4039.760009765625,-400000.0625,-400000.0625,-400000.0625
3.0187807083129883,-6550.64990234375,-17714.0703125,189.07000732421875,-400000.0625,-4028.320068359375,-400000.0625,-400000.0625,-400000.0625
3.031461238861084,-6476.93017578125,-17640.16015625,245.13999938964844,-400000.0625,-3971.239990234375,-400000.0625,-400000.0625,-400000.0625
3.0438222885131836,-6444.35986328125,-17605.01953125,269.3699951171875,-400000.0625,-3943.35009765625,-400000.0625,-400000.0625,-400000.0625
3.0512855052948,-6499.91015625,-17658.470703125,226.5500030517578,-400000.0625,-3983.360107421875,-400000.0625,-400000.0625,-400000.0625
3.0572330951690674,-6562.6201171875,-17722.990234375,178.86000061035156,-400000.0625,-4035.0400390625,-400000.0625,-400000.0625,-400000.0625
3.063030481338501,-6546.31005859375,-17712.2109375,189.9199981689453,-400000.0625,-4027.989990234375,-400000.0625,-400000.0625,-400000.0625
3.069524049758911,-6471.06005859375,-17640.2109375,245.7100067138672,-400000.0625,-3972.47998046875,-400000.0625,-400000.0625,-400000.0625
3.0744376182556152,-6434.06005859375,-17599.630859375,274.1300048828125,-400000.0625,-3939.489990234375,-400000.0625,-400000.0625,-400000.0625
3.074446201324463,-6490.759765625,-17653.23046875,230.22000122070312,-400000.0625,-3985.1201171875,-400000.0625,-400000.0625,-400000.0625
3.074450731277466,-6560.330078125,-17723.939453125,175.80999755859375,-400000.0625,-4045.25,-400000.0625,-400000.0625,-400000.0625
3.0744550228118896,-6549.22021484375,-17714.0703125,183.9199981689453,-400000.0625,-4033.3798828125,-400000.0625,-400000.0625,-400000.0625
3.0744590759277344,-6478.02001953125,-17636.869140625,241.99000549316406,-400000.0625,-3968.860107421875,-400000.0625,-400000.0625,-400000.0625
3.074462890625,-6445.64990234375,-17602.490234375,269.70001220703125,-400000.0625,-3938.14990234375,-400000.0625,-400000.0625,-400000.0625
3.0744664669036865,-6500.85986328125,-17666.9609375,227.5,-400000.0625,-3981.110107421875,-400000.0625,-400000.0625,-400000.0625
3.0744705200195312,-6565.18994140625,-17760.140625,166.94000244140625,-400000.0625,-4041.14990234375,-400000.0625,-400000.0625,-400000.0625
3.074474573135376,-6553.1298828125,-17742.30078125,186.5399932861328,-400000.0625,-4035.090087890625,-400000.0625,-400000.0625,-400000.0625
3.0744783878326416,-6488.60986328125,-17636.830078125,254.9600067138672,-400000.0625,-3964.3798828125,-400000.0625,-400000.0625,-400000.0625
3.0744822025299072,-6461.47998046875,-17612.26953125,276.3699951171875,-400000.0625,-3930.760009765625,-400000.0625,-400000.0625,-400000.0625
3.074486017227173,-6525.14013671875,-17682.509765625,229.1699981689453,-400000.0625,-3973.719970703125,-400000.0625,-400000.0625,-400000.0625
3.0744898319244385,-6594.18017578125,-17752.890625,182.9600067138672,-400000.0625,-4025.169921875,-400000.0625,-400000.0625,-400000.0625
3.074493885040283,-6582.830078125,-17751.41015625,192.02000427246094,-400000.0625,-4018.2099609375,-400000.0625,-400000.0625,-400000.0625
3.074497699737549,-6524.3701171875,-17681.890625,242.80999755859375,-400000.0625,-3959.85009765625,-400000.0625,-400000.0625,-400000.0625
3.0745017528533936,-6502.33984375,-17656.759765625,261.1600036621094,-400000.0625,-3930.18994140625,-400000.0625,-400000.0625,-400000.0625
3.0745058059692383,-6563.14013671875,-17713.41015625,216.52999877929688,-400000.0625,-3968.719970703125,-400000.0625,-400000.0625,-400000.0625
3.074509620666504,-6630.3701171875,-17783.740234375,167.66000366210938,-400000.0625,-4020.639892578125,-400000.0625,-400000.0625,-400000.0625
3.074514865875244,-6618.2099609375,-17775.630859375,177.75999450683594,-400000.0625,-4017.31005859375,-400000.0625,-400000.0625,-400000.0625
3.074519157409668,-6545.830078125,-17704.919921875,234.1699981689453,-400000.0625,-3959.27001953125,-400000.0625,-400000.0625,-400000.0625
3.0745229721069336,-6509.97021484375,-17677.0703125,258.260009765625,-400000.0625,-3933.050048828125,-400000.0625,-400000.0625,-400000.0625
3.07452654838562,-6565.47998046875,-17734.8203125,217.72000122070312,-400000.0625,-3975.72998046875,-400000.0625,-400000.0625,-400000.0625
3.074530601501465,-6627.990234375,-17800.859375,169.52000427246094,-400000.0625,-4022.550048828125,-400000.0625,-400000.0625,-400000.0625
3.079763650894165,-6612.06005859375,-17785.740234375,180.14999389648438,-400000.0625,-4013.010009765625,-400000.0625,-400000.0625,-400000.0625
3.08538556098938,-6538.77001953125,-17709.970703125,238.8000030517578,-400000.0625,-3956.699951171875,-400000.0625,-400000.0625,-400000.0625
3.123734951019287,-6512.2099609375,-17679.0703125,259.0199890136719,-400000.0625,-3929.18994140625,-400000.0625,-400000.0625,-400000.0625
3.1297192573547363,-6569.2001953125,-17738.060546875,213.6699981689453,-400000.0625,-3971.0,-400000.0625,-400000.0625,-400000.0625
3.1350839138031006,-6633.66015625,-17806.48046875,161.1699981689453,-400000.0625,-4029.56005859375,-400000.0625,-400000.0625,-400000.0625
3.1443169116973877,-6617.8798828125,-17794.08984375,171.61000061035156,-400000.0625,-4024.320068359375,-400000.0625,-400000.0625,-400000.0625
3.150236129760742,-6543.259765625,-17719.599609375,228.63999938964844,-400000.0625,-3965.659912109375,-400000.0625,-400000.0625,-400000.0625
3.155247688293457,-6512.39990234375,-17682.7890625,253.14999389648438,-400000.0625,-3928.7099609375,-400000.0625,-400000.0625,-400000.0625
3.160654306411743,-6567.43017578125,-17742.25,210.42999267578125,-400000.0625,-3967.81005859375,-400000.0625,-400000.0625,-400000.0625
3.1675872802734375,-6631.66015625,-17805.05078125,165.50999450683594,-400000.0625,-4022.7900390625,-400000.0625,-400000.0625,-400000.0625
3.1741366386413574,-6617.1201171875,-17791.4609375,178.47999572753906,-400000.0625,-4013.8701171875,-400000.0625,-400000.0625,-400000.0625
3.180842876434326,-6549.5,-17721.990234375,228.36000061035156,-400000.0625,-3956.800048828125,-400000.0625,-400000.0625,-400000.0625
3.1865224838256836,-6516.83984375,-17688.7109375,250.72000122070312,-400000.0625,-3927.090087890625,-400000.0625,-400000.0625,-400000.0625
3.1914894580841064,-6569.9599609375,-17742.58984375,209.75999450683594,-400000.0625,-3969.239990234375,-400000.0625,-400000.0625,-400000.0625
3.191498041152954,-6637.240234375,-17812.060546875,155.8300018310547,-400000.0625,-4032.7099609375,-400000.0625,-400000.0625,-400000.0625
3.191502332687378,-6624.02978515625,-17800.4296875,167.66000366210938,-400000.0625,-4027.27001953125,-400000.0625,-400000.0625,-400000.0625
3.191506862640381,-6548.93017578125,-17721.4609375,228.8800048828125,-400000.0625,-3965.090087890625,-400000.0625,-400000.0625,-400000.0625
3.1915111541748047,-6514.41015625,-17685.609375,256.25,-400000.0625,-3934.340087890625,-400000.0625,-400000.0625,-400000.0625
3.1915152072906494,-6569.2001953125,-17742.25,212.2899932861328,-400000.0625,-3971.530029296875,-400000.0625,-400000.0625,-400000.0625
3.191519260406494,-6632.60986328125,-17807.91015625,163.83999633789062,-400000.0625,-4020.360107421875,-400000.0625,-400000.0625,-400000.0625
3.1915230751037598,-6613.16015625,-17794.330078125,175.0500030517578,-400000.0625,-4018.35009765625,-400000.0625,-400000.0625,-400000.0625
3.1915273666381836,-6544.77978515625,-17718.7890625,232.41000366210938,-400000.0625,-3963.090087890625,-400000.0625,-400000.0625,-400000.0625
3.19153094291687,-6511.5,-17680.4609375,264.69000244140625,-400000.0625,-3925.93994140625,-400000.0625,-400000.0625,-400000.0625
3.196207046508789,-6563.0400390625,-17733.4296875,224.97000122070312,-400000.0625,-3959.889892578125,-400000.0625,-400000.0625,-400000.0625
3.196216583251953,-6629.60986328125,-17798.5703125,174.89999389648438,-400000.0625,-4017.5400390625,-400000.0625,-400000.0625,-400000.0625
3.196220874786377,-6615.259765625,-17789.69921875,180.5800018310547,-400000.0625,-4014.679931640625,-400000.0625,-400000.0625,-400000.0625
3.19622540473938,-6543.259765625,-17720.509765625,235.0800018310547,-400000.0625,-3960.179931640625,-400000.0625,-400000.0625,-400000.0625
3.1962296962738037,-6513.169921875,-17684.560546875,261.260009765625,-400000.0625,-3933.050048828125,-400000.0625,-400000.0625,-400000.0625
3.1962335109710693,-6564.18994140625,-17735.91015625,220.67999267578125,-400000.0625,-3974.9599609375,-400000.0625,-400000.0625,-400000.0625
3.196237325668335,-6629.7099609375,-17802.619140625,171.08999633789062,-400000.0625,-4025.56005859375,-400000.0625,-400000.0625,-400000.0625
3.1962411403656006,-6618.06982421875,-17793.08984375,181.2899932861328,-400000.0625,-4011.110107421875,-400000.0625,-400000.0625,-400000.0625
3.196244955062866,-6548.169921875,-17722.23046875,236.4600067138672,-400000.0625,-3954.550048828125,-400000.0625,-400000.0625,-400000.0625
3.19624924659729,-6516.60009765625,-17685.4609375,262.7799987792969,-400000.0625,-3927.989990234375,-400000.0625,-400000.0625,-400000.0625
3.1962530612945557,-6564.47021484375,-17737.19921875,221.97000122070312,-400000.0625,-3969.3798828125,-400000.0625,-400000.0625,-400000.0625
3.261284351348877,-6631.759765625,-17804.0,170.9499969482422,-400000.0625,-4025.93994140625,-400000.0625,-400000.0625,-400000.0625
3.2718777656555176,-6619.97998046875,-17789.3203125,180.5800018310547,-400000.0625,-4022.030029296875,-400000.0625,-400000.0625,-400000.0625
3.276658535003662,-6547.93017578125,-17719.369140625,235.1300048828125,-400000.0625,-3970.0,-400000.0625,-400000.0625,-400000.0625
3.2766664028167725,-6519.60009765625,-17688.609375,259.29998779296875,-400000.0625,-3934.0,-400000.0625,-400000.0625,-400000.0625
3.2766706943511963,-6572.68017578125,-17735.240234375,221.16000366210938,-400000.0625,-3970.0,-400000.0625,-400000.0625,-400000.0625
3.2766754627227783,-6632.27978515625,-17798.94921875,171.3800048828125,-400000.0625,-4023.5,-400000.0625,-400000.0625,-400000.0625
3.276679515838623,-6618.60009765625,-17790.509765625,176.75999450683594,-400000.0625,-4017.5400390625,-400000.0625,-400000.0625,-400000.0625
3.2766835689544678,-6549.5498046875,-17713.9296875,234.41000366210938,-400000.0625,-3960.89990234375,-400000.0625,-400000.0625,-400000.0625
3.2766873836517334,-6515.89013671875,-17680.029296875,262.69000244140625,-400000.0625,-3933.330078125,-400000.0625,-400000.0625,-400000.0625
3.276691436767578,-6568.580078125,-17733.91015625,221.3000030517578,-400000.0625,-3972.10009765625,-400000.0625,-400000.0625,-400000.0625
3.2766952514648438,-6633.3798828125,-17800.05078125,171.4199981689453,-400000.0625,-4027.889892578125,-400000.0625,-400000.0625,-400000.0625
3.2766990661621094,-6617.259765625,-17792.66015625,179.10000610351562,-400000.0625,-4024.889892578125,-400000.0625,-400000.0625,-400000.0625
3.276702880859375,-6547.7900390625,-17735.91015625,230.7899932861328,-400000.0625,-3972.010009765625,-400000.0625,-400000.0625,-400000.0625
3.2767069339752197,-6516.5498046875,-17716.69921875,255.3000030517578,-400000.0625,-3942.969970703125,-400000.0625,-400000.0625,-400000.0625
3.2767107486724854,-6573.9599609375,-17754.650390625,221.97000122070312,-400000.0625,-3970.669921875,-400000.0625,-400000.0625,-400000.0625
3.27671480178833,-6649.2099609375,-17801.619140625,178.6699981689453,-400000.0625,-4015.639892578125,-400000.0625,-400000.0625,-400000.0625
3.3821964263916016,-6646.58984375,-17813.640625,179.9600067138672,-400000.0625,-4016.300048828125,-400000.0625,-400000.0625,-400000.0625
3.3933331966400146,-6584.1201171875,-17756.509765625,232.36000061035156,-400000.0625,-3959.0400390625,-400000.0625,-400000.0625,-400000.0625
3.398557662963867,-6562.0400390625,-17732.240234375,254.11000061035156,-400000.0625,-3930.89990234375,-400000.0625,-400000.0625,-400000.0625
3.403609275817871,-6623.56005859375,-17796.51953125,209.57000732421875,-400000.0625,-3965.18994140625,-400000.0625,-400000.0625,-400000.0625
3.4088006019592285,-6697.60986328125,-17867.900390625,161.1199951171875,-400000.0625,-4013.43994140625,-400000.0625,-400000.0625,-400000.0625
3.4134442806243896,-6691.7900390625,-17861.26953125,171.47000122070312,-400000.0625,-4011.06005859375,-400000.0625,-400000.0625,-400000.0625
3.4134528636932373,-6633.81005859375,-17790.609375,228.02000427246094,-400000.0625,-3955.080078125,-400000.0625,-400000.0625,-400000.0625
3.413457155227661,-6612.58984375,-17769.529296875,246.3800048828125,-400000.0625,-3925.0400390625,-400000.0625,-400000.0625,-400000.0625
3.413461208343506,-6667.9501953125,-17835.94921875,200.94000244140625,-400000.0625,-3962.0400390625,-400000.0625,-400000.0625,-400000.0625
3.4134650230407715,-6735.60986328125,-17902.380859375,149.67999267578125,-400000.0625,-4010.530029296875,-400000.0625,-400000.0625,-400000.0625
3.413468837738037,-6717.16015625,-17889.740234375,165.41000366210938,-400000.0625,-4000.139892578125,-400000.0625,-400000.0625,-400000.0625
3.413473129272461,-6646.009765625,-17815.5390625,223.9199981689453,-400000.0625,-3945.2099609375,-400000.0625,-400000.0625,-400000.0625
3.4134769439697266,-6615.97021484375,-17788.75,247.24000549316406,-400000.0625,-3921.840087890625,-400000.0625,-400000.0625,-400000.0625
3.413480758666992,-6666.7099609375,-17843.19921875,204.94000244140625,-400000.0625,-3961.610107421875,-400000.0625,-400000.0625,-400000.0625
3.413485527038574,-6724.5498046875,-17904.810546875,159.41000366210938,-400000.0625,-4012.159912109375,-400000.0625,-400000.0625,-400000.0625
3.4134929180145264,-6706.43017578125,-17885.640625,174.6699981689453,-400000.0625,-4007.389892578125,-400000.0625,-400000.0625,-400000.0625
3.4134974479675293,-6638.72021484375,-17814.349609375,228.30999755859375,-400000.0625,-3954.360107421875,-400000.0625,-400000.0625,-400000.0625
3.413501262664795,-6608.2001953125,-17784.0703125,250.0500030517578,-400000.0625,-3928.570068359375,-400000.0625,-400000.0625,-400000.0625
3.4135050773620605,-6661.4599609375,-17836.669921875,208.80999755859375,-400000.0625,-3966.860107421875,-400000.0625,-400000.0625,-400000.0625
3.413508892059326,-6723.68994140625,-17900.560546875,161.4600067138672,-400000.0625,-4013.969970703125,-400000.0625,-400000.0625,-400000.0625
3.413512706756592,-6710.14990234375,-17888.640625,172.0,-400000.0625,-4005.77001953125,-400000.0625,-400000.0625,-400000.0625
3.4135165214538574,-6638.14990234375,-17814.30078125,229.1699981689453,-400000.0625,-3951.97998046875,-400000.0625,-400000.0625,-400000.0625
3.413520097732544,-6604.2001953125,-17780.44921875,258.3500061035156,-400000.0625,-3924.93994140625,-400000.0625,-400000.0625,-400000.0625
3.4135239124298096,-6657.31982421875,-17834.4296875,216.6699981689453,-400000.0625,-3960.7099609375,-400000.0625,-400000.0625,-400000.0625
3.413527727127075,-6717.77978515625,-17894.369140625,171.66000366210938,-400000.0625,-4006.820068359375,-400000.0625,-400000.0625,-400000.0625
3.41353178024292,-6704.43017578125,-17880.16015625,183.52999877929688,-400000.0625,-4002.909912109375,-400000.0625,-400000.0625,-400000.0625
3.4135355949401855,-6635.2900390625,-17813.2109375,234.55999755859375,-400000.0625,-3953.929931640625,-400000.0625,-400000.0625,-400000.0625
3.4135401248931885,-6607.81982421875,-17782.359375,256.3500061035156,-400000.0625,-3925.75,-400000.0625,-400000.0625,-400000.0625
3.413543939590454,-6661.18017578125,-17833.94921875,217.33999633789062,-400000.0625,-3962.139892578125,-400000.0625,-400000.0625,-400000.0625
3.413548231124878,-6718.4501953125,-17892.7890625,175.19000244140625,-400000.0625,-4012.199951171875,-400000.0625,-400000.0625,-400000.0625
3.4135520458221436,-6706.240234375,-17886.310546875,179.72000122070312,-400000.0625,-4007.050048828125,-400000.0625,-400000.0625,-400000.0625
3.4135563373565674,-6639.33984375,-17815.830078125,231.0800018310547,-400000.0625,-3953.080078125,-400000.0625,-400000.0625,-400000.0625
3.442572832107544,-6611.97021484375,-17784.41015625,253.5800018310547,-400000.0625,-3923.889892578125,-400000.0625,-400000.0625,-400000.0625
3.4492247104644775,-6663.85009765625,-17836.380859375,211.19000244140625,-400000.0625,-3960.419921875,-400000.0625,-400000.0625,-400000.0625
3.4544355869293213,-6722.06982421875,-17896.69921875,166.6999969482422,-400000.0625,-4007.820068359375,-400000.0625,-400000.0625,-400000.0625
3.459754228591919,-6703.08984375,-17884.970703125,179.72000122070312,-400000.0625,-4000.280029296875,-400000.0625,-400000.0625,-400000.0625
3.4644417762756348,-6635.18994140625,-17815.880859375,230.22000122070312,-400000.0625,-3951.60009765625,-400000.0625,-400000.0625,-400000.0625
3.4644501209259033,-6605.47998046875,-17779.30078125,255.05999755859375,-400000.0625,-3929.659912109375,-400000.0625,-400000.0625,-400000.0625
3.4644546508789062,-6656.080078125,-17833.5703125,216.2899932861328,-400000.0625,-3967.3798828125,-400000.0625,-400000.0625,-400000.0625
3.464458703994751,-6723.2099609375,-17907.669921875,160.92999267578125,-400000.0625,-4013.820068359375,-400000.0625,-400000.0625,-400000.0625
3.4644627571105957,-6707.3798828125,-17893.75,170.89999389648438,-400000.0625,-4001.330078125,-400000.0625,-400000.0625,-400000.0625
3.4644670486450195,-6636.43017578125,-17822.55078125,227.25999450683594,-400000.0625,-3946.780029296875,-400000.0625,-400000.0625,-400000.0625
3.4644718170166016,-6613.06005859375,-17796.900390625,249.1999969482422,-400000.0625,-3920.699951171875,-400000.0625,-400000.0625,-400000.0625
3.4644758701324463,-6662.4599609375,-17856.119140625,207.57000732421875,-400000.0625,-3961.75,-400000.0625,-400000.0625,-400000.0625
