time,ch1,ch2,ch3,ch4,ch5,ch6,ch7,ch8
137.6666202545166,-5684.18994140625,-15845.58984375,396.20001220703125,-400000.0625,-4895.830078125,-400000.0625,-400000.0625,-400000.0625
137.68104076385498,-5768.35009765625,-15932.990234375,328.67999267578125,-400000.0625,-4868.35986328125,-400000.0625,-400000.0625,-400000.0625
137.68780636787415,-5782.89013671875,-15952.2998046875,314.4700012207031,-400000.0625,-4909.7998046875,-400000.0625,-400000.0625,-400000.0625
137.69509077072144,-5707.259765625,-15879.2001953125,373.8399963378906,-400000.0625,-4961.009765625,-400000.0625,-400000.0625,-400000.0625
137.70358777046204,-5641.3701171875,-15810.9697265625,423.57000732421875,-400000.0625,-4951.14013671875,-400000.0625,-400000.0625,-400000.0625
137.70991230010986,-5680.419921875,-15845.1103515625,393.67999267578125,-400000.0625,-4895.740234375,-400000.0625,-400000.0625,-400000.0625
137.71762776374817,-5770.58984375,-15939.3798828125,319.2900085449219,-400000.0625,-4876.419921875,-400000.0625,-400000.0625,-400000.0625
137.7257640361786,-5783.75,-15950.2998046875,315.57000732421875,-400000.0625,-4914.669921875,-400000.0625,-400000.0625,-400000.0625
137.73462653160095,-5707.02978515625,-15873.150390625,379.2799987792969,-400000.0625,-4959.97021484375,-400000.0625,-400000.0625,-400000.0625
137.74069571495056,-5644.85009765625,-15809.490234375,427.9599914550781,-400000.0625,-4942.60986328125,-400000.0625,-400000.0625,-400000.0625
137.7473406791687,-5687.330078125,-15843.490234375,395.44000244140625,-400000.0625,-4877.66015625,-400000.0625,-400000.0625,-400000.0625
137.75588130950928,-5775.169921875,-15936.1904296875,323.010009765625,-400000.0625,-4863.93017578125,-400000.0625,-400000.0625,-400000.0625
137.76519060134888,-5786.3701171875,-15953.6396484375,316.5199890136719,-400000.0625,-4913.0,-400000.0625,-400000.0625,-400000.0625
137.7740535736084,-5706.740234375,-15871.33984375,383.4200134277344,-400000.0625,-4957.2998046875,-400000.0625,-400000.0625,-400000.0625
137.79216146469116,-5642.18017578125,-15809.919921875,433.9700012207031,-400000.0625,-4939.60009765625,-400000.0625,-400000.0625,-400000.0625
137.79936528205872,-5680.85009765625,-15847.2998046875,400.45001220703125,-400000.0625,-4883.77001953125,-400000.0625,-400000.0625,-400000.0625
137.8074266910553,-5764.490234375,-15928.509765625,335.739990234375,-400000.0625,-4864.259765625,-400000.0625,-400000.0625,-400000.0625
137.81352376937866,-5779.1201171875,-15945.2900390625,322.2900085449219,-400000.0625,-4907.18017578125,-400000.0625,-400000.0625,-400000.0625
137.82147407531738,-5701.16015625,-15872.5302734375,381.6099853515625,-400000.0625,-4947.52001953125,-400000.0625,-400000.0625,-400000.0625
137.82673144340515,-5637.06982421875,-15807.9599609375,431.7300109863281,-400000.0625,-4932.740234375,-400000.0625,-400000.0625,-400000.0625
137.83343982696533,-5678.7998046875,-15849.5400390625,395.6300048828125,-400000.0625,-4888.72998046875,-400000.0625,-400000.0625,-400000.0625
137.8410725593567,-5764.009765625,-15942.7197265625,321.5299987792969,-400000.0625,-4869.75,-400000.0625,-400000.0625,-400000.0625
137.84674954414368,-5776.93017578125,-15955.01953125,318.04998779296875,-400000.0625,-4907.31982421875,-400000.0625,-400000.0625,-400000.0625
137.85255670547485,-5699.77978515625,-15873.2900390625,380.8500061035156,-400000.0625,-4952.33984375,-400000.0625,-400000.0625,-400000.0625
137.85783672332764,-5635.4501953125,-15802.9599609375,432.3999938964844,-400000.0625,-4928.8798828125,-400000.0625,-400000.0625,-400000.0625
137.86303281784058,-5676.509765625,-15843.8203125,401.0199890136719,-400000.0625,-4874.22998046875,-400000.0625,-400000.0625,-400000.0625
137.86989545822144,-5765.39013671875,-15936.419921875,329.29998779296875,-400000.0625,-4868.509765625,-400000.0625,-400000.0625,-400000.0625
137.8792986869812,-5781.89013671875,-15953.5400390625,316.6700134277344,-400000.0625,-4909.1298828125,-400000.0625,-400000.0625,-400000.0625
137.8953342437744,-5703.830078125,-15876.099609375,378.2699890136719,-400000.0625,-4932.259765625,-400000.0625,-400000.0625,-400000.0625
137.90496587753296,-5637.740234375,-15810.4404296875,432.1600036621094,-400000.0625,-4901.22021484375,-400000.0625,-400000.0625,-400000.0625
137.91141510009766,-5679.22998046875,-15863.75,395.25,-400000.0625,-4864.740234375,-400000.0625,-400000.0625,-400000.0625
137.9181776046753,-5766.9599609375,-15941.9599609375,335.69000244140625,-400000.0625,-4865.41015625,-400000.0625,-400000.0625,-400000.0625
137.92553758621216,-5791.52001953125,-15931.509765625,336.3599853515625,-400000.0625,-4893.16015625,-400000.0625,-400000.0625,-400000.0625
137.93110036849976,-5719.759765625,-15847.01953125,406.07000732421875,-400000.0625,-4919.10009765625,-400000.0625,-400000.0625,-400000.0625
137.9361436367035,-5661.97021484375,-15780.5498046875,464.7300109863281,-400000.0625,-4898.41015625,-400000.0625,-400000.0625,-400000.0625
137.9423701763153,-5706.35986328125,-15820.41015625,437.1199951171875,-400000.0625,-4860.5,-400000.0625,-400000.0625,-400000.0625
137.94876885414124,-5803.81982421875,-15911.3896484375,372.8900146484375,-400000.0625,-4857.58984375,-400000.0625,-400000.0625,-400000.0625
137.95614409446716,-5828.72021484375,-15921.7900390625,372.6000061035156,-400000.0625,-4895.16015625,-400000.0625,-400000.0625,-400000.0625
137.96275424957275,-5752.990234375,-15837.669921875,439.8800048828125,-400000.0625,-4928.5400390625,-400000.0625,-400000.0625,-400000.0625
137.96978664398193,-5695.33984375,-15766.7197265625,497.25,-400000.0625,-4915.0498046875,-400000.0625,-400000.0625,-400000.0625
137.97742867469788,-5739.259765625,-15805.8203125,468.7300109863281,-400000.0625,-4858.58984375,-400000.0625,-400000.0625,-400000.0625
137.98288989067078,-5823.52001953125,-15891.83984375,400.5,-400000.0625,-4850.85986328125,-400000.0625,-400000.0625,-400000.0625
137.994549036026,-5835.14990234375,-15905.669921875,390.5799865722656,-400000.0625,-4890.97021484375,-400000.0625,-400000.0625,-400000.0625
138.00189328193665,-5755.52001953125,-15826.6103515625,455.5199890136719,-400000.0625,-4907.31982421875,-400000.0625,-400000.0625,-400000.0625
138.01036834716797,-5692.77001953125,-15762.7099609375,501.5899963378906,-400000.0625,-4884.77001953125,-400000.0625,-400000.0625,-400000.0625
138.01623153686523,-5732.490234375,-15804.33984375,467.5899963378906,-400000.0625,-4854.490234375,-400000.0625,-400000.0625,-400000.0625
138.0222601890564,-5824.60986328125,-15896.509765625,398.8299865722656,-400000.0625,-4856.919921875,-400000.0625,-400000.0625,-400000.0625
138.02772331237793,-5843.02001953125,-15911.6796875,389.4800109863281,-400000.0625,-4893.02001953125,-400000.0625,-400000.0625,-400000.0625
138.03616166114807,-5763.8701171875,-15836.91015625,451.2300109863281,-400000.0625,-4917.33984375,-400000.0625,-400000.0625,-400000.0625
138.04278326034546,-5700.39990234375,-15770.6298828125,501.5400085449219,-400000.0625,-4878.56982421875,-400000.0625,-400000.0625,-400000.0625
138.0509376525879,-5739.259765625,-15806.5302734375,472.92999267578125,-400000.0625,-4834.3701171875,-400000.0625,-400000.0625,-400000.0625
138.05673336982727,-5827.0,-15899.7099609375,403.1700134277344,-400000.0625,-4840.27978515625,-400000.0625,-400000.0625,-400000.0625
138.0621943473816,-5839.8701171875,-15912.2998046875,393.1000061035156,-400000.0625,-4878.6201171875,-400000.0625,-400000.0625,-400000.0625
138.06996774673462,-5759.240234375,-15831.5703125,454.2799987792969,-400000.0625,-4891.10986328125,-400000.0625,-400000.0625,-400000.0625
138.07657980918884,-5695.2001953125,-15763.8095703125,504.9200134277344,-400000.0625,-4861.2099609375,-400000.0625,-400000.0625,-400000.0625
138.0833511352539,-5737.97021484375,-15802.91015625,471.92999267578125,-400000.0625,-4833.509765625,-400000.0625,-400000.0625,-400000.0625
138.0933723449707,-5826.81005859375,-15897.9404296875,398.0199890136719,-400000.0625,-4851.68017578125,-400000.0625,-400000.0625,-400000.0625
138.10007619857788,-5838.97021484375,-15911.76953125,392.8699951171875,-400000.0625,-4886.25,-400000.0625,-400000.0625,-400000.0625
138.1080665588379,-5758.85986328125,-15829.6103515625,461.44000244140625,-400000.0625,-4883.47998046875,-400000.0625,-400000.0625,-400000.0625
138.11333966255188,-5695.81982421875,-15763.8603515625,510.3599853515625,-400000.0625,-4855.2001953125,-400000.0625,-400000.0625,-400000.0625
138.12127566337585,-5736.39990234375,-15804.8603515625,477.2699890136719,-400000.0625,-4831.02978515625,-400000.0625,-400000.0625,-400000.0625
138.1270935535431,-5823.47021484375,-15901.1396484375,401.1600036621094,-400000.0625,-4853.68017578125,-400000.0625,-400000.0625,-400000.0625
138.13429594039917,-5834.52978515625,-15915.1103515625,395.7699890136719,-400000.0625,-4895.5,-400000.0625,-400000.0625,-400000.0625
138.13994121551514,-5761.0,-15836.4296875,457.7200012207031,-400000.0625,-4904.3701171875,-400000.0625,-400000.0625,-400000.0625
138.14492535591125,-5700.35009765625,-15773.0595703125,504.05999755859375,-400000.0625,-4873.85009765625,-400000.0625,-400000.0625,-400000.0625
138.14493584632874,-5739.06982421875,-15813.9697265625,468.67999267578125,-400000.0625,-4840.60986328125,-400000.0625,-400000.0625,-400000.0625
138.14493989944458,-5825.6201171875,-15904.4296875,397.3999938964844,-400000.0625,-4855.58984375,-400000.0625,-400000.0625,-400000.0625
138.14494466781616,-5839.06005859375,-15914.8701171875,392.6300048828125,-400000.0625,-4888.9599609375,-400000.0625,-400000.0625,-400000.0625
138.14494848251343,-5760.580078125,-15839.669921875,455.04998779296875,-400000.0625,-4885.91015625,-400000.0625,-400000.0625,-400000.0625
138.15269875526428,-5696.9599609375,-15775.9697265625,501.5400085449219,-400000.0625,-4851.47998046875,-400000.0625,-400000.0625,-400000.0625
138.16026759147644,-5736.259765625,-15813.4501953125,466.5400085449219,-400000.0625,-4832.7001953125,-400000.0625,-400000.0625,-400000.0625
138.1666944026947,-5819.85009765625,-15899.5595703125,398.2099914550781,-400000.0625,-4858.2099609375,-400000.0625,-400000.0625,-400000.0625
138.17408871650696,-5835.14990234375,-15915.6298828125,389.9599914550781,-400000.0625,-4886.72021484375,-400000.0625,-400000.0625,-400000.0625
138.18071103096008,-5758.72021484375,-15841.5302734375,447.75,-400000.0625,-4887.490234375,-400000.0625,-400000.0625,-400000.0625
138.1874520778656,-5698.77978515625,-15773.8701171875,496.20001220703125,-400000.0625,-4856.06005859375,-400000.0625,-400000.0625,-400000.0625
138.1972575187683,-5742.83984375,-15814.9697265625,463.20001220703125,-400000.0625,-4832.60009765625,-400000.0625,-400000.0625,-400000.0625
138.20560836791992,-5830.6201171875,-15909.4404296875,392.05999755859375,-400000.0625,-4857.35009765625,-400000.0625,-400000.0625,-400000.0625
138.21391892433167,-5841.10986328125,-15920.2099609375,385.5199890136719,-400000.0625,-4890.919921875,-400000.0625,-400000.0625,-400000.0625
138.22182726860046,-5765.2998046875,-15839.0498046875,449.55999755859375,-400000.0625,-4881.81005859375,-400000.0625,-400000.0625,-400000.0625
138.22886514663696,-5707.1201171875,-15781.6904296875,494.5799865722656,-400000.0625,-4845.85986328125,-400000.0625,-400000.0625,-400000.0625
138.23803234100342,-5746.41015625,-15818.650390625,463.29998779296875,-400000.0625,-4826.97998046875,-400000.0625,-400000.0625,-400000.0625
138.24379205703735,-5832.10009765625,-15907.48046875,392.6300048828125,-400000.0625,-4850.77001953125,-400000.0625,-400000.0625,-400000.0625
138.2517795562744,-5847.64990234375,-15924.98046875,381.3699951171875,-400000.0625,-4886.6298828125,-400000.0625,-400000.0625,-400000.0625
138.25848865509033,-5767.2998046875,-15845.9697265625,443.94000244140625,-400000.0625,-4889.580078125,-400000.0625,-400000.0625,-400000.0625
138.26401948928833,-5706.169921875,-15777.16015625,494.6700134277344,-400000.0625,-4847.56982421875,-400000.0625,-400000.0625,-400000.0625
138.27217364311218,-5750.93994140625,-15820.5498046875,458.0,-400000.0625,-4827.31005859375,-400000.0625,-400000.0625,-400000.0625
138.27805542945862,-5839.10986328125,-15910.3896484375,388.9100036621094,-400000.0625,-4850.580078125,-400000.0625,-400000.0625,-400000.0625
138.2846372127533,-5842.5400390625,-15921.2099609375,384.2799987792969,-400000.0625,-4879.330078125,-400000.0625,-400000.0625,-400000.0625
138.29246950149536,-5761.81005859375,-15841.919921875,446.3699951171875,-400000.0625,-4880.240234375,-400000.0625,-400000.0625,-400000.0625
138.30308389663696,-5703.39990234375,-15777.2998046875,495.1000061035156,-400000.0625,-4856.06005859375,-400000.0625,-400000.0625,-400000.0625
138.30909824371338,-5747.83984375,-15820.8896484375,457.19000244140625,-400000.0625,-4840.18017578125,-400000.0625,-400000.0625,-400000.0625
138.31466031074524,-5833.91015625,-15909.580078125,387.1400146484375,-400000.0625,-4861.77978515625,-400000.0625,-400000.0625,-400000.0625
138.32360410690308,-5841.77978515625,-15926.080078125,378.8900146484375,-400000.0625,-4885.85986328125,-400000.0625,-400000.0625,-400000.0625
138.3342523574829,-5763.72021484375,-15852.01953125,443.32000732421875,-400000.0625,-4887.52978515625,-400000.0625,-400000.0625,-400000.0625
138.34179043769836,-5704.93017578125,-15787.080078125,491.3800048828125,-400000.0625,-4861.64013671875,-400000.0625,-400000.0625,-400000.0625
138.3512921333313,-5741.83984375,-15826.7001953125,453.8999938964844,-400000.0625,-4835.509765625,-400000.0625,-400000.0625,-400000.0625
138.35879254341125,-5826.56982421875,-15914.8203125,378.6099853515625,-400000.0625,-4852.81982421875,-400000.0625,-400000.0625,-400000.0625
138.3654305934906,-5835.580078125,-15930.849609375,370.0299987792969,-400000.0625,-4887.52978515625,-400000.0625,-400000.0625,-400000.0625
138.37323021888733,-5752.0400390625,-15854.599609375,436.3500061035156,-400000.0625,-4902.22021484375,-400000.0625,-400000.0625,-400000.0625
138.37879133224487,-5695.6298828125,-15789.83984375,483.0799865722656,-400000.0625,-4869.7001953125,-400000.0625,-400000.0625,-400000.0625
138.38532209396362,-5741.35986328125,-15835.759765625,443.8900146484375,-400000.0625,-4843.08984375,-400000.0625,-400000.0625,-400000.0625
138.39099192619324,-5830.669921875,-15926.5498046875,372.2699890136719,-400000.0625,-4861.02001953125,-400000.0625,-400000.0625,-400000.0625
138.39610147476196,-5839.2099609375,-15936.1904296875,366.5400085449219,-400000.0625,-4892.39990234375,-400000.0625,-400000.0625,-400000.0625
138.40989542007446,-5759.759765625,-15855.4599609375,430.25,-400000.0625,-4905.56005859375,-400000.0625,-400000.0625,-400000.0625
138.41693878173828,-5698.25,-15790.8896484375,479.9800109863281,-400000.0625,-4875.52001953125,-400000.0625,-400000.0625,-400000.0625
138.42403173446655,-5743.83984375,-15834.4296875,441.1199951171875,-400000.0625,-4842.3798828125,-400000.0625,-400000.0625,-400000.0625
138.43308639526367,-5831.39013671875,-15926.5498046875,369.30999755859375,-400000.0625,-4857.4501953125,-400000.0625,-400000.0625,-400000.0625
138.44053673744202,-5839.2099609375,-15936.3798828125,365.8800048828125,-400000.0625,-4893.8798828125,-400000.0625,-400000.0625,-400000.0625
138.44761633872986,-5757.85986328125,-15853.0302734375,431.67999267578125,-400000.0625,-4911.22998046875,-400000.0625,-400000.0625,-400000.0625
138.4582645893097,-5699.830078125,-15790.75,479.6000061035156,-400000.0625,-4893.39990234375,-400000.0625,-400000.0625,-400000.0625
138.46547961235046,-5746.60009765625,-15833.0,441.8399963378906,-400000.0625,-4860.64013671875,-400000.0625,-400000.0625,-400000.0625
138.47268772125244,-5834.25,-15922.8798828125,372.0799865722656,-400000.0625,-4864.02978515625,-400000.0625,-400000.0625,-400000.0625
138.47874331474304,-5838.25,-15934.7998046875,370.5,-400000.0625,-4903.60009765625,-400000.0625,-400000.0625,-400000.0625
138.48466777801514,-5757.6201171875,-15852.5,435.5400085449219,-400000.0625,-4925.5400390625,-400000.0625,-400000.0625,-400000.0625
138.49076676368713,-5694.91015625,-15791.3701171875,483.32000732421875,-400000.0625,-4898.8798828125,-400000.0625,-400000.0625,-400000.0625
138.49595499038696,-5739.830078125,-15835.330078125,446.1300048828125,-400000.0625,-4855.43994140625,-400000.0625,-400000.0625,-400000.0625
138.50338792800903,-5830.81005859375,-15926.080078125,374.75,-400000.0625,-4859.10986328125,-400000.0625,-400000.0625,-400000.0625
138.51516151428223,-5840.97021484375,-15940.759765625,365.45001220703125,-400000.0625,-4887.43994140625,-400000.0625,-400000.0625,-400000.0625
138.52191519737244,-5763.10009765625,-15856.7900390625,433.0199890136719,-400000.0625,-4882.52978515625,-400000.0625,-400000.0625,-400000.0625
138.52711629867554,-5700.39990234375,-15788.1298828125,484.0400085449219,-400000.0625,-4844.759765625,-400000.0625,-400000.0625,-400000.0625
138.532208442688,-5747.02978515625,-15833.4296875,446.2699890136719,-400000.0625,-4825.4501953125,-400000.0625,-400000.0625,-400000.0625
138.5373432636261,-5840.2099609375,-15928.3203125,372.0799865722656,-400000.0625,-4864.7900390625,-400000.0625,-400000.0625,-400000.0625
138.54419231414795,-5847.5498046875,-15939.8095703125,367.92999267578125,-400000.0625,-4904.27001953125,-400000.0625,-400000.0625,-400000.0625
138.55340337753296,-5764.2001953125,-15859.3203125,432.010009765625,-400000.0625,-4897.39990234375,-400000.0625,-400000.0625,-400000.0625
138.55984115600586,-5699.2998046875,-15795.0400390625,477.5,-400000.0625,-4860.35009765625,-400000.0625,-400000.0625,-400000.0625
138.56646060943604,-5745.75,-15838.5302734375,439.92999267578125,-400000.0625,-4832.35986328125,-400000.0625,-400000.0625,-400000.0625
138.57471203804016,-5835.68017578125,-15932.0400390625,367.69000244140625,-400000.0625,-4856.97021484375,-400000.0625,-400000.0625,-400000.0625
138.58074355125427,-5845.64013671875,-15940.669921875,363.6400146484375,-400000.0625,-4886.91015625,-400000.0625,-400000.0625,-400000.0625
138.58867168426514,-5758.0498046875,-15856.7900390625,430.6300048828125,-400000.0625,-4878.08984375,-400000.0625,-400000.0625,-400000.0625
138.5946319103241,-5692.009765625,-15787.169921875,486.0400085449219,-400000.0625,-4836.18017578125,-400000.0625,-400000.0625,-400000.0625
138.60176801681519,-5743.35986328125,-15836.3798828125,445.6499938964844,-400000.0625,-4820.2001953125,-400000.0625,-400000.0625,-400000.0625
138.6100070476532,-5834.52978515625,-15935.3798828125,368.739990234375,-400000.0625,-4861.2099609375,-400000.0625,-400000.0625,-400000.0625
138.6213448047638,-5844.31005859375,-15943.7197265625,360.7300109863281,-400000.0625,-4907.0400390625,-400000.0625,-400000.0625,-400000.0625
138.62681221961975,-5764.39013671875,-15862.3203125,426.2900085449219,-400000.0625,-4899.35986328125,-400000.0625,-400000.0625,-400000.0625
138.63452911376953,-5706.169921875,-15800.8095703125,471.5899963378906,-400000.0625,-4854.06005859375,-400000.0625,-400000.0625,-400000.0625
138.64257764816284,-5748.60986328125,-15838.669921875,437.6400146484375,-400000.0625,-4824.5,-400000.0625,-400000.0625,-400000.0625
138.64874505996704,-5834.009765625,-15932.849609375,367.739990234375,-400000.0625,-4849.10009765625,-400000.0625,-400000.0625,-400000.0625
138.65793085098267,-5838.490234375,-15946.6796875,363.7799987792969,-400000.0625,-4887.14990234375,-400000.0625,-400000.0625,-400000.0625
138.6667356491089,-5755.85009765625,-15860.26953125,432.8699951171875,-400000.0625,-4885.9599609375,-400000.0625,-400000.0625,-400000.0625
138.67487025260925,-5693.39013671875,-15793.330078125,481.0299987792969,-400000.0625,-4848.43017578125,-400000.0625,-400000.0625,-400000.0625
138.6832685470581,-5738.1201171875,-15840.8203125,439.54998779296875,-400000.0625,-4834.3701171875,-400000.0625,-400000.0625,-400000.0625
138.69098544120789,-5827.759765625,-15933.1298828125,369.5,-400000.0625,-4857.39990234375,-400000.0625,-400000.0625,-400000.0625
138.69669103622437,-5838.2001953125,-15942.8095703125,364.3999938964844,-400000.0625,-4888.580078125,-400000.0625,-400000.0625,-400000.0625
138.70525407791138,-5755.43017578125,-15865.1396484375,426.6700134277344,-400000.0625,-4882.81005859375,-400000.0625,-400000.0625,-400000.0625
138.71142387390137,-5695.490234375,-15799.3798828125,475.6000061035156,-400000.0625,-4855.35009765625,-400000.0625,-400000.0625,-400000.0625
138.7245373725891,-5743.97998046875,-15840.580078125,438.739990234375,-400000.0625,-4834.60009765625,-400000.0625,-400000.0625,-400000.0625
138.73215985298157,-5836.5400390625,-15933.990234375,367.9800109863281,-400000.0625,-4863.4501953125,-400000.0625,-400000.0625,-400000.0625
138.74023127555847,-5839.6298828125,-15944.669921875,367.69000244140625,-400000.0625,-4880.759765625,-400000.0625,-400000.0625,-400000.0625
138.74610304832458,-5755.85009765625,-15856.7900390625,436.45001220703125,-400000.0625,-4894.39990234375,-400000.0625,-400000.0625,-400000.0625
138.75517416000366,-5700.8798828125,-15791.6103515625,485.1300048828125,-400000.0625,-4898.7900390625,-400000.0625,-400000.0625,-400000.0625
138.76417517662048,-5749.1298828125,-15842.8701171875,442.7900085449219,-400000.0625,-4871.18017578125,-400000.0625,-400000.0625,-400000.0625
138.7712264060974,-5835.9599609375,-15934.4697265625,370.1199951171875,-400000.0625,-4867.64990234375,-400000.0625,-400000.0625,-400000.0625
138.78205251693726,-5839.490234375,-15937.51953125,371.3599853515625,-400000.0625,-4912.14013671875,-400000.0625,-400000.0625,-400000.0625
138.79027652740479,-5750.990234375,-15851.0703125,442.1199951171875,-400000.0625,-4958.580078125,-400000.0625,-400000.0625,-400000.0625
138.7956883907318,-5690.6201171875,-15786.4599609375,489.6600036621094,-400000.0625,-4947.14013671875,-400000.0625,-400000.0625,-400000.0625
138.80275416374207,-5743.60009765625,-15834.1904296875,446.70001220703125,-400000.0625,-4886.009765625,-400000.0625,-400000.0625,-400000.0625
138.81002616882324,-5836.77001953125,-15935.23046875,367.6400146484375,-400000.0625,-4867.60009765625,-400000.0625,-400000.0625,-400000.0625
138.8153429031372,-5841.2099609375,-15942.2900390625,365.3500061035156,-400000.0625,-4907.18017578125,-400000.0625,-400000.0625,-400000.0625
138.8272933959961,-5754.89990234375,-15857.1298828125,434.05999755859375,-400000.0625,-4939.64990234375,-400000.0625,-400000.0625,-400000.0625
138.83547687530518,-5700.16015625,-15799.9501953125,477.54998779296875,-400000.0625,-4920.2900390625,-400000.0625,-400000.0625,-400000.0625
138.8418481349945,-5750.7998046875,-15851.169921875,434.489990234375,-400000.0625,-4875.52001953125,-400000.0625,-400000.0625,-400000.0625
138.8494188785553,-5845.1201171875,-15947.490234375,358.9599914550781,-400000.0625,-4872.75,-400000.0625,-400000.0625,-400000.0625
138.85615468025208,-5851.22021484375,-15958.6904296875,355.20001220703125,-400000.0625,-4915.56982421875,-400000.0625,-400000.0625,-400000.0625
138.86275553703308,-5765.72021484375,-15873.7197265625,424.42999267578125,-400000.0625,-4949.27978515625,-400000.0625,-400000.0625,-400000.0625
138.86923599243164,-5705.5498046875,-15807.8701171875,468.8699951171875,-400000.0625,-4937.4599609375,-400000.0625,-400000.0625,-400000.0625
138.87936854362488,-5754.18994140625,-15855.5,426.9100036621094,-400000.0625,-4890.06005859375,-400000.0625,-400000.0625,-400000.0625
138.88746166229248,-5847.7900390625,-15955.3095703125,353.04998779296875,-400000.0625,-4879.18994140625,-400000.0625,-400000.0625,-400000.0625
138.89429354667664,-5848.83984375,-15959.98046875,356.9100036621094,-400000.0625,-4926.35009765625,-400000.0625,-400000.0625,-400000.0625
138.90358638763428,-5763.81982421875,-15869.9501953125,428.3900146484375,-400000.0625,-4960.43994140625,-400000.0625,-400000.0625,-400000.0625
138.91061973571777,-5707.35986328125,-15806.490234375,474.4100036621094,-400000.0625,-4942.75,-400000.0625,-400000.0625,-400000.0625
138.9164276123047,-5758.2900390625,-15856.7001953125,433.3999938964844,-400000.0625,-4882.10009765625,-400000.0625,-400000.0625,-400000.0625
138.9291708469391,-5850.31982421875,-15950.4404296875,360.010009765625,-400000.0625,-4861.740234375,-400000.0625,-400000.0625,-400000.0625
138.93713641166687,-5855.22998046875,-15963.0302734375,357.6300048828125,-400000.0625,-4915.240234375,-400000.0625,-400000.0625,-400000.0625
138.94277548789978,-5765.8701171875,-15870.1396484375,432.7799987792969,-400000.0625,-4966.2099609375,-400000.0625,-400000.0625,-400000.0625
138.94823050498962,-5705.259765625,-15806.490234375,480.55999755859375,-400000.0625,-4950.08984375,-400000.0625,-400000.0625,-400000.0625
138.95481824874878,-5756.0498046875,-15859.3203125,434.8299865722656,-400000.0625,-4887.43994140625,-400000.0625,-400000.0625,-400000.0625
138.96094417572021,-5849.02978515625,-15955.400390625,359.3399963378906,-400000.0625,-4879.27978515625,-400000.0625,-400000.0625,-400000.0625
138.9671573638916,-5852.18017578125,-15963.41015625,357.5299987792969,-400000.0625,-4931.77978515625,-400000.0625,-400000.0625,-400000.0625
138.9736692905426,-5763.9599609375,-15867.8095703125,434.45001220703125,-400000.0625,-4984.6201171875,-400000.0625,-400000.0625,-400000.0625
138.97976994514465,-5703.39990234375,-15806.9599609375,481.989990234375,-400000.0625,-4966.06982421875,-400000.0625,-400000.0625,-400000.0625
138.98738622665405,-5758.6201171875,-15863.0400390625,435.5400085449219,-400000.0625,-4892.8701171875,-400000.0625,-400000.0625,-400000.0625
138.99621510505676,-5849.35986328125,-15955.6904296875,359.9599914550781,-400000.0625,-4874.56005859375,-400000.0625,-400000.0625,-400000.0625
139.00623035430908,-5852.990234375,-15963.080078125,357.5799865722656,-400000.0625,-4931.02001953125,-400000.0625,-400000.0625,-400000.0625
139.01486468315125,-5767.97021484375,-15878.6298828125,429.6300048828125,-400000.0625,-4980.9501953125,-400000.0625,-400000.0625,-400000.0625
139.0220079421997,-5704.64013671875,-15811.0595703125,477.9800109863281,-400000.0625,-4971.22021484375,-400000.0625,-400000.0625,-400000.0625
139.0351758003235,-5758.56982421875,-15864.08984375,431.6300048828125,-400000.0625,-4908.75,-400000.0625,-400000.0625,-400000.0625
139.04261755943298,-5851.75,-15960.5,356.4800109863281,-400000.0625,-4881.669921875,-400000.0625,-400000.0625,-400000.0625
139.04861330986023,-5856.27978515625,-15962.8896484375,358.44000244140625,-400000.0625,-4931.259765625,-400000.0625,-400000.0625,-400000.0625
139.05392003059387,-5764.25,-15875.2900390625,428.6300048828125,-400000.0625,-4983.47021484375,-400000.0625,-400000.0625,-400000.0625
139.0610978603363,-5704.02001953125,-15810.58984375,477.7900085449219,-400000.0625,-4952.14990234375,-400000.0625,-400000.0625,-400000.0625
139.06837844848633,-5757.85986328125,-15862.849609375,436.1600036621094,-400000.0625,-4878.47021484375,-400000.0625,-400000.0625,-400000.0625
139.07545042037964,-5846.1201171875,-15955.5498046875,362.7799987792969,-400000.0625,-4874.0400390625,-400000.0625,-400000.0625,-400000.0625
139.08190655708313,-5850.02978515625,-15957.259765625,363.6400146484375,-400000.0625,-4925.919921875,-400000.0625,-400000.0625,-400000.0625
139.0908122062683,-5762.85986328125,-15870.1396484375,435.2099914550781,-400000.0625,-4956.81982421875,-400000.0625,-400000.0625,-400000.0625
139.09887146949768,-5700.77978515625,-15808.919921875,482.0299987792969,-400000.0625,-4919.669921875,-400000.0625,-400000.0625,-400000.0625
139.10569953918457,-5757.27978515625,-15859.3203125,438.6400146484375,-400000.0625,-4877.85009765625,-400000.0625,-400000.0625,-400000.0625
139.1171362400055,-5848.97998046875,-15952.16015625,364.260009765625,-400000.0625,-4878.08984375,-400000.0625,-400000.0625,-400000.0625
139.1244921684265,-5847.68994140625,-15958.7900390625,360.29998779296875,-400000.0625,-4927.5400390625,-400000.0625,-400000.0625,-400000.0625
139.13744926452637,-5757.85986328125,-15867.4296875,433.3999938964844,-400000.0625,-4985.47998046875,-400000.0625,-400000.0625,-400000.0625
139.14368724822998,-5701.58984375,-15809.8203125,474.8299865722656,-400000.0625,-4962.06005859375,-400000.0625,-400000.0625,-400000.0625
139.14987659454346,-5758.669921875,-15863.66015625,430.5799865722656,-400000.0625,-4896.830078125,-400000.0625,-400000.0625,-400000.0625
139.1572766304016,-5847.64990234375,-15954.6904296875,360.67999267578125,-400000.0625,-4870.89013671875,-400000.0625,-400000.0625,-400000.0625
139.16329836845398,-5850.97998046875,-15960.650390625,360.3900146484375,-400000.0625,-4917.669921875,-400000.0625,-400000.0625,-400000.0625
139.17022562026978,-5764.25,-15872.91015625,432.5400085449219,-400000.0625,-4970.64990234375,-400000.0625,-400000.0625,-400000.0625
139.17727518081665,-5707.97998046875,-15809.3896484375,477.70001220703125,-400000.0625,-4955.6298828125,-400000.0625,-400000.0625,-400000.0625
139.18396139144897,-5760.14990234375,-15858.1796875,436.0199890136719,-400000.0625,-4886.72021484375,-400000.0625,-400000.0625,-400000.0625
139.18997740745544,-5843.830078125,-15941.48046875,371.9800109863281,-400000.0625,-4870.75,-400000.0625,-400000.0625,-400000.0625
139.19519591331482,-5842.77978515625,-15942.6201171875,376.75,-400000.0625,-4919.72021484375,-400000.0625,-400000.0625,-400000.0625
139.20248913764954,-5758.85986328125,-15863.51953125,439.9800109863281,-400000.0625,-4958.81982421875,-400000.0625,-400000.0625,-400000.0625
139.20922446250916,-5706.4501953125,-15807.580078125,480.4599914550781,-400000.0625,-4925.009765625,-400000.0625,-400000.0625,-400000.0625
139.21457362174988,-5755.0,-15857.26953125,439.54998779296875,-400000.0625,-4874.56005859375,-400000.0625,-400000.0625,-400000.0625
139.22215747833252,-5840.77978515625,-15944.91015625,370.8399963378906,-400000.0625,-4869.509765625,-400000.0625,-400000.0625,-400000.0625
139.22797203063965,-5843.4501953125,-15950.0595703125,371.0299987792969,-400000.0625,-4920.580078125,-400000.0625,-400000.0625,-400000.0625
139.2397336959839,-5757.7099609375,-15865.0400390625,441.5,-400000.0625,-4962.16015625,-400000.0625,-400000.0625,-400000.0625
139.24579310417175,-5701.16015625,-15803.48046875,484.4700012207031,-400000.0625,-4940.080078125,-400000.0625,-400000.0625,-400000.0625
139.25295233726501,-5747.64990234375,-15849.8798828125,444.9800109863281,-400000.0625,-4886.68017578125,-400000.0625,-400000.0625,-400000.0625
139.2605299949646,-5834.52978515625,-15940.3798828125,376.1300048828125,-400000.0625,-4870.080078125,-400000.0625,-400000.0625,-400000.0625
139.26693654060364,-5839.58984375,-15950.73046875,371.3599853515625,-400000.0625,-4910.66015625,-400000.0625,-400000.0625,-400000.0625
139.27359819412231,-5756.0498046875,-15864.759765625,439.0199890136719,-400000.0625,-4967.7900390625,-400000.0625,-400000.0625,-400000.0625
139.27873921394348,-5698.68017578125,-15802.33984375,486.0400085449219,-400000.0625,-4959.39013671875,-400000.0625,-400000.0625,-400000.0625
139.28447771072388,-5752.52001953125,-15853.0302734375,441.739990234375,-400000.0625,-4892.2998046875,-400000.0625,-400000.0625,-400000.0625
139.2906141281128,-5840.58984375,-15942.5302734375,372.8900146484375,-400000.0625,-4865.4599609375,-400000.0625,-400000.0625,-400000.0625
139.2958858013153,-5843.35009765625,-15951.919921875,370.2200012207031,-400000.0625,-4916.10009765625,-400000.0625,-400000.0625,-400000.0625
139.30135989189148,-5756.85986328125,-15863.849609375,439.2099914550781,-400000.0625,-4957.72021484375,-400000.0625,-400000.0625,-400000.0625
139.3070466518402,-5700.39990234375,-15803.2001953125,484.0899963378906,-400000.0625,-4933.5498046875,-400000.0625,-400000.0625,-400000.0625
139.31310057640076,-5751.47021484375,-15855.4599609375,439.54998779296875,-400000.0625,-4883.72021484375,-400000.0625,-400000.0625,-400000.0625
139.3217329978943,-5836.68017578125,-15943.8203125,369.1199951171875,-400000.0625,-4867.02978515625,-400000.0625,-400000.0625,-400000.0625
139.32781791687012,-5837.39013671875,-15946.490234375,371.0299987792969,-400000.0625,-4910.89990234375,-400000.0625,-400000.0625,-400000.0625
139.33335781097412,-5758.330078125,-15860.8896484375,440.739990234375,-400000.0625,-4945.7998046875,-400000.0625,-400000.0625,-400000.0625
139.34344673156738,-5703.5498046875,-15804.099609375,483.70001220703125,-400000.0625,-4925.8701171875,-400000.0625,-400000.0625,-400000.0625
139.34886050224304,-5757.81005859375,-15862.9404296875,437.54998779296875,-400000.0625,-4874.85009765625,-400000.0625,-400000.0625,-400000.0625
139.3564531803131,-5842.830078125,-15954.6904296875,367.9800109863281,-400000.0625,-4873.47021484375,-400000.0625,-400000.0625,-400000.0625
139.36221766471863,-5840.25,-15949.25,370.69000244140625,-400000.0625,-4915.14013671875,-400000.0625,-400000.0625,-400000.0625
139.37016987800598,-5753.0400390625,-15862.75,433.0199890136719,-400000.0625,-4947.52001953125,-400000.0625,-400000.0625,-400000.0625
139.37553930282593,-5698.72998046875,-15811.5400390625,468.9200134277344,-400000.0625,-4929.830078125,-400000.0625,-400000.0625,-400000.0625
139.38076996803284,-5749.66015625,-15868.0,428.29998779296875,-400000.0625,-4878.56982421875,-400000.0625,-400000.0625,-400000.0625
139.3871865272522,-5831.91015625,-15954.7802734375,368.1199951171875,-400000.0625,-4871.080078125,-400000.0625,-400000.0625,-400000.0625
139.39425611495972,-5834.06005859375,-15952.01953125,366.1199951171875,-400000.0625,-4912.81005859375,-400000.0625,-400000.0625,-400000.0625
139.40093803405762,-5752.66015625,-15874.009765625,425.010009765625,-400000.0625,-4944.66015625,-400000.0625,-400000.0625,-400000.0625
139.4076111316681,-5696.919921875,-15821.509765625,466.9200134277344,-400000.0625,-4923.6298828125,-400000.0625,-400000.0625,-400000.0625
139.41411709785461,-5748.7998046875,-15867.9501953125,427.8699951171875,-400000.0625,-4883.18994140625,-400000.0625,-400000.0625,-400000.0625
139.42317938804626,-5835.8701171875,-15955.259765625,358.6300048828125,-400000.0625,-4879.81005859375,-400000.0625,-400000.0625,-400000.0625
139.4332399368286,-5840.02001953125,-15960.26953125,356.010009765625,-400000.0625,-4923.14990234375,-400000.0625,-400000.0625,-400000.0625
139.4411768913269,-5756.85986328125,-15875.6298828125,423.9100036621094,-400000.0625,-4955.91015625,-400000.0625,-400000.0625,-400000.0625
139.45619201660156,-5702.35009765625,-15819.83984375,468.0199890136719,-400000.0625,-4928.259765625,-400000.0625,-400000.0625,-400000.0625
139.46346616744995,-5755.759765625,-15866.4697265625,427.9100036621094,-400000.0625,-4872.990234375,-400000.0625,-400000.0625,-400000.0625
139.4718518257141,-5838.8701171875,-15951.6796875,362.6300048828125,-400000.0625,-4866.4599609375,-400000.0625,-400000.0625,-400000.0625
139.47761511802673,-5838.43994140625,-15955.3095703125,364.5400085449219,-400000.0625,-4909.3701171875,-400000.0625,-400000.0625,-400000.0625
139.48570132255554,-5753.0400390625,-15872.48046875,430.29998779296875,-400000.0625,-4944.7099609375,-400000.0625,-400000.0625,-400000.0625
139.49269700050354,-5696.8701171875,-15811.25,474.260009765625,-400000.0625,-4931.5,-400000.0625,-400000.0625,-400000.0625
139.49954509735107,-5749.1298828125,-15859.7998046875,430.9700012207031,-400000.0625,-4884.43017578125,-400000.0625,-400000.0625,-400000.0625
139.50602984428406,-5835.10009765625,-15948.1103515625,362.44000244140625,-400000.0625,-4876.22998046875,-400000.0625,-400000.0625,-400000.0625
139.51220178604126,-5842.77978515625,-15957.3095703125,358.25,-400000.0625,-4921.2001953125,-400000.0625,-400000.0625,-400000.0625
139.5179135799408,-5758.9501953125,-15876.8701171875,424.04998779296875,-400000.0625,-4949.27978515625,-400000.0625,-400000.0625,-400000.0625
139.52330493927002,-5702.93017578125,-15819.3095703125,468.05999755859375,-400000.0625,-4925.43994140625,-400000.0625,-400000.0625,-400000.0625
139.52851676940918,-5755.7099609375,-15866.9501953125,427.3399963378906,-400000.0625,-4875.47021484375,-400000.0625,-400000.0625,-400000.0625
139.5341727733612,-5841.06982421875,-15954.259765625,359.1099853515625,-400000.0625,-4868.83984375,-400000.0625,-400000.0625,-400000.0625
139.54261469841003,-5842.16015625,-15958.98046875,359.9200134277344,-400000.0625,-4912.66015625,-400000.0625,-400000.0625,-400000.0625
139.55499362945557,-5758.0,-15869.8603515625,432.2099914550781,-400000.0625,-4947.6201171875,-400000.0625,-400000.0625,-400000.0625
139.5625720024109,-5700.5400390625,-15807.009765625,477.8399963378906,-400000.0625,-4927.490234375,-400000.0625,-400000.0625,-400000.0625
139.56950044631958,-5752.18017578125,-15860.0302734375,431.7300109863281,-400000.0625,-4882.43017578125,-400000.0625,-400000.0625,-400000.0625
139.57665085792542,-5841.16015625,-15950.0595703125,360.82000732421875,-400000.0625,-4874.66015625,-400000.0625,-400000.0625,-400000.0625
139.58312892913818,-5843.58984375,-15956.4501953125,360.3900146484375,-400000.0625,-4920.81982421875,-400000.0625,-400000.0625,-400000.0625
139.59142065048218,-5760.47998046875,-15875.3896484375,427.20001220703125,-400000.0625,-4960.5400390625,-400000.0625,-400000.0625,-400000.0625
139.59653687477112,-5706.169921875,-15817.9296875,470.07000732421875,-400000.0625,-4939.60009765625,-400000.0625,-400000.0625,-400000.0625
139.60330319404602,-5757.6201171875,-15873.240234375,422.95001220703125,-400000.0625,-4887.919921875,-400000.0625,-400000.0625,-400000.0625
139.61091828346252,-5842.259765625,-15956.4501953125,358.7699890136719,-400000.0625,-4882.77001953125,-400000.0625,-400000.0625,-400000.0625
139.61694979667664,-5840.58984375,-15955.400390625,362.2099914550781,-400000.0625,-4925.06005859375,-400000.0625,-400000.0625,-400000.0625
139.62372303009033,-5760.2900390625,-15869.330078125,430.8699951171875,-400000.0625,-4956.06005859375,-400000.0625,-400000.0625,-400000.0625
139.6310350894928,-5708.7900390625,-15811.8701171875,475.30999755859375,-400000.0625,-4919.2900390625,-400000.0625,-400000.0625,-400000.0625
139.63788032531738,-5763.10009765625,-15870.759765625,427.1499938964844,-400000.0625,-4871.93994140625,-400000.0625,-400000.0625,-400000.0625
139.64320826530457,-5846.5498046875,-15959.599609375,355.6300048828125,-400000.0625,-4882.3798828125,-400000.0625,-400000.0625,-400000.0625
139.65650844573975,-5845.93017578125,-15956.9296875,360.6300048828125,-400000.0625,-4921.14990234375,-400000.0625,-400000.0625,-400000.0625
139.66342878341675,-5762.72021484375,-15875.580078125,424.6700134277344,-400000.0625,-4944.1298828125,-400000.0625,-400000.0625,-400000.0625
139.67244410514832,-5709.35986328125,-15819.83984375,465.5400085449219,-400000.0625,-4917.33984375,-400000.0625,-400000.0625,-400000.0625
139.6806674003601,-5757.330078125,-15868.9501953125,422.5299987792969,-400000.0625,-4875.60986328125,-400000.0625,-400000.0625,-400000.0625
139.68826627731323,-5839.39990234375,-15954.1103515625,355.7699890136719,-400000.0625,-4880.0,-400000.0625,-400000.0625,-400000.0625
139.69403982162476,-5839.43994140625,-15955.7802734375,361.05999755859375,-400000.0625,-4925.490234375,-400000.0625,-400000.0625,-400000.0625
139.70118379592896,-5758.47998046875,-15874.150390625,423.1499938964844,-400000.0625,-4953.43017578125,-400000.0625,-400000.0625,-400000.0625
139.70714163780212,-5706.60009765625,-15824.0302734375,459.42999267578125,-400000.0625,-4927.72998046875,-400000.0625,-400000.0625,-400000.0625
139.71245503425598,-5758.0,-15872.5302734375,417.2799987792969,-400000.0625,-4876.52001953125,-400000.0625,-400000.0625,-400000.0625
139.72037863731384,-5841.2998046875,-15956.5,350.760009765625,-400000.0625,-4875.9501953125,-400000.0625,-400000.0625,-400000.0625
139.72705221176147,-5841.259765625,-15963.7900390625,350.8999938964844,-400000.0625,-4926.009765625,-400000.0625,-400000.0625,-400000.0625
139.73533391952515,-5761.72021484375,-15885.2099609375,412.6099853515625,-400000.0625,-4957.2998046875,-400000.0625,-400000.0625,-400000.0625
139.74512195587158,-5710.1298828125,-15825.6103515625,457.4800109863281,-400000.0625,-4930.8798828125,-400000.0625,-400000.0625,-400000.0625
139.76257252693176,-5759.669921875,-15876.25,416.3699951171875,-400000.0625,-4878.9501953125,-400000.0625,-400000.0625,-400000.0625
139.76990389823914,-5847.97998046875,-15967.080078125,343.17999267578125,-400000.0625,-4874.330078125,-400000.0625,-400000.0625,-400000.0625
139.77656817436218,-5847.5,-15967.66015625,340.989990234375,-400000.0625,-4934.169921875,-400000.0625,-400000.0625,-400000.0625
139.7837941646576,-5765.81982421875,-15879.58984375,412.32000732421875,-400000.0625,-4976.419921875,-400000.0625,-400000.0625,-400000.0625
139.790944814682,-5711.080078125,-15822.509765625,457.9100036621094,-400000.0625,-4941.3701171875,-400000.0625,-400000.0625,-400000.0625
139.7964198589325,-5764.009765625,-15875.2001953125,413.94000244140625,-400000.0625,-4876.14013671875,-400000.0625,-400000.0625,-400000.0625
139.80161213874817,-5848.93017578125,-15957.4501953125,350.8599853515625,-400000.0625,-4874.0400390625,-400000.0625,-400000.0625,-400000.0625
139.80678915977478,-5847.259765625,-15963.1298828125,350.3800048828125,-400000.0625,-4920.47998046875,-400000.0625,-400000.0625,-400000.0625
139.8126769065857,-5761.91015625,-15885.6904296875,415.4700012207031,-400000.0625,-4944.89990234375,-400000.0625,-400000.0625,-400000.0625
139.81999850273132,-5705.830078125,-15824.3701171875,460.3900146484375,-400000.0625,-4918.18994140625,-400000.0625,-400000.0625,-400000.0625
139.8275203704834,-5761.43017578125,-15877.3896484375,414.32000732421875,-400000.0625,-4872.7001953125,-400000.0625,-400000.0625,-400000.0625
139.83457326889038,-5844.93017578125,-15966.3701171875,346.5199890136719,-400000.0625,-4880.81005859375,-400000.0625,-400000.0625,-400000.0625
139.8411090373993,-5845.8798828125,-15965.990234375,350.3800048828125,-400000.0625,-4925.2998046875,-400000.0625,-400000.0625,-400000.0625
139.8463418483734,-5762.39013671875,-15884.01953125,417.0400085449219,-400000.0625,-4947.3798828125,-400000.0625,-400000.0625,-400000.0625
139.86117124557495,-5707.169921875,-15827.849609375,460.239990234375,-400000.0625,-4923.490234375,-400000.0625,-400000.0625,-400000.0625
139.86835932731628,-5765.2998046875,-15879.919921875,415.95001220703125,-400000.0625,-4879.81005859375,-400000.0625,-400000.0625,-400000.0625
139.87742137908936,-5850.169921875,-15967.66015625,347.95001220703125,-400000.0625,-4878.6201171875,-400000.0625,-400000.0625,-400000.0625
139.88748025894165,-5845.8798828125,-15967.66015625,352.7200012207031,-400000.0625,-4922.81982421875,-400000.0625,-400000.0625,-400000.0625
139.89388847351074,-5759.91015625,-15885.4501953125,418.0400085449219,-400000.0625,-4954.72021484375,-400000.0625,-400000.0625,-400000.0625
139.90185117721558,-5708.27001953125,-15827.5595703125,462.3900146484375,-400000.0625,-4929.68994140625,-400000.0625,-400000.0625,-400000.0625
139.9082796573639,-5759.91015625,-15878.919921875,418.3299865722656,-400000.0625,-4879.08984375,-400000.0625,-400000.0625,-400000.0625
139.91379952430725,-5843.35009765625,-15964.080078125,353.3800048828125,-400000.0625,-4876.52001953125,-400000.0625,-400000.0625,-400000.0625
139.92214727401733,-5841.2099609375,-15963.3701171875,358.25,-400000.0625,-4925.919921875,-400000.0625,-400000.0625,-400000.0625
139.92862129211426,-5758.759765625,-15878.25,425.010009765625,-400000.0625,-4955.2001953125,-400000.0625,-400000.0625,-400000.0625
139.9345736503601,-5708.60009765625,-15825.26953125,463.1499938964844,-400000.0625,-4928.259765625,-400000.0625,-400000.0625,-400000.0625
139.94022750854492,-5766.33984375,-15882.349609375,412.6099853515625,-400000.0625,-4880.2900390625,-400000.0625,-400000.0625,-400000.0625
139.94557905197144,-5848.5498046875,-15968.6103515625,345.1300048828125,-400000.0625,-4881.3798828125,-400000.0625,-400000.0625,-400000.0625
139.95413947105408,-5844.97998046875,-15963.3701171875,352.9100036621094,-400000.0625,-4932.35986328125,-400000.0625,-400000.0625,-400000.0625
139.96974158287048,-5762.2001953125,-15875.91015625,421.8599853515625,-400000.0625,-4960.06005859375,-400000.0625,-400000.0625,-400000.0625
139.97795748710632,-5706.259765625,-15823.5595703125,464.6300048828125,-400000.0625,-4922.490234375,-400000.0625,-400000.0625,-400000.0625
139.98523497581482,-5759.14013671875,-15877.73046875,420.95001220703125,-400000.0625,-4869.080078125,-400000.0625,-400000.0625,-400000.0625
139.9916069507599,-5843.93017578125,-15964.75,351.1400146484375,-400000.0625,-4868.31982421875,-400000.0625,-400000.0625,-400000.0625
139.9984254837036,-5840.06005859375,-15966.75,352.42999267578125,-400000.0625,-4917.6201171875,-400000.0625,-400000.0625,-400000.0625
140.00509977340698,-5754.330078125,-15878.5400390625,422.6700134277344,-400000.0625,-4948.9501953125,-400000.0625,-400000.0625,-400000.0625
140.01203966140747,-5703.97021484375,-15825.3701171875,461.9599914550781,-400000.0625,-4926.009765625,-400000.0625,-400000.0625,-400000.0625
140.01795268058777,-5760.33984375,-15879.4404296875,415.4700012207031,-400000.0625,-4885.81982421875,-400000.0625,-400000.0625,-400000.0625
140.02336144447327,-5843.5,-15966.1298828125,349.0899963378906,-400000.0625,-4885.6298828125,-400000.0625,-400000.0625,-400000.0625
140.02852821350098,-5841.02001953125,-15963.990234375,354.9100036621094,-400000.0625,-4924.919921875,-400000.0625,-400000.0625,-400000.0625
140.0351493358612,-5755.18994140625,-15877.9599609375,418.95001220703125,-400000.0625,-4934.97998046875,-400000.0625,-400000.0625,-400000.0625
140.04254269599915,-5702.2099609375,-15821.1298828125,462.9599914550781,-400000.0625,-4898.64013671875,-400000.0625,-400000.0625,-400000.0625
140.04827046394348,-5759.240234375,-15875.3896484375,416.8500061035156,-400000.0625,-4867.509765625,-400000.0625,-400000.0625,-400000.0625
140.05373549461365,-5847.5,-15960.169921875,348.2300109863281,-400000.0625,-4877.85009765625,-400000.0625,-400000.0625,-400000.0625
140.05985236167908,-5843.77978515625,-15961.26953125,354.6700134277344,-400000.0625,-4921.25,-400000.0625,-400000.0625,-400000.0625
140.073246717453,-5755.08984375,-15875.580078125,428.1499938964844,-400000.0625,-4936.31005859375,-400000.0625,-400000.0625,-400000.0625
140.08204221725464,-5702.77978515625,-15821.8896484375,467.3500061035156,-400000.0625,-4908.7099609375,-400000.0625,-400000.0625,-400000.0625
140.08775758743286,-5760.3798828125,-15882.2099609375,414.55999755859375,-400000.0625,-4880.47998046875,-400000.0625,-400000.0625,-400000.0625
140.09568858146667,-5842.72998046875,-15969.3701171875,346.4200134277344,-400000.0625,-4882.3798828125,-400000.0625,-400000.0625,-400000.0625
140.10222601890564,-5838.77978515625,-15967.419921875,351.1400146484375,-400000.0625,-4918.6201171875,-400000.0625,-400000.0625,-400000.0625
140.10811376571655,-5752.419921875,-15880.400390625,421.80999755859375,-400000.0625,-4934.8798828125,-400000.0625,-400000.0625,-400000.0625
140.115216255188,-5699.25,-15822.4599609375,465.1099853515625,-400000.0625,-4908.27978515625,-400000.0625,-400000.0625,-400000.0625
140.12372994422913,-5755.759765625,-15875.0595703125,422.239990234375,-400000.0625,-4871.31982421875,-400000.0625,-400000.0625,-400000.0625
140.12988710403442,-5837.5400390625,-15962.7001953125,355.3399963378906,-400000.0625,-4880.330078125,-400000.0625,-400000.0625,-400000.0625
140.13684916496277,-5831.39013671875,-15961.26953125,360.1600036621094,-400000.0625,-4919.47998046875,-400000.0625,-400000.0625,-400000.0625
140.14324736595154,-5750.1298828125,-15868.7099609375,431.8699951171875,-400000.0625,-4930.4501953125,-400000.0625,-400000.0625,-400000.0625
140.14947032928467,-5696.9599609375,-15816.259765625,470.45001220703125,-400000.0625,-4898.97998046875,-400000.0625,-400000.0625,-400000.0625
140.1577925682068,-5751.60986328125,-15875.150390625,420.57000732421875,-400000.0625,-4866.7900390625,-400000.0625,-400000.0625,-400000.0625
140.1636414527893,-5841.490234375,-15964.6103515625,349.0,-400000.0625,-4881.10009765625,-400000.0625,-400000.0625,-400000.0625
140.17430233955383,-5841.830078125,-15967.080078125,349.239990234375,-400000.0625,-4915.43017578125,-400000.0625,-400000.0625,-400000.0625
140.17943263053894,-5754.56982421875,-15878.009765625,419.3299865722656,-400000.0625,-4928.2998046875,-400000.0625,-400000.0625,-400000.0625
140.18945980072021,-5700.2099609375,-15823.9404296875,460.1000061035156,-400000.0625,-4911.22998046875,-400000.0625,-400000.0625,-400000.0625
140.1961636543274,-5756.89990234375,-15878.1103515625,414.79998779296875,-400000.0625,-4877.66015625,-400000.0625,-400000.0625,-400000.0625
140.2027609348297,-5840.25,-15965.3203125,348.3800048828125,-400000.0625,-4886.68017578125,-400000.0625,-400000.0625,-400000.0625
140.20916628837585,-5835.52978515625,-15961.26953125,358.25,-400000.0625,-4917.9599609375,-400000.0625,-400000.0625,-400000.0625
140.21608757972717,-5747.3701171875,-15875.76953125,427.3900146484375,-400000.0625,-4925.81982421875,-400000.0625,-400000.0625,-400000.0625
140.2226860523224,-5695.009765625,-15821.41015625,466.010009765625,-400000.0625,-4898.8798828125,-400000.0625,-400000.0625,-400000.0625
140.2284107208252,-5752.89990234375,-15880.400390625,414.8999938964844,-400000.0625,-4873.47021484375,-400000.0625,-400000.0625,-400000.0625
140.23481631278992,-5843.68994140625,-15973.1396484375,340.989990234375,-400000.0625,-4894.919921875,-400000.0625,-400000.0625,-400000.0625
140.24212741851807,-5841.35009765625,-15972.08984375,347.0400085449219,-400000.0625,-4934.41015625,-400000.0625,-400000.0625,-400000.0625
140.24891877174377,-5749.990234375,-15881.73046875,420.0,-400000.0625,-4945.14013671875,-400000.0625,-400000.0625,-400000.0625
140.2543888092041,-5698.490234375,-15824.2197265625,463.44000244140625,-400000.0625,-4911.3798828125,-400000.0625,-400000.0625,-400000.0625
140.26060128211975,-5758.10009765625,-15877.1103515625,417.0400085449219,-400000.0625,-4875.22998046875,-400000.0625,-400000.0625,-400000.0625
140.26833248138428,-5841.02001953125,-15962.8896484375,348.8500061035156,-400000.0625,-4884.669921875,-400000.0625,-400000.0625,-400000.0625
140.27948355674744,-5839.2998046875,-15963.990234375,352.3399963378906,-400000.0625,-4917.47998046875,-400000.0625,-400000.0625,-400000.0625
140.2877812385559,-5752.08984375,-15875.7197265625,425.8599853515625,-400000.0625,-4922.8701171875,-400000.0625,-400000.0625,-400000.0625
140.2954649925232,-5699.02001953125,-15820.3603515625,467.05999755859375,-400000.0625,-4893.35009765625,-400000.0625,-400000.0625,-400000.0625
140.30417919158936,-5764.10009765625,-15884.1201171875,411.4200134277344,-400000.0625,-4874.75,-400000.0625,-400000.0625,-400000.0625
140.31101775169373,-5850.27001953125,-15976.2900390625,339.510009765625,-400000.0625,-4896.2099609375,-400000.0625,-400000.0625,-400000.0625
140.31869983673096,-5843.06982421875,-15973.0498046875,346.3699951171875,-400000.0625,-4934.5,-400000.0625,-400000.0625,-400000.0625
140.32412314414978,-5755.47021484375,-15889.26953125,418.2300109863281,-400000.0625,-4944.18017578125,-400000.0625,-400000.0625,-400000.0625
140.32929253578186,-5703.02001953125,-15837.150390625,460.1000061035156,-400000.0625,-4921.68017578125,-400000.0625,-400000.0625,-400000.0625
140.33579182624817,-5762.2900390625,-15885.7802734375,416.95001220703125,-400000.0625,-4886.580078125,-400000.0625,-400000.0625,-400000.0625
140.34396743774414,-5853.83984375,-15959.6904296875,353.239990234375,-400000.0625,-4880.669921875,-400000.0625,-400000.0625,-400000.0625
140.35091543197632,-5853.64990234375,-15958.98046875,356.44000244140625,-400000.0625,-4920.10009765625,-400000.0625,-400000.0625,-400000.0625
140.3570737838745,-5769.6298828125,-15882.4501953125,426.3399963378906,-400000.0625,-4941.080078125,-400000.0625,-400000.0625,-400000.0625
140.36325788497925,-5714.75,-15827.0400390625,467.5400085449219,-400000.0625,-4911.7998046875,-400000.0625,-400000.0625,-400000.0625
140.36938500404358,-5777.93017578125,-15885.3095703125,417.79998779296875,-400000.0625,-4881.669921875,-400000.0625,-400000.0625,-400000.0625
140.37997841835022,-5869.6298828125,-15981.009765625,347.6099853515625,-400000.0625,-4890.39013671875,-400000.0625,-400000.0625,-400000.0625
140.38774704933167,-5856.7099609375,-15975.91015625,357.25,-400000.0625,-4934.740234375,-400000.0625,-400000.0625,-400000.0625
140.39438462257385,-5764.2900390625,-15881.8701171875,432.9200134277344,-400000.0625,-4956.580078125,-400000.0625,-400000.0625,-400000.0625
140.4022388458252,-5712.02978515625,-15827.990234375,472.7799987792969,-400000.0625,-4928.64013671875,-400000.0625,-400000.0625,-400000.0625
140.41102719306946,-5770.06005859375,-15887.6904296875,423.4800109863281,-400000.0625,-4887.10009765625,-400000.0625,-400000.0625,-400000.0625
140.41772413253784,-5856.31982421875,-15973.1396484375,356.4800109863281,-400000.0625,-4891.6298828125,-400000.0625,-400000.0625,-400000.0625
140.42511367797852,-5851.1298828125,-15967.2802734375,363.8299865722656,-400000.0625,-4938.75,-400000.0625,-400000.0625,-400000.0625
140.43162417411804,-5762.2001953125,-15873.9599609375,440.2200012207031,-400000.0625,-4958.009765625,-400000.0625,-400000.0625,-400000.0625
140.43824934959412,-5715.89990234375,-15825.3701171875,474.1700134277344,-400000.0625,-4925.919921875,-400000.0625,-400000.0625,-400000.0625
140.44373321533203,-5778.83984375,-15887.4501953125,421.7099914550781,-400000.0625,-4880.56982421875,-400000.0625,-400000.0625,-400000.0625
140.44926285743713,-5870.2001953125,-15976.5703125,351.6199951171875,-400000.0625,-4889.580078125,-400000.0625,-400000.0625,-400000.0625
140.4584391117096,-5863.0,-15975.1396484375,357.3399963378906,-400000.0625,-4935.93017578125,-400000.0625,-400000.0625,-400000.0625
140.46680212020874,-5767.97021484375,-15886.0703125,431.9700012207031,-400000.0625,-4950.85986328125,-400000.0625,-400000.0625,-400000.0625
140.4733669757843,-5715.93994140625,-15827.4697265625,474.9800109863281,-400000.0625,-4917.9599609375,-400000.0625,-400000.0625,-400000.0625
140.48769545555115,-5776.68994140625,-15888.6904296875,424.9599914550781,-400000.0625,-4882.56982421875,-400000.0625,-400000.0625,-400000.0625
140.49372816085815,-5865.91015625,-15987.01953125,350.239990234375,-400000.0625,-4894.77978515625,-400000.0625,-400000.0625,-400000.0625
140.5004460811615,-5857.1298828125,-15978.2001953125,357.1000061035156,-400000.0625,-4928.06005859375,-400000.0625,-400000.0625,-400000.0625
140.5077621936798,-5764.91015625,-15877.1103515625,436.45001220703125,-400000.0625,-4935.97998046875,-400000.0625,-400000.0625,-400000.0625
140.51540994644165,-5715.47021484375,-15826.419921875,475.30999755859375,-400000.0625,-4915.91015625,-400000.0625,-400000.0625,-400000.0625
140.52237606048584,-5776.4501953125,-15888.259765625,425.3399963378906,-400000.0625,-4881.240234375,-400000.0625,-400000.0625,-400000.0625
140.53131079673767,-5866.0498046875,-15982.3896484375,353.42999267578125,-400000.0625,-4888.43994140625,-400000.0625,-400000.0625,-400000.0625
140.53670835494995,-5858.60986328125,-15974.330078125,361.6300048828125,-400000.0625,-4939.60009765625,-400000.0625,-400000.0625,-400000.0625
140.54310059547424,-5764.580078125,-15883.16015625,436.0199890136719,-400000.0625,-4956.10009765625,-400000.0625,-400000.0625,-400000.0625
140.5502667427063,-5711.1298828125,-15823.650390625,479.4100036621094,-400000.0625,-4917.33984375,-400000.0625,-400000.0625,-400000.0625
140.55747842788696,-5772.06982421875,-15885.259765625,428.010009765625,-400000.0625,-4877.85009765625,-400000.0625,-400000.0625,-400000.0625
140.56421303749084,-5864.81005859375,-15980.4404296875,352.57000732421875,-400000.0625,-4890.25,-400000.0625,-400000.0625,-400000.0625
140.57181692123413,-5857.66015625,-15974.3798828125,358.489990234375,-400000.0625,-4936.83984375,-400000.0625,-400000.0625,-400000.0625
140.57772254943848,-5764.68017578125,-15881.830078125,435.9200134277344,-400000.0625,-4952.85986328125,-400000.0625,-400000.0625,-400000.0625
140.58895182609558,-5713.31982421875,-15825.23046875,476.1700134277344,-400000.0625,-4933.64013671875,-400000.0625,-400000.0625,-400000.0625
140.59551405906677,-5775.5,-15890.8896484375,420.3299865722656,-400000.0625,-4898.68994140625,-400000.0625,-400000.0625,-400000.0625
140.6015453338623,-5863.240234375,-15981.0595703125,350.80999755859375,-400000.0625,-4899.64990234375,-400000.0625,-400000.0625,-400000.0625
140.60707330703735,-5855.1298828125,-15973.759765625,359.20001220703125,-400000.0625,-4942.18017578125,-400000.0625,-400000.0625,-400000.0625
140.61234259605408,-5767.43994140625,-15881.2998046875,434.3500061035156,-400000.0625,-4969.5498046875,-400000.0625,-400000.0625,-400000.0625
140.61979341506958,-5717.9501953125,-15831.8095703125,473.3599853515625,-400000.0625,-4948.66015625,-400000.0625,-400000.0625,-400000.0625
140.62577629089355,-5780.080078125,-15894.83984375,418.4200134277344,-400000.0625,-4898.41015625,-400000.0625,-400000.0625,-400000.0625
140.6311318874359,-5868.2001953125,-15985.4404296875,344.55999755859375,-400000.0625,-4898.60009765625,-400000.0625,-400000.0625,-400000.0625
140.6377239227295,-5862.81005859375,-15978.0,355.7699890136719,-400000.0625,-4946.759765625,-400000.0625,-400000.0625,-400000.0625
140.64340829849243,-5771.16015625,-15883.6396484375,434.45001220703125,-400000.0625,-4995.68017578125,-400000.0625,-400000.0625,-400000.0625
140.64938640594482,-5720.22998046875,-15831.419921875,470.5,-400000.0625,-4991.06005859375,-400000.0625,-400000.0625,-400000.0625
140.65634751319885,-5785.0400390625,-15895.23046875,417.5199890136719,-400000.0625,-4921.6298828125,-400000.0625,-400000.0625,-400000.0625
140.66251301765442,-5873.35009765625,-15981.0595703125,349.3800048828125,-400000.0625,-4896.93017578125,-400000.0625,-400000.0625,-400000.0625
140.66925883293152,-5860.419921875,-15975.8095703125,355.5299987792969,-400000.0625,-4951.10009765625,-400000.0625,-400000.0625,-400000.0625
140.6766893863678,-5768.490234375,-15885.3095703125,430.1499938964844,-400000.0625,-5005.31005859375,-400000.0625,-400000.0625,-400000.0625
140.68195295333862,-5719.60986328125,-15828.330078125,473.07000732421875,-400000.0625,-4982.08984375,-400000.0625,-400000.0625,-400000.0625
140.69209218025208,-5780.509765625,-15894.7998046875,419.6600036621094,-400000.0625,-4913.330078125,-400000.0625,-400000.0625,-400000.0625
140.69755506515503,-5865.52978515625,-15987.01953125,347.4200134277344,-400000.0625,-4902.02978515625,-400000.0625,-400000.0625,-400000.0625
140.707599401474,-5857.419921875,-15982.33984375,349.760009765625,-400000.0625,-4963.2998046875,-400000.0625,-400000.0625,-400000.0625
140.71415901184082,-5764.25,-15889.3603515625,423.3800048828125,-400000.0625,-4999.919921875,-400000.0625,-400000.0625,-400000.0625
140.72246646881104,-5712.7001953125,-15830.51953125,470.8299865722656,-400000.0625,-4970.02978515625,-400000.0625,-400000.0625,-400000.0625
140.72789120674133,-5776.35986328125,-15890.650390625,421.2900085449219,-400000.0625,-4906.75,-400000.0625,-400000.0625,-400000.0625
140.7366750240326,-5865.18994140625,-15981.7197265625,348.0899963378906,-400000.0625,-4898.31005859375,-400000.0625,-400000.0625,-400000.0625
140.74391794204712,-5856.08984375,-15975.0498046875,358.05999755859375,-400000.0625,-4950.43017578125,-400000.0625,-400000.0625,-400000.0625
140.7540307044983,-5762.77001953125,-15878.8203125,438.3999938964844,-400000.0625,-4986.56982421875,-400000.0625,-400000.0625,-400000.0625
140.7614483833313,-5707.83984375,-15826.3701171875,476.1700134277344,-400000.0625,-4961.43994140625,-400000.0625,-400000.0625,-400000.0625
140.77000308036804,-5775.02001953125,-15892.4599609375,416.4200134277344,-400000.0625,-4903.7900390625,-400000.0625,-400000.0625,-400000.0625
140.77711820602417,-5868.52978515625,-15986.400390625,340.8900146484375,-400000.0625,-4904.3701171875,-400000.0625,-400000.0625,-400000.0625
140.78537249565125,-5860.22998046875,-15977.4296875,352.80999755859375,-400000.0625,-4949.669921875,-400000.0625,-400000.0625,-400000.0625
140.79782843589783,-5770.06005859375,-15883.01953125,430.010009765625,-400000.0625,-4991.9599609375,-400000.0625,-400000.0625,-400000.0625
140.80471110343933,-5717.66015625,-15831.900390625,468.2099914550781,-400000.0625,-4975.83984375,-400000.0625,-400000.0625,-400000.0625
140.81082201004028,-5776.5498046875,-15884.9296875,411.6499938964844,-400000.0625,-4916.14013671875,-400000.0625,-400000.0625,-400000.0625
140.81742000579834,-5858.22998046875,-15973.6201171875,337.30999755859375,-400000.0625,-4906.0400390625,-400000.0625,-400000.0625,-400000.0625
140.82438468933105,-5848.22021484375,-15975.48046875,345.8999938964844,-400000.0625,-4957.52978515625,-400000.0625,-400000.0625,-400000.0625
140.83425569534302,-5758.0,-15886.01953125,420.3299865722656,-400000.0625,-5007.4599609375,-400000.0625,-400000.0625,-400000.0625
140.8413543701172,-5704.64013671875,-15825.5595703125,462.3399963378906,-400000.0625,-4985.3798828125,-400000.0625,-400000.0625,-400000.0625
140.85076022148132,-5765.33984375,-15884.01953125,412.2699890136719,-400000.0625,-4911.14013671875,-400000.0625,-400000.0625,-400000.0625
140.85931134223938,-5853.75,-15971.51953125,340.6000061035156,-400000.0625,-4897.169921875,-400000.0625,-400000.0625,-400000.0625
140.8672070503235,-5849.41015625,-15966.26953125,345.4700012207031,-400000.0625,-4963.919921875,-400000.0625,-400000.0625,-400000.0625
140.8735020160675,-5752.66015625,-15874.150390625,421.8599853515625,-400000.0625,-5024.2900390625,-400000.0625,-400000.0625,-400000.0625
140.87966799736023,-5701.16015625,-15821.740234375,461.20001220703125,-400000.0625,-5009.75,-400000.0625,-400000.0625,-400000.0625
140.8866810798645,-5765.8701171875,-15880.6796875,412.0400085449219,-400000.0625,-4936.02978515625,-400000.0625,-400000.0625,-400000.0625
140.90036129951477,-5849.89013671875,-15969.08984375,340.1300048828125,-400000.0625,-4905.7998046875,-400000.0625,-400000.0625,-400000.0625
140.9061894416809,-5842.35009765625,-15959.83984375,348.0400085449219,-400000.0625,-4965.1201171875,-400000.0625,-400000.0625,-400000.0625
140.9128975868225,-5749.509765625,-15868.0498046875,426.239990234375,-400000.0625,-5032.25,-400000.0625,-400000.0625,-400000.0625
140.91921615600586,-5702.06982421875,-15817.5,464.3399963378906,-400000.0625,-5006.31005859375,-400000.0625,-400000.0625,-400000.0625
140.92505741119385,-5763.9599609375,-15881.0595703125,410.2699890136719,-400000.0625,-4928.64013671875,-400000.0625,-400000.0625,-400000.0625
140.93117427825928,-5850.02978515625,-15972.0400390625,338.70001220703125,-400000.0625,-4909.66015625,-400000.0625,-400000.0625,-400000.0625
140.93896532058716,-5837.77001953125,-15962.169921875,350.6199951171875,-400000.0625,-4964.77978515625,-400000.0625,-400000.0625,-400000.0625
140.94486474990845,-5746.4599609375,-15872.1904296875,424.7699890136719,-400000.0625,-5021.9501953125,-400000.0625,-400000.0625,-400000.0625
140.95295763015747,-5698.2998046875,-15814.400390625,467.82000732421875,-400000.0625,-5002.740234375,-400000.0625,-400000.0625,-400000.0625
140.96220231056213,-5760.10009765625,-15873.8203125,417.5199890136719,-400000.0625,-4913.66015625,-400000.0625,-400000.0625,-400000.0625
140.97101402282715,-5850.97998046875,-15967.7001953125,345.5199890136719,-400000.0625,-4893.919921875,-400000.0625,-400000.0625,-400000.0625
140.98118782043457,-5846.2099609375,-15965.23046875,351.1000061035156,-400000.0625,-4958.43994140625,-400000.0625,-400000.0625,-400000.0625
140.9878671169281,-5753.56982421875,-15873.6201171875,424.1000061035156,-400000.0625,-5015.7998046875,-400000.0625,-400000.0625,-400000.0625
141.00005412101746,-5703.39990234375,-15823.1298828125,460.7699890136719,-400000.0625,-4992.10009765625,-400000.0625,-400000.0625,-400000.0625
141.0086226463318,-5765.52978515625,-15883.16015625,411.70001220703125,-400000.0625,-4929.97021484375,-400000.0625,-400000.0625,-400000.0625
141.01438808441162,-5852.64990234375,-15967.5595703125,344.0899963378906,-400000.0625,-4910.27978515625,-400000.0625,-400000.0625,-400000.0625
141.02252984046936,-5840.2998046875,-15960.3603515625,353.239990234375,-400000.0625,-4957.06005859375,-400000.0625,-400000.0625,-400000.0625
141.028892993927,-5745.83984375,-15865.4697265625,431.6300048828125,-400000.0625,-4996.16015625,-400000.0625,-400000.0625,-400000.0625
141.03621673583984,-5696.14990234375,-15812.9697265625,469.7300109863281,-400000.0625,-4967.97998046875,-400000.0625,-400000.0625,-400000.0625
141.04229044914246,-5762.39013671875,-15879.25,413.0799865722656,-400000.0625,-4910.330078125,-400000.0625,-400000.0625,-400000.0625
141.04782629013062,-5845.97998046875,-15961.1201171875,349.80999755859375,-400000.0625,-4901.740234375,-400000.0625,-400000.0625,-400000.0625
141.05619835853577,-5835.25,-15957.2099609375,357.3399963378906,-400000.0625,-4954.47998046875,-400000.0625,-400000.0625,-400000.0625
141.06305694580078,-5744.89013671875,-15866.3798828125,429.5299987792969,-400000.0625,-4997.72998046875,-400000.0625,-400000.0625,-400000.0625
141.0735306739807,-5696.77001953125,-15812.01953125,467.6300048828125,-400000.0625,-4968.35986328125,-400000.0625,-400000.0625,-400000.0625
141.08222723007202,-5760.3798828125,-15874.669921875,415.0899963378906,-400000.0625,-4903.97998046875,-400000.0625,-400000.0625,-400000.0625
141.08818364143372,-5847.02978515625,-15965.419921875,345.79998779296875,-400000.0625,-4898.259765625,-400000.0625,-400000.0625,-400000.0625
141.10158514976501,-5837.490234375,-15955.400390625,356.4800109863281,-400000.0625,-4956.10009765625,-400000.0625,-400000.0625,-400000.0625
141.10853695869446,-5747.080078125,-15859.6103515625,435.0199890136719,-400000.0625,-5003.97998046875,-400000.0625,-400000.0625,-400000.0625
141.11597299575806,-5699.02001953125,-15811.2099609375,467.25,-400000.0625,-4986.91015625,-400000.0625,-400000.0625,-400000.0625
141.12601733207703,-5764.2900390625,-15873.91015625,414.2300109863281,-400000.0625,-4927.68017578125,-400000.0625,-400000.0625,-400000.0625
141.13251376152039,-5845.02001953125,-15962.2197265625,350.3299865722656,-400000.0625,-4905.89013671875,-400000.0625,-400000.0625,-400000.0625
141.14008712768555,-5830.240234375,-15949.8203125,362.9200134277344,-400000.0625,-4960.35009765625,-400000.0625,-400000.0625,-400000.0625
141.14623975753784,-5740.60009765625,-15859.6103515625,431.44000244140625,-400000.0625,-5022.56982421875,-400000.0625,-400000.0625,-400000.0625
141.15340161323547,-5695.8701171875,-15813.0703125,464.3900146484375,-400000.0625,-5013.990234375,-400000.0625,-400000.0625,-400000.0625
141.15995955467224,-5763.580078125,-15879.5400390625,409.8900146484375,-400000.0625,-4932.5498046875,-400000.0625,-400000.0625,-400000.0625
141.16619968414307,-5853.60986328125,-15964.2197265625,345.0899963378906,-400000.0625,-4899.93017578125,-400000.0625,-400000.0625,-400000.0625
141.1739022731781,-5839.06005859375,-15955.0703125,356.82000732421875,-400000.0625,-4961.919921875,-400000.0625,-400000.0625,-400000.0625
141.18316984176636,-5743.41015625,-15863.5595703125,430.9200134277344,-400000.0625,-5032.39990234375,-400000.0625,-400000.0625,-400000.0625
141.1909420490265,-5698.77978515625,-15813.5,466.9700012207031,-400000.0625,-5025.10009765625,-400000.0625,-400000.0625,-400000.0625
141.20512294769287,-5758.6201171875,-15877.6298828125,415.17999267578125,-400000.0625,-4934.8798828125,-400000.0625,-400000.0625,-400000.0625
141.2126543521881,-5841.35009765625,-15963.9404296875,349.239990234375,-400000.0625,-4899.4501953125,-400000.0625,-400000.0625,-400000.0625
141.2187201976776,-5830.18994140625,-15951.16015625,360.29998779296875,-400000.0625,-4972.080078125,-400000.0625,-400000.0625,-400000.0625
141.22520756721497,-5739.02001953125,-15855.83984375,437.30999755859375,-400000.0625,-5054.240234375,-400000.0625,-400000.0625,-400000.0625
141.23097324371338,-5694.72021484375,-15807.490234375,473.6400146484375,-400000.0625,-5040.02978515625,-400000.0625,-400000.0625,-400000.0625
141.2391951084137,-5760.77001953125,-15875.2900390625,414.4200134277344,-400000.0625,-4948.89990234375,-400000.0625,-400000.0625,-400000.0625
141.24564576148987,-5846.31005859375,-15962.98046875,344.6600036621094,-400000.0625,-4903.60009765625,-400000.0625,-400000.0625,-400000.0625
141.25367426872253,-5835.06005859375,-15951.9697265625,356.2900085449219,-400000.0625,-4960.06005859375,-400000.0625,-400000.0625,-400000.0625
141.25962853431702,-5745.02978515625,-15862.08984375,430.8699951171875,-400000.0625,-5048.47021484375,-400000.0625,-400000.0625,-400000.0625
141.26505303382874,-5699.43994140625,-15814.8798828125,466.29998779296875,-400000.0625,-5035.58984375,-400000.0625,-400000.0625,-400000.0625
141.27122044563293,-5762.9599609375,-15879.919921875,411.79998779296875,-400000.0625,-4940.75,-400000.0625,-400000.0625,-400000.0625
141.27798509597778,-5847.4501953125,-15960.98046875,346.4200134277344,-400000.0625,-4906.85009765625,-400000.0625,-400000.0625,-400000.0625
141.28571557998657,-5835.6298828125,-15948.580078125,359.29998779296875,-400000.0625,-4978.47021484375,-400000.0625,-400000.0625,-400000.0625
141.29357314109802,-5745.83984375,-15857.75,437.07000732421875,-400000.0625,-5044.27001953125,-400000.0625,-400000.0625,-400000.0625
141.30975317955017,-5700.02001953125,-15807.3896484375,476.1700134277344,-400000.0625,-5006.1201171875,-400000.0625,-400000.0625,-400000.0625
141.31711792945862,-5764.43994140625,-15873.099609375,419.80999755859375,-400000.0625,-4920.52978515625,-400000.0625,-400000.0625,-400000.0625
141.32356119155884,-5849.93017578125,-15957.5498046875,352.19000244140625,-400000.0625,-4902.5498046875,-400000.0625,-400000.0625,-400000.0625
141.3297770023346,-5838.5400390625,-15952.16015625,361.3500061035156,-400000.0625,-4963.72998046875,-400000.0625,-400000.0625,-400000.0625
141.33657121658325,-5749.31982421875,-15859.6103515625,433.7300109863281,-400000.0625,-5023.10009765625,-400000.0625,-400000.0625,-400000.0625
141.34302806854248,-5703.31005859375,-15810.6298828125,468.5899963378906,-400000.0625,-5003.41015625,-400000.0625,-400000.0625,-400000.0625
141.3499186038971,-5766.580078125,-15878.3896484375,413.989990234375,-400000.0625,-4926.2998046875,-400000.0625,-400000.0625,-400000.0625
141.35594534873962,-5850.60009765625,-15958.3095703125,350.6700134277344,-400000.0625,-4898.41015625,-400000.0625,-400000.0625,-400000.0625
141.3618733882904,-5838.39013671875,-15953.16015625,359.6300048828125,-400000.0625,-4962.25,-400000.0625,-400000.0625,-400000.0625
141.36766695976257,-5747.02978515625,-15860.5595703125,434.3500061035156,-400000.0625,-5033.10986328125,-400000.0625,-400000.0625,-400000.0625
141.3731186389923,-5698.81982421875,-15805.33984375,472.8800048828125,-400000.0625,-5016.66015625,-400000.0625,-400000.0625,-400000.0625
141.37938451766968,-5764.2900390625,-15869.08984375,418.1400146484375,-400000.0625,-4927.490234375,-400000.0625,-400000.0625,-400000.0625
141.38703632354736,-5848.64990234375,-15961.26953125,349.42999267578125,-400000.0625,-4895.64013671875,-400000.0625,-400000.0625,-400000.0625
141.39476943016052,-5834.81982421875,-15949.2998046875,361.25,-400000.0625,-4966.77978515625,-400000.0625,-400000.0625,-400000.0625
141.4074034690857,-5745.27001953125,-15854.169921875,436.260009765625,-400000.0625,-5036.259765625,-400000.0625,-400000.0625,-400000.0625
141.41403794288635,-5702.2099609375,-15810.349609375,467.1600036621094,-400000.0625,-5012.56005859375,-400000.0625,-400000.0625,-400000.0625
141.42120909690857,-5771.35009765625,-15880.4404296875,409.1300048828125,-400000.0625,-4922.43994140625,-400000.0625,-400000.0625,-400000.0625
141.43131232261658,-5853.22021484375,-15965.8896484375,341.2699890136719,-400000.0625,-4896.2099609375,-400000.0625,-400000.0625,-400000.0625
141.43927597999573,-5840.72998046875,-15954.2099609375,354.6700134277344,-400000.0625,-4964.77978515625,-400000.0625,-400000.0625,-400000.0625
141.44582319259644,-5747.83984375,-15861.7001953125,430.67999267578125,-400000.0625,-5032.39990234375,-400000.0625,-400000.0625,-400000.0625
141.45222091674805,-5700.2099609375,-15810.58984375,466.20001220703125,-400000.0625,-5012.56005859375,-400000.0625,-400000.0625,-400000.0625
141.4580466747284,-5766.33984375,-15869.5703125,413.989990234375,-400000.0625,-4931.1201171875,-400000.0625,-400000.0625,-400000.0625
141.46414732933044,-5851.89013671875,-15961.4599609375,342.1300048828125,-400000.0625,-4902.97998046875,-400000.0625,-400000.0625,-400000.0625
141.47320246696472,-5841.10986328125,-15948.6298828125,356.25,-400000.0625,-4962.25,-400000.0625,-400000.0625,-400000.0625
141.4792058467865,-5750.85009765625,-15852.8798828125,433.8299865722656,-400000.0625,-5020.759765625,-400000.0625,-400000.0625,-400000.0625
141.48848342895508,-5702.830078125,-15807.919921875,470.0199890136719,-400000.0625,-4995.58984375,-400000.0625,-400000.0625,-400000.0625
141.49766278266907,-5766.77001953125,-15872.0,412.3699951171875,-400000.0625,-4916.9501953125,-400000.0625,-400000.0625,-400000.0625
141.51310348510742,-5854.4599609375,-15956.58984375,342.1300048828125,-400000.0625,-4898.5,-400000.0625,-400000.0625,-400000.0625
141.52021479606628,-5842.72998046875,-15951.830078125,350.0899963378906,-400000.0625,-4965.2099609375,-400000.0625,-400000.0625,-400000.0625
141.5269215106964,-5749.56005859375,-15863.6103515625,421.4800109863281,-400000.0625,-5021.2900390625,-400000.0625,-400000.0625,-400000.0625
141.5327262878418,-5702.31005859375,-15809.919921875,459.0,-400000.0625,-5000.68994140625,-400000.0625,-400000.0625,-400000.0625
141.5398678779602,-5768.490234375,-15875.8701171875,405.3599853515625,-400000.0625,-4927.77978515625,-400000.0625,-400000.0625,-400000.0625
141.54747104644775,-5851.4599609375,-15959.169921875,339.8900146484375,-400000.0625,-4910.27978515625,-400000.0625,-400000.0625,-400000.0625
141.55428433418274,-5836.77001953125,-15949.8203125,352.4800109863281,-400000.0625,-4968.02001953125,-400000.0625,-400000.0625,-400000.0625
141.5605571269989,-5747.990234375,-15858.3701171875,426.3399963378906,-400000.0625,-5019.0498046875,-400000.0625,-400000.0625,-400000.0625
141.5665259361267,-5700.58984375,-15808.6796875,463.44000244140625,-400000.0625,-4988.669921875,-400000.0625,-400000.0625,-400000.0625
141.57433032989502,-5766.10986328125,-15873.8203125,410.4599914550781,-400000.0625,-4915.91015625,-400000.0625,-400000.0625,-400000.0625
141.58060026168823,-5849.41015625,-15958.259765625,342.989990234375,-400000.0625,-4897.35986328125,-400000.0625,-400000.0625,-400000.0625
141.5871503353119,-5832.72021484375,-15951.1103515625,356.1499938964844,-400000.0625,-4960.72998046875,-400000.0625,-400000.0625,-400000.0625
141.59382462501526,-5745.509765625,-15857.8896484375,431.67999267578125,-400000.0625,-5030.919921875,-400000.0625,-400000.0625,-400000.0625
141.6004822254181,-5699.919921875,-15811.01953125,469.1600036621094,-400000.0625,-5020.0,-400000.0625,-400000.0625,-400000.0625
141.6144359111786,-5765.8701171875,-15875.2900390625,414.6600036621094,-400000.0625,-4935.68994140625,-400000.0625,-400000.0625,-400000.0625
141.62346720695496,-5849.1201171875,-15964.3203125,343.4700012207031,-400000.0625,-4904.75,-400000.0625,-400000.0625,-400000.0625
141.63048577308655,-5833.25,-15950.5400390625,358.5299987792969,-400000.0625,-4963.2099609375,-400000.0625,-400000.0625,-400000.0625
141.6389765739441,-5745.60009765625,-15857.7900390625,430.9200134277344,-400000.0625,-5029.8701171875,-400000.0625,-400000.0625,-400000.0625
141.6459765434265,-5699.77978515625,-15813.400390625,464.489990234375,-400000.0625,-5008.169921875,-400000.0625,-400000.0625,-400000.0625
141.6528594493866,-5766.43994140625,-15876.2998046875,410.1300048828125,-400000.0625,-4921.6298828125,-400000.0625,-400000.0625,-400000.0625
141.65897345542908,-5850.740234375,-15963.9404296875,342.75,-400000.0625,-4901.83984375,-400000.0625,-400000.0625,-400000.0625
141.66472363471985,-5839.43994140625,-15954.830078125,353.0,-400000.0625,-4973.4599609375,-400000.0625,-400000.0625,-400000.0625
141.67239689826965,-5748.75,-15860.75,428.9599914550781,-400000.0625,-5033.72998046875,-400000.0625,-400000.0625,-400000.0625
141.6792392730713,-5697.919921875,-15809.3896484375,469.1600036621094,-400000.0625,-4997.8701171875,-400000.0625,-400000.0625,-400000.0625
141.6844937801361,-5762.47998046875,-15872.33984375,413.6600036621094,-400000.0625,-4916.0498046875,-400000.0625,-400000.0625,-400000.0625
141.69018840789795,-5847.5,-15959.2197265625,344.8500061035156,-400000.0625,-4896.02001953125,-400000.0625,-400000.0625,-400000.0625
141.69542503356934,-5835.14990234375,-15947.9599609375,354.7699890136719,-400000.0625,-4960.16015625,-400000.0625,-400000.0625,-400000.0625
141.70230913162231,-5743.83984375,-15860.1298828125,426.2900085449219,-400000.0625,-5022.6201171875,-400000.0625,-400000.0625,-400000.0625
141.71873211860657,-5698.009765625,-15813.6904296875,462.9599914550781,-400000.0625,-4999.830078125,-400000.0625,-400000.0625,-400000.0625
141.72588872909546,-5760.52978515625,-15872.9599609375,412.75,-400000.0625,-4925.8701171875,-400000.0625,-400000.0625,-400000.0625
141.7353310585022,-5843.68994140625,-15963.83984375,341.1300048828125,-400000.0625,-4901.41015625,-400000.0625,-400000.0625,-400000.0625
141.74121642112732,-5832.240234375,-15953.01953125,351.80999755859375,-400000.0625,-4963.259765625,-400000.0625,-400000.0625,-400000.0625
141.74723410606384,-5739.5498046875,-15858.509765625,429.489990234375,-400000.0625,-5038.68994140625,-400000.0625,-400000.0625,-400000.0625
141.752614736557,-5694.14990234375,-15815.2099609375,461.3900146484375,-400000.0625,-5028.8701171875,-400000.0625,-400000.0625,-400000.0625
141.75860404968262,-5762.39013671875,-15878.76953125,408.32000732421875,-400000.0625,-4928.97021484375,-400000.0625,-400000.0625,-400000.0625
141.7642412185669,-5846.5,-15970.759765625,341.55999755859375,-400000.0625,-4892.02001953125,-400000.0625,-400000.0625,-400000.0625
141.77183651924133,-5829.52978515625,-15963.83984375,352.2900085449219,-400000.0625,-4964.2998046875,-400000.0625,-400000.0625,-400000.0625
141.77828288078308,-5736.64013671875,-15863.9404296875,427.67999267578125,-400000.0625,-5038.60009765625,-400000.0625,-400000.0625,-400000.0625
141.7847819328308,-5701.35009765625,-15812.1103515625,461.4800109863281,-400000.0625,-5016.85009765625,-400000.0625,-400000.0625,-400000.0625
141.79166650772095,-5773.5400390625,-15884.01953125,407.70001220703125,-400000.0625,-4930.77978515625,-400000.0625,-400000.0625,-400000.0625
141.79668593406677,-5854.56005859375,-15971.2802734375,345.1300048828125,-400000.0625,-4905.27001953125,-400000.0625,-400000.0625,-400000.0625
141.80200171470642,-5844.31005859375,-15959.3095703125,356.8599853515625,-400000.0625,-4978.89990234375,-400000.0625,-400000.0625,-400000.0625
141.8070845603943,-5756.759765625,-15868.4296875,427.8699951171875,-400000.0625,-5052.0400390625,-400000.0625,-400000.0625,-400000.0625
141.81802892684937,-5715.89990234375,-15825.7998046875,460.6199951171875,-400000.0625,-5021.3798828125,-400000.0625,-400000.0625,-400000.0625
141.8244113922119,-5777.83984375,-15890.7001953125,409.75,-400000.0625,-4931.5,-400000.0625,-400000.0625,-400000.0625
141.83350944519043,-5857.89990234375,-15971.23046875,343.3699951171875,-400000.0625,-4908.7998046875,-400000.0625,-400000.0625,-400000.0625
141.84236526489258,-5843.97021484375,-15965.1298828125,350.6700134277344,-400000.0625,-4975.56005859375,-400000.0625,-400000.0625,-400000.0625
141.8545434474945,-5757.47998046875,-15872.76953125,422.5299987792969,-400000.0625,-5032.35009765625,-400000.0625,-400000.0625,-400000.0625
141.86202716827393,-5713.18017578125,-15828.7998046875,456.8599853515625,-400000.0625,-5004.1201171875,-400000.0625,-400000.0625,-400000.0625
141.8701741695404,-5779.4599609375,-15894.990234375,405.1199951171875,-400000.0625,-4921.580078125,-400000.0625,-400000.0625,-400000.0625
141.8760850429535,-5861.7099609375,-15979.8203125,339.4100036621094,-400000.0625,-4897.259765625,-400000.0625,-400000.0625,-400000.0625
141.88153982162476,-5848.97998046875,-15972.5703125,351.57000732421875,-400000.0625,-4961.10986328125,-400000.0625,-400000.0625,-400000.0625
141.88655519485474,-5758.3798828125,-15879.16015625,424.19000244140625,-400000.0625,-5010.080078125,-400000.0625,-400000.0625,-400000.0625
141.89225387573242,-5714.0400390625,-15827.509765625,462.5799865722656,-400000.0625,-4987.9599609375,-400000.0625,-400000.0625,-400000.0625
141.89759850502014,-5779.7900390625,-15889.26953125,409.55999755859375,-400000.0625,-4917.33984375,-400000.0625,-400000.0625,-400000.0625
141.9042785167694,-5864.330078125,-15976.8603515625,340.510009765625,-400000.0625,-4906.7001953125,-400000.0625,-400000.0625,-400000.0625
141.9109706878662,-5848.89013671875,-15965.080078125,356.6300048828125,-400000.0625,-4959.39013671875,-400000.0625,-400000.0625,-400000.0625
141.92445921897888,-5756.81005859375,-15869.9501953125,429.7300109863281,-400000.0625,-5000.5400390625,-400000.0625,-400000.0625,-400000.0625
141.93018221855164,-5715.18017578125,-15826.3701171875,460.20001220703125,-400000.0625,-4976.64990234375,-400000.0625,-400000.0625,-400000.0625
141.93977570533752,-5782.41015625,-15897.4697265625,403.5,-400000.0625,-4913.52001953125,-400000.0625,-400000.0625,-400000.0625
141.94924330711365,-5862.18994140625,-15974.669921875,342.17999267578125,-400000.0625,-4901.41015625,-400000.0625,-400000.0625,-400000.0625
141.9562795162201,-5847.8798828125,-15959.6904296875,356.4800109863281,-400000.0625,-4953.91015625,-400000.0625,-400000.0625,-400000.0625
141.96885633468628,-5757.759765625,-15873.240234375,428.20001220703125,-400000.0625,-4993.33984375,-400000.0625,-400000.0625,-400000.0625
141.97814345359802,-5711.41015625,-15822.9404296875,467.25,-400000.0625,-4961.58984375,-400000.0625,-400000.0625,-400000.0625
141.98444867134094,-5776.06982421875,-15888.8798828125,411.79998779296875,-400000.0625,-4900.5,-400000.0625,-400000.0625,-400000.0625
141.9920470714569,-5859.52001953125,-15970.330078125,346.0899963378906,-400000.0625,-4892.06005859375,-400000.0625,-400000.0625,-400000.0625
141.99889969825745,-5843.830078125,-15957.3603515625,362.44000244140625,-400000.0625,-4945.330078125,-400000.0625,-400000.0625,-400000.0625
142.00852155685425,-5754.18994140625,-15869.5703125,432.6300048828125,-400000.0625,-4987.33984375,-400000.0625,-400000.0625,-400000.0625
142.01560831069946,-5709.509765625,-15822.0302734375,467.5400085449219,-400000.0625,-4957.490234375,-400000.0625,-400000.0625,-400000.0625
142.02906394004822,-5774.77978515625,-15886.3603515625,415.0400085449219,-400000.0625,-4901.4599609375,-400000.0625,-400000.0625,-400000.0625
142.03655076026917,-5855.47021484375,-15968.51953125,348.1400146484375,-400000.0625,-4900.22021484375,-400000.0625,-400000.0625,-400000.0625
142.04675602912903,-5839.16015625,-15954.830078125,361.489990234375,-400000.0625,-4954.52978515625,-400000.0625,-400000.0625,-400000.0625
142.05426025390625,-5754.14013671875,-15868.4697265625,431.7799987792969,-400000.0625,-4995.06005859375,-400000.0625,-400000.0625,-400000.0625
142.06042909622192,-5712.56005859375,-15818.5498046875,467.7300109863281,-400000.0625,-4955.14990234375,-400000.0625,-400000.0625,-400000.0625
142.06764769554138,-5776.4501953125,-15885.4501953125,409.510009765625,-400000.0625,-4893.2998046875,-400000.0625,-400000.0625,-400000.0625
142.0755796432495,-5856.56005859375,-15972.4697265625,347.19000244140625,-400000.0625,-4896.77978515625,-400000.0625,-400000.0625,-400000.0625
142.0827579498291,-5842.5,-15958.9296875,359.1099853515625,-400000.0625,-4948.240234375,-400000.0625,-400000.0625,-400000.0625
142.089825630188,-5751.419921875,-15866.900390625,431.9200134277344,-400000.0625,-4982.66015625,-400000.0625,-400000.0625,-400000.0625
142.09567070007324,-5709.740234375,-15819.1201171875,466.7799987792969,-400000.0625,-4947.9501953125,-400000.0625,-400000.0625,-400000.0625
142.10164284706116,-5777.35986328125,-15885.1201171875,409.9800109863281,-400000.0625,-4895.1201171875,-400000.0625,-400000.0625,-400000.0625
142.10710668563843,-5860.52001953125,-15968.419921875,343.6099853515625,-400000.0625,-4897.68994140625,-400000.0625,-400000.0625,-400000.0625
142.11430883407593,-5846.93017578125,-15961.98046875,355.1000061035156,-400000.0625,-4949.18994140625,-400000.0625,-400000.0625,-400000.0625
142.12096905708313,-5752.27978515625,-15868.0498046875,433.8299865722656,-400000.0625,-4975.27001953125,-400000.0625,-400000.0625,-400000.0625
142.13263463974,-5706.60009765625,-15815.5,468.44000244140625,-400000.0625,-4943.75,-400000.0625,-400000.0625,-400000.0625
142.13782691955566,-5777.7900390625,-15889.599609375,405.7900085449219,-400000.0625,-4900.93017578125,-400000.0625,-400000.0625,-400000.0625
142.14291286468506,-5861.0,-15971.0400390625,343.8900146484375,-400000.0625,-4903.7900390625,-400000.0625,-400000.0625,-400000.0625
142.14817142486572,-5843.93017578125,-15956.740234375,359.010009765625,-400000.0625,-4941.7998046875,-400000.0625,-400000.0625,-400000.0625
142.15403127670288,-5758.47998046875,-15871.150390625,426.9599914550781,-400000.0625,-4959.35009765625,-400000.0625,-400000.0625,-400000.0625
142.16248416900635,-5714.89013671875,-15824.990234375,461.3900146484375,-400000.0625,-4928.259765625,-400000.0625,-400000.0625,-400000.0625
142.17198991775513,-5779.31005859375,-15887.98046875,408.2200012207031,-400000.0625,-4884.669921875,-400000.0625,-400000.0625,-400000.0625
142.18067145347595,-5859.419921875,-15968.990234375,343.3699951171875,-400000.0625,-4894.64013671875,-400000.0625,-400000.0625,-400000.0625
142.18902134895325,-5845.02001953125,-15959.2197265625,354.1000061035156,-400000.0625,-4938.60009765625,-400000.0625,-400000.0625,-400000.0625
142.19489789009094,-5756.18994140625,-15863.7099609375,430.25,-400000.0625,-4957.8701171875,-400000.0625,-400000.0625,-400000.0625
142.2005112171173,-5714.080078125,-15822.3203125,462.9100036621094,-400000.0625,-4936.5498046875,-400000.0625,-400000.0625,-400000.0625
142.20564723014832,-5777.06982421875,-15887.6904296875,407.739990234375,-400000.0625,-4892.2099609375,-400000.0625,-400000.0625,-400000.0625
142.21088528633118,-5860.56982421875,-15969.4697265625,342.32000732421875,-400000.0625,-4896.740234375,-400000.0625,-400000.0625,-400000.0625
142.21736645698547,-5846.830078125,-15962.3203125,349.7099914550781,-400000.0625,-4959.25,-400000.0625,-400000.0625,-400000.0625
142.2245135307312,-5754.08984375,-15870.3798828125,423.7200012207031,-400000.0625,-4988.77001953125,-400000.0625,-400000.0625,-400000.0625
142.23763132095337,-5712.18017578125,-15821.3203125,457.8599853515625,-400000.0625,-4956.2900390625,-400000.0625,-400000.0625,-400000.0625
142.24411821365356,-5778.7900390625,-15891.26953125,401.5400085449219,-400000.0625,-4906.509765625,-400000.0625,-400000.0625,-400000.0625
142.25034832954407,-5864.0,-15979.580078125,330.92999267578125,-400000.0625,-4898.7900390625,-400000.0625,-400000.0625,-400000.0625
142.25573539733887,-5851.1298828125,-15964.080078125,346.7099914550781,-400000.0625,-4937.4599609375,-400000.0625,-400000.0625,-400000.0625
142.2659649848938,-5758.47998046875,-15867.4697265625,424.8599853515625,-400000.0625,-4965.1201171875,-400000.0625,-400000.0625,-400000.0625
142.27280163764954,-5716.3701171875,-15823.080078125,456.0,-400000.0625,-4940.02978515625,-400000.0625,-400000.0625,-400000.0625
142.2824423313141,-5785.31982421875,-15892.509765625,400.29998779296875,-400000.0625,-4891.009765625,-400000.0625,-400000.0625,-400000.0625
142.29165148735046,-5869.25,-15977.7197265625,335.54998779296875,-400000.0625,-4895.97021484375,-400000.0625,-400000.0625,-400000.0625
142.29976987838745,-5848.83984375,-15959.9296875,349.6600036621094,-400000.0625,-4954.85986328125,-400000.0625,-400000.0625,-400000.0625
142.30552506446838,-5751.7099609375,-15867.0400390625,416.95001220703125,-400000.0625,-4999.4501953125,-400000.0625,-400000.0625,-400000.0625
142.31152844429016,-5706.83984375,-15825.7998046875,444.4599914550781,-400000.0625,-4970.60009765625,-400000.0625,-400000.0625,-400000.0625
142.31857061386108,-5775.4501953125,-15897.4697265625,388.3399963378906,-400000.0625,-4906.7998046875,-400000.0625,-400000.0625,-400000.0625
142.32541632652283,-5858.47021484375,-15984.580078125,320.04998779296875,-400000.0625,-4898.5498046875,-400000.0625,-400000.0625,-400000.0625
142.33847427368164,-5840.490234375,-15965.3701171875,333.92999267578125,-400000.0625,-4951.10009765625,-400000.0625,-400000.0625,-400000.0625
142.34906768798828,-5746.3701171875,-15873.240234375,411.8900146484375,-400000.0625,-4987.91015625,-400000.0625,-400000.0625,-400000.0625
142.35718393325806,-5709.080078125,-15824.509765625,448.6600036621094,-400000.0625,-4957.580078125,-400000.0625,-400000.0625,-400000.0625
142.3633999824524,-5780.97998046875,-15892.080078125,393.67999267578125,-400000.0625,-4899.60009765625,-400000.0625,-400000.0625,-400000.0625
142.37325167655945,-5862.669921875,-15978.150390625,325.82000732421875,-400000.0625,-4904.41015625,-400000.0625,-400000.0625,-400000.0625
142.38247680664062,-5841.4501953125,-15958.5498046875,346.57000732421875,-400000.0625,-4957.14990234375,-400000.0625,-400000.0625,-400000.0625
142.38971424102783,-5749.89013671875,-15867.0400390625,417.6600036621094,-400000.0625,-4994.39013671875,-400000.0625,-400000.0625,-400000.0625
142.39806628227234,-5703.93017578125,-15818.41015625,453.7099914550781,-400000.0625,-4968.02001953125,-400000.0625,-400000.0625,-400000.0625
142.40321588516235,-5772.64013671875,-15893.41015625,392.4800109863281,-400000.0625,-4900.5498046875,-400000.0625,-400000.0625,-400000.0625
142.40906047821045,-5861.43017578125,-15982.0595703125,321.20001220703125,-400000.0625,-4896.740234375,-400000.0625,-400000.0625,-400000.0625
142.41500186920166,-5845.2099609375,-15965.509765625,336.9800109863281,-400000.0625,-4956.47998046875,-400000.0625,-400000.0625,-400000.0625
142.4232325553894,-5753.990234375,-15875.580078125,412.4599914550781,-400000.0625,-5000.4501953125,-400000.0625,-400000.0625,-400000.0625
142.43181324005127,-5712.080078125,-15829.7099609375,445.510009765625,-400000.0625,-4971.60009765625,-400000.0625,-400000.0625,-400000.0625
142.4471800327301,-5783.89013671875,-15899.419921875,383.19000244140625,-400000.0625,-4913.89990234375,-400000.0625,-400000.0625,-400000.0625
142.45230436325073,-5866.0,-15980.76953125,320.2900085449219,-400000.0625,-4906.56005859375,-400000.0625,-400000.0625,-400000.0625
142.45999693870544,-5845.64013671875,-15964.41015625,338.0299987792969,-400000.0625,-4946.89990234375,-400000.0625,-400000.0625,-400000.0625
142.46678590774536,-5753.14013671875,-15869.8603515625,413.6600036621094,-400000.0625,-4975.990234375,-400000.0625,-400000.0625,-400000.0625
142.47475361824036,-5710.080078125,-15822.98046875,447.75,-400000.0625,-4952.47998046875,-400000.0625,-400000.0625,-400000.0625
142.481671333313,-5775.4501953125,-15893.7001953125,391.1499938964844,-400000.0625,-4906.18017578125,-400000.0625,-400000.0625,-400000.0625
142.48889541625977,-5863.56982421875,-15983.8701171875,320.82000732421875,-400000.0625,-4907.18017578125,-400000.0625,-400000.0625,-400000.0625
142.49738717079163,-5845.60009765625,-15966.8896484375,337.6499938964844,-400000.0625,-4952.52978515625,-400000.0625,-400000.0625,-400000.0625
142.50563168525696,-5749.419921875,-15866.9501953125,418.80999755859375,-400000.0625,-4980.14013671875,-400000.0625,-400000.0625,-400000.0625
142.5153248310089,-5705.1201171875,-15818.2197265625,454.6600036621094,-400000.0625,-4955.0498046875,-400000.0625,-400000.0625,-400000.0625
142.52310967445374,-5772.97021484375,-15890.3095703125,396.29998779296875,-400000.0625,-4900.02978515625,-400000.0625,-400000.0625,-400000.0625
142.52869153022766,-5861.0400390625,-15979.5302734375,325.1099853515625,-400000.0625,-4898.60009765625,-400000.0625,-400000.0625,-400000.0625
142.53645825386047,-5845.02001953125,-15964.1298828125,340.989990234375,-400000.0625,-4949.0498046875,-400000.0625,-400000.0625,-400000.0625
142.55146503448486,-5747.080078125,-15866.2802734375,420.239990234375,-400000.0625,-4978.7099609375,-400000.0625,-400000.0625,-400000.0625
142.5587055683136,-5702.259765625,-15823.080078125,451.17999267578125,-400000.0625,-4955.6298828125,-400000.0625,-400000.0625,-400000.0625
142.5645546913147,-5773.740234375,-15892.650390625,394.7300109863281,-400000.0625,-4897.8798828125,-400000.0625,-400000.0625,-400000.0625
142.57264041900635,-5851.83984375,-15974.51953125,330.3500061035156,-400000.0625,-4900.7900390625,-400000.0625,-400000.0625,-400000.0625
142.57947182655334,-5837.25,-15956.7900390625,345.17999267578125,-400000.0625,-4956.68017578125,-400000.0625,-400000.0625,-400000.0625
142.58689761161804,-5743.64990234375,-15867.51953125,416.7099914550781,-400000.0625,-4987.669921875,-400000.0625,-400000.0625,-400000.0625
142.59288239479065,-5704.4501953125,-15826.1796875,448.989990234375,-400000.0625,-4963.259765625,-400000.0625,-400000.0625,-400000.0625
142.60137629508972,-5776.5,-15896.66015625,390.1000061035156,-400000.0625,-4899.22021484375,-400000.0625,-400000.0625,-400000.0625
142.60787153244019,-5851.89013671875,-15983.76953125,320.5799865722656,-400000.0625,-4895.830078125,-400000.0625,-400000.0625,-400000.0625
142.61578917503357,-5834.06005859375,-15965.990234375,337.6000061035156,-400000.0625,-4948.89990234375,-400000.0625,-400000.0625,-400000.0625
142.6291630268097,-5744.080078125,-15868.669921875,415.79998779296875,-400000.0625,-4985.14013671875,-400000.0625,-400000.0625,-400000.0625
142.6607792377472,-5701.68994140625,-15826.849609375,444.55999755859375,-400000.0625,-4962.2998046875,-400000.0625,-400000.0625,-400000.0625
142.68462228775024,-5772.31005859375,-15895.1298828125,387.95001220703125,-400000.0625,-4906.4599609375,-400000.0625,-400000.0625,-400000.0625
142.6947410106659,-5853.02978515625,-15978.8603515625,325.7300109863281,-400000.0625,-4901.7001953125,-400000.0625,-400000.0625,-400000.0625
142.70345306396484,-5836.33984375,-15963.599609375,340.8900146484375,-400000.0625,-4953.14990234375,-400000.0625,-400000.0625,-400000.0625
142.71478724479675,-5746.7900390625,-15870.4296875,412.989990234375,-400000.0625,-4991.6298828125,-400000.0625,-400000.0625,-400000.0625
142.7224633693695,-5705.5498046875,-15827.0400390625,445.2699890136719,-400000.0625,-4967.64013671875,-400000.0625,-400000.0625,-400000.0625
142.752268075943,-5775.02001953125,-15896.3701171875,385.8999938964844,-400000.0625,-4912.0400390625,-400000.0625,-400000.0625,-400000.0625
142.76324820518494,-5854.31982421875,-15978.669921875,320.4800109863281,-400000.0625,-4901.1201171875,-400000.0625,-400000.0625,-400000.0625
142.7762269973755,-5838.68017578125,-15957.0703125,341.8900146484375,-400000.0625,-4965.31005859375,-400000.0625,-400000.0625,-400000.0625
142.79550528526306,-5743.89013671875,-15862.7998046875,420.95001220703125,-400000.0625,-5018.0400390625,-400000.0625,-400000.0625,-400000.0625
142.80715250968933,-5703.5498046875,-15823.1796875,449.94000244140625,-400000.0625,-4994.72998046875,-400000.0625,-400000.0625,-400000.0625
142.81470942497253,-5775.5,-15892.080078125,388.57000732421875,-400000.0625,-4928.5400390625,-400000.0625,-400000.0625,-400000.0625
142.823481798172,-5854.990234375,-15978.5302734375,321.2900085449219,-400000.0625,-4910.08984375,-400000.0625,-400000.0625,-400000.0625
142.83916926383972,-5839.06005859375,-15961.3603515625,340.1300048828125,-400000.0625,-4976.89013671875,-400000.0625,-400000.0625,-400000.0625
142.84513068199158,-5746.93994140625,-15870.0,413.989990234375,-400000.0625,-5047.419921875,-400000.0625,-400000.0625,-400000.0625
142.85829973220825,-5703.8798828125,-15827.2802734375,443.7900085449219,-400000.0625,-5031.6298828125,-400000.0625,-400000.0625,-400000.0625
142.87713623046875,-5776.93017578125,-15892.7900390625,388.0,-400000.0625,-4940.7998046875,-400000.0625,-400000.0625,-400000.0625
142.89033269882202,-5858.22998046875,-15983.6298828125,320.239990234375,-400000.0625,-4906.7001953125,-400000.0625,-400000.0625,-400000.0625
142.89764380455017,-5839.009765625,-15964.1298828125,336.3599853515625,-400000.0625,-4974.27001953125,-400000.0625,-400000.0625,-400000.0625
142.92351770401,-5747.75,-15866.3798828125,413.75,-400000.0625,-5051.60986328125,-400000.0625,-400000.0625,-400000.0625
142.93945121765137,-5708.080078125,-15829.1396484375,440.69000244140625,-400000.0625,-5035.72998046875,-400000.0625,-400000.0625,-400000.0625
142.95422554016113,-5779.31005859375,-15900.3798828125,381.6600036621094,-400000.0625,-4941.18017578125,-400000.0625,-400000.0625,-400000.0625
142.9602496623993,-5861.330078125,-15985.58984375,316.4800109863281,-400000.0625,-4914.240234375,-400000.0625,-400000.0625,-400000.0625
142.97008562088013,-5841.58984375,-15958.98046875,340.2699890136719,-400000.0625,-4974.31982421875,-400000.0625,-400000.0625,-400000.0625
142.9841148853302,-5746.89013671875,-15862.900390625,416.5199890136719,-400000.0625,-5043.509765625,-400000.0625,-400000.0625,-400000.0625
143.00152277946472,-5705.5,-15827.0400390625,445.17999267578125,-400000.0625,-5031.39990234375,-400000.0625,-400000.0625,-400000.0625
143.01601457595825,-5775.06982421875,-15897.3701171875,387.57000732421875,-400000.0625,-4935.60009765625,-400000.0625,-400000.0625,-400000.0625
143.0318741798401,-5858.0400390625,-15983.2001953125,320.1499938964844,-400000.0625,-4907.89013671875,-400000.0625,-400000.0625,-400000.0625
143.0423092842102,-5838.25,-15963.1298828125,339.2699890136719,-400000.0625,-4984.89990234375,-400000.0625,-400000.0625,-400000.0625
143.05101776123047,-5743.83984375,-15867.8603515625,417.8999938964844,-400000.0625,-5051.66015625,-400000.0625,-400000.0625,-400000.0625
143.05645418167114,-5700.5400390625,-15818.5498046875,453.6600036621094,-400000.0625,-5018.0400390625,-400000.0625,-400000.0625,-400000.0625
143.06156849861145,-5771.35009765625,-15886.6396484375,395.9200134277344,-400000.0625,-4931.5498046875,-400000.0625,-400000.0625,-400000.0625
143.06679320335388,-5857.330078125,-15973.1904296875,326.25,-400000.0625,-4911.60986328125,-400000.0625,-400000.0625,-400000.0625
143.07490015029907,-5836.06005859375,-15954.5400390625,345.3299865722656,-400000.0625,-4981.22998046875,-400000.0625,-400000.0625,-400000.0625
143.08095622062683,-5743.68994140625,-15862.3203125,420.2799987792969,-400000.0625,-5059.0,-400000.0625,-400000.0625,-400000.0625
143.0861930847168,-5706.1201171875,-15822.9404296875,447.32000732421875,-400000.0625,-5032.25,-400000.0625,-400000.0625,-400000.0625
143.09625792503357,-5783.02978515625,-15902.0,380.0400085449219,-400000.0625,-4929.8798828125,-400000.0625,-400000.0625,-400000.0625
143.1024992465973,-5865.43017578125,-15999.1298828125,309.6600036621094,-400000.0625,-4911.759765625,-400000.0625,-400000.0625,-400000.0625
143.10746908187866,-5840.8701171875,-15975.8603515625,334.4100036621094,-400000.0625,-4989.2001953125,-400000.0625,-400000.0625,-400000.0625
143.10747909545898,-5751.85009765625,-15858.2197265625,421.3299865722656,-400000.0625,-5068.64013671875,-400000.0625,-400000.0625,-400000.0625
143.1074833869934,-5716.419921875,-15813.919921875,452.7099914550781,-400000.0625,-5048.56005859375,-400000.0625,-400000.0625,-400000.0625
143.10748744010925,-5791.0400390625,-15896.419921875,389.2900085449219,-400000.0625,-4948.66015625,-400000.0625,-400000.0625,-400000.0625
143.1074914932251,-5877.02001953125,-15982.8203125,324.67999267578125,-400000.0625,-4908.56005859375,-400000.0625,-400000.0625,-400000.0625
143.10749554634094,-5856.47021484375,-15957.98046875,349.1400146484375,-400000.0625,-4982.22998046875,-400000.0625,-400000.0625,-400000.0625
143.10749983787537,-5759.3798828125,-15856.98046875,432.44000244140625,-400000.0625,-5066.58984375,-400000.0625,-400000.0625,-400000.0625
143.10750341415405,-5721.85986328125,-15816.8798828125,461.5299987792969,-400000.0625,-5044.41015625,-400000.0625,-400000.0625,-400000.0625
143.1075074672699,-5793.3798828125,-15893.9404296875,398.1099853515625,-400000.0625,-4946.22998046875,-400000.0625,-400000.0625,-400000.0625
143.11241149902344,-5874.10986328125,-15981.099609375,328.29998779296875,-400000.0625,-4915.2900390625,-400000.0625,-400000.0625,-400000.0625
143.11241960525513,-5854.60986328125,-15961.1201171875,348.6199951171875,-400000.0625,-4991.81982421875,-400000.0625,-400000.0625,-400000.0625
143.11242413520813,-5759.9599609375,-15864.5595703125,429.1099853515625,-400000.0625,-5067.68017578125,-400000.0625,-400000.0625,-400000.0625
143.1124279499054,-5719.9501953125,-15818.8798828125,460.82000732421875,-400000.0625,-5024.47998046875,-400000.0625,-400000.0625,-400000.0625
143.11243200302124,-5790.330078125,-15888.41015625,402.3599853515625,-400000.0625,-4923.490234375,-400000.0625,-400000.0625,-400000.0625
143.1124358177185,-5868.9599609375,-15976.0498046875,334.2200012207031,-400000.0625,-4896.06982421875,-400000.0625,-400000.0625,-400000.0625
143.11243987083435,-5850.4599609375,-15961.9404296875,349.80999755859375,-400000.0625,-4955.72021484375,-400000.0625,-400000.0625,-400000.0625
143.11244368553162,-5756.08984375,-15862.9404296875,430.5400085449219,-400000.0625,-4987.33984375,-400000.0625,-400000.0625,-400000.0625
143.11244750022888,-5717.08984375,-15821.7900390625,459.7200012207031,-400000.0625,-4959.2001953125,-400000.0625,-400000.0625,-400000.0625
143.11245155334473,-5789.0400390625,-15891.509765625,401.2099914550781,-400000.0625,-4906.56005859375,-400000.0625,-400000.0625,-400000.0625
143.112455368042,-5868.85986328125,-15974.7099609375,337.4100036621094,-400000.0625,-4899.740234375,-400000.0625,-400000.0625,-400000.0625
143.11245894432068,-5850.41015625,-15959.6904296875,353.8599853515625,-400000.0625,-4957.8701171875,-400000.0625,-400000.0625,-400000.0625
143.11246275901794,-5759.85986328125,-15865.900390625,428.5299987792969,-400000.0625,-5005.41015625,-400000.0625,-400000.0625,-400000.0625
143.1124668121338,-5720.6201171875,-15823.8896484375,458.19000244140625,-400000.0625,-4979.47021484375,-400000.0625,-400000.0625,-400000.0625
143.11247062683105,-5791.330078125,-15899.4697265625,394.67999267578125,-400000.0625,-4907.7998046875,-400000.0625,-400000.0625,-400000.0625
143.11247444152832,-5874.43994140625,-15987.01953125,327.3999938964844,-400000.0625,-4899.83984375,-400000.0625,-400000.0625,-400000.0625
143.1124782562256,-5851.27001953125,-15964.41015625,348.80999755859375,-400000.0625,-4960.2001953125,-400000.0625,-400000.0625,-400000.0625
143.11248230934143,-5752.60986328125,-15860.1298828125,432.010009765625,-400000.0625,-5001.5,-400000.0625,-400000.0625,-400000.0625
143.1124861240387,-5715.93994140625,-15818.2197265625,460.1000061035156,-400000.0625,-4976.93994140625,-400000.0625,-400000.0625,-400000.0625
143.11248993873596,-5791.81005859375,-15893.26953125,398.67999267578125,-400000.0625,-4909.27978515625,-400000.0625,-400000.0625,-400000.0625
143.11249351501465,-5870.919921875,-15977.5302734375,332.45001220703125,-400000.0625,-4904.22021484375,-400000.0625,-400000.0625,-400000.0625
143.1124973297119,-5850.7001953125,-15960.1201171875,349.80999755859375,-400000.0625,-4962.2998046875,-400000.0625,-400000.0625,-400000.0625
143.1125009059906,-5759.10009765625,-15867.8095703125,424.42999267578125,-400000.0625,-5005.60009765625,-400000.0625,-400000.0625,-400000.0625
143.11250519752502,-5715.18017578125,-15819.2197265625,459.9599914550781,-400000.0625,-4972.64990234375,-400000.0625,-400000.0625,-400000.0625
143.1125090122223,-5787.9501953125,-15893.8896484375,397.3500061035156,-400000.0625,-4915.2900390625,-400000.0625,-400000.0625,-400000.0625
143.11837649345398,-5872.35009765625,-15982.6796875,329.29998779296875,-400000.0625,-4908.93994140625,-400000.0625,-400000.0625,-400000.0625
143.1231210231781,-5848.27001953125,-15962.8896484375,349.3299865722656,-400000.0625,-4961.919921875,-400000.0625,-400000.0625,-400000.0625
143.1231300830841,-5753.9501953125,-15863.990234375,429.1499938964844,-400000.0625,-5005.93017578125,-400000.0625,-400000.0625,-400000.0625
143.12313604354858,-5713.56005859375,-15816.830078125,464.3399963378906,-400000.0625,-4979.0400390625,-400000.0625,-400000.0625,-400000.0625
143.12314009666443,-5788.9501953125,-15888.169921875,403.3999938964844,-400000.0625,-4916.3798828125,-400000.0625,-400000.0625,-400000.0625
143.1231439113617,-5871.77001953125,-15979.3896484375,334.4100036621094,-400000.0625,-4911.60986328125,-400000.0625,-400000.0625,-400000.0625
143.12314796447754,-5846.60009765625,-15958.599609375,356.6700134277344,-400000.0625,-4964.259765625,-400000.0625,-400000.0625,-400000.0625
143.12315225601196,-5751.75,-15857.83984375,434.8800048828125,-400000.0625,-5001.5,-400000.0625,-400000.0625,-400000.0625
143.12315583229065,-5711.89013671875,-15818.6904296875,464.3900146484375,-400000.0625,-4976.990234375,-400000.0625,-400000.0625,-400000.0625
143.12315964698792,-5784.93994140625,-15889.8798828125,405.5,-400000.0625,-4909.75,-400000.0625,-400000.0625,-400000.0625
143.1231632232666,-5867.580078125,-15975.7197265625,335.9800109863281,-400000.0625,-4900.1201171875,-400000.0625,-400000.0625,-400000.0625
143.12316703796387,-5849.509765625,-15959.83984375,351.7200012207031,-400000.0625,-4962.490234375,-400000.0625,-400000.0625,-400000.0625
143.12317061424255,-5750.27978515625,-15860.5595703125,431.82000732421875,-400000.0625,-5017.330078125,-400000.0625,-400000.0625,-400000.0625
143.12317419052124,-5710.169921875,-15819.6904296875,458.6199951171875,-400000.0625,-5002.5,-400000.0625,-400000.0625,-400000.0625
143.12317776679993,-5789.0400390625,-15897.990234375,388.9599914550781,-400000.0625,-4926.009765625,-400000.0625,-400000.0625,-400000.0625
143.1231813430786,-5868.2900390625,-15982.580078125,322.82000732421875,-400000.0625,-4911.18017578125,-400000.0625,-400000.0625,-400000.0625
143.1231849193573,-5841.72998046875,-15961.0302734375,349.5199890136719,-400000.0625,-4975.080078125,-400000.0625,-400000.0625,-400000.0625
143.1231882572174,-5753.14013671875,-15862.66015625,428.20001220703125,-400000.0625,-5044.3701171875,-400000.0625,-400000.0625,-400000.0625
143.1231918334961,-5715.080078125,-15817.2099609375,460.6199951171875,-400000.0625,-5025.81982421875,-400000.0625,-400000.0625,-400000.0625
143.12319540977478,-5783.7001953125,-15892.3603515625,398.9200134277344,-400000.0625,-4933.06982421875,-400000.0625,-400000.0625,-400000.0625
143.1232008934021,-5868.52978515625,-15973.4697265625,334.2200012207031,-400000.0625,-4899.83984375,-400000.0625,-400000.0625,-400000.0625
143.1232044696808,-5849.080078125,-15956.3603515625,352.5299987792969,-400000.0625,-4971.31005859375,-400000.0625,-400000.0625,-400000.0625
143.12320804595947,-5753.56982421875,-15861.3203125,428.8699951171875,-400000.0625,-5041.41015625,-400000.0625,-400000.0625,-400000.0625
143.12321162223816,-5718.18017578125,-15823.509765625,456.42999267578125,-400000.0625,-5022.14013671875,-400000.0625,-400000.0625,-400000.0625
143.12321496009827,-5789.66015625,-15895.5595703125,396.7799987792969,-400000.0625,-4933.41015625,-400000.0625,-400000.0625,-400000.0625
143.12321853637695,-5868.43994140625,-15975.240234375,332.260009765625,-400000.0625,-4906.419921875,-400000.0625,-400000.0625,-400000.0625
143.12322211265564,-5846.02001953125,-15952.490234375,354.19000244140625,-400000.0625,-4975.7001953125,-400000.0625,-400000.0625,-400000.0625
143.12322568893433,-5753.47021484375,-15862.419921875,427.82000732421875,-400000.0625,-5055.2900390625,-400000.0625,-400000.0625,-400000.0625
143.123229265213,-5711.64990234375,-15823.5595703125,456.9100036621094,-400000.0625,-5039.5498046875,-400000.0625,-400000.0625,-400000.0625
143.1232328414917,-5785.990234375,-15892.7001953125,398.25,-400000.0625,-4930.830078125,-400000.0625,-400000.0625,-400000.0625
143.12323689460754,-5868.6298828125,-15976.1396484375,331.9700012207031,-400000.0625,-4897.169921875,-400000.0625,-400000.0625,-400000.0625
143.12324047088623,-5845.06982421875,-15959.5498046875,349.239990234375,-400000.0625,-4966.35009765625,-400000.0625,-400000.0625,-400000.0625
143.12324404716492,-5747.41015625,-15859.7001953125,431.8699951171875,-400000.0625,-5025.10009765625,-400000.0625,-400000.0625,-400000.0625
143.1232476234436,-5710.64990234375,-15818.3095703125,461.6300048828125,-400000.0625,-5005.06982421875,-400000.0625,-400000.0625,-400000.0625
143.12325143814087,-5786.18017578125,-15893.4599609375,401.7799987792969,-400000.0625,-4926.8701171875,-400000.0625,-400000.0625,-400000.0625
143.12325501441956,-5864.10009765625,-15975.669921875,337.2699890136719,-400000.0625,-4907.18017578125,-400000.0625,-400000.0625,-400000.0625
143.12325835227966,-5844.5498046875,-15956.8798828125,356.1499938964844,-400000.0625,-4968.64013671875,-400000.0625,-400000.0625,-400000.0625
143.12326216697693,-5750.75,-15862.5595703125,431.5400085449219,-400000.0625,-5035.259765625,-400000.0625,-400000.0625,-400000.0625
143.12326574325562,-5713.64990234375,-15820.98046875,459.239990234375,-400000.0625,-5006.41015625,-400000.0625,-400000.0625,-400000.0625
143.1232693195343,-5791.14013671875,-15895.080078125,400.1600036621094,-400000.0625,-4919.10009765625,-400000.0625,-400000.0625,-400000.0625
143.123272895813,-5871.580078125,-15978.6201171875,334.6400146484375,-400000.0625,-4904.27001953125,-400000.0625,-400000.0625,-400000.0625
143.1232762336731,-5849.89013671875,-15958.83984375,352.42999267578125,-400000.0625,-4966.5,-400000.0625,-400000.0625,-400000.0625
143.12327980995178,-5761.0,-15870.1396484375,425.3399963378906,-400000.0625,-5026.2001953125,-400000.0625,-400000.0625,-400000.0625
143.12328338623047,-5721.18994140625,-15826.419921875,455.7099914550781,-400000.0625,-4997.10986328125,-400000.0625,-400000.0625,-400000.0625
143.12328696250916,-5792.0498046875,-15897.9404296875,394.1499938964844,-400000.0625,-4921.77001953125,-400000.0625,-400000.0625,-400000.0625
143.12329053878784,-5870.39013671875,-15981.6298828125,331.1199951171875,-400000.0625,-4910.56982421875,-400000.0625,-400000.0625,-400000.0625
143.12329411506653,-5844.8798828125,-15958.3095703125,354.6199951171875,-400000.0625,-4980.419921875,-400000.0625,-400000.0625,-400000.0625
143.1232979297638,-5750.31982421875,-15860.1298828125,431.010009765625,-400000.0625,-5037.02001953125,-400000.0625,-400000.0625,-400000.0625
143.12330102920532,-5713.75,-15820.9296875,458.8599853515625,-400000.0625,-5000.97021484375,-400000.0625,-400000.0625,-400000.0625
143.12330508232117,-5784.4599609375,-15891.98046875,401.8299865722656,-400000.0625,-4916.72021484375,-400000.0625,-400000.0625,-400000.0625
143.12330865859985,-5862.0,-15971.3798828125,338.32000732421875,-400000.0625,-4905.56005859375,-400000.0625,-400000.0625,-400000.0625
143.12331223487854,-5846.740234375,-15956.830078125,348.3800048828125,-400000.0625,-4980.66015625,-400000.0625,-400000.0625,-400000.0625
143.1233160495758,-5753.27978515625,-15861.3203125,427.20001220703125,-400000.0625,-5034.39990234375,-400000.0625,-400000.0625,-400000.0625
143.1233196258545,-5717.52001953125,-15825.3203125,456.8599853515625,-400000.0625,-4994.580078125,-400000.0625,-400000.0625,-400000.0625
143.12332391738892,-5790.9501953125,-15893.83984375,397.8299865722656,-400000.0625,-4915.47998046875,-400000.0625,-400000.0625,-400000.0625
143.12332844734192,-5868.81982421875,-15974.0,333.6000061035156,-400000.0625,-4903.93994140625,-400000.0625,-400000.0625,-400000.0625
143.1233320236206,-5843.2099609375,-15952.6796875,354.19000244140625,-400000.0625,-4968.97998046875,-400000.0625,-400000.0625,-400000.0625
143.12333583831787,-5750.66015625,-15857.650390625,431.82000732421875,-400000.0625,-5018.27978515625,-400000.0625,-400000.0625,-400000.0625
143.12333989143372,-5713.990234375,-15815.740234375,464.1099853515625,-400000.0625,-4990.669921875,-400000.0625,-400000.0625,-400000.0625
143.12334394454956,-5784.56005859375,-15888.5,402.3599853515625,-400000.0625,-4919.009765625,-400000.0625,-400000.0625,-400000.0625
143.1233479976654,-5864.2900390625,-15973.7099609375,338.54998779296875,-400000.0625,-4903.509765625,-400000.0625,-400000.0625,-400000.0625
143.12335205078125,-5845.68994140625,-15953.9697265625,356.25,-400000.0625,-4972.080078125,-400000.0625,-400000.0625,-400000.0625
143.1233561038971,-5752.18017578125,-15859.7998046875,432.9700012207031,-400000.0625,-5025.240234375,-400000.0625,-400000.0625,-400000.0625
143.12335968017578,-5711.89013671875,-15815.0703125,468.1099853515625,-400000.0625,-4994.72998046875,-400000.0625,-400000.0625,-400000.0625
143.12336349487305,-5786.85009765625,-15885.400390625,406.2200012207031,-400000.0625,-4915.52001953125,-400000.0625,-400000.0625,-400000.0625
143.1233675479889,-5867.10009765625,-15972.5703125,337.92999267578125,-400000.0625,-4899.31005859375,-400000.0625,-400000.0625,-400000.0625
143.12337136268616,-5841.5400390625,-15945.150390625,361.9700012207031,-400000.0625,-4967.169921875,-400000.0625,-400000.0625,-400000.0625
143.123375415802,-5752.89990234375,-15856.3603515625,436.260009765625,-400000.0625,-5016.89990234375,-400000.0625,-400000.0625,-400000.0625
143.1233789920807,-5714.27001953125,-15815.16015625,466.7799987792969,-400000.0625,-4984.81005859375,-400000.0625,-400000.0625,-400000.0625
143.12338256835938,-5784.18017578125,-15882.2099609375,406.4599914550781,-400000.0625,-4907.990234375,-400000.0625,-400000.0625,-400000.0625
143.12926316261292,-5861.9501953125,-15965.26953125,346.6099853515625,-400000.0625,-4897.169921875,-400000.0625,-400000.0625,-400000.0625
143.1351397037506,-5839.68017578125,-15946.2900390625,367.6400146484375,-400000.0625,-4964.919921875,-400000.0625,-400000.0625,-400000.0625
143.14136815071106,-5747.1298828125,-15850.3603515625,441.6000061035156,-400000.0625,-5010.22021484375,-400000.0625,-400000.0625,-400000.0625
143.14629936218262,-5711.990234375,-15807.6796875,470.5,-400000.0625,-4977.419921875,-400000.0625,-400000.0625,-400000.0625
143.14632296562195,-5784.85009765625,-15880.4404296875,407.4100036621094,-400000.0625,-4909.75,-400000.0625,-400000.0625,-400000.0625
143.14635467529297,-5863.7099609375,-15963.3701171875,344.4700012207031,-400000.0625,-4902.41015625,-400000.0625,-400000.0625,-400000.0625
143.14637160301208,-5840.16015625,-15945.4404296875,364.260009765625,-400000.0625,-4970.64990234375,-400000.0625,-400000.0625,-400000.0625
143.14637637138367,-5748.56005859375,-15850.400390625,439.45001220703125,-400000.0625,-5021.85986328125,-400000.0625,-400000.0625,-400000.0625
143.15225982666016,-5713.4599609375,-15815.9296875,465.67999267578125,-400000.0625,-4987.0498046875,-400000.0625,-400000.0625,-400000.0625
143.15785264968872,-5785.1298828125,-15886.3095703125,402.8299865722656,-400000.0625,-4915.56982421875,-400000.0625,-400000.0625,-400000.0625
143.16267824172974,-5863.47998046875,-15968.5595703125,337.54998779296875,-400000.0625,-4906.4599609375,-400000.0625,-400000.0625,-400000.0625
143.16269040107727,-5841.490234375,-15950.5400390625,356.7699890136719,-400000.0625,-4976.18017578125,-400000.0625,-400000.0625,-400000.0625
143.16269516944885,-5747.93994140625,-15853.4501953125,434.29998779296875,-400000.0625,-5018.08984375,-400000.0625,-400000.0625,-400000.0625
143.1627004146576,-5710.4599609375,-15814.9697265625,464.05999755859375,-400000.0625,-4963.2099609375,-400000.0625,-400000.0625,-400000.0625
143.1627049446106,-5785.0400390625,-15886.259765625,401.9700012207031,-400000.0625,-4898.169921875,-400000.0625,-400000.0625,-400000.0625
143.16270995140076,-5863.10009765625,-15967.5595703125,337.0799865722656,-400000.0625,-4897.740234375,-400000.0625,-400000.0625,-400000.0625
143.16271471977234,-5843.39990234375,-15949.1103515625,355.6700134277344,-400000.0625,-4949.7099609375,-400000.0625,-400000.0625,-400000.0625
143.16271948814392,-5753.22998046875,-15854.740234375,430.9200134277344,-400000.0625,-4989.2900390625,-400000.0625,-400000.0625,-400000.0625
143.16272377967834,-5711.64990234375,-15815.58984375,460.9100036621094,-400000.0625,-4968.830078125,-400000.0625,-400000.0625,-400000.0625
143.16272902488708,-5782.41015625,-15887.3095703125,399.9700012207031,-400000.0625,-4909.9501953125,-400000.0625,-400000.0625,-400000.0625
143.1627335548401,-5863.0498046875,-15966.0400390625,337.0799865722656,-400000.0625,-4906.080078125,-400000.0625,-400000.0625,-400000.0625
143.1627380847931,-5845.830078125,-15949.919921875,349.6600036621094,-400000.0625,-4963.919921875,-400000.0625,-400000.0625,-400000.0625
143.16274285316467,-5749.66015625,-15856.26953125,424.7699890136719,-400000.0625,-4999.10986328125,-400000.0625,-400000.0625,-400000.0625
143.16274666786194,-5708.64990234375,-15814.740234375,457.760009765625,-400000.0625,-4959.25,-400000.0625,-400000.0625,-400000.0625
143.16275119781494,-5787.7998046875,-15886.5,395.9700012207031,-400000.0625,-4904.60009765625,-400000.0625,-400000.0625,-400000.0625
143.16275596618652,-5869.580078125,-15973.1396484375,329.07000732421875,-400000.0625,-4901.97998046875,-400000.0625,-400000.0625,-400000.0625
143.16276001930237,-5847.5498046875,-15955.6904296875,348.0,-400000.0625,-4955.009765625,-400000.0625,-400000.0625,-400000.0625
143.1627643108368,-5751.47021484375,-15858.0302734375,427.20001220703125,-400000.0625,-5003.740234375,-400000.0625,-400000.0625,-400000.0625
143.16276860237122,-5709.740234375,-15811.9697265625,461.8599853515625,-400000.0625,-4976.22998046875,-400000.0625,-400000.0625,-400000.0625
143.1627733707428,-5780.7900390625,-15889.0703125,401.69000244140625,-400000.0625,-4903.41015625,-400000.0625,-400000.0625,-400000.0625
143.16277742385864,-5858.7099609375,-15967.9404296875,337.2699890136719,-400000.0625,-4897.4501953125,-400000.0625,-400000.0625,-400000.0625
143.1627814769745,-5838.919921875,-15944.91015625,356.82000732421875,-400000.0625,-4951.52978515625,-400000.0625,-400000.0625,-400000.0625
143.16278553009033,-5751.7998046875,-15853.259765625,430.489990234375,-400000.0625,-4976.75,-400000.0625,-400000.0625,-400000.0625
143.1627893447876,-5711.60009765625,-15816.3095703125,457.6700134277344,-400000.0625,-4949.14013671875,-400000.0625,-400000.0625,-400000.0625
143.16279339790344,-5788.330078125,-15888.7900390625,395.67999267578125,-400000.0625,-4905.75,-400000.0625,-400000.0625,-400000.0625
143.16279697418213,-5868.9599609375,-15973.51953125,331.8299865722656,-400000.0625,-4911.56982421875,-400000.0625,-400000.0625,-400000.0625
143.16280102729797,-5844.4501953125,-15951.2099609375,355.1000061035156,-400000.0625,-4954.6201171875,-400000.0625,-400000.0625,-400000.0625
143.16280484199524,-5748.93994140625,-15856.599609375,427.44000244140625,-400000.0625,-4984.6201171875,-400000.0625,-400000.0625,-400000.0625
143.16280889511108,-5712.22021484375,-15820.509765625,454.0,-400000.0625,-4959.97021484375,-400000.0625,-400000.0625,-400000.0625
143.16281270980835,-5788.14013671875,-15890.169921875,394.489990234375,-400000.0625,-4900.35986328125,-400000.0625,-400000.0625,-400000.0625
143.16281628608704,-5867.009765625,-15975.5703125,325.1600036621094,-400000.0625,-4903.169921875,-400000.0625,-400000.0625,-400000.0625
143.1628201007843,-5842.10986328125,-15959.7900390625,345.1300048828125,-400000.0625,-4961.97021484375,-400000.0625,-400000.0625,-400000.0625
143.16282391548157,-5752.47021484375,-15864.419921875,422.0,-400000.0625,-5002.259765625,-400000.0625,-400000.0625,-400000.0625
143.16282773017883,-5718.7099609375,-15823.080078125,448.8500061035156,-400000.0625,-4974.18017578125,-400000.0625,-400000.0625,-400000.0625
143.1628315448761,-5791.08984375,-15896.3203125,385.6199951171875,-400000.0625,-4918.669921875,-400000.0625,-400000.0625,-400000.0625
143.16283535957336,-5868.52978515625,-15975.4296875,327.2099914550781,-400000.0625,-4912.66015625,-400000.0625,-400000.0625,-400000.0625
143.1628396511078,-5845.60009765625,-15953.58984375,347.3299865722656,-400000.0625,-4956.77001953125,-400000.0625,-400000.0625,-400000.0625
143.16284370422363,-5753.9501953125,-15856.7900390625,420.5199890136719,-400000.0625,-4989.240234375,-400000.0625,-400000.0625,-400000.0625
143.16284728050232,-5721.0,-15814.830078125,449.989990234375,-400000.0625,-4969.64990234375,-400000.0625,-400000.0625,-400000.0625
143.162850856781,-5791.85986328125,-15892.1298828125,390.9100036621094,-400000.0625,-4912.08984375,-400000.0625,-400000.0625,-400000.0625
143.1628565788269,-5866.580078125,-15968.1796875,328.5400085449219,-400000.0625,-4903.27001953125,-400000.0625,-400000.0625,-400000.0625
143.16286039352417,-5840.02001953125,-15945.150390625,349.760009765625,-400000.0625,-4967.68994140625,-400000.0625,-400000.0625,-400000.0625
143.168701171875,-5742.97998046875,-15845.25,430.3500061035156,-400000.0625,-5018.18994140625,-400000.0625,-400000.0625,-400000.0625
143.1733226776123,-5704.259765625,-15798.1904296875,461.2900085449219,-400000.0625,-4992.81982421875,-400000.0625,-400000.0625,-400000.0625
