time,ch1,ch2,ch3,ch4,ch5,ch6,ch7,ch8
0.0660407543182373,10696.8896484375,12776.1396484375,12553.5498046875,-400000.0625,-400000.0625,-400000.0625,-400000.0625,-10647.8701171875
0.09557366371154785,10698.2197265625,12831.1201171875,12626.9404296875,-400000.0625,-400000.0625,-400000.0625,-400000.0625,-10620.6396484375
0.10768294334411621,10681.4404296875,12876.419921875,12629.990234375,-400000.0625,-400000.0625,-400000.0625,-400000.0625,-10618.8798828125
0.12461304664611816,10578.6298828125,12848.0,12583.16015625,-400000.0625,-400000.0625,-400000.0625,-400000.0625,-10639.7197265625
0.13527631759643555,10602.900390625,12808.51953125,12551.9296875,-400000.0625,-400000.0625,-400000.0625,-400000.0625,-10651.8798828125
0.15364956855773926,10616.6396484375,12864.58984375,12587.0703125,-400000.0625,-400000.0625,-400000.0625,-400000.0625,-10637.759765625
0.1686713695526123,10617.7802734375,12929.8203125,12647.2998046875,-400000.0625,-400000.0625,-400000.0625,-400000.0625,-10616.400390625
0.18758869171142578,10584.6396484375,12949.66015625,12673.8095703125,-400000.0625,-400000.0625,-400000.0625,-400000.0625,-10608.8203125
0.19481372833251953,10587.3603515625,12863.919921875,12639.2900390625,-400000.0625,-400000.0625,-400000.0625,-400000.0625,-10632.4697265625
0.20582365989685059,10575.2998046875,12831.58984375,12572.76953125,-400000.0625,-400000.0625,-400000.0625,-400000.0625,-10647.16015625
0.24031662940979004,10594.1796875,12887.5302734375,12593.9404296875,-400000.0625,-400000.0625,-400000.0625,-400000.0625,-10627.7998046875
0.25876688957214355,10576.3896484375,12961.9599609375,12650.7802734375,-400000.0625,-400000.0625,-400000.0625,-400000.0625,-10609.48046875
0.2777113914489746,10592.990234375,12962.009765625,12673.4296875,-400000.0625,-400000.0625,-400000.0625,-400000.0625,-10617.0703125
0.29942798614501953,10605.7197265625,12886.33984375,12634.4697265625,-400000.0625,-400000.0625,-400000.0625,-400000.0625,-10632.6103515625
0.30834531784057617,10611.009765625,12828.490234375,12591.98046875,-400000.0625,-400000.0625,-400000.0625,-400000.0625,-10640.099609375
0.327223539352417,10594.23046875,12871.41015625,12638.759765625,-400000.0625,-400000.0625,-400000.0625,-400000.0625,-10621.41015625
0.3426706790924072,10579.490234375,12919.240234375,12658.3095703125,-400000.0625,-400000.0625,-400000.0625,-400000.0625,-10611.4404296875
0.3609955310821533,10571.91015625,12977.169921875,12653.73046875,-400000.0625,-400000.0625,-400000.0625,-400000.0625,-10606.5302734375
0.37236905097961426,10567.4296875,12943.83984375,12627.169921875,-400000.0625,-400000.0625,-400000.0625,-400000.0625,-10622.1201171875
0.38916611671447754,10582.1103515625,12843.08984375,12607.2900390625,-400000.0625,-400000.0625,-400000.0625,-400000.0625,-10639.759765625
0.4255399703979492,10577.580078125,12862.01953125,12617.8798828125,-400000.0625,-400000.0625,-400000.0625,-400000.0625,-10628.8896484375
0.4448220729827881,10594.080078125,12917.6201171875,12674.8603515625,-400000.0625,-400000.0625,-400000.0625,-400000.0625,-10615.0595703125
0.46999192237854004,10617.9697265625,12968.490234375,12666.1796875,-400000.0625,-400000.0625,-400000.0625,-400000.0625,-10612.4404296875
0.48711180686950684,10617.6904296875,12895.0595703125,12622.259765625,-400000.0625,-400000.0625,-400000.0625,-400000.0625,-10615.2998046875
0.5103049278259277,10584.1201171875,12840.3203125,12605.8603515625,-400000.0625,-400000.0625,-400000.0625,-400000.0625,-10630.6103515625
0.5517981052398682,10603.6201171875,12877.990234375,12607.580078125,-400000.0625,-400000.0625,-400000.0625,-400000.0625,-10634.4697265625
0.576136589050293,10553.41015625,12946.650390625,12655.740234375,-400000.0625,-400000.0625,-400000.0625,-400000.0625,-10620.5498046875
0.5924286842346191,10556.650390625,12944.41015625,12679.8203125,-400000.0625,-400000.0625,-400000.0625,-400000.0625,-10614.8701171875
0.6220967769622803,10626.83984375,12869.5498046875,12614.8203125,-400000.0625,-400000.0625,-400000.0625,-400000.0625,-10631.849609375
0.632866382598877,10640.3798828125,12846.3798828125,12571.4296875,-400000.0625,-400000.0625,-400000.0625,-400000.0625,-10639.240234375
0.640453577041626,10600.8095703125,12869.9296875,12608.5302734375,-400000.0625,-400000.0625,-400000.0625,-400000.0625,-10627.5595703125
0.6519880294799805,10570.91015625,12927.580078125,12651.0595703125,-400000.0625,-400000.0625,-400000.0625,-400000.0625,-10610.25
0.6654014587402344,10607.8203125,12919.9501953125,12663.8896484375,-400000.0625,-400000.0625,-400000.0625,-400000.0625,-10609.76953125
0.6757793426513672,10628.3701171875,12880.330078125,12624.650390625,-400000.0625,-400000.0625,-400000.0625,-400000.0625,-10623.650390625
0.6887683868408203,10568.0,12863.830078125,12603.330078125,-400000.0625,-400000.0625,-400000.0625,-400000.0625,-10624.740234375
0.6949191093444824,10555.169921875,12895.8701171875,12601.900390625,-400000.0625,-400000.0625,-400000.0625,-400000.0625,-10619.1201171875
0.7069828510284424,10593.3701171875,12944.509765625,12655.8798828125,-400000.0625,-400000.0625,-400000.0625,-400000.0625,-10604.1904296875
0.7246804237365723,10616.58984375,12920.669921875,12683.919921875,-400000.0625,-400000.0625,-400000.0625,-400000.0625,-10604.669921875
0.7352321147918701,10620.740234375,12865.349609375,12604.759765625,-400000.0625,-400000.0625,-400000.0625,-400000.0625,-10620.0703125
0.7516083717346191,10618.1201171875,12877.8896484375,12549.5400390625,-400000.0625,-400000.0625,-400000.0625,-400000.0625,-10630.7998046875
0.7676897048950195,10582.400390625,12898.9697265625,12633.5595703125,-400000.0625,-400000.0625,-400000.0625,-400000.0625,-10618.5
0.7847409248352051,10591.7900390625,12977.7900390625,12686.6396484375,-400000.0625,-400000.0625,-400000.0625,-400000.0625,-10596.23046875
0.7962546348571777,10579.6298828125,12983.1298828125,12692.01953125,-400000.0625,-400000.0625,-400000.0625,-400000.0625,-10595.2802734375
0.8093583583831787,10590.9404296875,12909.080078125,12636.5703125,-400000.0625,-400000.0625,-400000.0625,-400000.0625,-10623.7900390625
0.8252630233764648,10621.599609375,12837.599609375,12604.099609375,-400000.0625,-400000.0625,-400000.0625,-400000.0625,-10635.1904296875
0.8384344577789307,10616.6396484375,12844.849609375,12613.919921875,-400000.0625,-400000.0625,-400000.0625,-400000.0625,-10629.3701171875
0.8458828926086426,10617.4501953125,12926.48046875,12636.9501953125,-400000.0625,-400000.0625,-400000.0625,-400000.0625,-10612.4404296875
0.8628420829772949,10585.740234375,12948.990234375,12657.169921875,-400000.0625,-400000.0625,-400000.0625,-400000.0625,-10609.3896484375
0.8788299560546875,10608.76953125,12918.51953125,12609.4404296875,-400000.0625,-400000.0625,-400000.0625,-400000.0625,-10626.9404296875
0.891547441482544,10611.150390625,12893.6298828125,12612.4404296875,-400000.0625,-400000.0625,-400000.0625,-400000.0625,-10632.1298828125
0.9026272296905518,10592.83984375,12913.23046875,12639.669921875,-400000.0625,-400000.0625,-400000.0625,-400000.0625,-10620.740234375
0.9154331684112549,10617.3095703125,12944.3203125,12684.6298828125,-400000.0625,-400000.0625,-400000.0625,-400000.0625,-10605.5302734375
0.9345262050628662,10621.3603515625,12967.25,12678.8603515625,-400000.0625,-400000.0625,-400000.0625,-400000.0625,-10603.8095703125
0.9456648826599121,10573.76953125,12886.7197265625,12624.4599609375,-400000.0625,-400000.0625,-400000.0625,-400000.0625,-10620.6396484375
0.956840991973877,10627.3203125,12850.4296875,12557.5595703125,-400000.0625,-400000.0625,-400000.0625,-400000.0625,-10635.08984375
0.9714491367340088,10656.6396484375,12904.0302734375,12620.4501953125,-400000.0625,-400000.0625,-400000.0625,-400000.0625,-10625.8896484375
0.9844167232513428,10648.4404296875,12944.7001953125,12686.2099609375,-400000.0625,-400000.0625,-400000.0625,-400000.0625,-10607.2900390625
0.9981298446655273,10615.25,12945.1796875,12676.099609375,-400000.0625,-400000.0625,-400000.0625,-400000.0625,-10606.8603515625
1.0125696659088135,10615.6796875,12907.5498046875,12644.91015625,-400000.0625,-400000.0625,-400000.0625,-400000.0625,-10620.9296875
1.0275111198425293,10641.580078125,12868.01953125,12632.7998046875,-400000.0625,-400000.0625,-400000.0625,-400000.0625,-10622.5498046875
1.0400800704956055,10635.08984375,12896.1103515625,12634.900390625,-400000.0625,-400000.0625,-400000.0625,-400000.0625,-10613.5400390625
1.0546588897705078,10589.3095703125,12919.51953125,12652.01953125,-400000.0625,-400000.0625,-400000.0625,-400000.0625,-10612.8701171875
1.0710959434509277,10599.08984375,12933.919921875,12676.5302734375,-400000.0625,-400000.0625,-400000.0625,-400000.0625,-10610.6298828125
1.0834999084472656,10636.66015625,12946.4599609375,12659.2197265625,-400000.0625,-400000.0625,-400000.0625,-400000.0625,-10613.1103515625
1.0976576805114746,10631.849609375,12948.2802734375,12641.48046875,-400000.0625,-400000.0625,-400000.0625,-400000.0625,-10610.0595703125
1.1105279922485352,10587.2197265625,12972.58984375,12682.2001953125,-400000.0625,-400000.0625,-400000.0625,-400000.0625,-10600.759765625
1.1293308734893799,10592.3203125,13027.8603515625,12746.0498046875,-400000.0625,-400000.0625,-400000.0625,-400000.0625,-10579.8701171875
1.1425046920776367,10572.009765625,13015.650390625,12733.41015625,-400000.0625,-400000.0625,-400000.0625,-400000.0625,-10580.4501953125
1.158437728881836,10586.169921875,13001.1103515625,12701.66015625,-400000.0625,-400000.0625,-400000.0625,-400000.0625,-10596.3701171875
1.1725754737854004,10561.66015625,13015.8896484375,12688.2099609375,-400000.0625,-400000.0625,-400000.0625,-400000.0625,-10594.9404296875
1.1872014999389648,10503.33984375,13036.5400390625,12768.41015625,-400000.0625,-400000.0625,-400000.0625,-400000.0625,-10579.0595703125
1.196901559829712,10511.58984375,13117.169921875,12822.3896484375,-400000.0625,-400000.0625,-400000.0625,-400000.0625,-10558.8896484375
1.2097651958465576,10548.01953125,13117.650390625,12815.48046875,-400000.0625,-400000.0625,-400000.0625,-400000.0625,-10568.330078125
1.2268431186676025,10562.419921875,13069.6796875,12758.6904296875,-400000.0625,-400000.0625,-400000.0625,-400000.0625,-10583.5498046875
1.2372071743011475,10515.98046875,13029.8603515625,12707.51953125,-400000.0625,-400000.0625,-400000.0625,-400000.0625,-10595.1796875
1.2465720176696777,10522.41015625,13055.2802734375,12754.2998046875,-400000.0625,-400000.0625,-400000.0625,-400000.0625,-10584.5498046875
1.2581820487976074,10538.4404296875,13103.5302734375,12806.3701171875,-400000.0625,-400000.0625,-400000.0625,-400000.0625,-10566.330078125
1.269587755203247,10535.4296875,13105.0595703125,12810.4697265625,-400000.0625,-400000.0625,-400000.0625,-400000.0625,-10570.9599609375
1.279921531677246,10543.4404296875,13095.48046875,12795.6904296875,-400000.0625,-400000.0625,-400000.0625,-400000.0625,-10581.16015625
1.293370246887207,10546.6904296875,13055.9501953125,12757.5400390625,-400000.0625,-400000.0625,-400000.0625,-400000.0625,-10592.41015625
1.3066461086273193,10551.599609375,13079.83984375,12769.6103515625,-400000.0625,-400000.0625,-400000.0625,-400000.0625,-10584.1201171875
1.322136402130127,10531.5703125,13126.7998046875,12819.150390625,-400000.0625,-400000.0625,-400000.0625,-400000.0625,-10567.3798828125
1.335155725479126,10514.4501953125,13125.7998046875,12831.58984375,-400000.0625,-400000.0625,-400000.0625,-400000.0625,-10562.9501953125
1.3473031520843506,10517.650390625,13082.650390625,12765.3095703125,-400000.0625,-400000.0625,-400000.0625,-400000.0625,-10582.01953125
1.3582267761230469,10544.6396484375,13016.26953125,12724.3095703125,-400000.0625,-400000.0625,-400000.0625,-400000.0625,-10598.1396484375
1.3697803020477295,10533.1396484375,13057.2802734375,12766.3603515625,-400000.0625,-400000.0625,-400000.0625,-400000.0625,-10581.919921875
1.3867056369781494,10543.400390625,13116.4599609375,12824.0595703125,-400000.0625,-400000.0625,-400000.0625,-400000.0625,-10557.990234375
1.3928906917572021,10561.990234375,13143.1103515625,12839.2197265625,-400000.0625,-400000.0625,-400000.0625,-400000.0625,-10558.4599609375
1.4000329971313477,10558.1298828125,13079.4501953125,12764.5,-400000.0625,-400000.0625,-400000.0625,-400000.0625,-10582.6396484375
1.407458782196045,10529.7099609375,13041.01953125,12709.0498046875,-400000.0625,-400000.0625,-400000.0625,-400000.0625,-10606.8095703125
1.4251465797424316,10513.349609375,13068.580078125,12752.2001953125,-400000.0625,-400000.0625,-400000.0625,-400000.0625,-10591.990234375
1.4412095546722412,10552.4599609375,13104.4404296875,12804.41015625,-400000.0625,-400000.0625,-400000.0625,-400000.0625,-10578.8203125
1.4567747116088867,10517.0302734375,13095.1904296875,12805.1298828125,-400000.0625,-400000.0625,-400000.0625,-400000.0625,-10582.5
1.4642324447631836,10526.9404296875,13059.51953125,12750.5302734375,-400000.0625,-400000.0625,-400000.0625,-400000.0625,-10598.849609375
1.470984697341919,10528.330078125,13038.349609375,12733.169921875,-400000.0625,-400000.0625,-400000.0625,-400000.0625,-10599.7099609375
1.4768598079681396,10560.23046875,13065.150390625,12769.2197265625,-400000.0625,-400000.0625,-400000.0625,-400000.0625,-10573.3896484375
1.485297679901123,10568.51953125,13125.849609375,12809.330078125,-400000.0625,-400000.0625,-400000.0625,-400000.0625,-10554.83984375
1.4912903308868408,10539.4404296875,13124.1298828125,12806.8896484375,-400000.0625,-400000.0625,-400000.0625,-400000.0625,-10568.48046875
1.503464698791504,10517.169921875,13013.3603515625,12721.73046875,-400000.0625,-400000.0625,-400000.0625,-400000.0625,-10603.7197265625
1.5110020637512207,10524.75,13006.01953125,12680.150390625,-400000.0625,-400000.0625,-400000.0625,-400000.0625,-10613.490234375
1.526491403579712,10548.5498046875,13083.8896484375,12754.490234375,-400000.0625,-400000.0625,-400000.0625,-400000.0625,-10589.169921875
1.535679817199707,10547.58984375,13122.66015625,12805.83984375,-400000.0625,-400000.0625,-400000.0625,-400000.0625,-10570.5302734375
1.549269437789917,10524.7998046875,13102.33984375,12793.73046875,-400000.0625,-400000.0625,-400000.0625,-400000.0625,-10581.830078125
1.5584330558776855,10539.4404296875,13054.1796875,12737.23046875,-400000.0625,-400000.0625,-400000.0625,-400000.0625,-10597.08984375
1.5659408569335938,10544.1103515625,13029.4296875,12715.3896484375,-400000.0625,-400000.0625,-400000.0625,-400000.0625,-10601.9501953125
1.5798430442810059,10575.919921875,13051.650390625,12745.4296875,-400000.0625,-400000.0625,-400000.0625,-400000.0625,-10588.98046875
1.5935206413269043,10549.169921875,13108.6796875,12778.0,-400000.0625,-400000.0625,-400000.0625,-400000.0625,-10564.1904296875
1.603978157043457,10514.0703125,13106.400390625,12780.1396484375,-400000.0625,-400000.0625,-400000.0625,-400000.0625,-10576.8203125
1.6134576797485352,10506.349609375,13039.73046875,12725.7802734375,-400000.0625,-400000.0625,-400000.0625,-400000.0625,-10602.669921875
1.6303555965423584,10546.6904296875,13017.7998046875,12698.83984375,-400000.0625,-400000.0625,-400000.0625,-400000.0625,-10612.3896484375
1.6407699584960938,10540.2001953125,13042.5498046875,12724.400390625,-400000.0625,-400000.0625,-400000.0625,-400000.0625,-10600.1904296875
1.6535823345184326,10534.48046875,13057.2802734375,12773.4697265625,-400000.0625,-400000.0625,-400000.0625,-400000.0625,-10587.169921875
1.6620912551879883,10551.7900390625,13082.3203125,12757.349609375,-400000.0625,-400000.0625,-400000.0625,-400000.0625,-10589.41015625
1.672072410583496,10566.4296875,13044.4501953125,12717.8701171875,-400000.0625,-400000.0625,-400000.0625,-400000.0625,-10600.3798828125
1.683927297592163,10534.1904296875,12996.580078125,12679.4404296875,-400000.0625,-400000.0625,-400000.0625,-400000.0625,-10607.3896484375
1.6955461502075195,10508.009765625,13031.9599609375,12729.5498046875,-400000.0625,-400000.0625,-400000.0625,-400000.0625,-10595.849609375
1.7046780586242676,10529.5703125,13108.0595703125,12782.2900390625,-400000.0625,-400000.0625,-400000.0625,-400000.0625,-10562.990234375
1.7129521369934082,10536.6201171875,13114.169921875,12774.419921875,-400000.0625,-400000.0625,-400000.0625,-400000.0625,-10577.009765625
1.7355492115020752,10538.5302734375,13056.1796875,12715.099609375,-400000.0625,-400000.0625,-400000.0625,-400000.0625,-10611.25
1.7461035251617432,10559.4599609375,13009.98046875,12680.4404296875,-400000.0625,-400000.0625,-400000.0625,-400000.0625,-10609.7197265625
1.758113145828247,10579.9697265625,13028.7197265625,12721.8701171875,-400000.0625,-400000.0625,-400000.0625,-400000.0625,-10588.0302734375
1.7725677490234375,10524.7001953125,13045.98046875,12759.5400390625,-400000.0625,-400000.0625,-400000.0625,-400000.0625,-10582.16015625
1.781752586364746,10513.5,13069.6298828125,12729.5498046875,-400000.0625,-400000.0625,-400000.0625,-400000.0625,-10594.419921875
1.790330171585083,10545.830078125,13025.4296875,12707.3798828125,-400000.0625,-400000.0625,-400000.0625,-400000.0625,-10604.91015625
1.8054282665252686,10544.73046875,13025.3798828125,12684.8701171875,-400000.0625,-400000.0625,-400000.0625,-400000.0625,-10604.8603515625
1.8148531913757324,10549.8798828125,13058.759765625,12715.6298828125,-400000.0625,-400000.0625,-400000.0625,-400000.0625,-10583.5498046875
1.829864263534546,10507.9697265625,13101.76953125,12764.3603515625,-400000.0625,-400000.0625,-400000.0625,-400000.0625,-10572.009765625
1.8402416706085205,10534.91015625,13129.1396484375,12771.66015625,-400000.0625,-400000.0625,-400000.0625,-400000.0625,-10566.7099609375
1.8480556011199951,10540.2998046875,13068.009765625,12727.2099609375,-400000.0625,-400000.0625,-400000.0625,-400000.0625,-10582.8798828125
1.8591506481170654,10494.419921875,13027.669921875,12702.0400390625,-400000.0625,-400000.0625,-400000.0625,-400000.0625,-10596.9404296875
1.868546724319458,10507.5400390625,13054.3203125,12723.400390625,-400000.0625,-400000.0625,-400000.0625,-400000.0625,-10587.4599609375
1.8790693283081055,10509.2099609375,13082.41015625,12766.509765625,-400000.0625,-400000.0625,-400000.0625,-400000.0625,-10575.8701171875
1.8931605815887451,10518.9296875,13102.580078125,12775.4697265625,-400000.0625,-400000.0625,-400000.0625,-400000.0625,-10571.91015625
1.899946689605713,10520.83984375,13083.8896484375,12726.4501953125,-400000.0625,-400000.0625,-400000.0625,-400000.0625,-10586.9296875
1.909621000289917,10514.8798828125,13044.6396484375,12709.8095703125,-400000.0625,-400000.0625,-400000.0625,-400000.0625,-10596.1298828125
1.9254510402679443,10488.9404296875,13045.599609375,12739.3701171875,-400000.0625,-400000.0625,-400000.0625,-400000.0625,-10581.919921875
1.9376435279846191,10508.9697265625,13083.4599609375,12763.2197265625,-400000.0625,-400000.0625,-400000.0625,-400000.0625,-10569.8095703125
1.9449100494384766,10516.5498046875,13105.1103515625,12773.1796875,-400000.0625,-400000.0625,-400000.0625,-400000.0625,-10563.7998046875
1.9586427211761475,10514.01953125,13074.9697265625,12744.91015625,-400000.0625,-400000.0625,-400000.0625,-400000.0625,-10568.099609375
1.9684710502624512,10523.3701171875,13027.150390625,12708.8603515625,-400000.0625,-400000.0625,-400000.0625,-400000.0625,-10584.5498046875
1.9768540859222412,10521.9404296875,13035.2001953125,12696.98046875,-400000.0625,-400000.0625,-400000.0625,-400000.0625,-10589.4599609375
1.9860451221466064,10515.599609375,13090.759765625,12742.4296875,-400000.0625,-400000.0625,-400000.0625,-400000.0625,-10572.2900390625
1.9942448139190674,10497.3798828125,13106.73046875,12764.3603515625,-400000.0625,-400000.0625,-400000.0625,-400000.0625,-10567.3798828125
2.0077011585235596,10505.73046875,13052.8896484375,12709.08984375,-400000.0625,-400000.0625,-400000.0625,-400000.0625,-10586.1201171875
2.0249741077423096,10516.83984375,13018.66015625,12686.4404296875,-400000.0625,-400000.0625,-400000.0625,-400000.0625,-10595.66015625
2.0315120220184326,10510.01953125,13038.349609375,12734.41015625,-400000.0625,-400000.0625,-400000.0625,-400000.0625,-10583.9697265625
2.0402443408966064,10522.990234375,13092.3798828125,12761.259765625,-400000.0625,-400000.0625,-400000.0625,-400000.0625,-10567.0498046875
2.0459423065185547,10484.98046875,13093.66015625,12767.75,-400000.0625,-400000.0625,-400000.0625,-400000.0625,-10564.5703125
2.0578103065490723,10488.080078125,13045.9296875,12730.9296875,-400000.0625,-400000.0625,-400000.0625,-400000.0625,-10584.8798828125
2.067744016647339,10511.6904296875,13023.8095703125,12680.9599609375,-400000.0625,-400000.0625,-400000.0625,-400000.0625,-10596.2802734375
2.0768849849700928,10530.849609375,13041.01953125,12710.48046875,-400000.0625,-400000.0625,-400000.0625,-400000.0625,-10584.6904296875
2.0882489681243896,10546.7802734375,13073.4501953125,12748.76953125,-400000.0625,-400000.0625,-400000.0625,-400000.0625,-10569.48046875
2.098761796951294,10517.599609375,13088.0400390625,12760.01953125,-400000.0625,-400000.0625,-400000.0625,-400000.0625,-10563.0400390625
2.1043460369110107,10512.3095703125,13067.150390625,12726.8798828125,-400000.0625,-400000.0625,-400000.0625,-400000.0625,-10570.0498046875
2.1114542484283447,10499.8095703125,13031.580078125,12690.5,-400000.0625,-400000.0625,-400000.0625,-400000.0625,-10590.83984375
2.1259031295776367,10519.3203125,13060.91015625,12699.41015625,-400000.0625,-400000.0625,-400000.0625,-400000.0625,-10590.1298828125
2.134533643722534,10531.8603515625,13091.3798828125,12756.0595703125,-400000.0625,-400000.0625,-400000.0625,-400000.0625,-10574.150390625
2.1418511867523193,10524.990234375,13076.3095703125,12776.8095703125,-400000.0625,-400000.0625,-400000.0625,-400000.0625,-10572.2900390625
2.150810718536377,10507.6796875,13037.919921875,12723.1103515625,-400000.0625,-400000.0625,-400000.0625,-400000.0625,-10589.7900390625
2.161637306213379,10477.8798828125,13006.16015625,12668.1298828125,-400000.0625,-400000.0625,-400000.0625,-400000.0625,-10596.4697265625
2.1726620197296143,10501.099609375,13042.740234375,12699.0302734375,-400000.0625,-400000.0625,-400000.0625,-400000.0625,-10584.4501953125
2.1833951473236084,10510.830078125,13111.8798828125,12759.9296875,-400000.0625,-400000.0625,-400000.0625,-400000.0625,-10571.580078125
2.189363718032837,10523.650390625,13110.4501953125,12763.5498046875,-400000.0625,-400000.0625,-400000.0625,-400000.0625,-10573.099609375
2.1996536254882812,10546.73046875,13046.8896484375,12711.0498046875,-400000.0625,-400000.0625,-400000.0625,-400000.0625,-10590.26953125
2.2093892097473145,10530.66015625,12996.2001953125,12680.009765625,-400000.0625,-400000.0625,-400000.0625,-400000.0625,-10600.23046875
2.2237188816070557,10512.9697265625,13024.2802734375,12686.6796875,-400000.0625,-400000.0625,-400000.0625,-400000.0625,-10589.5498046875
2.23201584815979,10493.9501953125,13075.7802734375,12731.83984375,-400000.0625,-400000.0625,-400000.0625,-400000.0625,-10569.91015625
2.24230694770813,10479.9296875,13092.66015625,12747.099609375,-400000.0625,-400000.0625,-400000.0625,-400000.0625,-10574.8701171875
2.2512998580932617,10519.740234375,13052.1298828125,12682.76953125,-400000.0625,-400000.0625,-400000.0625,-400000.0625,-10588.98046875
2.261380434036255,10544.830078125,13020.7099609375,12680.9599609375,-400000.0625,-400000.0625,-400000.0625,-400000.0625,-10594.23046875
2.272778034210205,10537.6298828125,13037.400390625,12714.48046875,-400000.0625,-400000.0625,-400000.0625,-400000.0625,-10584.2099609375
2.28196382522583,10501.7197265625,13074.73046875,12739.51953125,-400000.0625,-400000.0625,-400000.0625,-400000.0625,-10578.1103515625
2.292694568634033,10455.75,13089.419921875,12744.759765625,-400000.0625,-400000.0625,-400000.0625,-400000.0625,-10581.4501953125
2.3100736141204834,10491.66015625,13034.2001953125,12694.0703125,-400000.0625,-400000.0625,-400000.0625,-400000.0625,-10598.7998046875
3.298119306564331,10511.830078125,12996.48046875,12660.9296875,-400000.0625,-400000.0625,-400000.0625,-400000.0625,-10608.2900390625
3.3150534629821777,10504.3896484375,13035.6796875,12689.9296875,-400000.0625,-400000.0625,-400000.0625,-400000.0625,-10592.650390625
3.329468250274658,10507.0595703125,13084.3701171875,12739.330078125,-400000.0625,-400000.0625,-400000.0625,-400000.0625,-10573.25
3.3412671089172363,10499.1396484375,13087.8896484375,12740.419921875,-400000.0625,-400000.0625,-400000.0625,-400000.0625,-10572.9599609375
3.3541204929351807,10500.150390625,13038.490234375,12691.169921875,-400000.0625,-400000.0625,-400000.0625,-400000.0625,-10593.1298828125
3.3681819438934326,10491.900390625,13003.490234375,12671.51953125,-400000.0625,-400000.0625,-400000.0625,-400000.0625,-10599.1904296875
3.379817247390747,10503.5302734375,13028.91015625,12676.76953125,-400000.0625,-400000.0625,-400000.0625,-400000.0625,-10592.509765625
3.3960938453674316,10527.6103515625,13076.2099609375,12725.6396484375,-400000.0625,-400000.0625,-400000.0625,-400000.0625,-10577.349609375
3.4097375869750977,10529.330078125,13086.6103515625,12731.26953125,-400000.0625,-400000.0625,-400000.0625,-400000.0625,-10578.6796875
3.4259705543518066,10500.91015625,13028.33984375,12691.400390625,-400000.0625,-400000.0625,-400000.0625,-400000.0625,-10594.080078125
3.441542625427246,10478.58984375,13002.7802734375,12665.3203125,-400000.0625,-400000.0625,-400000.0625,-400000.0625,-10599.330078125
3.453227996826172,10496.669921875,13037.6396484375,12681.0595703125,-400000.0625,-400000.0625,-400000.0625,-400000.0625,-10591.3203125
3.4665629863739014,10505.580078125,13079.3095703125,12719.5400390625,-400000.0625,-400000.0625,-400000.0625,-400000.0625,-10569.91015625
3.477823495864868,10502.099609375,13073.4501953125,12718.8701171875,-400000.0625,-400000.0625,-400000.0625,-400000.0625,-10573.48046875
3.4986777305603027,10516.1201171875,13033.4404296875,12697.650390625,-400000.0625,-400000.0625,-400000.0625,-400000.0625,-10603.9501953125
3.517390012741089,10526.849609375,13006.16015625,12658.7900390625,-400000.0625,-400000.0625,-400000.0625,-400000.0625,-10610.76953125
3.5300025939941406,10476.2998046875,13036.9697265625,12671.3798828125,-400000.0625,-400000.0625,-400000.0625,-400000.0625,-10597.51953125
3.5447981357574463,10489.26953125,13068.4404296875,12705.0400390625,-400000.0625,-400000.0625,-400000.0625,-400000.0625,-10583.830078125
3.5594661235809326,10518.7001953125,13052.0400390625,12712.150390625,-400000.0625,-400000.0625,-400000.0625,-400000.0625,-10588.5498046875
3.5705881118774414,10540.8701171875,13004.9697265625,12678.099609375,-400000.0625,-400000.0625,-400000.0625,-400000.0625,-10603.240234375
3.5822741985321045,10513.6904296875,12997.8203125,12664.2197265625,-400000.0625,-400000.0625,-400000.0625,-400000.0625,-10606.669921875
3.6000518798828125,10494.6103515625,13021.1396484375,12672.5703125,-400000.0625,-400000.0625,-400000.0625,-400000.0625,-10592.41015625
3.620525598526001,10476.349609375,13050.2197265625,12705.1396484375,-400000.0625,-400000.0625,-400000.0625,-400000.0625,-10580.1103515625
3.6311700344085693,10485.83984375,13056.7099609375,12683.76953125,-400000.0625,-400000.0625,-400000.0625,-400000.0625,-10586.4501953125
3.6437432765960693,10506.5400390625,13034.5400390625,12670.330078125,-400000.0625,-400000.0625,-400000.0625,-400000.0625,-10595.3701171875
3.6598212718963623,10489.849609375,12970.1201171875,12647.5302734375,-400000.0625,-400000.0625,-400000.0625,-400000.0625,-10603.51953125
3.669839382171631,10483.169921875,12953.0,12666.23046875,-400000.0625,-400000.0625,-400000.0625,-400000.0625,-10602.669921875
3.680011749267578,10502.8603515625,13025.7099609375,12688.58984375,-400000.0625,-400000.0625,-400000.0625,-400000.0625,-10588.169921875
3.7001376152038574,10530.51953125,12993.2900390625,12655.0703125,-400000.0625,-400000.0625,-400000.0625,-400000.0625,-10588.740234375
3.7120425701141357,10537.150390625,12957.4296875,12635.3798828125,-400000.0625,-400000.0625,-400000.0625,-400000.0625,-10600.4697265625
3.731051445007324,10542.6796875,12929.490234375,12597.0400390625,-400000.0625,-400000.0625,-400000.0625,-400000.0625,-10606.0
3.741433620452881,10561.23046875,12951.08984375,12590.0302734375,-400000.0625,-400000.0625,-400000.0625,-400000.0625,-10604.099609375
3.756948947906494,10531.08984375,12933.16015625,12599.3701171875,-400000.0625,-400000.0625,-400000.0625,-400000.0625,-10594.419921875
3.768439292907715,10544.349609375,12941.599609375,12616.7802734375,-400000.0625,-400000.0625,-400000.0625,-400000.0625,-10583.01953125
3.779376983642578,10536.150390625,12894.5400390625,12587.0703125,-400000.0625,-400000.0625,-400000.0625,-400000.0625,-10601.8603515625
3.8003509044647217,10543.6796875,12830.9697265625,12519.740234375,-400000.0625,-400000.0625,-400000.0625,-400000.0625,-10623.5
3.8116917610168457,10545.0595703125,12829.9296875,12507.4404296875,-400000.0625,-400000.0625,-400000.0625,-400000.0625,-10621.5
3.825247049331665,10567.1396484375,12857.099609375,12548.259765625,-400000.0625,-400000.0625,-400000.0625,-400000.0625,-10606.0498046875
3.838958501815796,10560.3701171875,12861.919921875,12550.0703125,-400000.0625,-400000.0625,-400000.0625,-400000.0625,-10600.0
3.8544766902923584,10555.169921875,12818.3896484375,12515.3603515625,-400000.0625,-400000.0625,-400000.0625,-400000.0625,-10615.4501953125
3.8654208183288574,10538.669921875,12782.48046875,12477.16015625,-400000.0625,-400000.0625,-400000.0625,-400000.0625,-10620.830078125
3.877288579940796,10536.580078125,12821.8203125,12523.41015625,-400000.0625,-400000.0625,-400000.0625,-400000.0625,-10607.76953125
3.898383140563965,10577.25,12873.5595703125,12568.1396484375,-400000.0625,-400000.0625,-400000.0625,-400000.0625,-10587.5498046875
3.9104599952697754,10565.5703125,12872.080078125,12560.8896484375,-400000.0625,-400000.0625,-400000.0625,-400000.0625,-10602.51953125
3.924053430557251,10561.3701171875,12817.099609375,12525.23046875,-400000.0625,-400000.0625,-400000.0625,-400000.0625,-10631.08984375
3.940342664718628,10580.01953125,12784.150390625,12484.2197265625,-400000.0625,-400000.0625,-400000.0625,-400000.0625,-10644.8701171875
3.9552364349365234,10553.3095703125,12803.3203125,12487.2197265625,-400000.0625,-400000.0625,-400000.0625,-400000.0625,-10633.7998046875
3.969733238220215,10552.6904296875,12850.240234375,12539.8203125,-400000.0625,-400000.0625,-400000.0625,-400000.0625,-10618.7802734375
3.9819064140319824,10571.099609375,12861.4404296875,12550.3603515625,-400000.0625,-400000.0625,-400000.0625,-400000.0625,-10624.9296875
4.589257478713989,10548.58984375,12820.2001953125,12499.759765625,-400000.0625,-400000.0625,-400000.0625,-400000.0625,-10643.8603515625
4.596207141876221,10550.6396484375,12778.7099609375,12473.5400390625,-400000.0625,-400000.0625,-400000.0625,-400000.0625,-10655.9296875
4.619162082672119,10555.7001953125,12791.01953125,12495.1904296875,-400000.0625,-400000.0625,-400000.0625,-400000.0625,-10644.25
4.6407976150512695,10543.400390625,12839.7998046875,12538.0498046875,-400000.0625,-400000.0625,-400000.0625,-400000.0625,-10626.8896484375
4.65087366104126,10543.1103515625,12855.76953125,12546.6796875,-400000.0625,-400000.0625,-400000.0625,-400000.0625,-10631.66015625
4.659592628479004,10551.259765625,12808.990234375,12516.3095703125,-400000.0625,-400000.0625,-400000.0625,-400000.0625,-10644.25
4.670608043670654,10581.58984375,12799.740234375,12489.83984375,-400000.0625,-400000.0625,-400000.0625,-400000.0625,-10648.919921875
4.690696716308594,10564.5703125,12829.58984375,12500.7197265625,-400000.0625,-400000.0625,-400000.0625,-400000.0625,-10632.5595703125
4.707138538360596,10559.509765625,12849.759765625,12520.1201171875,-400000.0625,-400000.0625,-400000.0625,-400000.0625,-10619.740234375
4.714910268783569,10564.7099609375,12856.91015625,12533.08984375,-400000.0625,-400000.0625,-400000.0625,-400000.0625,-10620.5498046875
4.723820447921753,10585.5498046875,12807.900390625,12518.5498046875,-400000.0625,-400000.0625,-400000.0625,-400000.0625,-10629.23046875
4.735931873321533,10592.3701171875,12813.7099609375,12478.8798828125,-400000.0625,-400000.0625,-400000.0625,-400000.0625,-10636.66015625
4.7529518604278564,10532.900390625,12837.080078125,12493.7998046875,-400000.0625,-400000.0625,-400000.0625,-400000.0625,-10631.990234375
4.765429973602295,10524.1796875,12859.73046875,12530.2802734375,-400000.0625,-400000.0625,-400000.0625,-400000.0625,-10621.83984375
4.7742486000061035,10573.76953125,12878.75,12554.0703125,-400000.0625,-400000.0625,-400000.0625,-400000.0625,-10620.01953125
4.78961181640625,10596.7099609375,12836.83984375,12513.9296875,-400000.0625,-400000.0625,-400000.0625,-400000.0625,-10628.080078125
4.804956436157227,10583.9296875,12814.669921875,12472.919921875,-400000.0625,-400000.0625,-400000.0625,-400000.0625,-10635.0
4.819104433059692,10591.7001953125,12832.259765625,12502.580078125,-400000.0625,-400000.0625,-400000.0625,-400000.0625,-10626.3701171875
4.8320090770721436,10576.150390625,12875.650390625,12543.6298828125,-400000.0625,-400000.0625,-400000.0625,-400000.0625,-10610.2998046875
4.841098070144653,10578.490234375,12883.08984375,12544.009765625,-400000.0625,-400000.0625,-400000.0625,-400000.0625,-10609.8203125
4.853469371795654,10594.1796875,12845.4697265625,12507.6298828125,-400000.0625,-400000.0625,-400000.0625,-400000.0625,-10629.6103515625
4.859921932220459,10588.4599609375,12814.0,12469.669921875,-400000.0625,-400000.0625,-400000.0625,-400000.0625,-10636.2802734375
4.869931936264038,10563.08984375,12852.8095703125,12493.0400390625,-400000.0625,-400000.0625,-400000.0625,-400000.0625,-10624.0302734375
4.888195991516113,10573.76953125,12865.58984375,12532.4296875,-400000.0625,-400000.0625,-400000.0625,-400000.0625,-10613.8701171875
4.896559953689575,10573.3896484375,12872.169921875,12526.7001953125,-400000.0625,-400000.0625,-400000.0625,-400000.0625,-10613.73046875
4.909065246582031,10571.76953125,12837.7900390625,12504.8203125,-400000.0625,-400000.0625,-400000.0625,-400000.0625,-10628.990234375
4.922782897949219,10575.33984375,12816.3798828125,12483.0703125,-400000.0625,-400000.0625,-400000.0625,-400000.0625,-10635.900390625
4.933507204055786,10582.9697265625,12833.3603515625,12493.5595703125,-400000.0625,-400000.0625,-400000.0625,-400000.0625,-10623.98046875
4.946258306503296,10587.3603515625,12860.349609375,12519.83984375,-400000.0625,-400000.0625,-400000.0625,-400000.0625,-10606.3896484375
4.961093187332153,10576.6796875,12879.08984375,12515.6904296875,-400000.0625,-400000.0625,-400000.0625,-400000.0625,-10612.580078125
4.970821857452393,10575.6796875,12828.16015625,12494.849609375,-400000.0625,-400000.0625,-400000.0625,-400000.0625,-10629.66015625
4.98859429359436,10562.1396484375,12793.16015625,12460.2802734375,-400000.0625,-400000.0625,-400000.0625,-400000.0625,-10645.8701171875
5.002691745758057,10549.8798828125,12820.5302734375,12466.2900390625,-400000.0625,-400000.0625,-400000.0625,-400000.0625,-10643.099609375
5.013957977294922,10562.5595703125,12883.240234375,12526.4697265625,-400000.0625,-400000.0625,-400000.0625,-400000.0625,-10619.5
5.021219491958618,10571.240234375,12917.4697265625,12543.490234375,-400000.0625,-400000.0625,-400000.0625,-400000.0625,-10607.150390625
5.0345189571380615,10544.1103515625,12900.58984375,12535.6201171875,-400000.0625,-400000.0625,-400000.0625,-400000.0625,-10612.4404296875
5.041887283325195,10535.76953125,12895.3896484375,12520.9296875,-400000.0625,-400000.0625,-400000.0625,-400000.0625,-10621.1201171875
5.05623722076416,10522.3203125,12940.0703125,12546.25,-400000.0625,-400000.0625,-400000.0625,-400000.0625,-10605.150390625
5.062886714935303,10522.1796875,13005.9697265625,12588.7900390625,-400000.0625,-400000.0625,-400000.0625,-400000.0625,-10595.0400390625
5.072979211807251,10548.830078125,13016.8896484375,12621.6396484375,-400000.0625,-400000.0625,-400000.0625,-400000.0625,-10593.8896484375
7.240599155426025,10531.669921875,13013.75,12592.169921875,-400000.0625,-400000.0625,-400000.0625,-400000.0625,-10601.08984375
7.2492780685424805,10502.7197265625,13003.259765625,12577.919921875,-400000.0625,-400000.0625,-400000.0625,-400000.0625,-10608.580078125
7.266277313232422,10503.76953125,13016.0302734375,12607.669921875,-400000.0625,-400000.0625,-400000.0625,-400000.0625,-10599.1904296875
7.291333913803101,10492.849609375,13043.5,12620.2099609375,-400000.0625,-400000.0625,-400000.0625,-400000.0625,-10590.75
7.300495147705078,10500.5302734375,13049.7900390625,12617.7802734375,-400000.0625,-400000.0625,-400000.0625,-400000.0625,-10595.75
7.312258243560791,10509.2998046875,13009.1201171875,12597.75,-400000.0625,-400000.0625,-400000.0625,-400000.0625,-10605.91015625
7.32500433921814,10507.5400390625,13020.7998046875,12576.7197265625,-400000.0625,-400000.0625,-400000.0625,-400000.0625,-10605.76953125
7.333094835281372,10509.919921875,13034.009765625,12597.75,-400000.0625,-400000.0625,-400000.0625,-400000.0625,-10604.2900390625
7.345520973205566,10498.759765625,13042.259765625,12628.0302734375,-400000.0625,-400000.0625,-400000.0625,-400000.0625,-10599.23046875
7.3585426807403564,10500.91015625,13023.51953125,12626.7900390625,-400000.0625,-400000.0625,-400000.0625,-400000.0625,-10599.5703125
7.368824481964111,10508.2998046875,13013.650390625,12599.51953125,-400000.0625,-400000.0625,-400000.0625,-400000.0625,-10608.2900390625
7.378447532653809,10500.150390625,12980.5595703125,12559.1298828125,-400000.0625,-400000.0625,-400000.0625,-400000.0625,-10617.2099609375
7.3885722160339355,10483.98046875,13016.26953125,12576.6796875,-400000.0625,-400000.0625,-400000.0625,-400000.0625,-10608.9599609375
7.400328636169434,10517.7900390625,13044.0703125,12621.9296875,-400000.0625,-400000.0625,-400000.0625,-400000.0625,-10597.51953125
7.411063194274902,10485.080078125,13030.91015625,12607.91015625,-400000.0625,-400000.0625,-400000.0625,-400000.0625,-10596.7099609375
7.427295207977295,10513.2099609375,13019.0400390625,12589.6904296875,-400000.0625,-400000.0625,-400000.0625,-400000.0625,-10610.5302734375
7.446375608444214,10514.8798828125,12998.919921875,12566.51953125,-400000.0625,-400000.0625,-400000.0625,-400000.0625,-10613.2998046875
7.473092079162598,10486.650390625,13019.3203125,12594.2197265625,-400000.0625,-400000.0625,-400000.0625,-400000.0625,-10593.6103515625
7.486473083496094,10492.23046875,13029.91015625,12620.740234375,-400000.0625,-400000.0625,-400000.0625,-400000.0625,-10587.740234375
7.496512174606323,10476.16015625,13008.41015625,12607.5302734375,-400000.0625,-400000.0625,-400000.0625,-400000.0625,-10601.4296875
7.511174917221069,10521.3203125,12980.8896484375,12571.3798828125,-400000.0625,-400000.0625,-400000.0625,-400000.0625,-10614.2099609375
7.5259411334991455,10509.58984375,12969.2998046875,12558.0302734375,-400000.0625,-400000.0625,-400000.0625,-400000.0625,-10618.01953125
7.542126893997192,10504.150390625,12974.6904296875,12572.240234375,-400000.0625,-400000.0625,-400000.0625,-400000.0625,-10608.8701171875
7.555204153060913,10503.4404296875,13028.91015625,12598.900390625,-400000.0625,-400000.0625,-400000.0625,-400000.0625,-10593.2197265625
7.561209440231323,10490.1796875,13062.1396484375,12608.150390625,-400000.0625,-400000.0625,-400000.0625,-400000.0625,-10588.0703125
7.578527927398682,10495.330078125,13003.16015625,12556.98046875,-400000.0625,-400000.0625,-400000.0625,-400000.0625,-10603.099609375
7.601011037826538,10507.8701171875,12970.6904296875,12541.33984375,-400000.0625,-400000.0625,-400000.0625,-400000.0625,-10617.9296875
7.611593246459961,10517.169921875,13013.8896484375,12599.51953125,-400000.0625,-400000.0625,-400000.0625,-400000.0625,-10611.8701171875
7.620784044265747,10522.8896484375,13025.759765625,12606.76953125,-400000.0625,-400000.0625,-400000.0625,-400000.0625,-10596.9404296875
7.62742018699646,10487.509765625,13029.8603515625,12611.099609375,-400000.0625,-400000.0625,-400000.0625,-400000.0625,-10590.7900390625
7.643352508544922,10468.8701171875,12994.2001953125,12573.91015625,-400000.0625,-400000.0625,-400000.0625,-400000.0625,-10606.33984375
7.6555798053741455,10502.6298828125,12978.5595703125,12536.2900390625,-400000.0625,-400000.0625,-400000.0625,-400000.0625,-10617.58984375
7.661121606826782,10497.3798828125,13010.8798828125,12573.2001953125,-400000.0625,-400000.0625,-400000.0625,-400000.0625,-10604.7197265625
7.672948598861694,10462.48046875,13042.169921875,12599.1796875,-400000.0625,-400000.0625,-400000.0625,-400000.0625,-10589.169921875
7.683320999145508,10480.0703125,13024.6201171875,12601.0400390625,-400000.0625,-400000.0625,-400000.0625,-400000.0625,-10589.83984375
7.692349433898926,10516.6904296875,13017.3701171875,12576.009765625,-400000.0625,-400000.0625,-400000.0625,-400000.0625,-10594.1796875
7.70381498336792,10522.26953125,12996.7197265625,12538.099609375,-400000.0625,-400000.0625,-400000.0625,-400000.0625,-10614.009765625
7.718675136566162,10487.83984375,12996.6298828125,12572.2900390625,-400000.0625,-400000.0625,-400000.0625,-400000.0625,-10613.2998046875
7.728764533996582,10483.169921875,13026.669921875,12585.740234375,-400000.0625,-400000.0625,-400000.0625,-400000.0625,-10600.4296875
7.745278596878052,10488.8896484375,13032.8203125,12585.9296875,-400000.0625,-400000.0625,-400000.0625,-400000.0625,-10600.759765625
7.7611329555511475,10495.23046875,12983.849609375,12555.509765625,-400000.0625,-400000.0625,-400000.0625,-400000.0625,-10614.9697265625
7.774503946304321,10513.5,12969.259765625,12538.33984375,-400000.0625,-400000.0625,-400000.0625,-400000.0625,-10621.98046875
7.788891792297363,10518.2197265625,13018.75,12557.3203125,-400000.0625,-400000.0625,-400000.0625,-400000.0625,-10605.1904296875
7.808740854263306,10495.4697265625,13043.98046875,12581.01953125,-400000.0625,-400000.0625,-400000.0625,-400000.0625,-10595.990234375
7.8252246379852295,10492.23046875,13030.7197265625,12581.349609375,-400000.0625,-400000.0625,-400000.0625,-400000.0625,-10594.6103515625
7.84418249130249,10486.75,12993.150390625,12555.26953125,-400000.0625,-400000.0625,-400000.0625,-400000.0625,-10607.240234375
7.857215166091919,10498.5703125,12988.08984375,12531.1904296875,-400000.0625,-400000.0625,-400000.0625,-400000.0625,-10613.6298828125
7.871516227722168,10520.41015625,12976.650390625,12538.0498046875,-400000.0625,-400000.0625,-400000.0625,-400000.0625,-10609.6298828125
7.887397050857544,10510.400390625,13003.919921875,12568.2802734375,-400000.0625,-400000.0625,-400000.0625,-400000.0625,-10597.2802734375
7.895188570022583,10474.400390625,13027.099609375,12581.919921875,-400000.0625,-400000.0625,-400000.0625,-400000.0625,-10594.7998046875
7.907776594161987,10503.76953125,13012.1201171875,12577.8203125,-400000.0625,-400000.0625,-400000.0625,-400000.0625,-10603.7197265625
7.922972202301025,10520.5498046875,12983.3701171875,12548.400390625,-400000.0625,-400000.0625,-400000.0625,-400000.0625,-10614.6796875
7.942580938339233,10503.2900390625,13006.0703125,12568.48046875,-400000.0625,-400000.0625,-400000.0625,-400000.0625,-10610.76953125
7.955083131790161,10488.7998046875,13017.3701171875,12581.2998046875,-400000.0625,-400000.0625,-400000.0625,-400000.0625,-10599.51953125
7.962478160858154,10481.0302734375,13025.0,12572.2900390625,-400000.0625,-400000.0625,-400000.0625,-400000.0625,-10595.2802734375
7.974665641784668,10492.849609375,12994.580078125,12545.4404296875,-400000.0625,-400000.0625,-400000.0625,-400000.0625,-10607.9599609375
7.987688779830933,10498.48046875,12978.75,12547.9697265625,-400000.0625,-400000.0625,-400000.0625,-400000.0625,-10616.9697265625
7.994651556015015,10508.6796875,13007.2099609375,12569.8095703125,-400000.0625,-400000.0625,-400000.0625,-400000.0625,-10604.8095703125
8.010296821594238,10505.9599609375,13027.0,12588.8798828125,-400000.0625,-400000.0625,-400000.0625,-400000.0625,-10595.3701171875
8.025084972381592,10485.509765625,13012.1201171875,12574.5302734375,-400000.0625,-400000.0625,-400000.0625,-400000.0625,-10598.419921875
8.041482925415039,10475.58984375,12979.080078125,12542.1103515625,-400000.0625,-400000.0625,-400000.0625,-400000.0625,-10611.9599609375
8.052400350570679,10494.51953125,12973.599609375,12528.7099609375,-400000.0625,-400000.0625,-400000.0625,-400000.0625,-10619.259765625
8.065671682357788,10498.240234375,12982.3203125,12528.66015625,-400000.0625,-400000.0625,-400000.0625,-400000.0625,-10610.76953125
8.074371099472046,10492.1396484375,12998.9599609375,12572.099609375,-400000.0625,-400000.0625,-400000.0625,-400000.0625,-10596.7099609375
8.089345932006836,10490.080078125,12992.8095703125,12570.4296875,-400000.0625,-400000.0625,-400000.0625,-400000.0625,-10595.900390625
8.103840827941895,10489.66015625,12977.7001953125,12542.5400390625,-400000.0625,-400000.0625,-400000.0625,-400000.0625,-10615.1103515625
8.120920181274414,10499.5302734375,12970.16015625,12530.0400390625,-400000.0625,-400000.0625,-400000.0625,-400000.0625,-10619.5
8.141540288925171,10516.83984375,12987.900390625,12539.2900390625,-400000.0625,-400000.0625,-400000.0625,-400000.0625,-10607.669921875
8.153939247131348,10470.3896484375,13002.25,12558.83984375,-400000.0625,-400000.0625,-400000.0625,-400000.0625,-10600.5703125
8.170250415802002,10484.169921875,13012.9404296875,12569.48046875,-400000.0625,-400000.0625,-400000.0625,-400000.0625,-10597.6103515625
8.184556722640991,10515.259765625,12995.009765625,12548.259765625,-400000.0625,-400000.0625,-400000.0625,-400000.0625,-10603.3798828125
8.194592714309692,10515.740234375,12963.2001953125,12532.1904296875,-400000.0625,-400000.0625,-400000.0625,-400000.0625,-10612.8203125
8.204481601715088,10506.2998046875,12964.919921875,12527.5595703125,-400000.0625,-400000.0625,-400000.0625,-400000.0625,-10610.8701171875
8.212155818939209,10503.8203125,12990.8603515625,12560.75,-400000.0625,-400000.0625,-400000.0625,-400000.0625,-10599.330078125
8.228538513183594,10488.080078125,12992.1904296875,12564.6103515625,-400000.0625,-400000.0625,-400000.0625,-400000.0625,-10601.8095703125
8.2504723072052,10488.1298828125,12973.259765625,12542.73046875,-400000.0625,-400000.0625,-400000.0625,-400000.0625,-10612.8701171875
8.263562440872192,10484.169921875,12950.1796875,12535.5302734375,-400000.0625,-400000.0625,-400000.0625,-400000.0625,-10618.740234375
8.276352405548096,10476.6396484375,12963.2998046875,12536.150390625,-400000.0625,-400000.0625,-400000.0625,-400000.0625,-10609.580078125
8.288763046264648,10471.6298828125,12993.0,12545.25,-400000.0625,-400000.0625,-400000.0625,-400000.0625,-10599.9501953125
8.295002698898315,10470.919921875,12995.7197265625,12554.26953125,-400000.0625,-400000.0625,-400000.0625,-400000.0625,-10599.4697265625
8.310011148452759,10481.5,12973.4501953125,12535.1396484375,-400000.0625,-400000.0625,-400000.0625,-400000.0625,-10609.6796875
8.322527170181274,10492.4697265625,12947.26953125,12519.8896484375,-400000.0625,-400000.0625,-400000.0625,-400000.0625,-10614.2998046875
8.331555604934692,10474.349609375,12946.509765625,12521.98046875,-400000.0625,-400000.0625,-400000.0625,-400000.0625,-10605.4296875
8.350994348526001,10456.849609375,12966.830078125,12558.8896484375,-400000.0625,-400000.0625,-400000.0625,-400000.0625,-10600.51953125
8.360305547714233,10447.8798828125,12962.5302734375,12553.259765625,-400000.0625,-400000.0625,-400000.0625,-400000.0625,-10600.2802734375
8.371149063110352,10477.5,12923.150390625,12521.2197265625,-400000.0625,-400000.0625,-400000.0625,-400000.0625,-10615.400390625
8.383196830749512,10455.419921875,12938.5498046875,12501.33984375,-400000.0625,-400000.0625,-400000.0625,-400000.0625,-10622.41015625
8.39286494255066,10460.1904296875,12974.98046875,12531.1904296875,-400000.0625,-400000.0625,-400000.0625,-400000.0625,-10610.2001953125
8.403286933898926,10497.759765625,12982.66015625,12554.599609375,-400000.0625,-400000.0625,-400000.0625,-400000.0625,-10595.3203125
8.413163423538208,10485.9404296875,12986.1796875,12566.4697265625,-400000.0625,-400000.0625,-400000.0625,-400000.0625,-10589.5498046875
8.427978992462158,10462.1904296875,12960.91015625,12533.900390625,-400000.0625,-400000.0625,-400000.0625,-400000.0625,-10608.099609375
8.448207378387451,10477.830078125,12932.400390625,12517.169921875,-400000.0625,-400000.0625,-400000.0625,-400000.0625,-10621.740234375
8.461580038070679,10466.580078125,12959.669921875,12540.91015625,-400000.0625,-400000.0625,-400000.0625,-400000.0625,-10610.76953125
8.476921081542969,10462.0498046875,12970.740234375,12551.740234375,-400000.0625,-400000.0625,-400000.0625,-400000.0625,-10599.1904296875
8.486431121826172,10463.0,12965.8701171875,12533.08984375,-400000.0625,-400000.0625,-400000.0625,-400000.0625,-10604.099609375
8.497541189193726,10471.3896484375,12948.3203125,12510.2099609375,-400000.0625,-400000.0625,-400000.0625,-400000.0625,-10613.919921875
8.509261846542358,10501.33984375,12938.259765625,12500.6201171875,-400000.0625,-400000.0625,-400000.0625,-400000.0625,-10616.830078125
8.522077322006226,10473.8701171875,12960.6298828125,12520.650390625,-400000.0625,-400000.0625,-400000.0625,-400000.0625,-10606.33984375
8.534517765045166,10452.4599609375,12963.490234375,12528.7099609375,-400000.0625,-400000.0625,-400000.0625,-400000.0625,-10598.08984375
8.556304216384888,10449.83984375,12968.259765625,12550.98046875,-400000.0625,-400000.0625,-400000.0625,-400000.0625,-10600.0400390625
8.568636417388916,10452.8896484375,12957.0498046875,12535.7197265625,-400000.0625,-400000.0625,-400000.0625,-400000.0625,-10607.33984375
8.57719111442566,10471.8701171875,12939.650390625,12508.73046875,-400000.0625,-400000.0625,-400000.0625,-400000.0625,-10612.580078125
8.588402271270752,10455.900390625,12943.4599609375,12522.080078125,-400000.0625,-400000.0625,-400000.0625,-400000.0625,-10601.4697265625
8.601773500442505,10446.83984375,12960.7197265625,12548.830078125,-400000.0625,-400000.0625,-400000.0625,-400000.0625,-10588.26953125
8.609983682632446,10447.169921875,12961.91015625,12531.7099609375,-400000.0625,-400000.0625,-400000.0625,-400000.0625,-10591.990234375
8.619995832443237,10474.8701171875,12932.73046875,12504.7197265625,-400000.0625,-400000.0625,-400000.0625,-400000.0625,-10606.33984375
8.629743337631226,10472.6796875,12937.5498046875,12510.1103515625,-400000.0625,-400000.0625,-400000.0625,-400000.0625,-10608.8203125
8.645875930786133,10449.2197265625,12950.6103515625,12533.48046875,-400000.0625,-400000.0625,-400000.0625,-400000.0625,-10598.849609375
8.660069465637207,10453.3701171875,12983.1298828125,12526.7001953125,-400000.0625,-400000.0625,-400000.0625,-400000.0625,-10588.41015625
8.672701835632324,10446.740234375,12966.009765625,12531.23046875,-400000.0625,-400000.0625,-400000.0625,-400000.0625,-10588.41015625
8.684044122695923,10442.1201171875,12951.6103515625,12529.51953125,-400000.0625,-400000.0625,-400000.0625,-400000.0625,-10593.4599609375
8.694854259490967,10456.2802734375,12937.0703125,12512.349609375,-400000.0625,-400000.0625,-400000.0625,-400000.0625,-10601.240234375
8.707221508026123,10446.9296875,12963.25,12519.740234375,-400000.0625,-400000.0625,-400000.0625,-400000.0625,-10597.5595703125
8.717040061950684,10440.2998046875,12976.5,12539.5302734375,-400000.0625,-400000.0625,-400000.0625,-400000.0625,-10589.0302734375
8.726884365081787,10465.5302734375,12952.2802734375,12524.9404296875,-400000.0625,-400000.0625,-400000.0625,-400000.0625,-10592.8896484375
8.745311260223389,10447.83984375,12939.98046875,12483.1201171875,-400000.0625,-400000.0625,-400000.0625,-400000.0625,-10603.7197265625
8.75780987739563,10456.7099609375,12937.01953125,12497.4697265625,-400000.0625,-400000.0625,-400000.0625,-400000.0625,-10612.490234375
8.771008491516113,10472.009765625,12949.990234375,12521.83984375,-400000.0625,-400000.0625,-400000.0625,-400000.0625,-10602.669921875
8.784087181091309,10463.1396484375,12969.7802734375,12541.2998046875,-400000.0625,-400000.0625,-400000.0625,-400000.0625,-10589.5498046875
8.794203281402588,10447.7900390625,12974.2197265625,12540.150390625,-400000.0625,-400000.0625,-400000.0625,-400000.0625,-10589.4599609375
8.808608770370483,10480.740234375,12945.3203125,12515.5,-400000.0625,-400000.0625,-400000.0625,-400000.0625,-10602.669921875
8.81978726387024,10470.25,12936.8798828125,12508.349609375,-400000.0625,-400000.0625,-400000.0625,-400000.0625,-10608.8701171875
8.830508947372437,10478.7802734375,12947.75,12521.75,-400000.0625,-400000.0625,-400000.0625,-400000.0625,-10594.66015625
8.851942300796509,10466.240234375,12978.4599609375,12550.3095703125,-400000.0625,-400000.0625,-400000.0625,-400000.0625,-10578.0595703125
8.868008852005005,10448.3095703125,12967.73046875,12536.7197265625,-400000.0625,-400000.0625,-400000.0625,-400000.0625,-10588.98046875
8.88499641418457,10459.0400390625,12943.1298828125,12509.2001953125,-400000.0625,-400000.0625,-400000.0625,-400000.0625,-10606.7197265625
8.894219636917114,10468.7197265625,12933.01953125,12498.2802734375,-400000.0625,-400000.0625,-400000.0625,-400000.0625,-10608.8701171875
8.903156757354736,10465.8095703125,12950.23046875,12513.16015625,-400000.0625,-400000.0625,-400000.0625,-400000.0625,-10597.330078125
8.9127357006073,10460.1904296875,12970.6396484375,12525.75,-400000.0625,-400000.0625,-400000.0625,-400000.0625,-10586.259765625
8.924930810928345,10433.8203125,12972.6904296875,12526.849609375,-400000.0625,-400000.0625,-400000.0625,-400000.0625,-10587.650390625
8.943577289581299,10439.58984375,12950.990234375,12502.240234375,-400000.0625,-400000.0625,-400000.0625,-400000.0625,-10600.900390625
8.955606937408447,10465.8095703125,12949.75,12510.349609375,-400000.0625,-400000.0625,-400000.0625,-400000.0625,-10606.33984375
8.963488817214966,10443.9296875,12944.650390625,12516.2099609375,-400000.0625,-400000.0625,-400000.0625,-400000.0625,-10596.6103515625
8.978654623031616,10455.5595703125,12956.5703125,12529.7998046875,-400000.0625,-400000.0625,-400000.0625,-400000.0625,-10586.9296875
8.99465537071228,10436.73046875,12960.2001953125,12533.5703125,-400000.0625,-400000.0625,-400000.0625,-400000.0625,-10590.98046875
9.005641222000122,10452.4599609375,12938.740234375,12513.58984375,-400000.0625,-400000.0625,-400000.0625,-400000.0625,-10601.51953125
9.012096166610718,10466.91015625,12934.8798828125,12505.6796875,-400000.0625,-400000.0625,-400000.0625,-400000.0625,-10604.7197265625
9.02564525604248,10436.490234375,12958.2900390625,12527.1796875,-400000.0625,-400000.0625,-400000.0625,-400000.0625,-10594.5595703125
9.045819997787476,10453.650390625,12981.080078125,12548.0703125,-400000.0625,-400000.0625,-400000.0625,-400000.0625,-10579.7802734375
9.057183027267456,10442.6396484375,12979.83984375,12547.6396484375,-400000.0625,-400000.0625,-400000.0625,-400000.0625,-10577.3896484375
9.065995216369629,10439.8701171875,12937.5498046875,12503.6298828125,-400000.0625,-400000.0625,-400000.0625,-400000.0625,-10601.8095703125
9.076565504074097,10442.6396484375,12927.6796875,12487.2197265625,-400000.0625,-400000.0625,-400000.0625,-400000.0625,-10609.8701171875
9.088106155395508,10448.41015625,12937.8798828125,12512.400390625,-400000.0625,-400000.0625,-400000.0625,-400000.0625,-10602.51953125
9.095359802246094,10448.5498046875,12943.7001953125,12526.3203125,-400000.0625,-400000.0625,-400000.0625,-400000.0625,-10592.990234375
9.10569167137146,10424.5703125,12959.4296875,12522.599609375,-400000.0625,-400000.0625,-400000.0625,-400000.0625,-10595.990234375
9.113085985183716,10441.919921875,12954.4296875,12507.73046875,-400000.0625,-400000.0625,-400000.0625,-400000.0625,-10601.7099609375
9.125767946243286,10443.6904296875,12935.1201171875,12503.6298828125,-400000.0625,-400000.0625,-400000.0625,-400000.0625,-10604.2900390625
9.135241031646729,10442.7802734375,12942.1201171875,12504.150390625,-400000.0625,-400000.0625,-400000.0625,-400000.0625,-10598.51953125
9.145822763442993,10445.4501953125,12958.4296875,12498.759765625,-400000.0625,-400000.0625,-400000.0625,-400000.0625,-10592.0302734375
9.154966831207275,10443.400390625,12949.6103515625,12498.759765625,-400000.0625,-400000.0625,-400000.0625,-400000.0625,-10597.990234375
9.165580749511719,10462.330078125,12918.3798828125,12481.830078125,-400000.0625,-400000.0625,-400000.0625,-400000.0625,-10611.580078125
9.172502040863037,10446.5,12897.919921875,12489.080078125,-400000.0625,-400000.0625,-400000.0625,-400000.0625,-10619.4501953125
9.178162336349487,10440.01953125,12915.2802734375,12499.6201171875,-400000.0625,-400000.0625,-400000.0625,-400000.0625,-10608.8203125
9.190841674804688,10436.349609375,12964.6298828125,12516.01953125,-400000.0625,-400000.0625,-400000.0625,-400000.0625,-10590.169921875
9.199257850646973,10454.7001953125,12964.2001953125,12514.0703125,-400000.0625,-400000.0625,-400000.0625,-400000.0625,-10595.3701171875
9.210360288619995,10449.7001953125,12919.0498046875,12470.150390625,-400000.0625,-400000.0625,-400000.0625,-400000.0625,-10619.259765625
9.221413612365723,10429.7197265625,12908.650390625,12463.7099609375,-400000.0625,-400000.0625,-400000.0625,-400000.0625,-10624.740234375
9.229013681411743,10420.900390625,12925.33984375,12488.080078125,-400000.0625,-400000.0625,-400000.0625,-400000.0625,-10609.33984375
9.242769241333008,10430.33984375,12939.740234375,12507.8203125,-400000.0625,-400000.0625,-400000.0625,-400000.0625,-10597.5595703125
9.25311541557312,10438.9697265625,12946.849609375,12508.2998046875,-400000.0625,-400000.0625,-400000.0625,-400000.0625,-10599.8095703125
9.26042127609253,10428.9501953125,12928.3896484375,12478.830078125,-400000.0625,-400000.0625,-400000.0625,-400000.0625,-10610.3896484375
9.27045750617981,10430.150390625,12905.2197265625,12459.5703125,-400000.0625,-400000.0625,-400000.0625,-400000.0625,-10613.25
9.284842252731323,10442.9697265625,12928.0595703125,12495.66015625,-400000.0625,-400000.0625,-400000.0625,-400000.0625,-10605.9599609375
9.292761325836182,10443.3095703125,12962.9599609375,12523.509765625,-400000.0625,-400000.0625,-400000.0625,-400000.0625,-10592.0302734375
9.303058385848999,10417.2197265625,12940.0703125,12506.580078125,-400000.0625,-400000.0625,-400000.0625,-400000.0625,-10596.7998046875
9.313451051712036,10426.7099609375,12909.7001953125,12473.8203125,-400000.0625,-400000.0625,-400000.0625,-400000.0625,-10609.2001953125
9.328247785568237,10438.6298828125,12907.7001953125,12470.0595703125,-400000.0625,-400000.0625,-400000.0625,-400000.0625,-10606.240234375
9.343758583068848,10424.900390625,12930.2001953125,12494.3701171875,-400000.0625,-400000.0625,-400000.0625,-400000.0625,-10597.5595703125
9.353923797607422,10420.0400390625,12940.3095703125,12488.3203125,-400000.0625,-400000.0625,-400000.0625,-400000.0625,-10600.6201171875
9.360549449920654,10405.73046875,12927.580078125,12473.490234375,-400000.0625,-400000.0625,-400000.0625,-400000.0625,-10604.099609375
9.371733903884888,10405.2998046875,12913.3701171875,12470.6796875,-400000.0625,-400000.0625,-400000.0625,-400000.0625,-10613.9697265625
9.383835315704346,10431.099609375,12908.9404296875,12474.919921875,-400000.0625,-400000.0625,-400000.0625,-400000.0625,-10619.6904296875
9.39463186264038,10434.150390625,12928.150390625,12488.1796875,-400000.0625,-400000.0625,-400000.0625,-400000.0625,-10608.2001953125
9.409403800964355,10421.1796875,12951.9501953125,12502.0498046875,-400000.0625,-400000.0625,-400000.0625,-400000.0625,-10595.23046875
9.418692588806152,10407.9697265625,12927.8203125,12489.8896484375,-400000.0625,-400000.0625,-400000.0625,-400000.0625,-10599.1904296875
9.427203893661499,10414.650390625,12899.830078125,12466.3798828125,-400000.0625,-400000.0625,-400000.0625,-400000.0625,-10609.91015625
9.44282341003418,10435.2998046875,12896.8701171875,12467.91015625,-400000.0625,-400000.0625,-400000.0625,-400000.0625,-10608.8701171875
9.453411340713501,10431.5302734375,12922.669921875,12486.8896484375,-400000.0625,-400000.0625,-400000.0625,-400000.0625,-10600.900390625
9.461436986923218,10409.4501953125,12946.080078125,12499.669921875,-400000.0625,-400000.0625,-400000.0625,-400000.0625,-10592.26953125
9.47062611579895,10439.2998046875,12929.8701171875,12486.3603515625,-400000.0625,-400000.0625,-400000.0625,-400000.0625,-10595.75
9.476521730422974,10418.990234375,12913.6103515625,12466.8095703125,-400000.0625,-400000.0625,-400000.0625,-400000.0625,-10601.08984375
9.49096131324768,10422.0400390625,12925.91015625,12474.2001953125,-400000.0625,-400000.0625,-400000.0625,-400000.0625,-10592.75
9.504010200500488,10430.5302734375,12946.080078125,12500.7197265625,-400000.0625,-400000.0625,-400000.0625,-400000.0625,-10587.259765625
9.520675659179688,10426.4697265625,12953.66015625,12516.400390625,-400000.0625,-400000.0625,-400000.0625,-400000.0625,-10587.98046875
9.527735233306885,10412.98046875,12937.5,12494.759765625,-400000.0625,-400000.0625,-400000.0625,-400000.0625,-10598.1396484375
9.54464316368103,10408.2099609375,12908.599609375,12468.8603515625,-400000.0625,-400000.0625,-400000.0625,-400000.0625,-10610.3896484375
9.559524059295654,10428.1904296875,12912.23046875,12469.099609375,-400000.0625,-400000.0625,-400000.0625,-400000.0625,-10607.2900390625
9.571313619613647,10429.5302734375,12934.919921875,12492.5595703125,-400000.0625,-400000.0625,-400000.0625,-400000.0625,-10596.08984375
9.57814645767212,10414.98046875,12937.259765625,12509.16015625,-400000.0625,-400000.0625,-400000.0625,-400000.0625,-10588.3603515625
9.592116117477417,10416.080078125,12922.2900390625,12496.66015625,-400000.0625,-400000.0625,-400000.0625,-400000.0625,-10593.8896484375
9.611658573150635,10414.650390625,12912.419921875,12460.23046875,-400000.0625,-400000.0625,-400000.0625,-400000.0625,-10603.0498046875
9.622315406799316,10414.26953125,12906.650390625,12458.2802734375,-400000.0625,-400000.0625,-400000.0625,-400000.0625,-10605.669921875
9.64267611503601,10436.6796875,12938.7900390625,12489.6103515625,-400000.0625,-400000.0625,-400000.0625,-400000.0625,-10599.900390625
9.659424304962158,10427.669921875,12956.0498046875,12515.01953125,-400000.0625,-400000.0625,-400000.0625,-400000.0625,-10588.3603515625
9.671533584594727,10417.3203125,12943.1298828125,12500.48046875,-400000.0625,-400000.0625,-400000.0625,-400000.0625,-10591.7001953125
9.681777715682983,10420.990234375,12915.849609375,12471.9599609375,-400000.0625,-400000.0625,-400000.0625,-400000.0625,-10604.91015625
9.689918994903564,10431.2001953125,12917.9501953125,12449.7900390625,-400000.0625,-400000.0625,-400000.0625,-400000.0625,-10603.7197265625
9.703807830810547,10413.3095703125,12945.080078125,12483.0302734375,-400000.0625,-400000.0625,-400000.0625,-400000.0625,-10583.9296875
9.712730169296265,10393.0498046875,12950.3701171875,12509.8701171875,-400000.0625,-400000.0625,-400000.0625,-400000.0625,-10586.1201171875
9.721740961074829,10385.66015625,12926.76953125,12503.0498046875,-400000.0625,-400000.0625,-400000.0625,-400000.0625,-10601.0
9.741357326507568,10397.8203125,12910.419921875,12473.73046875,-400000.0625,-400000.0625,-400000.0625,-400000.0625,-10613.919921875
9.755825281143188,10420.1298828125,12895.2998046875,12461.1396484375,-400000.0625,-400000.0625,-400000.0625,-400000.0625,-10616.1103515625
9.763399362564087,10428.9501953125,12916.759765625,12475.16015625,-400000.0625,-400000.0625,-400000.0625,-400000.0625,-10607.0498046875
9.771595001220703,10402.6796875,12946.080078125,12501.2900390625,-400000.0625,-400000.0625,-400000.0625,-400000.0625,-10592.5595703125
9.778172492980957,10388.1796875,12940.7900390625,12490.7998046875,-400000.0625,-400000.0625,-400000.0625,-400000.0625,-10597.3701171875
9.78861141204834,10387.7099609375,12920.669921875,12447.98046875,-400000.0625,-400000.0625,-400000.0625,-400000.0625,-10608.8203125
9.804934024810791,10392.7099609375,12900.0703125,12450.5498046875,-400000.0625,-400000.0625,-400000.0625,-400000.0625,-10617.7802734375
9.81256628036499,10402.490234375,12923.6201171875,12484.83984375,-400000.0625,-400000.0625,-400000.0625,-400000.0625,-10604.48046875
9.829638004302979,10399.8701171875,12952.849609375,12507.2998046875,-400000.0625,-400000.0625,-400000.0625,-400000.0625,-10592.2197265625
9.849679231643677,10393.91015625,12935.8798828125,12500.91015625,-400000.0625,-400000.0625,-400000.0625,-400000.0625,-10595.4697265625
9.85626220703125,10389.3798828125,12910.990234375,12473.5400390625,-400000.0625,-400000.0625,-400000.0625,-400000.0625,-10606.240234375
9.862781524658203,10403.6796875,12913.66015625,12452.8896484375,-400000.0625,-400000.0625,-400000.0625,-400000.0625,-10608.7197265625
9.875658750534058,10410.599609375,12924.240234375,12470.8203125,-400000.0625,-400000.0625,-400000.0625,-400000.0625,-10598.6103515625
9.890422582626343,10384.7998046875,12942.98046875,12498.669921875,-400000.0625,-400000.0625,-400000.0625,-400000.0625,-10590.650390625
9.902536630630493,10396.2001953125,12939.5,12496.6201171875,-400000.0625,-400000.0625,-400000.0625,-400000.0625,-10596.6103515625
9.911134719848633,10394.6201171875,12898.6396484375,12464.240234375,-400000.0625,-400000.0625,-400000.0625,-400000.0625,-10606.8095703125
9.922088384628296,10377.650390625,12863.349609375,12445.259765625,-400000.0625,-400000.0625,-400000.0625,-400000.0625,-10608.91015625
9.931965112686157,10374.2099609375,12873.7900390625,12461.23046875,-400000.0625,-400000.0625,-400000.0625,-400000.0625,-10607.9599609375
9.94761061668396,10405.6396484375,12917.419921875,12484.3095703125,-400000.0625,-400000.0625,-400000.0625,-400000.0625,-10599.1396484375
9.958393812179565,10424.900390625,12901.9296875,12466.8603515625,-400000.0625,-400000.0625,-400000.0625,-400000.0625,-10590.41015625
9.97149920463562,10437.1103515625,12854.150390625,12426.66015625,-400000.0625,-400000.0625,-400000.0625,-400000.0625,-10609.2900390625
9.977590322494507,10432.150390625,12794.2099609375,12405.830078125,-400000.0625,-400000.0625,-400000.0625,-400000.0625,-10624.0302734375
9.986814737319946,10418.3701171875,12802.4599609375,12403.8203125,-400000.0625,-400000.0625,-400000.0625,-400000.0625,-10617.1103515625
10.001032590866089,10416.8896484375,12828.259765625,12414.41015625,-400000.0625,-400000.0625,-400000.0625,-400000.0625,-10599.66015625
10.008324384689331,10390.66015625,12801.7001953125,12393.8603515625,-400000.0625,-400000.0625,-400000.0625,-400000.0625,-10601.4296875
10.020204067230225,10394.0498046875,12789.2998046875,12382.7001953125,-400000.0625,-400000.0625,-400000.0625,-400000.0625,-10606.33984375
10.029563665390015,10402.349609375,12759.73046875,12368.490234375,-400000.0625,-400000.0625,-400000.0625,-400000.0625,-10607.4296875
10.045829772949219,10386.2802734375,12771.3203125,12404.009765625,-400000.0625,-400000.0625,-400000.0625,-400000.0625,-10596.1796875
10.060754776000977,10403.58984375,12799.0703125,12418.6103515625,-400000.0625,-400000.0625,-400000.0625,-400000.0625,-10578.919921875
10.071524143218994,10396.2900390625,12777.900390625,12396.9599609375,-400000.0625,-400000.0625,-400000.0625,-400000.0625,-10588.599609375
10.078236103057861,10393.2900390625,12748.6201171875,12365.2900390625,-400000.0625,-400000.0625,-400000.0625,-400000.0625,-10604.33984375
10.087788820266724,10401.8701171875,12737.080078125,12362.099609375,-400000.0625,-400000.0625,-400000.0625,-400000.0625,-10606.6201171875
10.101853609085083,10383.1298828125,12764.7900390625,12384.849609375,-400000.0625,-400000.0625,-400000.0625,-400000.0625,-10596.4697265625
10.109753131866455,10381.4599609375,12792.1103515625,12410.3603515625,-400000.0625,-400000.0625,-400000.0625,-400000.0625,-10586.599609375
10.11834168434143,10377.740234375,12784.8203125,12408.4501953125,-400000.0625,-400000.0625,-400000.0625,-400000.0625,-10589.9296875
10.125172853469849,10376.740234375,12762.0703125,12380.8896484375,-400000.0625,-400000.0625,-400000.0625,-400000.0625,-10603.1396484375
10.140714406967163,10394.7197265625,12746.5302734375,12374.1201171875,-400000.0625,-400000.0625,-400000.0625,-400000.0625,-10606.1904296875
10.15373969078064,10409.400390625,12769.83984375,12390.759765625,-400000.0625,-400000.0625,-400000.0625,-400000.0625,-10589.98046875
10.163542032241821,10382.2197265625,12785.669921875,12399.009765625,-400000.0625,-400000.0625,-400000.0625,-400000.0625,-10590.9404296875
10.176581859588623,10375.01953125,12788.8203125,12398.150390625,-400000.0625,-400000.0625,-400000.0625,-400000.0625,-10600.2802734375
10.194004535675049,10387.849609375,12757.16015625,12375.0703125,-400000.0625,-400000.0625,-400000.0625,-400000.0625,-10613.919921875
10.20783257484436,10403.6298828125,12746.33984375,12358.669921875,-400000.0625,-400000.0625,-400000.0625,-400000.0625,-10615.8701171875
10.218321323394775,10393.6201171875,12772.3203125,12386.7998046875,-400000.0625,-400000.0625,-400000.0625,-400000.0625,-10602.51953125
10.226392269134521,10367.1103515625,12781.3798828125,12412.259765625,-400000.0625,-400000.0625,-400000.0625,-400000.0625,-10593.2197265625
10.245350122451782,10364.33984375,12769.4599609375,12409.259765625,-400000.0625,-400000.0625,-400000.0625,-400000.0625,-10599.7099609375
10.26195478439331,10376.1201171875,12757.73046875,12367.009765625,-400000.0625,-400000.0625,-400000.0625,-400000.0625,-10614.349609375
10.277819633483887,10376.98046875,12754.2998046875,12359.8095703125,-400000.0625,-400000.0625,-400000.0625,-400000.0625,-10617.16015625
10.289132595062256,10412.83984375,12767.509765625,12384.1298828125,-400000.0625,-400000.0625,-400000.0625,-400000.0625,-10612.349609375
10.302693128585815,10376.83984375,12794.5,12396.76953125,-400000.0625,-400000.0625,-400000.0625,-400000.0625,-10598.419921875
10.3116295337677,10371.58984375,12793.1103515625,12401.150390625,-400000.0625,-400000.0625,-400000.0625,-400000.0625,-10600.6201171875
10.327279806137085,10388.1396484375,12761.1201171875,12376.6904296875,-400000.0625,-400000.0625,-400000.0625,-400000.0625,-10614.490234375
10.343368768692017,10378.5498046875,12741.9501953125,12367.0595703125,-400000.0625,-400000.0625,-400000.0625,-400000.0625,-10618.58984375
10.35468077659607,10373.1201171875,12767.7900390625,12379.7001953125,-400000.0625,-400000.0625,-400000.0625,-400000.0625,-10613.919921875
10.365755081176758,10375.2099609375,12782.8095703125,12395.099609375,-400000.0625,-400000.0625,-400000.0625,-400000.0625,-10603.1396484375
10.372509479522705,10377.4599609375,12780.1396484375,12389.900390625,-400000.0625,-400000.0625,-400000.0625,-400000.0625,-10606.099609375
10.384745359420776,10391.0498046875,12767.0302734375,12370.4404296875,-400000.0625,-400000.0625,-400000.0625,-400000.0625,-10612.4404296875
10.39529800415039,10386.7099609375,12740.08984375,12355.6201171875,-400000.0625,-400000.0625,-400000.0625,-400000.0625,-10617.3095703125
10.405811548233032,10376.599609375,12756.490234375,12371.6796875,-400000.0625,-400000.0625,-400000.0625,-400000.0625,-10619.3095703125
10.42020583152771,10359.4296875,12776.900390625,12397.91015625,-400000.0625,-400000.0625,-400000.0625,-400000.0625,-10615.2099609375
10.427882432937622,10371.830078125,12761.8798828125,12386.4697265625,-400000.0625,-400000.0625,-400000.0625,-400000.0625,-10619.6904296875
10.442573070526123,10384.9404296875,12743.1396484375,12350.66015625,-400000.0625,-400000.0625,-400000.0625,-400000.0625,-10627.2197265625
10.454052448272705,10395.4296875,12736.5595703125,12341.0703125,-400000.0625,-400000.0625,-400000.0625,-400000.0625,-10628.990234375
10.465207815170288,10361.76953125,12770.3203125,12371.73046875,-400000.0625,-400000.0625,-400000.0625,-400000.0625,-10616.58984375
10.47505807876587,10355.0400390625,12802.169921875,12390.849609375,-400000.0625,-400000.0625,-400000.0625,-400000.0625,-10606.6201171875
10.490164756774902,10360.3896484375,12768.3203125,12385.7998046875,-400000.0625,-400000.0625,-400000.0625,-400000.0625,-10609.91015625
10.49655032157898,10368.7802734375,12693.599609375,12343.8798828125,-400000.0625,-400000.0625,-400000.0625,-400000.0625,-10635.900390625
10.51078724861145,10365.8701171875,12717.1103515625,12350.3203125,-400000.0625,-400000.0625,-400000.0625,-400000.0625,-10632.849609375
10.522347211837769,10360.0,12760.2099609375,12368.73046875,-400000.0625,-400000.0625,-400000.0625,-400000.0625,-10609.4404296875
10.54241156578064,10352.1396484375,12804.1796875,12411.1201171875,-400000.0625,-400000.0625,-400000.0625,-400000.0625,-10595.66015625
10.556527853012085,10348.3701171875,12767.41015625,12395.33984375,-400000.0625,-400000.0625,-400000.0625,-400000.0625,-10597.2802734375
10.570802450180054,10355.51953125,12754.919921875,12386.0400390625,-400000.0625,-400000.0625,-400000.0625,-400000.0625,-10606.76953125
10.581972122192383,10350.6103515625,12761.5498046875,12389.419921875,-400000.0625,-400000.0625,-400000.0625,-400000.0625,-10589.3095703125
10.592471837997437,10312.4599609375,12778.5703125,12405.830078125,-400000.0625,-400000.0625,-400000.0625,-400000.0625,-10579.73046875
10.604211807250977,10296.73046875,12798.169921875,12433.0498046875,-400000.0625,-400000.0625,-400000.0625,-400000.0625,-10580.4501953125
10.617615222930908,10289.6201171875,12792.400390625,12421.23046875,-400000.0625,-400000.0625,-400000.0625,-400000.0625,-10588.41015625
10.627306461334229,10270.2197265625,12784.0498046875,12406.259765625,-400000.0625,-400000.0625,-400000.0625,-400000.0625,-10590.1298828125
10.642900228500366,10283.2802734375,12773.990234375,12415.8896484375,-400000.0625,-400000.0625,-400000.0625,-400000.0625,-10587.41015625
10.650830030441284,10286.759765625,12821.0595703125,12449.3095703125,-400000.0625,-400000.0625,-400000.0625,-400000.0625,-10579.830078125
10.659814596176147,10275.26953125,12855.8701171875,12466.099609375,-400000.0625,-400000.0625,-400000.0625,-400000.0625,-10567.240234375
10.671597480773926,10272.41015625,12833.9296875,12456.9404296875,-400000.0625,-400000.0625,-400000.0625,-400000.0625,-10573.7197265625
10.678781270980835,10270.7900390625,12789.6796875,12428.759765625,-400000.0625,-400000.0625,-400000.0625,-400000.0625,-10587.7900390625
10.68839955329895,10266.01953125,12763.259765625,12411.3603515625,-400000.0625,-400000.0625,-400000.0625,-400000.0625,-10590.1298828125
10.695467710494995,10247.990234375,12790.009765625,12423.900390625,-400000.0625,-400000.0625,-400000.0625,-400000.0625,-10583.8798828125
10.7078218460083,10256.009765625,12823.73046875,12450.650390625,-400000.0625,-400000.0625,-400000.0625,-400000.0625,-10572.76953125
10.718820571899414,10266.7802734375,12831.16015625,12449.2197265625,-400000.0625,-400000.0625,-400000.0625,-400000.0625,-10574.6298828125
10.729079961776733,10261.919921875,12798.4501953125,12425.9501953125,-400000.0625,-400000.0625,-400000.0625,-400000.0625,-10591.509765625
10.749343633651733,10267.0703125,12789.6796875,12421.419921875,-400000.0625,-400000.0625,-400000.0625,-400000.0625,-10596.23046875
10.755870342254639,10282.4697265625,12812.2802734375,12456.900390625,-400000.0625,-400000.0625,-400000.0625,-400000.0625,-10582.16015625
10.76862359046936,10272.6904296875,12841.5595703125,12463.4296875,-400000.0625,-400000.0625,-400000.0625,-400000.0625,-10570.0
10.779845952987671,10258.9599609375,12822.33984375,12452.650390625,-400000.0625,-400000.0625,-400000.0625,-400000.0625,-10585.9296875
10.793012619018555,10266.830078125,12786.490234375,12418.26953125,-400000.0625,-400000.0625,-400000.0625,-400000.0625,-10604.759765625
10.806118726730347,10272.41015625,12778.900390625,12407.4501953125,-400000.0625,-400000.0625,-400000.0625,-400000.0625,-10605.1904296875
10.812913417816162,10245.7099609375,12807.66015625,12431.8095703125,-400000.0625,-400000.0625,-400000.0625,-400000.0625,-10591.26953125
10.821842193603516,10258.2900390625,12842.9404296875,12455.990234375,-400000.0625,-400000.0625,-400000.0625,-400000.0625,-10577.25
10.828234195709229,10263.5400390625,12842.7001953125,12453.4599609375,-400000.0625,-400000.0625,-400000.0625,-400000.0625,-10578.73046875
10.845656394958496,10273.080078125,12807.5595703125,12431.580078125,-400000.0625,-400000.0625,-400000.0625,-400000.0625,-10591.3203125
10.855965614318848,10272.3603515625,12797.6396484375,12425.3798828125,-400000.0625,-400000.0625,-400000.0625,-400000.0625,-10595.23046875
10.86376428604126,10272.0703125,12820.580078125,12439.2001953125,-400000.0625,-400000.0625,-400000.0625,-400000.0625,-10583.5
10.87403678894043,10262.4404296875,12845.4697265625,12465.91015625,-400000.0625,-400000.0625,-400000.0625,-400000.0625,-10572.2900390625
10.886605262756348,10261.4404296875,12831.1201171875,12448.599609375,-400000.0625,-400000.0625,-400000.0625,-400000.0625,-10580.349609375
10.900679349899292,10255.3896484375,12800.3603515625,12432.580078125,-400000.0625,-400000.0625,-400000.0625,-400000.0625,-10592.8896484375
10.912458896636963,10268.400390625,12788.33984375,12423.419921875,-400000.0625,-400000.0625,-400000.0625,-400000.0625,-10592.26953125
10.924674272537231,10274.83984375,12805.990234375,12445.01953125,-400000.0625,-400000.0625,-400000.0625,-400000.0625,-10580.830078125
10.942370891571045,10249.0,12834.7900390625,12458.0400390625,-400000.0625,-400000.0625,-400000.0625,-400000.0625,-10572.7197265625
10.95361614227295,10263.5400390625,12832.9296875,12448.4599609375,-400000.0625,-400000.0625,-400000.0625,-400000.0625,-10578.4404296875
10.962976455688477,10264.25,12812.4296875,12432.91015625,-400000.0625,-400000.0625,-400000.0625,-400000.0625,-10590.509765625
10.973875999450684,10268.6904296875,12805.990234375,12417.5595703125,-400000.0625,-400000.0625,-400000.0625,-400000.0625,-10586.599609375
10.981511354446411,10245.75,12831.58984375,12447.6396484375,-400000.0625,-400000.0625,-400000.0625,-400000.0625,-10571.0498046875
10.990657091140747,10236.7900390625,12840.7998046875,12469.3896484375,-400000.0625,-400000.0625,-400000.0625,-400000.0625,-10575.490234375
11.000842332839966,10260.8701171875,12817.76953125,12443.5400390625,-400000.0625,-400000.0625,-400000.0625,-400000.0625,-10589.3095703125
11.01236891746521,10263.9697265625,12790.73046875,12409.740234375,-400000.0625,-400000.0625,-400000.0625,-400000.0625,-10602.759765625
11.023354530334473,10249.0400390625,12794.16015625,12422.3203125,-400000.0625,-400000.0625,-400000.0625,-400000.0625,-10599.900390625
11.035001516342163,10236.599609375,12809.1796875,12436.5302734375,-400000.0625,-400000.0625,-400000.0625,-400000.0625,-10589.1201171875
11.051677227020264,10233.7802734375,12824.6298828125,12443.6396484375,-400000.0625,-400000.0625,-400000.0625,-400000.0625,-10579.400390625
11.062814712524414,10241.8896484375,12820.4404296875,12458.1396484375,-400000.0625,-400000.0625,-400000.0625,-400000.0625,-10582.830078125
11.076842784881592,10258.150390625,12792.73046875,12429.1396484375,-400000.0625,-400000.0625,-400000.0625,-400000.0625,-10594.1298828125
11.087955713272095,10257.8203125,12783.5302734375,12410.98046875,-400000.0625,-400000.0625,-400000.0625,-400000.0625,-10599.1396484375
11.095452547073364,10252.669921875,12803.509765625,12430.6201171875,-400000.0625,-400000.0625,-400000.0625,-400000.0625,-10587.7900390625
11.103062868118286,10251.9501953125,12827.73046875,12454.509765625,-400000.0625,-400000.0625,-400000.0625,-400000.0625,-10576.8203125
11.114937782287598,10209.419921875,12827.349609375,12453.9404296875,-400000.0625,-400000.0625,-400000.0625,-400000.0625,-10577.7802734375
11.125278234481812,10220.8095703125,12793.01953125,12417.599609375,-400000.0625,-400000.0625,-400000.0625,-400000.0625,-10592.650390625
11.14175295829773,10251.3798828125,12770.6103515625,12388.4697265625,-400000.0625,-400000.0625,-400000.0625,-400000.0625,-10602.900390625
11.156856298446655,10266.259765625,12773.990234375,12407.349609375,-400000.0625,-400000.0625,-400000.0625,-400000.0625,-10598.6103515625
11.167997598648071,10280.419921875,12801.2197265625,12434.25,-400000.0625,-400000.0625,-400000.0625,-400000.0625,-10575.5302734375
11.178905725479126,10279.3701171875,12811.9501953125,12428.7099609375,-400000.0625,-400000.0625,-400000.0625,-400000.0625,-10571.0498046875
11.191744804382324,10281.66015625,12775.5703125,12397.48046875,-400000.0625,-400000.0625,-400000.0625,-400000.0625,-10596.5595703125
11.199426174163818,10287.8095703125,12752.2001953125,12378.6904296875,-400000.0625,-400000.0625,-400000.0625,-400000.0625,-10609.8203125
11.211493492126465,10287.8095703125,12767.9404296875,12381.83984375,-400000.0625,-400000.0625,-400000.0625,-400000.0625,-10600.1904296875
11.221595287322998,10285.900390625,12793.1103515625,12411.740234375,-400000.0625,-400000.0625,-400000.0625,-400000.0625,-10591.599609375
11.23173999786377,10288.759765625,12777.1396484375,12403.6796875,-400000.0625,-400000.0625,-400000.0625,-400000.0625,-10599.7099609375
11.244468212127686,10273.4599609375,12749.8203125,12367.6796875,-400000.0625,-400000.0625,-400000.0625,-400000.0625,-10610.919921875
11.257153034210205,10265.490234375,12735.080078125,12365.76953125,-400000.0625,-400000.0625,-400000.0625,-400000.0625,-10613.58984375
11.264919519424438,10254.099609375,12764.650390625,12391.0,-400000.0625,-400000.0625,-400000.0625,-400000.0625,-10601.1904296875
11.278231620788574,10274.7001953125,12796.98046875,12417.83984375,-400000.0625,-400000.0625,-400000.0625,-400000.0625,-10583.58984375
11.290895223617554,10291.91015625,12777.0,12403.349609375,-400000.0625,-400000.0625,-400000.0625,-400000.0625,-10592.7998046875
11.298832178115845,10282.1796875,12735.75,12374.2099609375,-400000.0625,-400000.0625,-400000.0625,-400000.0625,-10604.7197265625
11.311348915100098,10273.650390625,12741.4697265625,12360.8603515625,-400000.0625,-400000.0625,-400000.0625,-400000.0625,-10608.7197265625
11.324382781982422,10278.509765625,12772.3701171875,12381.4599609375,-400000.0625,-400000.0625,-400000.0625,-400000.0625,-10601.0
11.335204124450684,10275.75,12797.5,12409.4501953125,-400000.0625,-400000.0625,-400000.0625,-400000.0625,-10590.3203125
11.379514694213867,10177.900390625,12564.23046875,12002.330078125,-400000.0625,-400000.0625,-400000.0625,-400000.0625,-10744.8095703125
11.484012603759766,10170.8896484375,12589.83984375,12022.4501953125,-400000.0625,-400000.0625,-400000.0625,-400000.0625,-10735.4697265625
11.506921768188477,10168.83984375,12597.6103515625,12044.33984375,-400000.0625,-400000.0625,-400000.0625,-400000.0625,-10735.1298828125
11.574212074279785,10144.1396484375,12586.599609375,12029.080078125,-400000.0625,-400000.0625,-400000.0625,-400000.0625,-10741.1396484375
11.822246313095093,10143.3798828125,12640.0498046875,12064.8896484375,-400000.0625,-400000.0625,-400000.0625,-400000.0625,-10718.6298828125
11.889944553375244,10151.91015625,12592.9404296875,12030.9404296875,-400000.0625,-400000.0625,-400000.0625,-400000.0625,-10732.41015625
11.969137191772461,10133.7900390625,12599.66015625,12022.400390625,-400000.0625,-400000.0625,-400000.0625,-400000.0625,-10729.0302734375
12.08199691772461,10138.3701171875,12567.3798828125,11984.0595703125,-400000.0625,-400000.0625,-400000.0625,-400000.0625,-10735.7998046875
12.149861097335815,10123.7802734375,12637.8095703125,12059.3095703125,-400000.0625,-400000.0625,-400000.0625,-400000.0625,-10720.349609375
12.21656060218811,10134.8896484375,12609.6298828125,12021.0703125,-400000.0625,-400000.0625,-400000.0625,-400000.0625,-10729.41015625
12.273444414138794,10156.3896484375,12602.8603515625,12015.150390625,-400000.0625,-400000.0625,-400000.0625,-400000.0625,-10729.5
12.337186098098755,10164.01953125,12582.9697265625,12001.66015625,-400000.0625,-400000.0625,-400000.0625,-400000.0625,-10725.4501953125
12.39834213256836,10139.849609375,12633.849609375,12044.8095703125,-400000.0625,-400000.0625,-400000.0625,-400000.0625,-10714.2900390625
12.48537564277649,10147.48046875,12629.5595703125,12038.900390625,-400000.0625,-400000.0625,-400000.0625,-400000.0625,-10715.33984375
12.590826272964478,10151.669921875,12564.4697265625,11990.740234375,-400000.0625,-400000.0625,-400000.0625,-400000.0625,-10732.7998046875
12.66795301437378,10168.9404296875,12619.3095703125,12041.1396484375,-400000.0625,-400000.0625,-400000.0625,-400000.0625,-10712.48046875
12.721853733062744,10163.2099609375,12618.2998046875,12036.0400390625,-400000.0625,-400000.0625,-400000.0625,-400000.0625,-10711.6201171875
12.78865385055542,10168.98046875,12621.0703125,12047.580078125,-400000.0625,-400000.0625,-400000.0625,-400000.0625,-10714.2900390625
12.982691526412964,10152.33984375,12539.669921875,11974.48046875,-400000.0625,-400000.0625,-400000.0625,-400000.0625,-10731.169921875
13.052700281143188,10178.5703125,12625.41015625,12040.08984375,-400000.0625,-400000.0625,-400000.0625,-400000.0625,-10702.9501953125
13.118041515350342,10168.509765625,12628.5595703125,12050.1103515625,-400000.0625,-400000.0625,-400000.0625,-400000.0625,-10701.9404296875
13.21688199043274,10155.8203125,12637.2802734375,12046.4296875,-400000.0625,-400000.0625,-400000.0625,-400000.0625,-10701.6103515625
13.231848239898682,10148.240234375,12538.48046875,11959.98046875,-400000.0625,-400000.0625,-400000.0625,-400000.0625,-10736.08984375
13.362973690032959,10154.9599609375,12591.7900390625,12004.8095703125,-400000.0625,-400000.0625,-400000.0625,-400000.0625,-10706.9501953125
13.422507762908936,10153.7197265625,12649.2001953125,12049.6298828125,-400000.0625,-400000.0625,-400000.0625,-400000.0625,-10690.8798828125
13.489185810089111,10144.66015625,12652.7802734375,12038.419921875,-400000.0625,-400000.0625,-400000.0625,-400000.0625,-10694.1201171875
13.562683343887329,10143.5703125,12568.6201171875,11963.3701171875,-400000.0625,-400000.0625,-400000.0625,-400000.0625,-10713.099609375
13.621671676635742,10146.0,12560.75,11954.259765625,-400000.0625,-400000.0625,-400000.0625,-400000.0625,-10722.1103515625
13.747569561004639,10137.7001953125,12660.3095703125,12043.759765625,-400000.0625,-400000.0625,-400000.0625,-400000.0625,-10694.8896484375
14.00037932395935,10149.5302734375,12611.0595703125,11993.3603515625,-400000.0625,-400000.0625,-400000.0625,-400000.0625,-10695.169921875
14.067932844161987,10137.75,12660.41015625,12018.16015625,-400000.0625,-400000.0625,-400000.0625,-400000.0625,-10684.919921875
14.132514476776123,10132.080078125,12612.5400390625,11980.8203125,-400000.0625,-400000.0625,-400000.0625,-400000.0625,-10705.0
14.21522068977356,10136.8896484375,12599.9501953125,11963.650390625,-400000.0625,-400000.0625,-400000.0625,-400000.0625,-10712.33984375
14.264008283615112,10137.6103515625,12614.3896484375,11981.8701171875,-400000.0625,-400000.0625,-400000.0625,-400000.0625,-10704.330078125
14.33396863937378,10148.48046875,12653.9697265625,12019.73046875,-400000.0625,-400000.0625,-400000.0625,-400000.0625,-10692.740234375
14.386486768722534,10134.8896484375,12659.26953125,12015.25,-400000.0625,-400000.0625,-400000.0625,-400000.0625,-10697.0302734375
14.510731935501099,10130.98046875,12613.8203125,11961.83984375,-400000.0625,-400000.0625,-400000.0625,-400000.0625,-10709.48046875
14.577970504760742,10140.08984375,12626.5498046875,11964.6103515625,-400000.0625,-400000.0625,-400000.0625,-400000.0625,-10708.330078125
14.638931035995483,10149.2900390625,12619.6904296875,11977.4404296875,-400000.0625,-400000.0625,-400000.0625,-400000.0625,-10708.1904296875
14.769975185394287,10256.099609375,12522.2197265625,11882.830078125,-400000.0625,-400000.0625,-400000.0625,-400000.0625,-10750.3896484375
14.833965301513672,10361.8203125,12427.5703125,11798.6201171875,-400000.0625,-400000.0625,-400000.0625,-400000.0625,-10794.5498046875
14.916593074798584,10343.9296875,12434.6298828125,11819.169921875,-400000.0625,-400000.0625,-400000.0625,-400000.0625,-10793.9697265625
15.024462223052979,10356.08984375,12497.0498046875,11884.3095703125,-400000.0625,-400000.0625,-400000.0625,-400000.0625,-10767.9404296875
15.088429689407349,10338.01953125,12430.6201171875,11827.5703125,-400000.0625,-400000.0625,-400000.0625,-400000.0625,-10790.7802734375
15.185059785842896,10332.349609375,12413.3603515625,11814.830078125,-400000.0625,-400000.0625,-400000.0625,-400000.0625,-10787.8701171875
15.217414855957031,10339.259765625,12418.4599609375,11823.080078125,-400000.0625,-400000.0625,-400000.0625,-400000.0625,-10779.240234375
15.292553901672363,10313.4599609375,12399.5302734375,11800.5302734375,-400000.0625,-400000.0625,-400000.0625,-400000.0625,-10786.009765625
15.343645572662354,10317.990234375,12491.3701171875,11883.16015625,-400000.0625,-400000.0625,-400000.0625,-400000.0625,-10753.3896484375
15.432295560836792,10326.099609375,12471.2998046875,11861.7998046875,-400000.0625,-400000.0625,-400000.0625,-400000.0625,-10761.259765625
15.489803791046143,10313.3203125,12401.33984375,11803.91015625,-400000.0625,-400000.0625,-400000.0625,-400000.0625,-10782.8603515625
15.536694049835205,10307.6904296875,12396.76953125,11804.3896484375,-400000.0625,-400000.0625,-400000.0625,-400000.0625,-10789.349609375
15.795517921447754,10306.0302734375,12373.7802734375,11799.76953125,-400000.0625,-400000.0625,-400000.0625,-400000.0625,-10795.4501953125
15.861438751220703,10289.5703125,12438.16015625,11851.98046875,-400000.0625,-400000.0625,-400000.0625,-400000.0625,-10776.2802734375
15.924207925796509,10295.33984375,12416.1298828125,11837.150390625,-400000.0625,-400000.0625,-400000.0625,-400000.0625,-10776.8095703125
15.987220048904419,10290.4296875,12442.73046875,11864.3798828125,-400000.0625,-400000.0625,-400000.0625,-400000.0625,-10775.0400390625
16.18778395652771,10294.33984375,12402.490234375,11853.4599609375,-400000.0625,-400000.0625,-400000.0625,-400000.0625,-10783.7197265625
16.24424695968628,10285.51953125,12409.01953125,11849.830078125,-400000.0625,-400000.0625,-400000.0625,-400000.0625,-10787.1103515625
16.31957983970642,10293.33984375,12333.0595703125,11802.3896484375,-400000.0625,-400000.0625,-400000.0625,-400000.0625,-10795.9296875
16.438098669052124,10260.580078125,12340.1201171875,11807.490234375,-400000.0625,-400000.0625,-400000.0625,-400000.0625,-10799.83984375
16.63354253768921,10281.2802734375,12424.3798828125,11896.990234375,-400000.0625,-400000.0625,-400000.0625,-400000.0625,-10780.2900390625
16.69305944442749,10273.1201171875,12340.740234375,11808.490234375,-400000.0625,-400000.0625,-400000.0625,-400000.0625,-10804.509765625
16.76806950569153,10265.400390625,12328.33984375,11808.0595703125,-400000.0625,-400000.0625,-400000.0625,-400000.0625,-10813.6201171875
16.81998920440674,10263.1103515625,12380.98046875,11847.9296875,-400000.0625,-400000.0625,-400000.0625,-400000.0625,-10795.830078125
16.882710456848145,10255.150390625,12423.900390625,11898.849609375,-400000.0625,-400000.0625,-400000.0625,-400000.0625,-10778.2900390625
16.942825078964233,10255.3896484375,12414.1201171875,11890.7001953125,-400000.0625,-400000.0625,-400000.0625,-400000.0625,-10782.8603515625
17.035433292388916,10261.6796875,12384.23046875,11862.7998046875,-400000.0625,-400000.0625,-400000.0625,-400000.0625,-10792.2099609375
17.13516116142273,10234.169921875,12317.419921875,11805.73046875,-400000.0625,-400000.0625,-400000.0625,-400000.0625,-10812.8095703125
17.206990003585815,10260.76953125,12415.0302734375,11895.9404296875,-400000.0625,-400000.0625,-400000.0625,-400000.0625,-10785.25
17.26839828491211,10263.490234375,12405.4404296875,11895.4697265625,-400000.0625,-400000.0625,-400000.0625,-400000.0625,-10780.2900390625
17.393267154693604,10245.3701171875,12349.3203125,11846.3095703125,-400000.0625,-400000.0625,-400000.0625,-400000.0625,-10798.5498046875
17.521738290786743,10236.3095703125,12396.0,11882.01953125,-400000.0625,-400000.0625,-400000.0625,-400000.0625,-10789.9697265625
17.584089040756226,10238.4599609375,12399.25,11874.6298828125,-400000.0625,-400000.0625,-400000.0625,-400000.0625,-10789.8203125
17.671054124832153,10252.0498046875,12302.5400390625,11791.23046875,-400000.0625,-400000.0625,-400000.0625,-400000.0625,-10821.6796875
17.77550745010376,10228.0595703125,12261.490234375,11777.0703125,-400000.0625,-400000.0625,-400000.0625,-400000.0625,-10832.0703125
17.843303680419922,10062.0302734375,12533.5703125,11970.1396484375,-400000.0625,-400000.0625,-400000.0625,-400000.0625,-10749.76953125
17.908320426940918,10065.650390625,12453.3701171875,11906.2900390625,-400000.0625,-400000.0625,-400000.0625,-400000.0625,-10781.669921875
17.966652631759644,10040.900390625,12528.849609375,11965.900390625,-400000.0625,-400000.0625,-400000.0625,-400000.0625,-10759.2099609375
18.09557867050171,10043.7197265625,12476.2099609375,11926.1298828125,-400000.0625,-400000.0625,-400000.0625,-400000.0625,-10768.6103515625
18.16748070716858,10040.08984375,12578.6796875,12014.8203125,-400000.0625,-400000.0625,-400000.0625,-400000.0625,-10732.83984375
18.36004662513733,10035.5595703125,12472.0595703125,11907.4404296875,-400000.0625,-400000.0625,-400000.0625,-400000.0625,-10764.599609375
18.673786878585815,10009.099609375,12486.169921875,11935.0,-400000.0625,-400000.0625,-400000.0625,-400000.0625,-10767.1298828125
18.738011121749878,10044.240234375,12569.8603515625,12008.099609375,-400000.0625,-400000.0625,-400000.0625,-400000.0625,-10733.4599609375
18.818294286727905,10043.1904296875,12597.66015625,12029.2197265625,-400000.0625,-400000.0625,-400000.0625,-400000.0625,-10727.4501953125
18.877751350402832,10034.6103515625,12592.9404296875,12022.6904296875,-400000.0625,-400000.0625,-400000.0625,-400000.0625,-10727.0302734375
18.934166431427002,10051.3896484375,12525.1796875,11955.3603515625,-400000.0625,-400000.0625,-400000.0625,-400000.0625,-10748.33984375
18.98951482772827,10052.2099609375,12503.580078125,11933.51953125,-400000.0625,-400000.0625,-400000.0625,-400000.0625,-10756.2099609375
19.12168788909912,10054.0595703125,12568.8603515625,11995.75,-400000.0625,-400000.0625,-400000.0625,-400000.0625,-10736.7998046875
19.26932144165039,10054.349609375,12523.7001953125,11970.0400390625,-400000.0625,-400000.0625,-400000.0625,-400000.0625,-10750.9599609375
19.31732988357544,10044.240234375,12481.740234375,11932.900390625,-400000.0625,-400000.0625,-400000.0625,-400000.0625,-10769.3701171875
19.5138041973114,10059.01953125,12482.0703125,11933.9501953125,-400000.0625,-400000.0625,-400000.0625,-400000.0625,-10771.1796875
19.607726573944092,10057.259765625,12539.099609375,11987.0703125,-400000.0625,-400000.0625,-400000.0625,-400000.0625,-10752.25
19.633167028427124,10062.3095703125,12467.240234375,11912.58984375,-400000.0625,-400000.0625,-400000.0625,-400000.0625,-10775.1396484375
19.716097831726074,10066.990234375,12487.3701171875,11936.1396484375,-400000.0625,-400000.0625,-400000.0625,-400000.0625,-10765.3603515625
19.825482845306396,10101.83984375,12483.2197265625,11942.099609375,-400000.0625,-400000.0625,-400000.0625,-400000.0625,-10765.83984375
19.888045072555542,10080.91015625,12489.7001953125,11936.6201171875,-400000.0625,-400000.0625,-400000.0625,-400000.0625,-10756.2998046875
19.95676898956299,10073.5703125,12439.400390625,11900.9501953125,-400000.0625,-400000.0625,-400000.0625,-400000.0625,-10771.23046875
20.085112810134888,10090.7802734375,12541.6796875,11991.599609375,-400000.0625,-400000.0625,-400000.0625,-400000.0625,-10738.419921875
20.218122243881226,10079.2900390625,12442.8798828125,11908.8701171875,-400000.0625,-400000.0625,-400000.0625,-400000.0625,-10769.7001953125
20.353161811828613,10076.9501953125,12538.33984375,11966.419921875,-400000.0625,-400000.0625,-400000.0625,-400000.0625,-10740.08984375
20.402087211608887,10072.419921875,12525.419921875,11970.1904296875,-400000.0625,-400000.0625,-400000.0625,-400000.0625,-10745.099609375
20.46709108352661,10057.16015625,12466.3798828125,11913.349609375,-400000.0625,-400000.0625,-400000.0625,-400000.0625,-10770.5595703125
20.61050772666931,10051.490234375,12456.900390625,11892.2197265625,-400000.0625,-400000.0625,-400000.0625,-400000.0625,-10766.9404296875
20.67558789253235,10071.23046875,12489.9404296875,11925.75,-400000.0625,-400000.0625,-400000.0625,-400000.0625,-10751.919921875
20.85235834121704,10047.5302734375,12476.58984375,11910.3896484375,-400000.0625,-400000.0625,-400000.0625,-400000.0625,-10759.6904296875
20.91981077194214,10071.9501953125,12463.48046875,11904.5302734375,-400000.0625,-400000.0625,-400000.0625,-400000.0625,-10759.9296875
20.98260998725891,10088.25,12499.8603515625,11929.6103515625,-400000.0625,-400000.0625,-400000.0625,-400000.0625,-10748.669921875
21.04481267929077,10067.0302734375,12524.3203125,11959.4599609375,-400000.0625,-400000.0625,-400000.0625,-400000.0625,-10738.08984375
21.103116512298584,10069.7099609375,12523.8896484375,11946.349609375,-400000.0625,-400000.0625,-400000.0625,-400000.0625,-10742.4296875
21.174237489700317,10062.8896484375,12499.0498046875,11929.3701171875,-400000.0625,-400000.0625,-400000.0625,-400000.0625,-10745.48046875
21.229334592819214,10053.16015625,12444.6904296875,11874.8701171875,-400000.0625,-400000.0625,-400000.0625,-400000.0625,-10760.9296875
21.31369638442993,10080.7197265625,12488.080078125,11916.4501953125,-400000.0625,-400000.0625,-400000.0625,-400000.0625,-10744.5703125
21.37275528907776,10058.3095703125,12525.419921875,11937.5703125,-400000.0625,-400000.0625,-400000.0625,-400000.0625,-10736.66015625
21.42765760421753,9975.6298828125,12712.3798828125,12068.4599609375,-400000.0625,-400000.0625,-400000.0625,-400000.0625,-10675.7197265625
21.485255479812622,9992.98046875,12735.9404296875,12103.6103515625,-400000.0625,-400000.0625,-400000.0625,-400000.0625,-10692.8798828125
21.622861623764038,10000.990234375,12708.9501953125,12062.0302734375,-400000.0625,-400000.0625,-400000.0625,-400000.0625,-10698.7001953125
21.67797875404358,10047.8701171875,12754.16015625,12103.419921875,-400000.0625,-400000.0625,-400000.0625,-400000.0625,-10689.6904296875
21.7455096244812,10074.6201171875,12735.509765625,12093.01953125,-400000.0625,-400000.0625,-400000.0625,-400000.0625,-10685.01953125
21.88475728034973,10083.8701171875,12731.8896484375,12082.33984375,-400000.0625,-400000.0625,-400000.0625,-400000.0625,-10689.3095703125
21.938921213150024,10063.0302734375,12703.75,12086.2998046875,-400000.0625,-400000.0625,-400000.0625,-400000.0625,-10684.2998046875
22.01810359954834,10082.6298828125,12739.3701171875,12130.830078125,-400000.0625,-400000.0625,-400000.0625,-400000.0625,-10681.2001953125
22.08279800415039,10105.6103515625,12720.400390625,12082.099609375,-400000.0625,-400000.0625,-400000.0625,-400000.0625,-10694.1201171875
22.1265389919281,10116.48046875,12671.759765625,12062.98046875,-400000.0625,-400000.0625,-400000.0625,-400000.0625,-10707.240234375
22.20525813102722,10181.5703125,12697.8896484375,12096.5498046875,-400000.0625,-400000.0625,-400000.0625,-400000.0625,-10689.16015625
22.28407311439514,10222.33984375,12651.830078125,12032.509765625,-400000.0625,-400000.0625,-400000.0625,-400000.0625,-10713.6298828125
22.33050298690796,10189.73046875,12738.990234375,12114.48046875,-400000.0625,-400000.0625,-400000.0625,-400000.0625,-10680.2998046875
22.460456609725952,10260.1103515625,12656.5,12057.73046875,-400000.0625,-400000.0625,-400000.0625,-400000.0625,-10699.849609375
22.520330905914307,10286.48046875,12633.1298828125,12054.4404296875,-400000.0625,-400000.0625,-400000.0625,-400000.0625,-10700.5595703125
22.580553770065308,10296.73046875,12762.6396484375,12131.3603515625,-400000.0625,-400000.0625,-400000.0625,-400000.0625,-10675.099609375
22.71960711479187,10294.5302734375,12695.9296875,12116.4296875,-400000.0625,-400000.0625,-400000.0625,-400000.0625,-10692.3095703125
22.835509061813354,10351.3701171875,12722.6796875,12117.8203125,-400000.0625,-400000.0625,-400000.0625,-400000.0625,-10676.0
22.968352794647217,10357.759765625,12743.3798828125,12113.1396484375,-400000.0625,-400000.0625,-400000.0625,-400000.0625,-10685.8701171875
23.024741172790527,10375.9296875,12727.259765625,12113.330078125,-400000.0625,-400000.0625,-400000.0625,-400000.0625,-10694.83984375
23.08594846725464,10392.2900390625,12682.3896484375,12058.8798828125,-400000.0625,-400000.0625,-400000.0625,-400000.0625,-10707.7099609375
23.22611093521118,10350.509765625,12745.669921875,12160.5400390625,-400000.0625,-400000.0625,-400000.0625,-400000.0625,-10681.9599609375
23.285781383514404,10395.580078125,12720.6796875,12113.2900390625,-400000.0625,-400000.0625,-400000.0625,-400000.0625,-10694.98046875
23.344345569610596,10362.580078125,12699.6103515625,12110.3798828125,-400000.0625,-400000.0625,-400000.0625,-400000.0625,-10693.6904296875
23.438932180404663,10417.1796875,12726.740234375,12093.0703125,-400000.0625,-400000.0625,-400000.0625,-400000.0625,-10714.91015625
23.474416732788086,10379.599609375,12742.900390625,12088.919921875,-400000.0625,-400000.0625,-400000.0625,-400000.0625,-10714.009765625
23.53775691986084,10431.7197265625,12803.2197265625,12152.3896484375,-400000.0625,-400000.0625,-400000.0625,-400000.0625,-10692.8798828125
23.605695486068726,10401.6796875,12740.1396484375,12088.2998046875,-400000.0625,-400000.0625,-400000.0625,-400000.0625,-10718.3896484375
23.668009042739868,10391.2802734375,12776.759765625,12103.4599609375,-400000.0625,-400000.0625,-400000.0625,-400000.0625,-10706.330078125
23.737843990325928,10450.8896484375,12744.4296875,12081.0498046875,-400000.0625,-400000.0625,-400000.0625,-400000.0625,-10716.73046875
23.79283618927002,10408.01953125,12784.6298828125,12138.7001953125,-400000.0625,-400000.0625,-400000.0625,-400000.0625,-10700.26953125
23.917901277542114,10571.7197265625,12565.5703125,11939.8095703125,-400000.0625,-400000.0625,-400000.0625,-400000.0625,-10763.98046875
23.985121488571167,10593.3203125,12556.650390625,11922.6904296875,-400000.0625,-400000.0625,-400000.0625,-400000.0625,-10770.509765625
24.135094165802002,10614.73046875,12660.7900390625,12021.349609375,-400000.0625,-400000.0625,-400000.0625,-400000.0625,-10733.7998046875
24.1766300201416,10561.3701171875,12679.6298828125,11977.580078125,-400000.0625,-400000.0625,-400000.0625,-400000.0625,-10746.6201171875
24.241780996322632,10564.1396484375,12588.3095703125,11932.9501953125,-400000.0625,-400000.0625,-400000.0625,-400000.0625,-10763.5498046875
24.305336236953735,10555.2197265625,12567.1904296875,11929.75,-400000.0625,-400000.0625,-400000.0625,-400000.0625,-10769.419921875
24.370426416397095,10556.4599609375,12572.48046875,11924.509765625,-400000.0625,-400000.0625,-400000.0625,-400000.0625,-10765.7900390625
24.581284999847412,10539.2900390625,12680.5302734375,12030.3203125,-400000.0625,-400000.0625,-400000.0625,-400000.0625,-10731.26953125
24.689942598342896,10514.830078125,12578.6796875,11943.91015625,-400000.0625,-400000.0625,-400000.0625,-400000.0625,-10754.1103515625
24.886537075042725,10466.5302734375,12582.830078125,11934.08984375,-400000.0625,-400000.0625,-400000.0625,-400000.0625,-10761.2099609375
25.086559295654297,10469.009765625,12601.4697265625,11949.6396484375,-400000.0625,-400000.0625,-400000.0625,-400000.0625,-10751.2998046875
25.14217758178711,10444.5498046875,12666.75,11980.580078125,-400000.0625,-400000.0625,-400000.0625,-400000.0625,-10735.080078125
25.21102786064148,10416.7001953125,12624.98046875,11935.1396484375,-400000.0625,-400000.0625,-400000.0625,-400000.0625,-10748.580078125
25.270033359527588,10415.1298828125,12631.1298828125,11954.599609375,-400000.0625,-400000.0625,-400000.0625,-400000.0625,-10744.4296875
25.46547842025757,10369.1103515625,12657.5498046875,11967.2802734375,-400000.0625,-400000.0625,-400000.0625,-400000.0625,-10726.169921875
25.520339250564575,10370.58984375,12602.240234375,11936.330078125,-400000.0625,-400000.0625,-400000.0625,-400000.0625,-10742.1396484375
25.592501878738403,10324.2900390625,12568.669921875,11909.6796875,-400000.0625,-400000.0625,-400000.0625,-400000.0625,-10754.5400390625
25.672200679779053,10360.1904296875,12556.650390625,11885.3603515625,-400000.0625,-400000.0625,-400000.0625,-400000.0625,-10757.0703125
25.733646631240845,10349.1796875,12653.6396484375,11991.3095703125,-400000.0625,-400000.0625,-400000.0625,-400000.0625,-10718.7802734375
25.77915334701538,10346.75,12661.0302734375,12003.4697265625,-400000.0625,-400000.0625,-400000.0625,-400000.0625,-10707.1396484375
25.92703866958618,10311.2197265625,12548.6904296875,11895.75,-400000.0625,-400000.0625,-400000.0625,-400000.0625,-10753.25
25.967892169952393,10310.9404296875,12541.4404296875,11877.9697265625,-400000.0625,-400000.0625,-400000.0625,-400000.0625,-10754.8701171875
26.034538507461548,10296.2998046875,12563.849609375,11923.509765625,-400000.0625,-400000.0625,-400000.0625,-400000.0625,-10737.419921875
26.1618070602417,10276.4599609375,12555.740234375,11909.099609375,-400000.0625,-400000.0625,-400000.0625,-400000.0625,-10744.91015625
26.23288655281067,10301.259765625,12541.33984375,11895.900390625,-400000.0625,-400000.0625,-400000.0625,-400000.0625,-10748.76953125
26.28895354270935,10291.150390625,12534.669921875,11893.1298828125,-400000.0625,-400000.0625,-400000.0625,-400000.0625,-10752.76953125
26.367990970611572,10276.2197265625,12628.75,11973.669921875,-400000.0625,-400000.0625,-400000.0625,-400000.0625,-10714.25
26.417523860931396,10266.6904296875,12604.1904296875,11963.9404296875,-400000.0625,-400000.0625,-400000.0625,-400000.0625,-10725.3095703125
26.499233722686768,10280.5595703125,12555.41015625,11904.4296875,-400000.0625,-400000.0625,-400000.0625,-400000.0625,-10742.4697265625
26.544021129608154,10251.0,12504.6298828125,11881.9697265625,-400000.0625,-400000.0625,-400000.0625,-400000.0625,-10745.669921875
26.671496629714966,10248.8095703125,12553.740234375,11924.2197265625,-400000.0625,-400000.0625,-400000.0625,-400000.0625,-10723.6396484375
26.80085515975952,10256.9599609375,12502.91015625,11884.5498046875,-400000.0625,-400000.0625,-400000.0625,-400000.0625,-10750.8701171875
26.87419605255127,10259.919921875,12496.759765625,11874.25,-400000.0625,-400000.0625,-400000.0625,-400000.0625,-10744.1396484375
27.017414808273315,10216.759765625,12405.919921875,11871.7197265625,-400000.0625,-400000.0625,-400000.0625,-400000.0625,-10721.6396484375
27.076948642730713,10200.4501953125,12463.240234375,11907.009765625,-400000.0625,-400000.0625,-400000.0625,-400000.0625,-10711.6201171875
27.12145733833313,10183.7197265625,12379.83984375,11848.3603515625,-400000.0625,-400000.0625,-400000.0625,-400000.0625,-10731.169921875
27.29074788093567,10185.3896484375,12359.1904296875,11837.3896484375,-400000.0625,-400000.0625,-400000.0625,-400000.0625,-10730.1201171875
27.443421602249146,10181.2900390625,12357.6201171875,11836.9599609375,-400000.0625,-400000.0625,-400000.0625,-400000.0625,-10730.080078125
27.511761903762817,10178.6103515625,12436.2001953125,11907.48046875,-400000.0625,-400000.0625,-400000.0625,-400000.0625,-10700.7001953125
27.573514461517334,10179.5703125,12422.0400390625,11898.9501953125,-400000.0625,-400000.0625,-400000.0625,-400000.0625,-10705.5703125
27.635374069213867,10167.7900390625,12328.7197265625,11819.9404296875,-400000.0625,-400000.0625,-400000.0625,-400000.0625,-10727.1201171875
27.782748699188232,10164.4501953125,12391.3798828125,11871.7197265625,-400000.0625,-400000.0625,-400000.0625,-400000.0625,-10706.3798828125
27.90677523612976,10162.2099609375,12369.8203125,11872.4404296875,-400000.0625,-400000.0625,-400000.0625,-400000.0625,-10715.5302734375
28.034302234649658,10140.5595703125,12384.6103515625,11876.2998046875,-400000.0625,-400000.0625,-400000.0625,-400000.0625,-10705.330078125
28.08556294441223,10131.0703125,12326.099609375,11829.5703125,-400000.0625,-400000.0625,-400000.0625,-400000.0625,-10718.2998046875
28.153080463409424,10122.2998046875,12302.6904296875,11809.6796875,-400000.0625,-400000.0625,-400000.0625,-400000.0625,-10721.2998046875
28.218185663223267,10116.3896484375,12403.6796875,11884.259765625,-400000.0625,-400000.0625,-400000.0625,-400000.0625,-10698.75
28.283934116363525,10098.26953125,12423.7998046875,11908.099609375,-400000.0625,-400000.0625,-400000.0625,-400000.0625,-10683.6298828125
28.339994192123413,10114.3798828125,12404.5400390625,11897.900390625,-400000.0625,-400000.0625,-400000.0625,-400000.0625,-10687.6396484375
28.41701030731201,10105.66015625,12308.98046875,11816.3603515625,-400000.0625,-400000.0625,-400000.0625,-400000.0625,-10720.6796875
28.53100037574768,10103.1796875,12366.25,11860.419921875,-400000.0625,-400000.0625,-400000.0625,-400000.0625,-10693.3603515625
28.59527277946472,10092.2099609375,12393.8603515625,11886.650390625,-400000.0625,-400000.0625,-400000.0625,-400000.0625,-10685.73046875
28.659224271774292,10086.73046875,12354.419921875,11857.9404296875,-400000.0625,-400000.0625,-400000.0625,-400000.0625,-10698.7998046875
28.78777527809143,10081.099609375,12272.0302734375,11799.8603515625,-400000.0625,-400000.0625,-400000.0625,-400000.0625,-10718.5400390625
28.84667468070984,10071.990234375,12284.08984375,11800.7197265625,-400000.0625,-400000.0625,-400000.0625,-400000.0625,-10719.6298828125
28.988595962524414,10069.1796875,12336.349609375,11841.4404296875,-400000.0625,-400000.0625,-400000.0625,-400000.0625,-10701.3203125
29.042508840560913,10075.1904296875,12336.6796875,11847.8798828125,-400000.0625,-400000.0625,-400000.0625,-400000.0625,-10687.919921875
29.12524962425232,10055.16015625,12276.080078125,11779.1201171875,-400000.0625,-400000.0625,-400000.0625,-400000.0625,-10707.1904296875
29.16940665245056,10066.080078125,12354.66015625,11858.66015625,-400000.0625,-400000.0625,-400000.0625,-400000.0625,-10678.9599609375
29.305705547332764,10056.9296875,12260.6298828125,11772.9697265625,-400000.0625,-400000.0625,-400000.0625,-400000.0625,-10701.2802734375
29.36171793937683,10050.25,12257.099609375,11774.9697265625,-400000.0625,-400000.0625,-400000.0625,-400000.0625,-10698.1298828125
29.42564082145691,10026.7900390625,12241.509765625,11758.0,-400000.0625,-400000.0625,-400000.0625,-400000.0625,-10707.2802734375
29.616654872894287,10004.08984375,12283.4697265625,11800.669921875,-400000.0625,-400000.0625,-400000.0625,-400000.0625,-10701.0400390625
29.704254865646362,10002.0400390625,12224.6796875,11758.23046875,-400000.0625,-400000.0625,-400000.0625,-400000.0625,-10718.2998046875
29.76180124282837,10000.330078125,12230.5400390625,11748.080078125,-400000.0625,-400000.0625,-400000.0625,-400000.0625,-10724.9697265625
29.83332395553589,9987.98046875,12225.919921875,11763.759765625,-400000.0625,-400000.0625,-400000.0625,-400000.0625,-10722.259765625
29.877675771713257,10004.4697265625,12324.8603515625,11847.0703125,-400000.0625,-400000.0625,-400000.0625,-400000.0625,-10689.9296875
29.939125299453735,9994.7900390625,12345.5498046875,11851.7900390625,-400000.0625,-400000.0625,-400000.0625,-400000.0625,-10692.5
30.13291621208191,10028.2197265625,12411.3603515625,11823.23046875,-400000.0625,-400000.0625,-400000.0625,-400000.0625,-10763.0302734375
30.215696811676025,10021.6904296875,12407.5,11823.23046875,-400000.0625,-400000.0625,-400000.0625,-400000.0625,-10762.0703125
30.339575052261353,10041.3798828125,12465.240234375,11875.5400390625,-400000.0625,-400000.0625,-400000.0625,-400000.0625,-10743.8095703125
30.389402627944946,10033.990234375,12404.9697265625,11815.1201171875,-400000.0625,-400000.0625,-400000.0625,-400000.0625,-10765.9404296875
30.447728633880615,10010.3896484375,12408.01953125,11821.3203125,-400000.0625,-400000.0625,-400000.0625,-400000.0625,-10757.2998046875
30.639277696609497,10027.169921875,12454.419921875,11875.150390625,-400000.0625,-400000.0625,-400000.0625,-400000.0625,-10737.66015625
30.707648277282715,10005.0498046875,12392.8095703125,11822.1298828125,-400000.0625,-400000.0625,-400000.0625,-400000.0625,-10766.75
30.76792550086975,10025.8798828125,12395.7197265625,11813.58984375,-400000.0625,-400000.0625,-400000.0625,-400000.0625,-10771.08984375
31.153484582901,10006.669921875,12438.490234375,11848.6904296875,-400000.0625,-400000.0625,-400000.0625,-400000.0625,-10760.830078125
31.22512435913086,9996.419921875,12424.66015625,11823.5595703125,-400000.0625,-400000.0625,-400000.0625,-400000.0625,-10769.849609375
31.28628444671631,10006.1396484375,12377.2197265625,11789.849609375,-400000.0625,-400000.0625,-400000.0625,-400000.0625,-10787.919921875
31.53411340713501,9991.98046875,12439.400390625,11849.400390625,-400000.0625,-400000.0625,-400000.0625,-400000.0625,-10760.0703125
31.620299577713013,9968.8095703125,12484.41015625,11884.1201171875,-400000.0625,-400000.0625,-400000.0625,-400000.0625,-10760.169921875
31.668560028076172,9981.6796875,12399.099609375,11799.5302734375,-400000.0625,-400000.0625,-400000.0625,-400000.0625,-10788.7802734375
31.86710810661316,9984.6396484375,12505.9599609375,11897.7099609375,-400000.0625,-400000.0625,-400000.0625,-400000.0625,-10747.7197265625
32.068220376968384,10003.7099609375,12422.6103515625,11814.98046875,-400000.0625,-400000.0625,-400000.0625,-400000.0625,-10781.8603515625
32.30408191680908,9992.5498046875,12416.7900390625,11807.2998046875,-400000.0625,-400000.0625,-400000.0625,-400000.0625,-10775.759765625
32.557862281799316,9986.58984375,12462.2802734375,11844.8701171875,-400000.0625,-400000.0625,-400000.0625,-400000.0625,-10771.66015625
32.62271475791931,9993.9404296875,12449.4599609375,11831.900390625,-400000.0625,-400000.0625,-400000.0625,-400000.0625,-10768.509765625
32.6913788318634,9983.01953125,12509.1103515625,11884.01953125,-400000.0625,-400000.0625,-400000.0625,-400000.0625,-10752.5400390625
32.776397705078125,9977.76953125,12493.6103515625,11876.7802734375,-400000.0625,-400000.0625,-400000.0625,-400000.0625,-10759.5
32.8829550743103,9982.400390625,12463.2900390625,11842.2998046875,-400000.0625,-400000.0625,-400000.0625,-400000.0625,-10768.26953125
32.951327323913574,9986.259765625,12458.3701171875,11836.009765625,-400000.0625,-400000.0625,-400000.0625,-400000.0625,-10772.2802734375
33.076576471328735,10029.169921875,12672.0400390625,11951.349609375,-400000.0625,-400000.0625,-400000.0625,-400000.0625,-10777.6201171875
33.20530843734741,10036.6103515625,12619.740234375,11909.5302734375,-400000.0625,-400000.0625,-400000.0625,-400000.0625,-10789.8203125
33.39028024673462,10024.5,12681.2001953125,11956.8798828125,-400000.0625,-400000.0625,-400000.0625,-400000.0625,-10774.7099609375
33.534236907958984,10020.73046875,12587.41015625,11878.2998046875,-400000.0625,-400000.0625,-400000.0625,-400000.0625,-10810.419921875
33.591707944869995,10001.7099609375,12594.5595703125,11877.349609375,-400000.0625,-400000.0625,-400000.0625,-400000.0625,-10815.669921875
33.69078493118286,9995.5595703125,12625.169921875,11905.48046875,-400000.0625,-400000.0625,-400000.0625,-400000.0625,-10801.509765625
33.783162117004395,10021.9697265625,12607.8095703125,11902.6201171875,-400000.0625,-400000.0625,-400000.0625,-400000.0625,-10806.849609375
33.83802652359009,9996.75,12672.51953125,11957.3095703125,-400000.0625,-400000.0625,-400000.0625,-400000.0625,-10781.0
34.186750650405884,10016.6298828125,12601.1904296875,11888.4599609375,-400000.0625,-400000.0625,-400000.0625,-400000.0625,-10810.0
34.23160529136658,10017.9697265625,12695.740234375,11972.9501953125,-400000.0625,-400000.0625,-400000.0625,-400000.0625,-10773.23046875
34.41533160209656,10011.4404296875,12693.7900390625,11971.759765625,-400000.0625,-400000.0625,-400000.0625,-400000.0625,-10775.0
34.49044942855835,10026.5498046875,12603.51953125,11886.8798828125,-400000.0625,-400000.0625,-400000.0625,-400000.0625,-10805.75
34.61438488960266,10023.5,12698.080078125,11968.2802734375,-400000.0625,-400000.0625,-400000.0625,-400000.0625,-10769.5595703125
34.673219203948975,10013.580078125,12689.259765625,11959.0302734375,-400000.0625,-400000.0625,-400000.0625,-400000.0625,-10774.6103515625
34.7379515171051,10004.0,12682.33984375,11960.4599609375,-400000.0625,-400000.0625,-400000.0625,-400000.0625,-10776.4296875
34.813170433044434,9991.7900390625,12625.650390625,11901.0498046875,-400000.0625,-400000.0625,-400000.0625,-400000.0625,-10800.740234375
34.951717138290405,9999.66015625,12685.8701171875,11945.6298828125,-400000.0625,-400000.0625,-400000.0625,-400000.0625,-10777.759765625
34.99406456947327,9992.98046875,12699.9404296875,11969.2802734375,-400000.0625,-400000.0625,-400000.0625,-400000.0625,-10764.3603515625
35.120450496673584,10006.5703125,12609.4404296875,11875.580078125,-400000.0625,-400000.0625,-400000.0625,-400000.0625,-10798.5498046875
35.189478635787964,9988.01953125,12656.259765625,11916.919921875,-400000.0625,-400000.0625,-400000.0625,-400000.0625,-10775.2802734375
35.26803231239319,9983.4501953125,12702.75,11968.0400390625,-400000.0625,-400000.0625,-400000.0625,-400000.0625,-10756.2099609375
35.325603723526,9991.0302734375,12683.490234375,11953.0703125,-400000.0625,-400000.0625,-400000.0625,-400000.0625,-10770.7998046875
35.375659227371216,9995.41015625,12642.580078125,11919.3095703125,-400000.0625,-400000.0625,-400000.0625,-400000.0625,-10782.33984375
35.43846321105957,9983.5400390625,12612.25,11883.16015625,-400000.0625,-400000.0625,-400000.0625,-400000.0625,-10798.3095703125
35.51530170440674,9991.7900390625,12600.08984375,11875.8203125,-400000.0625,-400000.0625,-400000.0625,-400000.0625,-10799.26953125
35.63421273231506,9987.7802734375,12682.9599609375,11945.9599609375,-400000.0625,-400000.0625,-400000.0625,-400000.0625,-10764.8896484375
35.71000862121582,9986.3095703125,12613.2001953125,11884.740234375,-400000.0625,-400000.0625,-400000.0625,-400000.0625,-10787.580078125
35.7663254737854,9983.01953125,12623.740234375,11885.4501953125,-400000.0625,-400000.0625,-400000.0625,-400000.0625,-10788.25
35.7775342464447,9984.1103515625,12611.33984375,11882.740234375,-400000.0625,-400000.0625,-400000.0625,-400000.0625,-10788.490234375
35.788602352142334,9989.3095703125,12663.75,11927.4599609375,-400000.0625,-400000.0625,-400000.0625,-400000.0625,-10770.990234375
35.804306745529175,9992.41015625,12700.6103515625,11961.8896484375,-400000.0625,-400000.0625,-400000.0625,-400000.0625,-10757.1103515625
35.81194734573364,9994.5595703125,12679.5302734375,11940.8095703125,-400000.0625,-400000.0625,-400000.0625,-400000.0625,-10767.0302734375
35.82873034477234,9978.2001953125,12621.98046875,11887.169921875,-400000.0625,-400000.0625,-400000.0625,-400000.0625,-10787.3896484375
35.84329652786255,9986.7802734375,12613.349609375,11878.919921875,-400000.0625,-400000.0625,-400000.0625,-400000.0625,-10788.9697265625
35.85392165184021,9988.169921875,12655.740234375,11920.41015625,-400000.0625,-400000.0625,-400000.0625,-400000.0625,-10771.900390625
35.867597818374634,9983.01953125,12699.0302734375,11958.5498046875,-400000.0625,-400000.0625,-400000.0625,-400000.0625,-10757.919921875
35.87854528427124,9981.6796875,12683.150390625,11948.25,-400000.0625,-400000.0625,-400000.0625,-400000.0625,-10765.740234375
35.88801383972168,9998.3701171875,12628.080078125,11897.849609375,-400000.0625,-400000.0625,-400000.0625,-400000.0625,-10784.099609375
35.894575119018555,9991.2197265625,12613.2001953125,11883.0703125,-400000.0625,-400000.0625,-400000.0625,-400000.0625,-10786.8701171875
35.90739369392395,9983.1103515625,12661.98046875,11930.4697265625,-400000.0625,-400000.0625,-400000.0625,-400000.0625,-10768.6103515625
35.92556405067444,9982.490234375,12713.9599609375,11971.900390625,-400000.0625,-400000.0625,-400000.0625,-400000.0625,-10756.16015625
35.933717012405396,9986.349609375,12681.150390625,11952.1201171875,-400000.0625,-400000.0625,-400000.0625,-400000.0625,-10765.1201171875
35.946722745895386,9990.83984375,12623.6904296875,11897.900390625,-400000.0625,-400000.0625,-400000.0625,-400000.0625,-10784.4404296875
35.959895849227905,9983.9697265625,12620.259765625,11886.5498046875,-400000.0625,-400000.0625,-400000.0625,-400000.0625,-10787.76953125
35.97258114814758,9987.4501953125,12670.6103515625,11930.66015625,-400000.0625,-400000.0625,-400000.0625,-400000.0625,-10767.1796875
35.987467527389526,9992.740234375,12704.08984375,11972.3798828125,-400000.0625,-400000.0625,-400000.0625,-400000.0625,-10752.2998046875
36.00571823120117,9988.01953125,12685.58984375,11940.7197265625,-400000.0625,-400000.0625,-400000.0625,-400000.0625,-10761.6904296875
36.027575969696045,9973.9599609375,12625.1201171875,11883.5498046875,-400000.0625,-400000.0625,-400000.0625,-400000.0625,-10783.33984375
36.03845977783203,9981.4404296875,12601.5703125,11878.2998046875,-400000.0625,-400000.0625,-400000.0625,-400000.0625,-10788.009765625
36.048702001571655,9990.98046875,12657.6396484375,11922.5,-400000.0625,-400000.0625,-400000.0625,-400000.0625,-10773.759765625
36.061033725738525,9990.6904296875,12698.1796875,11961.41015625,-400000.0625,-400000.0625,-400000.0625,-400000.0625,-10762.740234375
36.07089066505432,9989.5,12672.66015625,11939.240234375,-400000.0625,-400000.0625,-400000.0625,-400000.0625,-10771.9404296875
36.07766342163086,9989.41015625,12613.349609375,11876.6298828125,-400000.0625,-400000.0625,-400000.0625,-400000.0625,-10790.919921875
