time,ch1,ch2,ch3,ch4,ch5,ch6,ch7,ch8
0.08202886581420898,-4871.509765625,-26617.859375,-16292.759765625,-400000.0625,-400000.0625,-400000.0625,-400000.0625,-400000.0625
0.12426161766052246,-4842.08984375,-26605.080078125,-16278.9404296875,-400000.0625,-400000.0625,-400000.0625,-400000.0625,-400000.0625
0.13598203659057617,-4834.990234375,-26602.4609375,-16281.3203125,-400000.0625,-400000.0625,-400000.0625,-400000.0625,-400000.0625
0.14812016487121582,-4854.580078125,-26606.939453125,-16287.1904296875,-400000.0625,-400000.0625,-400000.0625,-400000.0625,-400000.0625
0.16692328453063965,-4868.4599609375,-26621.390625,-16296.099609375,-400000.0625,-400000.0625,-400000.0625,-400000.0625,-400000.0625
0.18457269668579102,-4868.1298828125,-26624.01953125,-16296.76953125,-400000.0625,-400000.0625,-400000.0625,-400000.0625,-400000.0625
0.23020696640014648,-4857.68017578125,-26613.669921875,-16285.9501953125,-400000.0625,-400000.0625,-400000.0625,-400000.0625,-400000.0625
0.2897825241088867,-4848.81005859375,-26610.51953125,-16284.0400390625,-400000.0625,-400000.0625,-400000.0625,-400000.0625,-400000.0625
0.3763401508331299,-4865.06982421875,-26622.5390625,-16296.009765625,-400000.0625,-400000.0625,-400000.0625,-400000.0625,-400000.0625
0.4193074703216553,-4881.10009765625,-26634.080078125,-16305.5400390625,-400000.0625,-400000.0625,-400000.0625,-400000.0625,-400000.0625
0.4553818702697754,-4872.60986328125,-26646.810546875,-16308.259765625,-400000.0625,-400000.0625,-400000.0625,-400000.0625,-400000.0625
0.4721059799194336,-4859.77978515625,-26633.169921875,-16300.6298828125,-400000.0625,-400000.0625,-400000.0625,-400000.0625,-400000.0625
0.48583126068115234,-4858.35009765625,-26623.060546875,-16290.6201171875,-400000.0625,-400000.0625,-400000.0625,-400000.0625,-400000.0625
0.5029714107513428,-4865.1201171875,-26629.779296875,-16298.009765625,-400000.0625,-400000.0625,-400000.0625,-400000.0625,-400000.0625
0.5213792324066162,-4872.1298828125,-26635.69921875,-16303.6396484375,-400000.0625,-400000.0625,-400000.0625,-400000.0625,-400000.0625
0.5398163795471191,-4874.47021484375,-26637.990234375,-16302.01953125,-400000.0625,-400000.0625,-400000.0625,-400000.0625,-400000.0625
0.5628130435943604,-4862.259765625,-26634.080078125,-16296.4404296875,-400000.0625,-400000.0625,-400000.0625,-400000.0625,-400000.0625
0.5787942409515381,-4858.58984375,-26633.599609375,-16298.490234375,-400000.0625,-400000.0625,-400000.0625,-400000.0625,-400000.0625
0.5925960540771484,-4869.31982421875,-26643.990234375,-16311.41015625,-400000.0625,-400000.0625,-400000.0625,-400000.0625,-400000.0625
0.6047182083129883,-4883.39013671875,-26656.73046875,-16320.419921875,-400000.0625,-400000.0625,-400000.0625,-400000.0625,-400000.0625
0.6200366020202637,-4885.77001953125,-26650.099609375,-16315.509765625,-400000.0625,-400000.0625,-400000.0625,-400000.0625,-400000.0625
0.6348211765289307,-4858.919921875,-26632.7890625,-16301.400390625,-400000.0625,-400000.0625,-400000.0625,-400000.0625,-400000.0625
0.6500120162963867,-4847.669921875,-26620.060546875,-16292.0498046875,-400000.0625,-400000.0625,-400000.0625,-400000.0625,-400000.0625
0.6642189025878906,-4862.259765625,-26639.4609375,-16303.259765625,-400000.0625,-400000.0625,-400000.0625,-400000.0625,-400000.0625
0.6810338497161865,-4879.0,-26657.19921875,-16319.7099609375,-400000.0625,-400000.0625,-400000.0625,-400000.0625,-400000.0625
0.6936697959899902,-4883.580078125,-26661.349609375,-16324.240234375,-400000.0625,-400000.0625,-400000.0625,-400000.0625,-400000.0625
0.7067925930023193,-4869.02978515625,-26652.529296875,-16312.2197265625,-400000.0625,-400000.0625,-400000.0625,-400000.0625,-400000.0625
0.7223098278045654,-4858.919921875,-26643.94921875,-16304.919921875,-400000.0625,-400000.0625,-400000.0625,-400000.0625,-400000.0625
0.7501544952392578,-4868.31982421875,-26647.48046875,-16309.98046875,-400000.0625,-400000.0625,-400000.0625,-400000.0625,-400000.0625
0.7643544673919678,-4883.33984375,-26651.720703125,-16317.5595703125,-400000.0625,-400000.0625,-400000.0625,-400000.0625,-400000.0625
0.7787971496582031,-4883.72021484375,-26651.4296875,-16317.23046875,-400000.0625,-400000.0625,-400000.0625,-400000.0625,-400000.0625
0.7889490127563477,-4866.1201171875,-26642.849609375,-16304.6904296875,-400000.0625,-400000.0625,-400000.0625,-400000.0625,-400000.0625
0.8007309436798096,-4855.25,-26632.689453125,-16296.099609375,-400000.0625,-400000.0625,-400000.0625,-400000.0625,-400000.0625
0.8146944046020508,-4866.97998046875,-26651.33984375,-16312.3203125,-400000.0625,-400000.0625,-400000.0625,-400000.0625,-400000.0625
0.8282830715179443,-4882.2900390625,-26669.220703125,-16325.1396484375,-400000.0625,-400000.0625,-400000.0625,-400000.0625,-400000.0625
0.8386626243591309,-4880.7099609375,-26666.9296875,-16323.7099609375,-400000.0625,-400000.0625,-400000.0625,-400000.0625,-400000.0625
0.8488562107086182,-4866.31005859375,-26655.33984375,-16315.3203125,-400000.0625,-400000.0625,-400000.0625,-400000.0625,-400000.0625
0.8606348037719727,-4859.5,-26643.66015625,-16305.01953125,-400000.0625,-400000.0625,-400000.0625,-400000.0625,-400000.0625
0.8704509735107422,-4865.97998046875,-26652.240234375,-16312.509765625,-400000.0625,-400000.0625,-400000.0625,-400000.0625,-400000.0625
0.8813402652740479,-4879.43017578125,-26662.109375,-16321.23046875,-400000.0625,-400000.0625,-400000.0625,-400000.0625,-400000.0625
0.8914406299591064,-4877.7099609375,-26665.98046875,-16321.2802734375,-400000.0625,-400000.0625,-400000.0625,-400000.0625,-400000.0625
0.9026410579681396,-4864.83984375,-26654.25,-16311.7001953125,-400000.0625,-400000.0625,-400000.0625,-400000.0625,-400000.0625
0.9174008369445801,-4860.02001953125,-26643.990234375,-16305.73046875,-400000.0625,-400000.0625,-400000.0625,-400000.0625,-400000.0625
0.932697057723999,-4864.7900390625,-26648.810546875,-16309.5498046875,-400000.0625,-400000.0625,-400000.0625,-400000.0625,-400000.0625
0.9483439922332764,-4879.6201171875,-26664.5,-16324.1396484375,-400000.0625,-400000.0625,-400000.0625,-400000.0625,-400000.0625
0.9631819725036621,-4879.27978515625,-26665.5,-16324.6201171875,-400000.0625,-400000.0625,-400000.0625,-400000.0625,-400000.0625
0.9783551692962646,-4865.22021484375,-26650.240234375,-16310.259765625,-400000.0625,-400000.0625,-400000.0625,-400000.0625,-400000.0625
0.9861047267913818,-4857.72998046875,-26644.23046875,-16307.0703125,-400000.0625,-400000.0625,-400000.0625,-400000.0625,-400000.0625
0.9981992244720459,-4866.97998046875,-26657.630859375,-16315.26953125,-400000.0625,-400000.0625,-400000.0625,-400000.0625,-400000.0625
1.0105726718902588,-4880.6201171875,-26650.529296875,-16313.3603515625,-400000.0625,-400000.0625,-400000.0625,-400000.0625,-400000.0625
1.0257046222686768,-4877.6201171875,-26641.419921875,-16311.1201171875,-400000.0625,-400000.0625,-400000.0625,-400000.0625,-400000.0625
1.0380127429962158,-4858.39990234375,-26629.779296875,-16295.3896484375,-400000.0625,-400000.0625,-400000.0625,-400000.0625,-400000.0625
1.052114486694336,-4855.2001953125,-26618.669921875,-16283.990234375,-400000.0625,-400000.0625,-400000.0625,-400000.0625,-400000.0625
1.0616981983184814,-4864.31005859375,-26631.119140625,-16291.8603515625,-400000.0625,-400000.0625,-400000.0625,-400000.0625,-400000.0625
1.071880578994751,-4876.85009765625,-26641.939453125,-16302.2099609375,-400000.0625,-400000.0625,-400000.0625,-400000.0625,-400000.0625
1.0826389789581299,-4872.93994140625,-26635.509765625,-16298.919921875,-400000.0625,-400000.0625,-400000.0625,-400000.0625,-400000.0625
1.0926218032836914,-4855.2001953125,-26616.529296875,-16282.9404296875,-400000.0625,-400000.0625,-400000.0625,-400000.0625,-400000.0625
1.1059081554412842,-4844.14013671875,-26606.279296875,-16274.9296875,-400000.0625,-400000.0625,-400000.0625,-400000.0625,-400000.0625
1.1229047775268555,-4852.77001953125,-26617.240234375,-16291.91015625,-400000.0625,-400000.0625,-400000.0625,-400000.0625,-400000.0625
1.135420322418213,-4875.9501953125,-26635.26953125,-16308.599609375,-400000.0625,-400000.0625,-400000.0625,-400000.0625,-400000.0625
1.1497321128845215,-4875.85009765625,-26637.4609375,-16307.4501953125,-400000.0625,-400000.0625,-400000.0625,-400000.0625,-400000.0625
1.1597859859466553,-4864.169921875,-26625.16015625,-16295.76953125,-400000.0625,-400000.0625,-400000.0625,-400000.0625,-400000.0625
1.1714892387390137,-4852.6298828125,-26607.51953125,-16280.1298828125,-400000.0625,-400000.0625,-400000.0625,-400000.0625,-400000.0625
1.1844470500946045,-4859.2099609375,-26612.4296875,-16281.080078125,-400000.0625,-400000.0625,-400000.0625,-400000.0625,-400000.0625
1.1933197975158691,-4878.0,-26627.830078125,-16298.8203125,-400000.0625,-400000.0625,-400000.0625,-400000.0625,-400000.0625
1.2022700309753418,-4873.66015625,-26622.16015625,-16295.580078125,-400000.0625,-400000.0625,-400000.0625,-400000.0625,-400000.0625
1.2211239337921143,-4851.8701171875,-26609.94921875,-16281.3701171875,-400000.0625,-400000.0625,-400000.0625,-400000.0625,-400000.0625
1.2341556549072266,-4846.6201171875,-26597.98046875,-16272.98046875,-400000.0625,-400000.0625,-400000.0625,-400000.0625,-400000.0625
1.2476072311401367,-4854.97021484375,-26606.80078125,-16279.7900390625,-400000.0625,-400000.0625,-400000.0625,-400000.0625,-400000.0625
1.2670695781707764,-4876.18994140625,-26624.2109375,-16292.33984375,-400000.0625,-400000.0625,-400000.0625,-400000.0625,-400000.0625
1.2793071269989014,-4873.7998046875,-26620.529296875,-16294.91015625,-400000.0625,-400000.0625,-400000.0625,-400000.0625,-400000.0625
1.2909266948699951,-4858.8798828125,-26611.330078125,-16283.849609375,-400000.0625,-400000.0625,-400000.0625,-400000.0625,-400000.0625
1.3032350540161133,-4851.33984375,-26607.7109375,-16282.8896484375,-400000.0625,-400000.0625,-400000.0625,-400000.0625,-400000.0625
1.3207485675811768,-4866.509765625,-26614.720703125,-16291.0,-400000.0625,-400000.0625,-400000.0625,-400000.0625,-400000.0625
1.331864833831787,-4877.330078125,-26622.349609375,-16295.8203125,-400000.0625,-400000.0625,-400000.0625,-400000.0625,-400000.0625
1.344625473022461,-4857.16015625,-26603.83984375,-16279.599609375,-400000.0625,-400000.0625,-400000.0625,-400000.0625,-400000.0625
1.3557653427124023,-4834.31982421875,-26576.08984375,-16255.8603515625,-400000.0625,-400000.0625,-400000.0625,-400000.0625,-400000.0625
1.368762731552124,-4845.9501953125,-26590.44921875,-16270.6904296875,-400000.0625,-400000.0625,-400000.0625,-400000.0625,-400000.0625
1.3809640407562256,-4862.06982421875,-26605.560546875,-16287.66015625,-400000.0625,-400000.0625,-400000.0625,-400000.0625,-400000.0625
1.3926177024841309,-4875.60986328125,-26618.669921875,-16296.25,-400000.0625,-400000.0625,-400000.0625,-400000.0625,-400000.0625
1.401066780090332,-4893.16015625,-26638.130859375,-16313.599609375,-400000.0625,-400000.0625,-400000.0625,-400000.0625,-400000.0625
1.4211280345916748,-4884.9599609375,-26633.689453125,-16303.8798828125,-400000.0625,-400000.0625,-400000.0625,-400000.0625,-400000.0625
1.4306118488311768,-4863.93017578125,-26620.19921875,-16284.66015625,-400000.0625,-400000.0625,-400000.0625,-400000.0625,-400000.0625
1.4412641525268555,-4858.06982421875,-26615.580078125,-16297.3896484375,-400000.0625,-400000.0625,-400000.0625,-400000.0625,-400000.0625
1.454660415649414,-4887.10009765625,-26646.900390625,-16322.8095703125,-400000.0625,-400000.0625,-400000.0625,-400000.0625,-400000.0625
1.468207597732544,-4899.7900390625,-26661.970703125,-16336.400390625,-400000.0625,-400000.0625,-400000.0625,-400000.0625,-400000.0625
1.4814746379852295,-4875.9501953125,-26653.33984375,-16328.3798828125,-400000.0625,-400000.0625,-400000.0625,-400000.0625,-400000.0625
1.4952497482299805,-4881.10009765625,-26677.330078125,-16359.1396484375,-400000.0625,-400000.0625,-400000.0625,-400000.0625,-400000.0625
1.505223274230957,-4931.1201171875,-26744.130859375,-16418.75,-400000.0625,-400000.0625,-400000.0625,-400000.0625,-400000.0625
1.5267877578735352,-4975.7001953125,-26790.33984375,-16457.80078125,-400000.0625,-400000.0625,-400000.0625,-400000.0625,-400000.0625
1.5409824848175049,-4962.25,-26802.109375,-16457.66015625,-400000.0625,-400000.0625,-400000.0625,-400000.0625,-400000.0625
1.5531201362609863,-4940.18017578125,-26792.240234375,-16443.44921875,-400000.0625,-400000.0625,-400000.0625,-400000.0625,-400000.0625
1.5692377090454102,-4955.77001953125,-26817.369140625,-16457.419921875,-400000.0625,-400000.0625,-400000.0625,-400000.0625,-400000.0625
1.58250093460083,-4971.97998046875,-26834.779296875,-16461.330078125,-400000.0625,-400000.0625,-400000.0625,-400000.0625,-400000.0625
1.5935823917388916,-5001.93017578125,-26875.55078125,-16491.130859375,-400000.0625,-400000.0625,-400000.0625,-400000.0625,-400000.0625
1.6075491905212402,-5028.2001953125,-26925.900390625,-16528.849609375,-400000.0625,-400000.0625,-400000.0625,-400000.0625,-400000.0625
1.6242656707763672,-5012.60986328125,-26934.19921875,-16526.83984375,-400000.0625,-400000.0625,-400000.0625,-400000.0625,-400000.0625
1.6336500644683838,-5002.4501953125,-26950.220703125,-16528.509765625,-400000.0625,-400000.0625,-400000.0625,-400000.0625,-400000.0625
1.6423864364624023,-5040.83984375,-26985.98046875,-16557.5,-400000.0625,-400000.0625,-400000.0625,-400000.0625,-400000.0625
1.6536140441894531,-5080.4599609375,-27034.94921875,-16588.880859375,-400000.0625,-400000.0625,-400000.0625,-400000.0625,-400000.0625
1.667555809020996,-5082.7998046875,-27048.109375,-16586.970703125,-400000.0625,-400000.0625,-400000.0625,-400000.0625,-400000.0625
1.6805915832519531,-5066.25,-27046.01953125,-16581.8203125,-400000.0625,-400000.0625,-400000.0625,-400000.0625,-400000.0625
1.6940333843231201,-5065.72998046875,-27059.83984375,-16582.779296875,-400000.0625,-400000.0625,-400000.0625,-400000.0625,-400000.0625
1.7040200233459473,-5072.4501953125,-27062.130859375,-16575.76953125,-400000.0625,-400000.0625,-400000.0625,-400000.0625,-400000.0625
1.719454050064087,-5113.31982421875,-27108.8203125,-16608.720703125,-400000.0625,-400000.0625,-400000.0625,-400000.0625,-400000.0625
1.7297141551971436,-5113.64990234375,-27123.169921875,-16613.060546875,-400000.0625,-400000.0625,-400000.0625,-400000.0625,-400000.0625
1.7418944835662842,-5105.10986328125,-27119.880859375,-16601.66015625,-400000.0625,-400000.0625,-400000.0625,-400000.0625,-400000.0625
1.753490924835205,-5104.16015625,-27130.130859375,-16603.419921875,-400000.0625,-400000.0625,-400000.0625,-400000.0625,-400000.0625
1.767930507659912,-5113.75,-27134.759765625,-16607.720703125,-400000.0625,-400000.0625,-400000.0625,-400000.0625,-400000.0625
1.781308650970459,-5143.4501953125,-27171.849609375,-16625.98046875,-400000.0625,-400000.0625,-400000.0625,-400000.0625,-400000.0625
1.7955148220062256,-5144.41015625,-27182.109375,-16631.029296875,-400000.0625,-400000.0625,-400000.0625,-400000.0625,-400000.0625
1.8157548904418945,-5120.22998046875,-27164.26953125,-16614.869140625,-400000.0625,-400000.0625,-400000.0625,-400000.0625,-400000.0625
1.8252460956573486,-5233.3798828125,-27286.009765625,-16728.5,-400000.0625,-400000.0625,-400000.0625,-400000.0625,-400000.0625
1.8373351097106934,-5786.56005859375,-27830.509765625,-17273.240234375,-400000.0625,-400000.0625,-400000.0625,-400000.0625,-400000.0625
1.847381353378296,-6557.18017578125,-28584.9609375,-18027.16015625,-400000.0625,-400000.0625,-400000.0625,-400000.0625,-400000.0625
1.8608770370483398,-7150.22021484375,-29187.109375,-18612.91015625,-400000.0625,-400000.0625,-400000.0625,-400000.0625,-400000.0625
1.8702428340911865,-7212.2099609375,-29255.109375,-18673.7109375,-400000.0625,-400000.0625,-400000.0625,-400000.0625,-400000.0625
1.881831407546997,-6907.27001953125,-28950.310546875,-18371.5390625,-400000.0625,-400000.0625,-400000.0625,-400000.0625,-400000.0625
1.8911247253417969,-6724.68994140625,-28754.91015625,-18186.140625,-400000.0625,-400000.0625,-400000.0625,-400000.0625,-400000.0625
1.903367519378662,-6550.4599609375,-28568.560546875,-17999.599609375,-400000.0625,-400000.0625,-400000.0625,-400000.0625,-400000.0625
1.9174776077270508,-6306.509765625,-28324.0390625,-17757.470703125,-400000.0625,-400000.0625,-400000.0625,-400000.0625,-400000.0625
1.930283784866333,-6089.16015625,-28110.560546875,-17548.279296875,-400000.0625,-400000.0625,-400000.0625,-400000.0625,-400000.0625
1.93788743019104,-5939.91015625,-27972.3203125,-17407.609375,-400000.0625,-400000.0625,-400000.0625,-400000.0625,-400000.0625
1.9495868682861328,-5854.4599609375,-27875.619140625,-17315.6796875,-400000.0625,-400000.0625,-400000.0625,-400000.0625,-378596.59375
1.9691143035888672,-5717.14013671875,-27729.130859375,-17171.720703125,-400000.0625,-400000.0625,-400000.0625,-400000.0625,-339048.0
1.9825754165649414,-5604.7900390625,-27617.359375,-17058.900390625,-400000.0625,-400000.0625,-400000.0625,-400000.0625,-310155.0625
1.9937613010406494,-5505.60986328125,-27526.240234375,-16965.9609375,-400000.0625,-400000.0625,-400000.0625,-400000.0625,-287911.53125
2.0041229724884033,-5444.81005859375,-27468.259765625,-16909.98046875,-400000.0625,-400000.0625,-400000.0625,-400000.0625,-268207.90625
2.0202925205230713,-5427.89013671875,-27449.7109375,-16894.490234375,-400000.0625,-400000.0625,-400000.0625,-400000.0625,-247557.859375
2.033015251159668,-5427.4599609375,-27443.3203125,-16889.859375,-400000.0625,-400000.0625,-400000.0625,-400000.0625,-225422.984375
2.0437216758728027,-5385.02001953125,-27394.109375,-16844.26953125,-400000.0625,-400000.0625,-400000.0625,-400000.0625,-205876.140625
2.0602738857269287,-5335.18994140625,-27347.94921875,-16801.880859375,-400000.0625,-400000.0625,-400000.0625,-400000.0625,-190740.65625
2.0733354091644287,-5290.56005859375,-27306.130859375,-16762.970703125,-400000.0625,-400000.0625,-400000.0625,-400000.0625,-180688.59375
2.083167314529419,-5255.60009765625,-27265.310546875,-16721.8203125,-400000.0625,-400000.0625,-400000.0625,-400000.0625,-175630.296875
2.096188545227051,-5256.7998046875,-27266.98046875,-16718.580078125,-400000.0625,-400000.0625,-400000.0625,-400000.0625,-169864.09375
2.1170427799224854,-5255.22021484375,-27263.83984375,-16715.2890625,-400000.0625,-400000.0625,-400000.0625,-400000.0625,-161301.96875
2.127997636795044,-5213.35986328125,-27225.55078125,-16678.619140625,-400000.0625,-400000.0625,-400000.0625,-400000.0625,-155772.75
2.136002779006958,-5179.64013671875,-27192.44921875,-16647.630859375,-400000.0625,-400000.0625,-400000.0625,-400000.0625,-153991.90625
2.1489241123199463,-5168.14990234375,-27178.529296875,-16636.560546875,-400000.0625,-400000.0625,-400000.0625,-400000.0625,-152823.75
2.1577608585357666,-5171.009765625,-27174.810546875,-16634.1796875,-400000.0625,-400000.0625,-400000.0625,-400000.0625,-151790.34375
2.169262170791626,-5157.66015625,-27161.890625,-16618.109375,-400000.0625,-400000.0625,-400000.0625,-400000.0625,-150914.265625
2.1799073219299316,-5117.75,-27125.310546875,-16585.16015625,-400000.0625,-400000.0625,-400000.0625,-400000.0625,-152351.34375
2.188875913619995,-5103.8701171875,-27113.150390625,-16575.859375,-400000.0625,-400000.0625,-400000.0625,-400000.0625,-155035.796875
2.2010819911956787,-5114.64990234375,-27128.83984375,-16587.779296875,-400000.0625,-400000.0625,-400000.0625,-400000.0625,-157165.015625
2.2164864540100098,-5127.85986328125,-27143.240234375,-16600.23046875,-400000.0625,-400000.0625,-400000.0625,-400000.0625,-158554.234375
2.2277684211730957,-5122.419921875,-27124.9296875,-16579.19921875,-400000.0625,-400000.0625,-400000.0625,-400000.0625,-160062.046875
2.2374002933502197,-5111.169921875,-27087.9296875,-16549.5390625,-400000.0625,-400000.0625,-400000.0625,-400000.0625,-162406.453125
2.2499935626983643,-5111.97998046875,-27068.4296875,-16529.939453125,-400000.0625,-400000.0625,-400000.0625,-400000.0625,-165052.0
2.26063871383667,-5123.47021484375,-27070.810546875,-16532.470703125,-400000.0625,-400000.0625,-400000.0625,-400000.0625,-167047.703125
2.269613027572632,-5144.31005859375,-27084.349609375,-16536.669921875,-400000.0625,-400000.0625,-400000.0625,-400000.0625,-168301.84375
2.280055284500122,-5147.7900390625,-27074.91015625,-16519.640625,-400000.0625,-400000.0625,-400000.0625,-400000.0625,-169689.15625
2.290802240371704,-5139.72998046875,-27055.220703125,-16498.419921875,-400000.0625,-400000.0625,-400000.0625,-400000.0625,-171920.65625
2.300295829772949,-5127.52978515625,-27050.55078125,-16488.69921875,-400000.0625,-400000.0625,-400000.0625,-400000.0625,-174466.34375
2.317981004714966,-5136.58984375,-27057.7890625,-16488.69921875,-400000.0625,-400000.0625,-400000.0625,-400000.0625,-176361.4375
2.328641176223755,-5148.75,-27057.4609375,-16483.9296875,-400000.0625,-400000.0625,-400000.0625,-400000.0625,-177522.25
2.3394615650177,-5153.60986328125,-27049.400390625,-16480.58984375,-400000.0625,-400000.0625,-400000.0625,-400000.0625,-178824.40625
2.348602533340454,-5151.7001953125,-27056.359375,-16485.9296875,-400000.0625,-400000.0625,-400000.0625,-400000.0625,-180981.515625
2.362227439880371,-5138.68017578125,-27055.69921875,-16487.509765625,-400000.0625,-400000.0625,-400000.0625,-400000.0625,-183453.6875
2.3706071376800537,-5142.39990234375,-27057.939453125,-16485.880859375,-400000.0625,-400000.0625,-400000.0625,-400000.0625,-185283.34375
2.385563373565674,-5154.08984375,-27059.80078125,-16486.0703125,-400000.0625,-400000.0625,-400000.0625,-400000.0625,-186383.453125
2.394951820373535,-5151.64990234375,-27056.3203125,-16482.01953125,-400000.0625,-400000.0625,-400000.0625,-400000.0625,-187631.578125
2.4043171405792236,-5126.56982421875,-27039.099609375,-16462.1796875,-400000.0625,-400000.0625,-400000.0625,-400000.0625,-189734.953125
2.4227969646453857,-5110.83984375,-27025.419921875,-16452.98046875,-400000.0625,-400000.0625,-400000.0625,-400000.0625,-192156.625
2.431500196456909,-5121.08984375,-27032.759765625,-16460.900390625,-400000.0625,-400000.0625,-400000.0625,-400000.0625,-193932.984375
2.4406967163085938,-5140.02001953125,-27046.109375,-16472.91015625,-400000.0625,-400000.0625,-400000.0625,-400000.0625,-194981.796875
2.451535701751709,-5132.52978515625,-27041.869140625,-16464.0390625,-400000.0625,-400000.0625,-400000.0625,-400000.0625,-196180.84375
2.4599082469940186,-5126.81005859375,-27040.8203125,-16466.2890625,-400000.0625,-400000.0625,-400000.0625,-400000.0625,-198241.59375
2.4709086418151855,-5121.419921875,-27042.490234375,-16466.94921875,-400000.0625,-400000.0625,-400000.0625,-400000.0625,-200618.390625
2.482881546020508,-5121.27978515625,-27036.150390625,-16461.94921875,-400000.0625,-400000.0625,-400000.0625,-400000.0625,-202351.3125
2.4914050102233887,-5131.9599609375,-27038.76953125,-16465.94921875,-400000.0625,-400000.0625,-400000.0625,-400000.0625,-203359.09375
2.503796100616455,-5132.33984375,-27039.91015625,-16468.48046875,-400000.0625,-400000.0625,-400000.0625,-400000.0625,-204524.34375
2.518265962600708,-5107.06982421875,-27021.939453125,-16450.98046875,-400000.0625,-400000.0625,-400000.0625,-400000.0625,-206550.15625
2.528395414352417,-5113.7900390625,-27029.369140625,-16458.3203125,-400000.0625,-400000.0625,-400000.0625,-400000.0625,-208891.84375
2.5387556552886963,-5127.3798828125,-27045.2109375,-16471.150390625,-400000.0625,-400000.0625,-400000.0625,-400000.0625,-210588.671875
2.547403335571289,-5146.27001953125,-27052.310546875,-16475.970703125,-400000.0625,-400000.0625,-400000.0625,-400000.0625,-211567.046875
2.556105852127075,-5143.31005859375,-27040.439453125,-16468.0,-400000.0625,-400000.0625,-400000.0625,-400000.0625,-212701.15625
2.569611072540283,-5112.83984375,-27026.419921875,-16450.310546875,-400000.0625,-400000.0625,-400000.0625,-400000.0625,-214703.484375
2.5796494483947754,-5113.080078125,-27031.279296875,-16457.1796875,-400000.0625,-400000.0625,-400000.0625,-400000.0625,-217019.203125
2.5940370559692383,-5126.91015625,-27032.5703125,-16461.51953125,-400000.0625,-400000.0625,-400000.0625,-400000.0625,-218694.140625
2.6023542881011963,-5128.0,-27032.279296875,-16458.23046875,-400000.0625,-400000.0625,-400000.0625,-400000.0625,-219644.859375
2.6217477321624756,-5130.33984375,-27036.9609375,-16463.0,-400000.0625,-400000.0625,-400000.0625,-400000.0625,-220760.1875
2.6304287910461426,-5121.7998046875,-27036.0,-16462.66015625,-400000.0625,-400000.0625,-400000.0625,-400000.0625,-222740.765625
2.642425775527954,-5108.60009765625,-27024.509765625,-16458.66015625,-400000.0625,-400000.0625,-400000.0625,-400000.0625,-225039.9375
2.654920816421509,-5114.990234375,-27032.7109375,-16462.380859375,-400000.0625,-400000.0625,-400000.0625,-400000.0625,-226688.703125
2.66401743888855,-5126.72021484375,-27038.099609375,-16467.380859375,-400000.0625,-400000.0625,-400000.0625,-400000.0625,-227615.859375
2.6740334033966064,-5123.3798828125,-27032.859375,-16459.849609375,-400000.0625,-400000.0625,-400000.0625,-400000.0625,-228702.90625
2.687408208847046,-5106.16015625,-27019.029296875,-16446.310546875,-400000.0625,-400000.0625,-400000.0625,-400000.0625,-230664.953125
2.701516628265381,-5107.2099609375,-27023.509765625,-16454.130859375,-400000.0625,-400000.0625,-400000.0625,-400000.0625,-232944.328125
2.7181544303894043,-5116.89013671875,-27038.390625,-16469.4296875,-400000.0625,-400000.0625,-400000.0625,-400000.0625,-234575.15625
2.7293620109558105,-5127.3798828125,-27043.009765625,-16474.060546875,-400000.0625,-400000.0625,-400000.0625,-400000.0625,-235480.625
2.739901065826416,-5130.2900390625,-27038.859375,-16468.619140625,-400000.0625,-400000.0625,-400000.0625,-400000.0625,-236556.65625
2.749878406524658,-5118.080078125,-27023.220703125,-16456.220703125,-400000.0625,-400000.0625,-400000.0625,-400000.0625,-238504.390625
2.7608206272125244,-5107.97998046875,-27021.3203125,-16456.26953125,-400000.0625,-400000.0625,-400000.0625,-400000.0625,-240768.65625
2.7706000804901123,-5114.60009765625,-27036.4296875,-16465.279296875,-400000.0625,-400000.0625,-400000.0625,-400000.0625,-242377.6875
2.780257225036621,-5120.990234375,-27039.9609375,-16458.80078125,-400000.0625,-400000.0625,-400000.0625,-400000.0625,-243265.125
2.7934699058532715,-5125.89990234375,-27014.689453125,-16442.490234375,-400000.0625,-400000.0625,-400000.0625,-400000.0625,-244321.140625
2.80537486076355,-5119.75,-26997.859375,-16429.189453125,-400000.0625,-400000.0625,-400000.0625,-400000.0625,-246257.375
2.82058048248291,-5121.18017578125,-26985.41015625,-16421.890625,-400000.0625,-400000.0625,-400000.0625,-400000.0625,-248504.625
2.8317832946777344,-5134.5400390625,-27007.390625,-16435.720703125,-400000.0625,-400000.0625,-400000.0625,-400000.0625,-250099.3125
2.8454434871673584,-5160.3798828125,-27030.0390625,-16445.349609375,-400000.0625,-400000.0625,-400000.0625,-400000.0625,-250968.71875
2.8599884510040283,-5166.81982421875,-27020.509765625,-16434.150390625,-400000.0625,-400000.0625,-400000.0625,-400000.0625,-252010.609375
2.8718724250793457,-5159.56982421875,-27008.109375,-16418.130859375,-400000.0625,-400000.0625,-400000.0625,-400000.0625,-253929.6875
2.880537986755371,-5148.7900390625,-26998.48046875,-16400.2890625,-400000.0625,-400000.0625,-400000.0625,-400000.0625,-256164.0625
2.893641948699951,-5154.7998046875,-26996.810546875,-16400.33984375,-400000.0625,-400000.0625,-400000.0625,-400000.0625,-257740.578125
2.906294107437134,-5169.68017578125,-27007.009765625,-16408.400390625,-400000.0625,-400000.0625,-400000.0625,-400000.0625,-258592.203125
2.9226861000061035,-5170.6298828125,-27012.490234375,-16415.0703125,-400000.0625,-400000.0625,-400000.0625,-400000.0625,-259616.984375
2.9359614849090576,-5152.89013671875,-27004.9609375,-16413.310546875,-400000.0625,-400000.0625,-400000.0625,-400000.0625,-261529.859375
2.9480626583099365,-5142.1201171875,-26994.140625,-16400.9609375,-400000.0625,-400000.0625,-400000.0625,-400000.0625,-263753.40625
2.9568569660186768,-5138.97021484375,-26995.51953125,-16399.0,-400000.0625,-400000.0625,-400000.0625,-400000.0625,-265319.09375
2.970841884613037,-5153.1298828125,-27008.19921875,-16409.01953125,-400000.0625,-400000.0625,-400000.0625,-400000.0625,-266156.375
2.982527732849121,-5159.14013671875,-27004.33984375,-16408.73046875,-400000.0625,-400000.0625,-400000.0625,-400000.0625,-267173.65625
2.9999454021453857,-5142.39990234375,-26993.330078125,-16400.529296875,-400000.0625,-400000.0625,-400000.0625,-400000.0625,-269074.75
3.0082688331604004,-5142.64013671875,-26988.3203125,-16397.05078125,-400000.0625,-400000.0625,-400000.0625,-400000.0625,-271290.4375
3.0239713191986084,-5155.330078125,-27003.19921875,-16407.060546875,-400000.0625,-400000.0625,-400000.0625,-400000.0625,-272842.15625
3.0318777561187744,-5168.490234375,-27007.9609375,-16417.119140625,-400000.0625,-400000.0625,-400000.0625,-400000.0625,-273665.40625
3.045186996459961,-5166.77001953125,-27008.73046875,-16418.029296875,-400000.0625,-400000.0625,-400000.0625,-400000.0625,-274666.09375
3.0557799339294434,-5146.83984375,-26999.51953125,-16407.919921875,-400000.0625,-400000.0625,-400000.0625,-400000.0625,-276558.4375
3.0652928352355957,-5131.2001953125,-26988.369140625,-16396.5703125,-400000.0625,-400000.0625,-400000.0625,-400000.0625,-278760.3125
3.0768449306488037,-5140.8798828125,-26989.029296875,-16400.150390625,-400000.0625,-400000.0625,-400000.0625,-400000.0625,-280297.46875
3.0852930545806885,-5167.77001953125,-27013.16015625,-16419.75,-400000.0625,-400000.0625,-400000.0625,-400000.0625,-281100.78125
3.0996551513671875,-5169.919921875,-27027.130859375,-16428.810546875,-400000.0625,-400000.0625,-400000.0625,-400000.0625,-282092.84375
3.1183769702911377,-5148.509765625,-27010.6796875,-16411.58984375,-400000.0625,-400000.0625,-400000.0625,-400000.0625,-283972.375
3.135976791381836,-5135.39013671875,-26997.4296875,-16395.859375,-400000.0625,-400000.0625,-400000.0625,-400000.0625,-286161.78125
3.146785020828247,-5145.35986328125,-26998.48046875,-16397.529296875,-400000.0625,-400000.0625,-400000.0625,-400000.0625,-287678.21875
3.1561524868011475,-5164.52978515625,-27008.970703125,-16408.30078125,-400000.0625,-400000.0625,-400000.0625,-400000.0625,-288468.5
3.168527841567993,-5163.72021484375,-27012.689453125,-16413.640625,-400000.0625,-400000.0625,-400000.0625,-400000.0625,-289443.375
3.1776747703552246,-5141.35009765625,-26997.51953125,-16397.759765625,-400000.0625,-400000.0625,-400000.0625,-400000.0625,-291316.125
3.189225196838379,-5129.77001953125,-26991.560546875,-16390.849609375,-400000.0625,-400000.0625,-400000.0625,-400000.0625,-293497.125
3.2015492916107178,-5142.06982421875,-27009.16015625,-16401.009765625,-400000.0625,-400000.0625,-400000.0625,-400000.0625,-295007.78125
3.215390682220459,-5159.7099609375,-27018.5,-16407.060546875,-400000.0625,-400000.0625,-400000.0625,-400000.0625,-295790.03125
3.227191925048828,-5153.1298828125,-27014.0703125,-16406.349609375,-400000.0625,-400000.0625,-400000.0625,-400000.0625,-296765.5625
3.235952854156494,-5134.2998046875,-27000.33984375,-16389.66015625,-400000.0625,-400000.0625,-400000.0625,-400000.0625,-298636.65625
3.2475781440734863,-5129.85986328125,-26992.75,-16380.4599609375,-400000.0625,-400000.0625,-400000.0625,-400000.0625,-300816.4375
3.259387493133545,-5148.83984375,-27008.630859375,-16396.669921875,-400000.0625,-400000.0625,-400000.0625,-400000.0625,-302319.9375
3.2693986892700195,-5162.56982421875,-27025.890625,-16411.2109375,-400000.0625,-400000.0625,-400000.0625,-400000.0625,-303094.90625
3.2800283432006836,-5153.66015625,-27022.650390625,-16404.439453125,-400000.0625,-400000.0625,-400000.0625,-400000.0625,-304057.875
3.2907681465148926,-5137.2099609375,-27019.98046875,-16395.7109375,-400000.0625,-400000.0625,-400000.0625,-400000.0625,-305919.25
3.301048517227173,-5136.490234375,-27019.4609375,-16390.900390625,-400000.0625,-400000.0625,-400000.0625,-400000.0625,-308083.0625
3.3196988105773926,-5149.4599609375,-27032.859375,-16399.580078125,-400000.0625,-400000.0625,-400000.0625,-400000.0625,-309568.25
3.330594778060913,-5164.2900390625,-27054.41015625,-16416.5,-400000.0625,-400000.0625,-400000.0625,-400000.0625,-310320.75
3.341672658920288,-5167.43994140625,-27058.560546875,-16417.890625,-400000.0625,-400000.0625,-400000.0625,-400000.0625,-311265.46875
3.3501734733581543,-5157.7099609375,-27048.640625,-16407.349609375,-400000.0625,-400000.0625,-400000.0625,-400000.0625,-313104.9375
3.361656427383423,-5157.18994140625,-27052.259765625,-16412.98046875,-400000.0625,-400000.0625,-400000.0625,-400000.0625,-315244.4375
3.3699002265930176,-5168.52978515625,-27067.4296875,-16430.4296875,-400000.0625,-400000.0625,-400000.0625,-400000.0625,-316702.03125
3.384059190750122,-5191.08984375,-27082.30078125,-16432.859375,-400000.0625,-400000.0625,-400000.0625,-400000.0625,-317432.96875
3.395491600036621,-5180.35986328125,-27083.0703125,-16424.279296875,-400000.0625,-400000.0625,-400000.0625,-400000.0625,-318356.375
3.408078670501709,-5149.60009765625,-27073.009765625,-16424.849609375,-400000.0625,-400000.0625,-400000.0625,-400000.0625,-320179.59375
3.423710823059082,-5146.31005859375,-27057.3203125,-16424.939453125,-400000.0625,-400000.0625,-400000.0625,-400000.0625,-322299.375
3.436021089553833,-5130.240234375,-27056.98046875,-16436.19921875,-400000.0625,-400000.0625,-400000.0625,-400000.0625,-323744.375
3.4461700916290283,-5142.77978515625,-27052.2109375,-16450.599609375,-400000.0625,-400000.0625,-400000.0625,-400000.0625,-324468.75
3.4609503746032715,-5132.2900390625,-27039.720703125,-16446.640625,-400000.0625,-400000.0625,-400000.0625,-400000.0625,-325395.15625
3.4695703983306885,-5096.580078125,-27031.51953125,-16444.970703125,-400000.0625,-400000.0625,-400000.0625,-400000.0625,-327221.875
3.482316017150879,-5077.64990234375,-27009.25,-16445.689453125,-400000.0625,-400000.0625,-400000.0625,-400000.0625,-329348.78125
3.4929795265197754,-5079.169921875,-27012.16015625,-16445.689453125,-400000.0625,-400000.0625,-400000.0625,-400000.0625,-330799.1875
3.50301194190979,-5076.22021484375,-26990.26953125,-16451.689453125,-400000.0625,-400000.0625,-400000.0625,-400000.0625,-331530.125
3.521042823791504,-5064.68017578125,-26978.830078125,-16459.75,-400000.0625,-400000.0625,-400000.0625,-400000.0625,-332462.875
3.5317256450653076,-5033.72998046875,-26951.26953125,-16444.830078125,-400000.0625,-400000.0625,-400000.0625,-400000.0625,-334290.84375
3.5422122478485107,-5010.31982421875,-26927.900390625,-16431.4296875,-400000.0625,-400000.0625,-400000.0625,-400000.0625,-336408.03125
3.5525100231170654,-4997.97021484375,-26909.9296875,-16435.48046875,-400000.0625,-400000.0625,-400000.0625,-400000.0625,-337851.03125
3.5645294189453125,-4993.06005859375,-26891.5703125,-16433.76953125,-400000.0625,-400000.0625,-400000.0625,-400000.0625,-338568.1875
3.573639392852783,-4975.02978515625,-26857.7109375,-16411.740234375,-400000.0625,-400000.0625,-400000.0625,-400000.0625,-339483.625
3.58439040184021,-4943.89990234375,-26814.029296875,-16390.51953125,-400000.0625,-400000.0625,-400000.0625,-400000.0625,-341282.78125
3.5958755016326904,-4921.6298828125,-26771.119140625,-16372.58984375,-400000.0625,-400000.0625,-400000.0625,-400000.0625,-343368.0625
3.60744309425354,-4915.47998046875,-26754.759765625,-16367.2900390625,-400000.0625,-400000.0625,-400000.0625,-400000.0625,-344772.4375
3.6241865158081055,-4914.85986328125,-26733.16015625,-16353.080078125,-400000.0625,-400000.0625,-400000.0625,-400000.0625,-345468.1875
3.633043050765991,-4893.35009765625,-26699.400390625,-16330.2900390625,-400000.0625,-400000.0625,-400000.0625,-400000.0625,-346365.53125
3.6443238258361816,-4868.31982421875,-26661.349609375,-16304.16015625,-400000.0625,-400000.0625,-400000.0625,-400000.0625,-348146.90625
3.6580607891082764,-4856.830078125,-26625.58984375,-16281.650390625,-400000.0625,-400000.0625,-400000.0625,-400000.0625,-350205.03125
3.667886972427368,-4864.259765625,-26619.9609375,-16285.51953125,-400000.0625,-400000.0625,-400000.0625,-400000.0625,-351590.6875
3.6803789138793945,-4867.4599609375,-26628.2109375,-16291.3798828125,-400000.0625,-400000.0625,-400000.0625,-400000.0625,-352266.40625
3.6887693405151367,-4860.35009765625,-26611.94921875,-16274.6904296875,-400000.0625,-400000.0625,-400000.0625,-400000.0625,-353153.28125
3.7027883529663086,-4847.47998046875,-26568.369140625,-16243.080078125,-400000.0625,-400000.0625,-400000.0625,-400000.0625,-354920.71875
3.718310832977295,-4844.0498046875,-26550.9609375,-16230.009765625,-400000.0625,-400000.0625,-400000.0625,-400000.0625,-356966.59375
3.7317700386047363,-4859.72998046875,-26562.5,-16239.650390625,-400000.0625,-400000.0625,-400000.0625,-400000.0625,-358336.59375
3.7407491207122803,-4871.3701171875,-26567.80078125,-16247.66015625,-400000.0625,-400000.0625,-400000.0625,-400000.0625,-359005.34375
3.751945734024048,-4870.60986328125,-26555.6796875,-16236.0703125,-400000.0625,-400000.0625,-400000.0625,-400000.0625,-359883.90625
3.763829469680786,-4852.81982421875,-26548.720703125,-16228.6796875,-400000.0625,-400000.0625,-400000.0625,-400000.0625,-361639.25
3.7730555534362793,-4846.669921875,-26554.16015625,-16240.0302734375,-400000.0625,-400000.0625,-400000.0625,-400000.0625,-363667.78125
3.7862496376037598,-4860.02001953125,-26572.0390625,-16254.0,-400000.0625,-400000.0625,-400000.0625,-400000.0625,-365022.6875
3.7977895736694336,-4873.56005859375,-26587.73046875,-16267.9697265625,-400000.0625,-400000.0625,-400000.0625,-400000.0625,-365673.4375
3.8059961795806885,-4875.0400390625,-26591.259765625,-16270.58984375,-400000.0625,-400000.0625,-400000.0625,-400000.0625,-366533.65625
3.821614980697632,-4860.830078125,-26560.830078125,-16243.26953125,-400000.0625,-400000.0625,-400000.0625,-400000.0625,-368263.09375
3.831594705581665,-4858.68994140625,-26556.640625,-16245.3701171875,-400000.0625,-400000.0625,-400000.0625,-400000.0625,-370267.96875
3.843271017074585,-4876.419921875,-26580.2890625,-16264.490234375,-400000.0625,-400000.0625,-400000.0625,-400000.0625,-371598.46875
3.854618549346924,-4893.2099609375,-26598.310546875,-16279.169921875,-400000.0625,-400000.0625,-400000.0625,-400000.0625,-372235.875
3.8648953437805176,-4888.580078125,-26583.869140625,-16267.6396484375,-400000.0625,-400000.0625,-400000.0625,-400000.0625,-373087.15625
3.8729782104492188,-4870.56005859375,-26573.94921875,-16252.1904296875,-400000.0625,-400000.0625,-400000.0625,-400000.0625,-374813.03125
3.8848674297332764,-4870.22021484375,-26576.94921875,-16256.0,-400000.0625,-400000.0625,-400000.0625,-400000.0625,-376803.3125
3.8946619033813477,-4880.10009765625,-26597.4609375,-16275.41015625,-400000.0625,-400000.0625,-400000.0625,-400000.0625,-378125.875
3.9170682430267334,-4887.009765625,-26613.140625,-16282.8896484375,-400000.0625,-400000.0625,-400000.0625,-400000.0625,-378759.375
3.9284379482269287,-4887.06005859375,-26602.1796875,-16276.2197265625,-400000.0625,-400000.0625,-400000.0625,-400000.0625,-379615.40625
3.9396133422851562,-4873.60986328125,-26580.810546875,-16256.48046875,-400000.0625,-400000.0625,-400000.0625,-400000.0625,-381340.25
3.9518303871154785,-4867.75,-26575.23046875,-16253.0400390625,-400000.0625,-400000.0625,-400000.0625,-400000.0625,-383331.34375
3.9668352603912354,-4878.0400390625,-26581.33984375,-16260.4404296875,-400000.0625,-400000.0625,-400000.0625,-400000.0625,-384654.625
3.978245496749878,-4891.43994140625,-26602.83984375,-16277.599609375,-400000.0625,-400000.0625,-400000.0625,-400000.0625,-385292.0625
3.9876456260681152,-4895.830078125,-26606.7109375,-16276.83984375,-400000.0625,-400000.0625,-400000.0625,-400000.0625,-386141.8125
4.000976085662842,-4880.43017578125,-26596.01953125,-16267.2998046875,-400000.0625,-400000.0625,-400000.0625,-400000.0625,-387865.90625
4.0192625522613525,-4878.3798828125,-26589.439453125,-16265.490234375,-400000.0625,-400000.0625,-400000.0625,-400000.0625,-389853.0
4.032572269439697,-4894.39990234375,-26599.359375,-16276.4599609375,-400000.0625,-400000.0625,-400000.0625,-400000.0625,-391176.1875
4.041608095169067,-4906.22998046875,-26611.94921875,-16286.23046875,-400000.0625,-400000.0625,-400000.0625,-400000.0625,-391821.375
4.050714015960693,-4897.2099609375,-26601.83984375,-16276.8896484375,-400000.0625,-400000.0625,-400000.0625,-400000.0625,-392699.4375
4.062249660491943,-4877.89990234375,-26594.880859375,-16269.8798828125,-400000.0625,-400000.0625,-400000.0625,-400000.0625,-394455.59375
4.070862054824829,-4878.47021484375,-26594.9296875,-16270.2099609375,-400000.0625,-400000.0625,-400000.0625,-400000.0625,-396476.96875
4.078300476074219,-4891.10986328125,-26610.08984375,-16282.5595703125,-400000.0625,-400000.0625,-400000.0625,-400000.0625,-397820.21875
4.090126276016235,-4904.4599609375,-26622.109375,-16292.099609375,-400000.0625,-400000.0625,-400000.0625,-400000.0625,-398476.375
4.102118253707886,-4900.41015625,-26611.900390625,-16286.1396484375,-400000.0625,-400000.0625,-400000.0625,-400000.0625,-399347.53125
4.1190125942230225,-4883.33984375,-26594.359375,-16271.4501953125,-400000.0625,-400000.0625,-400000.0625,-400000.0625,-400000.0625
4.129769563674927,-4884.10009765625,-26597.119140625,-16272.58984375,-400000.0625,-400000.0625,-400000.0625,-400000.0625,-400000.0625
4.143763065338135,-4890.6298828125,-26603.560546875,-16281.080078125,-400000.0625,-400000.0625,-400000.0625,-400000.0625,-400000.0625
4.156513452529907,-4906.4599609375,-26612.900390625,-16287.8095703125,-400000.0625,-400000.0625,-400000.0625,-400000.0625,-400000.0625
4.1666364669799805,-4909.7998046875,-26622.109375,-16290.9501953125,-400000.0625,-400000.0625,-400000.0625,-400000.0625,-400000.0625
4.179785966873169,-4885.6298828125,-26597.55078125,-16274.6396484375,-400000.0625,-400000.0625,-400000.0625,-400000.0625,-400000.0625
4.1904520988464355,-4868.080078125,-26585.630859375,-16265.5400390625,-400000.0625,-400000.0625,-400000.0625,-400000.0625,-400000.0625
4.205218076705933,-4881.669921875,-26601.560546875,-16278.599609375,-400000.0625,-400000.0625,-400000.0625,-400000.0625,-400000.0625
4.2213523387908936,-4896.830078125,-26617.009765625,-16294.2001953125,-400000.0625,-400000.0625,-400000.0625,-400000.0625,-400000.0625
4.232264518737793,-4900.5498046875,-26613.4296875,-16291.91015625,-400000.0625,-400000.0625,-400000.0625,-400000.0625,-400000.0625
4.244230270385742,-4884.0498046875,-26614.810546875,-16288.4697265625,-400000.0625,-400000.0625,-400000.0625,-400000.0625,-400000.0625
4.252692461013794,-4883.18994140625,-26611.140625,-16282.75,-400000.0625,-400000.0625,-400000.0625,-400000.0625,-400000.0625
4.264714241027832,-4897.60009765625,-26611.619140625,-16288.4697265625,-400000.0625,-400000.0625,-400000.0625,-400000.0625,-400000.0625
4.275709629058838,-4904.60009765625,-26620.19921875,-16297.009765625,-400000.0625,-400000.0625,-400000.0625,-400000.0625,-400000.0625
4.2871057987213135,-4892.25,-26612.619140625,-16290.8603515625,-400000.0625,-400000.0625,-400000.0625,-400000.0625,-400000.0625
4.29627799987793,-4875.22998046875,-26605.470703125,-16283.4697265625,-400000.0625,-400000.0625,-400000.0625,-400000.0625,-400000.0625
4.313876628875732,-4871.419921875,-26591.44921875,-16274.740234375,-400000.0625,-400000.0625,-400000.0625,-400000.0625,-400000.0625
4.328010082244873,-4879.759765625,-26600.359375,-16279.4599609375,-400000.0625,-400000.0625,-400000.0625,-400000.0625,-400000.0625
4.337496757507324,-4889.8701171875,-26606.51953125,-16284.1298828125,-400000.0625,-400000.0625,-400000.0625,-400000.0625,-400000.0625
4.345837593078613,-4882.56982421875,-26596.169921875,-16277.599609375,-400000.0625,-400000.0625,-400000.0625,-400000.0625,-400000.0625
4.359223127365112,-4875.7998046875,-26595.310546875,-16279.7001953125,-400000.0625,-400000.0625,-400000.0625,-400000.0625,-400000.0625
4.369805335998535,-4874.27978515625,-26592.259765625,-16278.509765625,-400000.0625,-400000.0625,-400000.0625,-400000.0625,-400000.0625
4.378998041152954,-4885.240234375,-26601.029296875,-16288.900390625,-400000.0625,-400000.0625,-400000.0625,-400000.0625,-400000.0625
4.3894877433776855,-4896.06982421875,-26615.05078125,-16297.099609375,-400000.0625,-400000.0625,-400000.0625,-400000.0625,-400000.0625
4.397377967834473,-4891.43994140625,-26614.240234375,-16292.1396484375,-400000.0625,-400000.0625,-400000.0625,-400000.0625,-400000.0625
4.407099008560181,-4873.66015625,-26589.830078125,-16267.01953125,-400000.0625,-400000.0625,-400000.0625,-400000.0625,-400000.0625
4.421324253082275,-4867.509765625,-26582.33984375,-16262.8701171875,-400000.0625,-400000.0625,-400000.0625,-400000.0625,-400000.0625
4.43383264541626,-4873.3701171875,-26588.58984375,-16272.01953125,-400000.0625,-400000.0625,-400000.0625,-400000.0625,-400000.0625
4.4462339878082275,-4891.68017578125,-26605.1796875,-16287.5703125,-400000.0625,-400000.0625,-400000.0625,-400000.0625,-400000.0625
4.4581451416015625,-4892.5400390625,-26610.0390625,-16291.9501953125,-400000.0625,-400000.0625,-400000.0625,-400000.0625,-400000.0625
4.470521450042725,-4876.27978515625,-26594.689453125,-16280.4599609375,-400000.0625,-400000.0625,-400000.0625,-400000.0625,-400000.0625
4.478463172912598,-4874.419921875,-26585.30078125,-16272.6904296875,-400000.0625,-400000.0625,-400000.0625,-400000.0625,-400000.0625
4.4884021282196045,-4884.33984375,-26591.640625,-16279.080078125,-400000.0625,-400000.0625,-400000.0625,-400000.0625,-400000.0625
4.501570701599121,-4895.5,-26609.140625,-16293.240234375,-400000.0625,-400000.0625,-400000.0625,-400000.0625,-400000.0625
4.522010803222656,-4894.97021484375,-26607.560546875,-16286.1396484375,-400000.0625,-400000.0625,-400000.0625,-400000.0625,-400000.0625
4.531191110610962,-4878.9501953125,-26594.400390625,-16269.0703125,-400000.0625,-400000.0625,-400000.0625,-400000.0625,-400000.0625
4.544374942779541,-4869.080078125,-26592.830078125,-16262.3896484375,-400000.0625,-400000.0625,-400000.0625,-400000.0625,-400000.0625
4.5541040897369385,-4873.7998046875,-26613.380859375,-16273.8798828125,-400000.0625,-400000.0625,-400000.0625,-400000.0625,-400000.0625
4.567145586013794,-4872.0400390625,-26610.7109375,-16280.3203125,-400000.0625,-400000.0625,-400000.0625,-400000.0625,-400000.0625
4.577130317687988,-4886.81982421875,-26606.419921875,-16276.9296875,-400000.0625,-400000.0625,-400000.0625,-400000.0625,-400000.0625
4.587461471557617,-4863.02001953125,-26623.060546875,-16257.8095703125,-400000.0625,-400000.0625,-400000.0625,-400000.0625,-400000.0625
4.599550008773804,-4852.72021484375,-26613.51953125,-16261.669921875,-400000.0625,-400000.0625,-400000.0625,-400000.0625,-400000.0625
4.616577386856079,-4869.93994140625,-26612.330078125,-16268.830078125,-400000.0625,-400000.0625,-400000.0625,-400000.0625,-400000.0625
4.625575542449951,-4884.77001953125,-26628.830078125,-16285.5595703125,-400000.0625,-400000.0625,-400000.0625,-400000.0625,-400000.0625
4.635731220245361,-4902.27001953125,-26625.349609375,-16297.91015625,-400000.0625,-400000.0625,-400000.0625,-400000.0625,-400000.0625
4.6489105224609375,-4900.64990234375,-26636.939453125,-16294.48046875,-400000.0625,-400000.0625,-400000.0625,-400000.0625,-400000.0625
4.656839847564697,-4890.77978515625,-26667.259765625,-16303.8798828125,-400000.0625,-400000.0625,-400000.0625,-400000.0625,-400000.0625
4.670065402984619,-4916.47998046875,-26678.51953125,-16333.5302734375,-400000.0625,-400000.0625,-400000.0625,-400000.0625,-400000.0625
4.680238485336304,-4946.7099609375,-26759.48046875,-16356.849609375,-400000.0625,-400000.0625,-400000.0625,-400000.0625,-400000.0625
4.689115524291992,-4976.85009765625,-26738.599609375,-16369.0595703125,-400000.0625,-400000.0625,-400000.0625,-400000.0625,-400000.0625
4.6986963748931885,-4994.490234375,-26748.900390625,-16397.4296875,-400000.0625,-400000.0625,-400000.0625,-400000.0625,-400000.0625
4.7070770263671875,-5013.31982421875,-26810.890625,-16424.1796875,-400000.0625,-400000.0625,-400000.0625,-400000.0625,-400000.0625
4.721325635910034,-5039.41015625,-26917.7890625,-16447.55078125,-400000.0625,-400000.0625,-400000.0625,-400000.0625,-400000.0625
4.733267545700073,-5057.85986328125,-26910.44921875,-16444.689453125,-400000.0625,-400000.0625,-400000.0625,-400000.0625,-400000.0625
4.740889549255371,-5064.919921875,-26890.380859375,-16459.1796875,-400000.0625,-400000.0625,-400000.0625,-400000.0625,-400000.0625
4.753122568130493,-5064.39013671875,-26859.669921875,-16432.240234375,-400000.0625,-400000.0625,-400000.0625,-400000.0625,-400000.0625
4.763156175613403,-5064.10986328125,-26841.7890625,-16426.51953125,-400000.0625,-400000.0625,-400000.0625,-400000.0625,-400000.0625
4.776389837265015,-5076.35986328125,-26877.98046875,-16437.060546875,-400000.0625,-400000.0625,-400000.0625,-400000.0625,-400000.0625
4.7849249839782715,-5094.580078125,-26865.060546875,-16451.169921875,-400000.0625,-400000.0625,-400000.0625,-400000.0625,-400000.0625
4.798304319381714,-5091.0,-26831.9609375,-16443.58984375,-400000.0625,-400000.0625,-400000.0625,-400000.0625,-400000.0625
4.808584213256836,-5067.35009765625,-26781.939453125,-16414.740234375,-400000.0625,-400000.0625,-400000.0625,-400000.0625,-400000.0625
4.82257342338562,-5053.43017578125,-26733.58984375,-16420.890625,-400000.0625,-400000.0625,-400000.0625,-400000.0625,-400000.0625
4.832475662231445,-5066.2001953125,-26720.859375,-16409.259765625,-400000.0625,-400000.0625,-400000.0625,-400000.0625,-400000.0625
4.844391107559204,-5066.81982421875,-26696.779296875,-16417.029296875,-400000.0625,-400000.0625,-400000.0625,-400000.0625,-400000.0625
4.857435703277588,-5047.66015625,-26661.0703125,-16399.810546875,-400000.0625,-400000.0625,-400000.0625,-400000.0625,-400000.0625
4.869210958480835,-5022.9599609375,-26574.470703125,-16370.1103515625,-400000.0625,-400000.0625,-400000.0625,-400000.0625,-400000.0625
4.882757902145386,-5007.35986328125,-26536.51953125,-16360.51953125,-400000.0625,-400000.0625,-400000.0625,-400000.0625,-400000.0625
4.8924267292022705,-5011.60986328125,-26509.669921875,-16354.2802734375,-400000.0625,-400000.0625,-400000.0625,-400000.0625,-400000.0625
4.90660285949707,-5019.6201171875,-26477.859375,-16354.2802734375,-400000.0625,-400000.0625,-400000.0625,-400000.0625,-400000.0625
4.9255735874176025,-5008.02978515625,-26465.279296875,-16353.4697265625,-400000.0625,-400000.0625,-400000.0625,-400000.0625,-400000.0625
4.9389965534210205,-4984.0,-26423.98046875,-16336.7802734375,-400000.0625,-400000.0625,-400000.0625,-400000.0625,-400000.0625
4.948492050170898,-4971.4599609375,-26403.48046875,-16331.6298828125,-400000.0625,-400000.0625,-400000.0625,-400000.0625,-400000.0625
4.959727048873901,-4974.75,-26400.51953125,-16335.0595703125,-400000.0625,-400000.0625,-400000.0625,-400000.0625,-400000.0625
4.973491430282593,-4983.47021484375,-26398.470703125,-16338.9697265625,-400000.0625,-400000.0625,-400000.0625,-400000.0625,-400000.0625
4.986510992050171,-4975.27001953125,-26383.5,-16328.6201171875,-400000.0625,-400000.0625,-400000.0625,-400000.0625,-400000.0625
4.9939351081848145,-4946.7099609375,-26350.83984375,-16299.73046875,-400000.0625,-400000.0625,-400000.0625,-400000.0625,-400000.0625
5.007763147354126,-4927.68017578125,-26336.669921875,-16285.66015625,-400000.0625,-400000.0625,-400000.0625,-400000.0625,-400000.0625
5.025407314300537,-4940.60986328125,-26350.119140625,-16302.8701171875,-400000.0625,-400000.0625,-400000.0625,-400000.0625,-400000.0625
5.0352911949157715,-4958.06005859375,-26371.150390625,-16319.4697265625,-400000.0625,-400000.0625,-400000.0625,-400000.0625,-400000.0625
5.049228668212891,-4950.330078125,-26356.990234375,-16302.0595703125,-400000.0625,-400000.0625,-400000.0625,-400000.0625,-400000.0625
5.060410022735596,-4921.6298828125,-26342.8203125,-16283.7998046875,-400000.0625,-400000.0625,-400000.0625,-400000.0625,-400000.0625
5.0722174644470215,-4904.93994140625,-26335.669921875,-16280.75,-400000.0625,-400000.0625,-400000.0625,-400000.0625,-400000.0625
5.0814924240112305,-4915.0498046875,-26344.640625,-16286.3798828125,-400000.0625,-400000.0625,-400000.0625,-400000.0625,-400000.0625
5.092628717422485,-4932.68994140625,-26356.75,-16289.0498046875,-400000.0625,-400000.0625,-400000.0625,-400000.0625,-400000.0625
5.10166335105896,-4924.72998046875,-26357.369140625,-16282.8896484375,-400000.0625,-400000.0625,-400000.0625,-400000.0625,-400000.0625
5.119917392730713,-4904.7998046875,-26345.970703125,-16273.2099609375,-400000.0625,-400000.0625,-400000.0625,-400000.0625,-400000.0625
5.131020545959473,-4896.64013671875,-26337.8203125,-16267.16015625,-400000.0625,-400000.0625,-400000.0625,-400000.0625,-400000.0625
5.139186382293701,-4902.41015625,-26349.359375,-16277.0302734375,-400000.0625,-400000.0625,-400000.0625,-400000.0625,-400000.0625
5.149045467376709,-4911.22998046875,-26364.759765625,-16287.9501953125,-400000.0625,-400000.0625,-400000.0625,-400000.0625,-400000.0625
5.159895181655884,-4907.56005859375,-26360.609375,-16274.9296875,-400000.0625,-400000.0625,-400000.0625,-400000.0625,-400000.0625
5.171249866485596,-4886.91015625,-26345.830078125,-16261.2001953125,-400000.0625,-400000.0625,-400000.0625,-400000.0625,-400000.0625
5.181847095489502,-4880.240234375,-26339.060546875,-16261.150390625,-400000.0625,-400000.0625,-400000.0625,-400000.0625,-400000.0625
5.192952394485474,-4895.5400390625,-26347.0703125,-16269.16015625,-400000.0625,-400000.0625,-400000.0625,-400000.0625,-400000.0625
5.205046653747559,-4906.93994140625,-26363.609375,-16277.8896484375,-400000.0625,-400000.0625,-400000.0625,-400000.0625,-400000.0625
5.223700046539307,-4899.7900390625,-26361.560546875,-16268.58984375,-400000.0625,-400000.0625,-400000.0625,-400000.0625,-400000.0625
5.238165616989136,-4878.47021484375,-26348.2109375,-16248.6103515625,-400000.0625,-400000.0625,-400000.0625,-400000.0625,-400000.0625
5.246440887451172,-4877.419921875,-26345.0703125,-16244.0302734375,-400000.0625,-400000.0625,-400000.0625,-400000.0625,-400000.0625
5.254673719406128,-4895.31005859375,-26361.130859375,-16261.5302734375,-400000.0625,-400000.0625,-400000.0625,-400000.0625,-400000.0625
5.264774322509766,-4903.89013671875,-26378.73046875,-16273.3095703125,-400000.0625,-400000.0625,-400000.0625,-400000.0625,-400000.0625
5.2764904499053955,-4903.7001953125,-26374.439453125,-16261.76953125,-400000.0625,-400000.0625,-400000.0625,-400000.0625,-400000.0625
5.287796258926392,-4887.10009765625,-26360.66015625,-16247.23046875,-400000.0625,-400000.0625,-400000.0625,-400000.0625,-400000.0625
5.298831939697266,-4881.72021484375,-26365.279296875,-16254.1904296875,-400000.0625,-400000.0625,-400000.0625,-400000.0625,-400000.0625
5.319544792175293,-4892.77978515625,-26377.869140625,-16267.400390625,-400000.0625,-400000.0625,-400000.0625,-400000.0625,-400000.0625
5.334237098693848,-4901.60009765625,-26390.130859375,-16274.2197265625,-400000.0625,-400000.0625,-400000.0625,-400000.0625,-400000.0625
5.3499672412872314,-4896.68994140625,-26381.58984375,-16264.3896484375,-400000.0625,-400000.0625,-400000.0625,-400000.0625,-400000.0625
5.364175796508789,-4882.85986328125,-26368.810546875,-16251.51953125,-400000.0625,-400000.0625,-400000.0625,-400000.0625,-400000.0625
5.379389524459839,-4878.3798828125,-26376.349609375,-16252.2802734375,-400000.0625,-400000.0625,-400000.0625,-400000.0625,-400000.0625
5.394343137741089,-4890.009765625,-26388.359375,-16264.25,-400000.0625,-400000.0625,-400000.0625,-400000.0625,-400000.0625
5.414057016372681,-4898.8798828125,-26400.140625,-16273.1201171875,-400000.0625,-400000.0625,-400000.0625,-400000.0625,-400000.0625
5.426534652709961,-4897.64013671875,-26397.369140625,-16263.5302734375,-400000.0625,-400000.0625,-400000.0625,-400000.0625,-400000.0625
5.44156289100647,-4884.52978515625,-26390.41015625,-16255.0498046875,-400000.0625,-400000.0625,-400000.0625,-400000.0625,-400000.0625
5.4570958614349365,-4878.6201171875,-26386.169921875,-16249.6103515625,-400000.0625,-400000.0625,-400000.0625,-400000.0625,-400000.0625
5.47005558013916,-4888.72998046875,-26396.66015625,-16256.1396484375,-400000.0625,-400000.0625,-400000.0625,-400000.0625,-400000.0625
5.4831202030181885,-4898.2099609375,-26399.66015625,-16264.8701171875,-400000.0625,-400000.0625,-400000.0625,-400000.0625,-400000.0625
5.498638391494751,-4891.35009765625,-26401.05078125,-16263.73046875,-400000.0625,-400000.0625,-400000.0625,-400000.0625,-400000.0625
5.517379283905029,-4874.27978515625,-26390.26953125,-16252.5703125,-400000.0625,-400000.0625,-400000.0625,-400000.0625,-400000.0625
5.529223918914795,-4877.18994140625,-26388.26953125,-16253.9501953125,-400000.0625,-400000.0625,-400000.0625,-400000.0625,-400000.0625
5.540984630584717,-4891.6298828125,-26409.390625,-16267.7802734375,-400000.0625,-400000.0625,-400000.0625,-400000.0625,-400000.0625
5.551782846450806,-4898.740234375,-26421.83984375,-16270.58984375,-400000.0625,-400000.0625,-400000.0625,-400000.0625,-400000.0625
5.561941385269165,-4890.77978515625,-26411.19921875,-16257.240234375,-400000.0625,-400000.0625,-400000.0625,-400000.0625,-400000.0625
5.575949668884277,-4874.419921875,-26402.759765625,-16250.7099609375,-400000.0625,-400000.0625,-400000.0625,-400000.0625,-400000.0625
5.587744474411011,-4878.85986328125,-26403.669921875,-16254.669921875,-400000.0625,-400000.0625,-400000.0625,-400000.0625,-400000.0625
5.599647521972656,-4896.06982421875,-26412.58984375,-16267.1103515625,-400000.0625,-400000.0625,-400000.0625,-400000.0625,-400000.0625
5.61790657043457,-4903.080078125,-26428.3203125,-16276.3095703125,-400000.0625,-400000.0625,-400000.0625,-400000.0625,-400000.0625
5.628389596939087,-4898.93017578125,-26424.83984375,-16272.5,-400000.0625,-400000.0625,-400000.0625,-400000.0625,-400000.0625
5.643214225769043,-4888.580078125,-26408.390625,-16259.2001953125,-400000.0625,-400000.0625,-400000.0625,-400000.0625,-400000.0625
5.654984474182129,-4879.81005859375,-26410.009765625,-16254.9501953125,-400000.0625,-400000.0625,-400000.0625,-400000.0625,-400000.0625
5.666352987289429,-4890.2998046875,-26429.26953125,-16266.2998046875,-400000.0625,-400000.0625,-400000.0625,-400000.0625,-400000.0625
5.674074649810791,-4903.60009765625,-26439.48046875,-16273.6904296875,-400000.0625,-400000.0625,-400000.0625,-400000.0625,-400000.0625
5.6880202293396,-4898.830078125,-26436.859375,-16264.349609375,-400000.0625,-400000.0625,-400000.0625,-400000.0625,-400000.0625
5.699612140655518,-4883.43017578125,-26418.310546875,-16252.4697265625,-400000.0625,-400000.0625,-400000.0625,-400000.0625,-400000.0625
5.71536660194397,-4879.330078125,-26417.310546875,-16255.9501953125,-400000.0625,-400000.0625,-400000.0625,-400000.0625,-400000.0625
5.7287445068359375,-4896.93017578125,-26432.470703125,-16269.16015625,-400000.0625,-400000.0625,-400000.0625,-400000.0625,-400000.0625
5.738380193710327,-4909.7099609375,-26448.919921875,-16276.41015625,-400000.0625,-400000.0625,-400000.0625,-400000.0625,-400000.0625
5.7501060962677,-4906.1298828125,-26443.720703125,-16270.349609375,-400000.0625,-400000.0625,-400000.0625,-400000.0625,-400000.0625
5.765391826629639,-4888.14990234375,-26433.7109375,-16256.759765625,-400000.0625,-400000.0625,-400000.0625,-400000.0625,-400000.0625
5.778043508529663,-4881.81005859375,-26433.66015625,-16257.91015625,-400000.0625,-400000.0625,-400000.0625,-400000.0625,-400000.0625
5.795003652572632,-4893.39990234375,-26446.060546875,-16269.830078125,-400000.0625,-400000.0625,-400000.0625,-400000.0625,-400000.0625
5.806659460067749,-4909.7998046875,-26463.080078125,-16283.7001953125,-400000.0625,-400000.0625,-400000.0625,-400000.0625,-400000.0625
5.823616027832031,-4902.1201171875,-26463.029296875,-16282.849609375,-400000.0625,-400000.0625,-400000.0625,-400000.0625,-400000.0625
5.8364784717559814,-4882.56982421875,-26450.6796875,-16273.5,-400000.0625,-400000.0625,-400000.0625,-400000.0625,-400000.0625
5.848609447479248,-4877.3798828125,-26447.109375,-16267.490234375,-400000.0625,-400000.0625,-400000.0625,-400000.0625,-400000.0625
5.863853693008423,-4897.06982421875,-26450.44921875,-16265.009765625,-400000.0625,-400000.0625,-400000.0625,-400000.0625,-400000.0625
5.877446174621582,-4911.47021484375,-26467.759765625,-16282.1298828125,-400000.0625,-400000.0625,-400000.0625,-400000.0625,-400000.0625
5.892663240432739,-4913.0400390625,-26482.919921875,-16286.08984375,-400000.0625,-400000.0625,-400000.0625,-400000.0625,-400000.0625
5.905729293823242,-4884.2900390625,-26482.779296875,-16270.9697265625,-400000.0625,-400000.0625,-400000.0625,-400000.0625,-400000.0625
5.921130657196045,-4863.35986328125,-26478.869140625,-16282.75,-400000.0625,-400000.0625,-400000.0625,-400000.0625,-400000.0625
5.936376571655273,-4874.75,-26489.259765625,-16307.5498046875,-400000.0625,-400000.0625,-400000.0625,-400000.0625,-400000.0625
5.949100017547607,-4890.77978515625,-26511.619140625,-16327.4296875,-400000.0625,-400000.0625,-400000.0625,-400000.0625,-400000.0625
5.963316202163696,-4887.14990234375,-26514.630859375,-16333.009765625,-400000.0625,-400000.0625,-400000.0625,-400000.0625,-400000.0625
5.977555513381958,-4866.4599609375,-26506.669921875,-16332.4404296875,-400000.0625,-400000.0625,-400000.0625,-400000.0625,-400000.0625
5.991013050079346,-4852.25,-26510.529296875,-16342.01953125,-400000.0625,-400000.0625,-400000.0625,-400000.0625,-400000.0625
6.005828619003296,-4858.10986328125,-26529.98046875,-16359.1396484375,-400000.0625,-400000.0625,-400000.0625,-400000.0625,-400000.0625
6.02576756477356,-4870.89013671875,-26545.9609375,-16371.0595703125,-400000.0625,-400000.0625,-400000.0625,-400000.0625,-400000.0625
6.042753458023071,-4870.7998046875,-26545.150390625,-16369.919921875,-400000.0625,-400000.0625,-400000.0625,-400000.0625,-400000.0625
6.060650825500488,-4857.10986328125,-26536.80078125,-16359.240234375,-400000.0625,-400000.0625,-400000.0625,-400000.0625,-400000.0625
6.074890613555908,-4850.77001953125,-26530.130859375,-16354.0400390625,-400000.0625,-400000.0625,-400000.0625,-400000.0625,-400000.0625
6.089160919189453,-4862.2099609375,-26541.759765625,-16368.33984375,-400000.0625,-400000.0625,-400000.0625,-400000.0625,-400000.0625
6.106466293334961,-4872.18017578125,-26554.6796875,-16376.5,-400000.0625,-400000.0625,-400000.0625,-400000.0625,-400000.0625
6.127663612365723,-4867.7001953125,-26547.630859375,-16365.4296875,-400000.0625,-400000.0625,-400000.0625,-400000.0625,-400000.0625
6.141393661499023,-4853.8701171875,-26541.7109375,-16360.51953125,-400000.0625,-400000.0625,-400000.0625,-400000.0625,-400000.0625
6.1571433544158936,-4849.39013671875,-26538.1796875,-16355.08984375,-400000.0625,-400000.0625,-400000.0625,-400000.0625,-400000.0625
6.1739661693573,-4862.06982421875,-26549.439453125,-16363.240234375,-400000.0625,-400000.0625,-400000.0625,-400000.0625,-400000.0625
6.187410116195679,-4870.1298828125,-26561.359375,-16374.16015625,-400000.0625,-400000.0625,-400000.0625,-400000.0625,-400000.0625
6.203740119934082,-4863.22021484375,-26562.169921875,-16370.8701171875,-400000.0625,-400000.0625,-400000.0625,-400000.0625,-400000.0625
6.225745916366577,-4846.2900390625,-26546.4296875,-16351.3701171875,-400000.0625,-400000.0625,-400000.0625,-400000.0625,-400000.0625
6.239287614822388,-4845.330078125,-26546.619140625,-16353.4697265625,-400000.0625,-400000.0625,-400000.0625,-400000.0625,-400000.0625
6.254040718078613,-4859.31005859375,-26560.259765625,-16366.2001953125,-400000.0625,-400000.0625,-400000.0625,-400000.0625,-400000.0625
6.271721839904785,-4867.509765625,-26566.130859375,-16370.349609375,-400000.0625,-400000.0625,-400000.0625,-400000.0625,-400000.0625
6.28751277923584,-4860.31005859375,-26567.939453125,-16364.76953125,-400000.0625,-400000.0625,-400000.0625,-400000.0625,-400000.0625
6.302751064300537,-4844.759765625,-26555.640625,-16352.849609375,-400000.0625,-400000.0625,-400000.0625,-400000.0625,-400000.0625
6.32188081741333,-4845.81005859375,-26556.349609375,-16354.2802734375,-400000.0625,-400000.0625,-400000.0625,-400000.0625,-400000.0625
6.339682579040527,-4859.5,-26569.66015625,-16361.330078125,-400000.0625,-400000.0625,-400000.0625,-400000.0625,-400000.0625
6.355209589004517,-4870.1298828125,-26579.9609375,-16370.3896484375,-400000.0625,-400000.0625,-400000.0625,-400000.0625,-400000.0625
6.369402647018433,-4854.72998046875,-26570.66015625,-16362.91015625,-400000.0625,-400000.0625,-400000.0625,-400000.0625,-400000.0625
6.386760711669922,-4836.18017578125,-26560.0703125,-16350.080078125,-400000.0625,-400000.0625,-400000.0625,-400000.0625,-400000.0625
6.399706602096558,-4844.18994140625,-26566.990234375,-16357.2802734375,-400000.0625,-400000.0625,-400000.0625,-400000.0625,-400000.0625
6.418020963668823,-4855.25,-26579.189453125,-16369.6298828125,-400000.0625,-400000.0625,-400000.0625,-400000.0625,-400000.0625
6.434377670288086,-4867.509765625,-26584.439453125,-16370.7802734375,-400000.0625,-400000.0625,-400000.0625,-400000.0625,-400000.0625
6.451006174087524,-4864.7900390625,-26586.76953125,-16371.349609375,-400000.0625,-400000.0625,-400000.0625,-400000.0625,-400000.0625
6.46457052230835,-4851.72021484375,-26578.669921875,-16359.4697265625,-400000.0625,-400000.0625,-400000.0625,-400000.0625,-400000.0625
6.482869863510132,-4846.2900390625,-26575.900390625,-16357.849609375,-400000.0625,-400000.0625,-400000.0625,-400000.0625,-400000.0625
6.496438503265381,-4855.25,-26594.01953125,-16370.8203125,-400000.0625,-400000.0625,-400000.0625,-400000.0625,-400000.0625
6.5137457847595215,-4873.1298828125,-26597.0703125,-16376.349609375,-400000.0625,-400000.0625,-400000.0625,-400000.0625,-400000.0625
6.531073570251465,-4872.47021484375,-26592.73046875,-16366.91015625,-400000.0625,-400000.0625,-400000.0625,-400000.0625,-400000.0625
6.545161485671997,-4852.9599609375,-26582.8203125,-16360.7099609375,-400000.0625,-400000.0625,-400000.0625,-400000.0625,-400000.0625
6.56339955329895,-4843.81005859375,-26581.859375,-16359.240234375,-400000.0625,-400000.0625,-400000.0625,-400000.0625,-400000.0625
6.5761191844940186,-4855.2001953125,-26603.3203125,-16374.7802734375,-400000.0625,-400000.0625,-400000.0625,-400000.0625,-400000.0625
6.588372230529785,-4876.759765625,-26612.859375,-16382.7900390625,-400000.0625,-400000.0625,-400000.0625,-400000.0625,-400000.0625
6.601977109909058,-4870.89013671875,-26605.849609375,-16373.6796875,-400000.0625,-400000.0625,-400000.0625,-400000.0625,-400000.0625
6.62387228012085,-4853.919921875,-26600.169921875,-16366.580078125,-400000.0625,-400000.0625,-400000.0625,-400000.0625,-400000.0625
6.637092113494873,-4850.43994140625,-26606.1796875,-16369.4404296875,-400000.0625,-400000.0625,-400000.0625,-400000.0625,-400000.0625
6.651559829711914,-4864.8798828125,-26615.0,-16376.16015625,-400000.0625,-400000.0625,-400000.0625,-400000.0625,-400000.0625
6.6656763553619385,-4874.60986328125,-26626.16015625,-16383.3603515625,-400000.0625,-400000.0625,-400000.0625,-400000.0625,-400000.0625
6.6801228523254395,-4869.1298828125,-26620.919921875,-16378.830078125,-400000.0625,-400000.0625,-400000.0625,-400000.0625,-400000.0625
6.6931397914886475,-4855.81982421875,-26608.1796875,-16371.349609375,-400000.0625,-400000.0625,-400000.0625,-400000.0625,-400000.0625
6.707765579223633,-4848.2900390625,-26605.69921875,-16360.9501953125,-400000.0625,-400000.0625,-400000.0625,-400000.0625,-400000.0625
6.7251136302948,-4858.8798828125,-26620.6796875,-16374.830078125,-400000.0625,-400000.0625,-400000.0625,-400000.0625,-400000.0625
6.738068342208862,-4874.89990234375,-26635.029296875,-16387.66015625,-400000.0625,-400000.0625,-400000.0625,-400000.0625,-400000.0625
6.753789186477661,-4869.509765625,-26633.689453125,-16381.6904296875,-400000.0625,-400000.0625,-400000.0625,-400000.0625,-400000.0625
6.76839804649353,-4852.6298828125,-26630.2109375,-16375.259765625,-400000.0625,-400000.0625,-400000.0625,-400000.0625,-400000.0625
6.781655788421631,-4849.2001953125,-26633.599609375,-16375.5400390625,-400000.0625,-400000.0625,-400000.0625,-400000.0625,-400000.0625
6.797826766967773,-4865.7900390625,-26632.7890625,-16378.599609375,-400000.0625,-400000.0625,-400000.0625,-400000.0625,-400000.0625
6.816917419433594,-4878.0,-26644.470703125,-16392.849609375,-400000.0625,-400000.0625,-400000.0625,-400000.0625,-400000.0625
6.834679841995239,-4877.759765625,-26633.119140625,-16383.4599609375,-400000.0625,-400000.0625,-400000.0625,-400000.0625,-400000.0625
6.850475549697876,-4855.58984375,-26629.5,-16377.400390625,-400000.0625,-400000.0625,-400000.0625,-400000.0625,-400000.0625
6.862927198410034,-4842.3798828125,-26628.9296875,-16364.76953125,-400000.0625,-400000.0625,-400000.0625,-400000.0625,-400000.0625
6.878890752792358,-4855.25,-26602.4609375,-16352.23046875,-400000.0625,-400000.0625,-400000.0625,-400000.0625,-400000.0625
6.8928000926971436,-4865.1201171875,-26582.19921875,-16339.830078125,-400000.0625,-400000.0625,-400000.0625,-400000.0625,-400000.0625
6.905560255050659,-4854.009765625,-26552.30078125,-16312.26953125,-400000.0625,-400000.0625,-400000.0625,-400000.0625,-400000.0625
6.927740097045898,-4839.9501953125,-26513.76953125,-16278.599609375,-400000.0625,-400000.0625,-400000.0625,-400000.0625,-400000.0625
6.9409379959106445,-4837.990234375,-26488.119140625,-16261.91015625,-400000.0625,-400000.0625,-400000.0625,-400000.0625,-400000.0625
6.956164121627808,-4855.5400390625,-26484.01953125,-16264.490234375,-400000.0625,-400000.0625,-400000.0625,-400000.0625,-400000.0625
6.971538305282593,-4860.2099609375,-26484.30078125,-16257.0,-400000.0625,-400000.0625,-400000.0625,-400000.0625,-400000.0625
6.987932920455933,-4849.14990234375,-26467.609375,-16237.6396484375,-400000.0625,-400000.0625,-400000.0625,-400000.0625,-400000.0625
7.001466751098633,-4832.7900390625,-26436.08984375,-16214.66015625,-400000.0625,-400000.0625,-400000.0625,-400000.0625,-400000.0625
7.020941734313965,-4824.5,-26431.900390625,-16208.509765625,-400000.0625,-400000.0625,-400000.0625,-400000.0625,-400000.0625
7.03662896156311,-4841.330078125,-26434.94921875,-16209.650390625,-400000.0625,-400000.0625,-400000.0625,-400000.0625,-400000.0625
7.050773859024048,-4853.06005859375,-26433.80078125,-16215.849609375,-400000.0625,-400000.0625,-400000.0625,-400000.0625,-400000.0625
7.06660008430481,-4848.77001953125,-26435.189453125,-16209.7001953125,-400000.0625,-400000.0625,-400000.0625,-400000.0625,-400000.0625
7.081726551055908,-4834.27001953125,-26437.0,-16207.5498046875,-400000.0625,-400000.0625,-400000.0625,-400000.0625,-400000.0625
7.101986646652222,-4831.1201171875,-26421.41015625,-16203.98046875,-400000.0625,-400000.0625,-400000.0625,-400000.0625,-400000.0625
7.12415075302124,-4844.6201171875,-26426.080078125,-16207.7900390625,-400000.0625,-400000.0625,-400000.0625,-400000.0625,-400000.0625
7.140425682067871,-4856.97021484375,-26443.76953125,-16217.900390625,-400000.0625,-400000.0625,-400000.0625,-400000.0625,-400000.0625
7.15444803237915,-4852.52978515625,-26442.580078125,-16212.7998046875,-400000.0625,-400000.0625,-400000.0625,-400000.0625,-400000.0625
7.171939134597778,-4833.31982421875,-26433.08984375,-16204.259765625,-400000.0625,-400000.0625,-400000.0625,-400000.0625,-400000.0625
7.186715364456177,-4829.60009765625,-26434.849609375,-16208.0302734375,-400000.0625,-400000.0625,-400000.0625,-400000.0625,-400000.0625
7.2029712200164795,-4844.0,-26444.720703125,-16218.900390625,-400000.0625,-400000.0625,-400000.0625,-400000.0625,-400000.0625
7.221806764602661,-4861.8798828125,-26450.58984375,-16219.4296875,-400000.0625,-400000.0625,-400000.0625,-400000.0625,-400000.0625
7.238203287124634,-4852.009765625,-26448.490234375,-16216.330078125,-400000.0625,-400000.0625,-400000.0625,-400000.0625,-400000.0625
7.254945278167725,-4836.1298828125,-26441.859375,-16206.599609375,-400000.0625,-400000.0625,-400000.0625,-400000.0625,-400000.0625
7.268531322479248,-4831.35986328125,-26450.349609375,-16211.1796875,-400000.0625,-400000.0625,-400000.0625,-400000.0625,-400000.0625
7.285802364349365,-4843.14013671875,-26464.0390625,-16226.099609375,-400000.0625,-400000.0625,-400000.0625,-400000.0625,-400000.0625
7.300500869750977,-4858.58984375,-26472.330078125,-16230.4404296875,-400000.0625,-400000.0625,-400000.0625,-400000.0625,-400000.0625
7.320828914642334,-4860.02001953125,-26465.0390625,-16224.0,-400000.0625,-400000.0625,-400000.0625,-400000.0625,-400000.0625
7.333092927932739,-4842.14013671875,-26455.44921875,-16214.7099609375,-400000.0625,-400000.0625,-400000.0625,-400000.0625,-400000.0625
7.345460653305054,-4840.419921875,-26452.01953125,-16211.1298828125,-400000.0625,-400000.0625,-400000.0625,-400000.0625,-400000.0625
7.363089084625244,-4848.18994140625,-26465.7109375,-16222.91015625,-400000.0625,-400000.0625,-400000.0625,-400000.0625,-400000.0625
7.376470327377319,-4858.830078125,-26486.400390625,-16235.400390625,-400000.0625,-400000.0625,-400000.0625,-400000.0625,-400000.0625
7.389873743057251,-4859.5,-26480.30078125,-16233.7802734375,-400000.0625,-400000.0625,-400000.0625,-400000.0625,-400000.0625
7.404341220855713,-4847.669921875,-26472.859375,-16220.8603515625,-400000.0625,-400000.0625,-400000.0625,-400000.0625,-400000.0625
7.422825813293457,-4840.56982421875,-26472.669921875,-16224.8203125,-400000.0625,-400000.0625,-400000.0625,-400000.0625,-400000.0625
7.435035705566406,-4853.10986328125,-26481.009765625,-16236.58984375,-400000.0625,-400000.0625,-400000.0625,-400000.0625,-400000.0625
7.45001745223999,-4870.7998046875,-26490.5,-16239.98046875,-400000.0625,-400000.0625,-400000.0625,-400000.0625,-400000.0625
7.467121601104736,-4867.97998046875,-26486.259765625,-16237.0703125,-400000.0625,-400000.0625,-400000.0625,-400000.0625,-400000.0625
7.482216119766235,-4853.2998046875,-26471.189453125,-16219.759765625,-400000.0625,-400000.0625,-400000.0625,-400000.0625,-400000.0625
7.499755144119263,-4848.0,-26475.05078125,-16221.0498046875,-400000.0625,-400000.0625,-400000.0625,-400000.0625,-400000.0625
7.521749019622803,-4863.41015625,-26494.509765625,-16243.169921875,-400000.0625,-400000.0625,-400000.0625,-400000.0625,-400000.0625
7.538529634475708,-4879.08984375,-26504.08984375,-16252.849609375,-400000.0625,-400000.0625,-400000.0625,-400000.0625,-400000.0625
7.553276300430298,-4871.22998046875,-26495.220703125,-16243.98046875,-400000.0625,-400000.0625,-400000.0625,-400000.0625,-400000.0625
7.569689035415649,-4858.06982421875,-26481.109375,-16228.76953125,-400000.0625,-400000.0625,-400000.0625,-400000.0625,-400000.0625
7.586353778839111,-4849.6298828125,-26487.349609375,-16236.0703125,-400000.0625,-400000.0625,-400000.0625,-400000.0625,-400000.0625
7.599128246307373,-4857.35009765625,-26505.4296875,-16251.3798828125,-400000.0625,-400000.0625,-400000.0625,-400000.0625,-400000.0625
7.619784355163574,-4867.080078125,-26513.76953125,-16257.1396484375,-400000.0625,-400000.0625,-400000.0625,-400000.0625,-400000.0625
7.6347997188568115,-4864.41015625,-26504.140625,-16250.419921875,-400000.0625,-400000.0625,-400000.0625,-400000.0625,-400000.0625
7.648494482040405,-4854.8701171875,-26487.16015625,-16230.6298828125,-400000.0625,-400000.0625,-400000.0625,-400000.0625,-400000.0625
7.664992094039917,-4849.39013671875,-26480.30078125,-16228.490234375,-400000.0625,-400000.0625,-400000.0625,-400000.0625,-400000.0625
7.677889108657837,-4854.5400390625,-26502.1796875,-16247.23046875,-400000.0625,-400000.0625,-400000.0625,-400000.0625,-400000.0625
7.690487623214722,-4866.31005859375,-26506.470703125,-16249.990234375,-400000.0625,-400000.0625,-400000.0625,-400000.0625,-400000.0625
7.706273555755615,-4864.35986328125,-26505.7109375,-16247.66015625,-400000.0625,-400000.0625,-400000.0625,-400000.0625,-400000.0625
7.724282741546631,-4853.6298828125,-26501.0390625,-16242.3603515625,-400000.0625,-400000.0625,-400000.0625,-400000.0625,-400000.0625
7.73956036567688,-4854.5400390625,-26497.220703125,-16237.58984375,-400000.0625,-400000.0625,-400000.0625,-400000.0625,-400000.0625
7.755085468292236,-4867.5498046875,-26507.2890625,-16245.1298828125,-400000.0625,-400000.0625,-400000.0625,-400000.0625,-400000.0625
7.768210172653198,-4874.56005859375,-26516.580078125,-16255.5703125,-400000.0625,-400000.0625,-400000.0625,-400000.0625,-400000.0625
7.7824976444244385,-4865.740234375,-26521.30078125,-16255.5703125,-400000.0625,-400000.0625,-400000.0625,-400000.0625,-400000.0625
7.797692775726318,-4855.97021484375,-26504.380859375,-16244.75,-400000.0625,-400000.0625,-400000.0625,-400000.0625,-400000.0625
7.817742824554443,-4858.35009765625,-26498.029296875,-16243.41015625,-400000.0625,-400000.0625,-400000.0625,-400000.0625,-400000.0625
7.830662965774536,-4867.02978515625,-26511.4296875,-16254.4296875,-400000.0625,-400000.0625,-400000.0625,-400000.0625,-400000.0625
7.845955848693848,-4882.52978515625,-26522.5,-16264.6796875,-400000.0625,-400000.0625,-400000.0625,-400000.0625,-400000.0625
7.861599445343018,-4878.89990234375,-26517.6796875,-16260.580078125,-400000.0625,-400000.0625,-400000.0625,-400000.0625,-400000.0625
7.876037836074829,-4862.169921875,-26512.9609375,-16252.8095703125,-400000.0625,-400000.0625,-400000.0625,-400000.0625,-400000.0625
7.890585660934448,-4860.35009765625,-26520.2109375,-16261.2001953125,-400000.0625,-400000.0625,-400000.0625,-400000.0625,-400000.0625
7.913728713989258,-4874.330078125,-26533.650390625,-16275.4599609375,-400000.0625,-400000.0625,-400000.0625,-400000.0625,-400000.0625
7.928047180175781,-4888.919921875,-26538.470703125,-16275.4599609375,-400000.0625,-400000.0625,-400000.0625,-400000.0625,-400000.0625
7.943519115447998,-4877.14013671875,-26526.650390625,-16263.4404296875,-400000.0625,-400000.0625,-400000.0625,-400000.0625,-400000.0625
7.959002494812012,-4861.77978515625,-26520.919921875,-16257.099609375,-400000.0625,-400000.0625,-400000.0625,-400000.0625,-400000.0625
7.975095748901367,-4861.8798828125,-26521.30078125,-16261.2900390625,-400000.0625,-400000.0625,-400000.0625,-400000.0625,-400000.0625
7.988809585571289,-4874.419921875,-26533.75,-16270.9697265625,-400000.0625,-400000.0625,-400000.0625,-400000.0625,-400000.0625
8.005301475524902,-4882.14990234375,-26538.5703125,-16274.98046875,-400000.0625,-400000.0625,-400000.0625,-400000.0625,-400000.0625
8.026707172393799,-4874.75,-26525.880859375,-16260.8203125,-400000.0625,-400000.0625,-400000.0625,-400000.0625,-400000.0625
8.039970636367798,-4858.919921875,-26515.630859375,-16253.4296875,-400000.0625,-400000.0625,-400000.0625,-400000.0625,-400000.0625
8.056142330169678,-4860.740234375,-26514.869140625,-16253.0400390625,-400000.0625,-400000.0625,-400000.0625,-400000.0625,-400000.0625
8.07009243965149,-4879.0498046875,-26524.259765625,-16266.0595703125,-400000.0625,-400000.0625,-400000.0625,-400000.0625,-400000.0625
8.08663034439087,-4888.25,-26543.720703125,-16281.23046875,-400000.0625,-400000.0625,-400000.0625,-400000.0625,-400000.0625
8.101016283035278,-4887.8701171875,-26543.94921875,-16276.7900390625,-400000.0625,-400000.0625,-400000.0625,-400000.0625,-400000.0625
8.182129144668579,-4828.06982421875,-26620.30078125,-16468.189453125,-400000.0625,-400000.0625,-400000.0625,-400000.0625,-400000.0625
8.251172542572021,-4808.89990234375,-26616.810546875,-16463.140625,-400000.0625,-400000.0625,-400000.0625,-400000.0625,-400000.0625
8.449621438980103,-4817.580078125,-26640.66015625,-16486.740234375,-400000.0625,-400000.0625,-400000.0625,-400000.0625,-400000.0625
8.494610786437988,-4818.8701171875,-26641.80078125,-16491.509765625,-400000.0625,-400000.0625,-400000.0625,-400000.0625,-400000.0625
8.58468747138977,-4717.39990234375,-26475.2890625,-16439.060546875,-400000.0625,-400000.0625,-400000.0625,-400000.0625,-400000.0625
8.626539945602417,-4737.89990234375,-26473.330078125,-16456.560546875,-400000.0625,-400000.0625,-400000.0625,-400000.0625,-400000.0625
8.787238121032715,-4739.9501953125,-26501.900390625,-16466.189453125,-400000.0625,-400000.0625,-400000.0625,-400000.0625,-400000.0625
8.827584266662598,-4774.18994140625,-26488.400390625,-16450.119140625,-400000.0625,-400000.0625,-400000.0625,-400000.0625,-400000.0625
8.857017040252686,-4774.7099609375,-26492.41015625,-16461.900390625,-400000.0625,-400000.0625,-400000.0625,-400000.0625,-400000.0625
8.878422021865845,-4780.72021484375,-26510.189453125,-16476.779296875,-400000.0625,-400000.0625,-400000.0625,-400000.0625,-400000.0625
8.9673171043396,-4822.16015625,-26575.140625,-16514.640625,-400000.0625,-400000.0625,-400000.0625,-400000.0625,-400000.0625
9.030141115188599,-4845.81005859375,-26638.939453125,-16511.349609375,-400000.0625,-400000.0625,-400000.0625,-400000.0625,-400000.0625
9.14358925819397,-4834.27001953125,-26603.419921875,-16486.4609375,-400000.0625,-400000.0625,-400000.0625,-400000.0625,-400000.0625
9.293310642242432,-4745.52978515625,-26497.609375,-16471.19921875,-400000.0625,-400000.0625,-400000.0625,-400000.0625,-400000.0625
9.327317237854004,-4759.35986328125,-26500.560546875,-16474.19921875,-400000.0625,-400000.0625,-400000.0625,-400000.0625,-400000.0625
9.441848754882812,-4846.10009765625,-26618.91015625,-16513.439453125,-400000.0625,-400000.0625,-400000.0625,-400000.0625,-400000.0625
9.599544286727905,-4797.41015625,-26586.439453125,-16483.169921875,-400000.0625,-400000.0625,-400000.0625,-400000.0625,-400000.0625
9.71826958656311,-4808.3798828125,-26578.859375,-16485.310546875,-400000.0625,-400000.0625,-400000.0625,-400000.0625,-400000.0625
9.793161630630493,-4822.919921875,-26606.560546875,-16502.140625,-400000.0625,-400000.0625,-400000.0625,-400000.0625,-400000.0625
9.860203266143799,-4801.18017578125,-26588.779296875,-16487.7890625,-400000.0625,-400000.0625,-400000.0625,-400000.0625,-400000.0625
10.002501010894775,-4806.3798828125,-26592.689453125,-16498.66015625,-400000.0625,-400000.0625,-400000.0625,-400000.0625,-400000.0625
10.093656778335571,-4818.68017578125,-26605.3203125,-16508.25,-400000.0625,-400000.0625,-400000.0625,-400000.0625,-400000.0625
10.148128986358643,-4818.9599609375,-26600.890625,-16502.810546875,-400000.0625,-400000.0625,-400000.0625,-400000.0625,-400000.0625
10.163153409957886,-4812.10009765625,-26608.80078125,-16504.76953125,-400000.0625,-400000.0625,-400000.0625,-400000.0625,-400000.0625
10.221836566925049,-4823.77978515625,-26628.689453125,-16519.0703125,-400000.0625,-400000.0625,-400000.0625,-400000.0625,-400000.0625
10.332251787185669,-4816.490234375,-26598.740234375,-16499.330078125,-400000.0625,-400000.0625,-400000.0625,-400000.0625,-400000.0625
10.377212285995483,-4819.81982421875,-26608.51953125,-16502.720703125,-400000.0625,-400000.0625,-400000.0625,-400000.0625,-400000.0625
10.489980936050415,-4817.25,-26603.560546875,-16485.7890625,-400000.0625,-400000.0625,-400000.0625,-400000.0625,-400000.0625
10.594074964523315,-4820.06005859375,-26612.0,-16488.7890625,-400000.0625,-400000.0625,-400000.0625,-400000.0625,-400000.0625
10.60999846458435,-4830.35986328125,-26614.9609375,-16495.1796875,-400000.0625,-400000.0625,-400000.0625,-400000.0625,-400000.0625
10.6975998878479,-4845.72021484375,-26625.970703125,-16501.330078125,-400000.0625,-400000.0625,-400000.0625,-400000.0625,-400000.0625
10.747082710266113,-4834.509765625,-26624.779296875,-16498.419921875,-400000.0625,-400000.0625,-400000.0625,-400000.0625,-400000.0625
10.809089660644531,-4833.7900390625,-26629.259765625,-16500.380859375,-400000.0625,-400000.0625,-400000.0625,-400000.0625,-400000.0625
10.875731468200684,-4830.06982421875,-26630.830078125,-16489.509765625,-400000.0625,-400000.0625,-400000.0625,-400000.0625,-400000.0625
10.944937705993652,-4847.81005859375,-26626.44921875,-16491.4609375,-400000.0625,-400000.0625,-400000.0625,-400000.0625,-400000.0625
10.984740734100342,-4835.93994140625,-26624.779296875,-16488.080078125,-400000.0625,-400000.0625,-400000.0625,-400000.0625,-400000.0625
11.07539439201355,-4847.56982421875,-26640.130859375,-16491.220703125,-400000.0625,-400000.0625,-400000.0625,-400000.0625,-400000.0625
11.12311840057373,-4827.68994140625,-26621.6796875,-16476.58984375,-400000.0625,-400000.0625,-400000.0625,-400000.0625,-400000.0625
11.34700894355774,-4845.81005859375,-26621.490234375,-16485.55078125,-400000.0625,-400000.0625,-400000.0625,-400000.0625,-400000.0625
11.389556407928467,-4872.85009765625,-26674.419921875,-16524.029296875,-400000.0625,-400000.0625,-400000.0625,-400000.0625,-400000.0625
11.431843996047974,-4857.830078125,-26654.91015625,-16512.109375,-400000.0625,-400000.0625,-400000.0625,-400000.0625,-400000.0625
11.521435737609863,-4919.009765625,-26730.490234375,-16581.580078125,-400000.0625,-400000.0625,-400000.0625,-400000.0625,-400000.0625
11.577733039855957,-4945.08984375,-26738.220703125,-16584.6796875,-400000.0625,-400000.0625,-400000.0625,-400000.0625,-400000.0625
11.637267589569092,-4894.58984375,-26718.720703125,-16579.30078125,-400000.0625,-400000.0625,-400000.0625,-400000.0625,-400000.0625
11.705977439880371,-4833.41015625,-26658.5390625,-16513.349609375,-400000.0625,-400000.0625,-400000.0625,-400000.0625,-400000.0625
11.773229837417603,-4790.259765625,-26684.099609375,-16559.83984375,-400000.0625,-400000.0625,-400000.0625,-400000.0625,-400000.0625
11.842763423919678,-4632.43017578125,-26689.720703125,-16654.779296875,-400000.0625,-400000.0625,-400000.0625,-400000.0625,-400000.0625
12.023322343826294,-4635.3798828125,-26673.26953125,-16623.55078125,-400000.0625,-400000.0625,-400000.0625,-400000.0625,-400000.0625
12.073946714401245,-4617.31005859375,-26680.66015625,-16627.359375,-400000.0625,-400000.0625,-400000.0625,-400000.0625,-400000.0625
12.268065214157104,-4638.14990234375,-26695.2109375,-16624.7890625,-400000.0625,-400000.0625,-400000.0625,-400000.0625,-400000.0625
12.327924966812134,-4653.35986328125,-26709.990234375,-16632.69921875,-400000.0625,-400000.0625,-400000.0625,-400000.0625,-400000.0625
12.364610195159912,-4652.35986328125,-26706.75,-16629.3203125,-400000.0625,-400000.0625,-400000.0625,-400000.0625,-400000.0625
12.410541772842407,-4659.080078125,-26715.0390625,-16637.419921875,-400000.0625,-400000.0625,-400000.0625,-400000.0625,-400000.0625
12.627161741256714,-4650.830078125,-26723.630859375,-16635.369140625,-400000.0625,-400000.0625,-400000.0625,-400000.0625,-400000.0625
12.649430751800537,-4660.7001953125,-26730.349609375,-16640.94921875,-400000.0625,-400000.0625,-400000.0625,-400000.0625,-400000.0625
12.71702265739441,-4644.58984375,-26727.16015625,-16639.7109375,-400000.0625,-400000.0625,-400000.0625,-400000.0625,-400000.0625
12.797206163406372,-4650.830078125,-26731.779296875,-16638.140625,-400000.0625,-400000.0625,-400000.0625,-400000.0625,-400000.0625
12.921541452407837,-4669.6201171875,-26751.810546875,-16652.349609375,-400000.0625,-400000.0625,-400000.0625,-400000.0625,-400000.0625
12.975954294204712,-4656.35986328125,-26741.560546875,-16636.560546875,-400000.0625,-400000.0625,-400000.0625,-400000.0625,-400000.0625
13.063452959060669,-4656.1201171875,-26732.970703125,-16636.94921875,-400000.0625,-400000.0625,-400000.0625,-400000.0625,-400000.0625
13.113958597183228,-4659.75,-26741.4609375,-16645.48046875,-400000.0625,-400000.0625,-400000.0625,-400000.0625,-400000.0625
13.176072359085083,-4663.0400390625,-26745.75,-16652.5390625,-400000.0625,-400000.0625,-400000.0625,-400000.0625,-400000.0625
13.235768795013428,-4673.85986328125,-26752.669921875,-16653.25,-400000.0625,-400000.0625,-400000.0625,-400000.0625,-400000.0625
13.312494277954102,-4673.0,-26744.609375,-16646.240234375,-400000.0625,-400000.0625,-400000.0625,-400000.0625,-400000.0625
13.367603063583374,-4672.85986328125,-26722.9609375,-16629.75,-400000.0625,-400000.0625,-400000.0625,-400000.0625,-400000.0625
13.512312173843384,-4748.06005859375,-26715.66015625,-16593.029296875,-400000.0625,-400000.0625,-400000.0625,-400000.0625,-400000.0625
13.626480102539062,-4763.169921875,-26731.779296875,-16601.23046875,-400000.0625,-400000.0625,-400000.0625,-400000.0625,-400000.0625
13.65779733657837,-4746.14990234375,-26708.369140625,-16579.630859375,-400000.0625,-400000.0625,-400000.0625,-400000.0625,-400000.0625
13.751993417739868,-4856.25,-26645.619140625,-16484.0703125,-400000.0625,-400000.0625,-400000.0625,-400000.0625,-400000.0625
13.933589935302734,-4849.240234375,-26644.810546875,-16475.30078125,-400000.0625,-400000.0625,-400000.0625,-400000.0625,-400000.0625
13.974857568740845,-4883.6201171875,-26656.009765625,-16478.349609375,-400000.0625,-400000.0625,-400000.0625,-400000.0625,-400000.0625
13.998383045196533,-4878.43017578125,-26667.029296875,-16484.01953125,-400000.0625,-400000.0625,-400000.0625,-400000.0625,-400000.0625
14.2550208568573,-4946.60986328125,-26730.109375,-16527.890625,-400000.0625,-400000.0625,-400000.0625,-400000.0625,-400000.0625
14.383322715759277,-4884.669921875,-26677.330078125,-16470.33984375,-400000.0625,-400000.0625,-400000.0625,-400000.0625,-400000.0625
14.4528648853302,-4913.0400390625,-26703.4609375,-16499.08984375,-400000.0625,-400000.0625,-400000.0625,-400000.0625,-400000.0625
14.566102743148804,-4915.759765625,-26715.94921875,-16503.2890625,-400000.0625,-400000.0625,-400000.0625,-400000.0625,-400000.0625
14.652122259140015,-4891.490234375,-26695.640625,-16479.970703125,-400000.0625,-400000.0625,-400000.0625,-400000.0625,-400000.0625
14.707165718078613,-4887.009765625,-26684.140625,-16465.5703125,-400000.0625,-400000.0625,-400000.0625,-400000.0625,-400000.0625
14.840718269348145,-4892.68017578125,-26695.779296875,-16483.880859375,-400000.0625,-400000.0625,-400000.0625,-400000.0625,-400000.0625
14.896207571029663,-4864.22021484375,-26676.3203125,-16453.7890625,-400000.0625,-400000.0625,-400000.0625,-400000.0625,-400000.0625
14.955320835113525,-4865.35986328125,-26686.529296875,-16462.94921875,-400000.0625,-400000.0625,-400000.0625,-400000.0625,-400000.0625
15.034661293029785,-4857.64013671875,-26686.76953125,-16460.470703125,-400000.0625,-400000.0625,-400000.0625,-400000.0625,-400000.0625
15.245023250579834,-4889.77001953125,-26704.359375,-16470.76953125,-400000.0625,-400000.0625,-400000.0625,-400000.0625,-400000.0625
15.344524621963501,-4839.08984375,-26667.650390625,-16428.140625,-400000.0625,-400000.0625,-400000.0625,-400000.0625,-400000.0625
15.434790134429932,-4866.169921875,-26696.490234375,-16457.0390625,-400000.0625,-400000.0625,-400000.0625,-400000.0625,-400000.0625
15.470633745193481,-4911.60986328125,-26730.16015625,-16483.689453125,-400000.0625,-400000.0625,-400000.0625,-400000.0625,-400000.0625
15.615911483764648,-4867.1298828125,-26695.060546875,-16443.349609375,-400000.0625,-400000.0625,-400000.0625,-400000.0625,-400000.0625
15.839366436004639,-4879.81005859375,-26723.19921875,-16470.099609375,-400000.0625,-400000.0625,-400000.0625,-400000.0625,-400000.0625
15.87130069732666,-4899.22021484375,-26735.830078125,-16478.830078125,-400000.0625,-400000.0625,-400000.0625,-400000.0625,-400000.0625
15.905458927154541,-4894.919921875,-26736.740234375,-16477.6796875,-400000.0625,-400000.0625,-400000.0625,-400000.0625,-400000.0625
15.931387424468994,-4860.16015625,-26713.990234375,-16455.220703125,-400000.0625,-400000.0625,-400000.0625,-400000.0625,-400000.0625
16.0336492061615,-4879.0,-26728.919921875,-16468.619140625,-400000.0625,-400000.0625,-400000.0625,-400000.0625,-400000.0625
16.168394327163696,-4885.2900390625,-26744.69921875,-16482.44921875,-400000.0625,-400000.0625,-400000.0625,-400000.0625,-400000.0625
16.214104652404785,-4871.509765625,-26725.630859375,-16464.51953125,-400000.0625,-400000.0625,-400000.0625,-400000.0625,-400000.0625
16.30358576774597,-4871.509765625,-26723.19921875,-16472.6796875,-400000.0625,-400000.0625,-400000.0625,-400000.0625,-400000.0625
16.482179164886475,-4860.1201171875,-26705.75,-16457.990234375,-400000.0625,-400000.0625,-400000.0625,-400000.0625,-400000.0625
16.51467490196228,-4870.64990234375,-26712.330078125,-16457.66015625,-400000.0625,-400000.0625,-400000.0625,-400000.0625,-400000.0625
16.57780623435974,-4861.5498046875,-26712.23046875,-16455.69921875,-400000.0625,-400000.0625,-400000.0625,-400000.0625,-400000.0625
16.685208559036255,-4867.7900390625,-26718.189453125,-16457.419921875,-400000.0625,-400000.0625,-400000.0625,-400000.0625,-400000.0625
16.753347158432007,-4892.5400390625,-26739.9296875,-16476.73046875,-400000.0625,-400000.0625,-400000.0625,-400000.0625,-400000.0625
16.82363772392273,-4863.22021484375,-26709.1796875,-16446.0703125,-400000.0625,-400000.0625,-400000.0625,-400000.0625,-400000.0625
16.88933300971985,-4874.08984375,-26713.94921875,-16448.740234375,-400000.0625,-400000.0625,-400000.0625,-400000.0625,-400000.0625
16.965383768081665,-4873.18017578125,-26726.9609375,-16454.939453125,-400000.0625,-400000.0625,-400000.0625,-400000.0625,-400000.0625
17.037022590637207,-4908.419921875,-26739.4609375,-16471.099609375,-400000.0625,-400000.0625,-400000.0625,-400000.0625,-400000.0625
17.145968198776245,-4886.91015625,-26736.01953125,-16473.099609375,-400000.0625,-400000.0625,-400000.0625,-400000.0625,-400000.0625
17.194902420043945,-4856.43994140625,-26708.419921875,-16445.109375,-400000.0625,-400000.0625,-400000.0625,-400000.0625,-400000.0625
17.265010595321655,-4875.3701171875,-26722.05078125,-16468.0,-400000.0625,-400000.0625,-400000.0625,-400000.0625,-400000.0625
17.462393522262573,-4866.7001953125,-26723.580078125,-16463.08984375,-400000.0625,-400000.0625,-400000.0625,-400000.0625,-400000.0625
17.4969162940979,-4898.5,-26748.80078125,-16478.970703125,-400000.0625,-400000.0625,-400000.0625,-400000.0625,-400000.0625
17.518293380737305,-4854.72998046875,-26709.609375,-16446.689453125,-400000.0625,-400000.0625,-400000.0625,-400000.0625,-400000.0625
17.540905952453613,-4862.5498046875,-26732.880859375,-16475.150390625,-400000.0625,-400000.0625,-400000.0625,-400000.0625,-400000.0625
17.587164402008057,-4873.47021484375,-26684.810546875,-16426.80078125,-400000.0625,-400000.0625,-400000.0625,-400000.0625,-400000.0625
17.667093992233276,-5068.10986328125,-26629.310546875,-16272.2099609375,-400000.0625,-400000.0625,-400000.0625,-400000.0625,-400000.0625
17.730724573135376,-5063.10986328125,-26640.939453125,-16266.349609375,-400000.0625,-400000.0625,-400000.0625,-400000.0625,-400000.0625
17.78974437713623,-5072.02001953125,-26651.720703125,-16262.0595703125,-400000.0625,-400000.0625,-400000.0625,-400000.0625,-400000.0625
17.878694772720337,-5055.2900390625,-26640.0390625,-16251.1796875,-400000.0625,-400000.0625,-400000.0625,-400000.0625,-400000.0625
17.90006709098816,-5066.43994140625,-26633.55078125,-16260.48046875,-400000.0625,-400000.0625,-400000.0625,-400000.0625,-400000.0625
17.983116149902344,-5054.7099609375,-26615.189453125,-16264.580078125,-400000.0625,-400000.0625,-400000.0625,-400000.0625,-400000.0625
18.028478384017944,-5068.39990234375,-26612.240234375,-16259.8203125,-400000.0625,-400000.0625,-400000.0625,-400000.0625,-400000.0625
18.10360550880432,-5034.72998046875,-26589.830078125,-16249.5595703125,-400000.0625,-400000.0625,-400000.0625,-400000.0625,-400000.0625
18.17125916481018,-5042.1201171875,-26599.26953125,-16251.2802734375,-400000.0625,-400000.0625,-400000.0625,-400000.0625,-400000.0625
18.237178564071655,-5070.5400390625,-26613.810546875,-16267.0595703125,-400000.0625,-400000.0625,-400000.0625,-400000.0625,-400000.0625
18.43236994743347,-5035.97021484375,-26599.26953125,-16244.2197265625,-400000.0625,-400000.0625,-400000.0625,-400000.0625,-400000.0625
18.55398440361023,-5061.2001953125,-26629.01953125,-16283.4697265625,-400000.0625,-400000.0625,-400000.0625,-400000.0625,-400000.0625
18.70962619781494,-5069.58984375,-26628.740234375,-16286.849609375,-400000.0625,-400000.0625,-400000.0625,-400000.0625,-400000.0625
18.761291027069092,-5063.68017578125,-26634.98046875,-16281.419921875,-400000.0625,-400000.0625,-400000.0625,-400000.0625,-400000.0625
18.77729606628418,-5066.68017578125,-26633.83984375,-16275.6904296875,-400000.0625,-400000.0625,-400000.0625,-400000.0625,-400000.0625
18.79618263244629,-5047.509765625,-26621.25,-16266.16015625,-400000.0625,-400000.0625,-400000.0625,-400000.0625,-400000.0625
18.879775285720825,-5044.990234375,-26624.5390625,-16268.7802734375,-400000.0625,-400000.0625,-400000.0625,-400000.0625,-400000.0625
18.934412956237793,-5043.97998046875,-26629.779296875,-16277.650390625,-400000.0625,-400000.0625,-400000.0625,-400000.0625,-400000.0625
19.03481101989746,-5041.7001953125,-26626.640625,-16270.5,-400000.0625,-400000.0625,-400000.0625,-400000.0625,-400000.0625
19.137267351150513,-5066.81982421875,-26645.470703125,-16289.08984375,-400000.0625,-400000.0625,-400000.0625,-400000.0625,-400000.0625
19.18331813812256,-5045.22021484375,-26638.609375,-16279.41015625,-400000.0625,-400000.0625,-400000.0625,-400000.0625,-400000.0625
19.28695511817932,-5073.8798828125,-26665.5,-16306.5,-400000.0625,-400000.0625,-400000.0625,-400000.0625,-400000.0625
19.31752061843872,-5050.85009765625,-26643.369140625,-16277.740234375,-400000.0625,-400000.0625,-400000.0625,-400000.0625,-400000.0625
19.387866497039795,-5049.0400390625,-26637.26953125,-16274.7900390625,-400000.0625,-400000.0625,-400000.0625,-400000.0625,-400000.0625
19.49705672264099,-5041.169921875,-26636.26953125,-16269.8798828125,-400000.0625,-400000.0625,-400000.0625,-400000.0625,-400000.0625
19.609750270843506,-5066.43994140625,-26664.830078125,-16294.76953125,-400000.0625,-400000.0625,-400000.0625,-400000.0625,-400000.0625
19.700648069381714,-5073.97998046875,-26672.75,-16303.58984375,-400000.0625,-400000.0625,-400000.0625,-400000.0625,-400000.0625
19.78957962989807,-5035.4501953125,-26647.189453125,-16275.599609375,-400000.0625,-400000.0625,-400000.0625,-400000.0625,-400000.0625
19.844736576080322,-5053.3798828125,-26668.650390625,-16301.5400390625,-400000.0625,-400000.0625,-400000.0625,-400000.0625,-400000.0625
19.924769163131714,-5077.169921875,-26685.529296875,-16318.900390625,-400000.0625,-400000.0625,-400000.0625,-400000.0625,-400000.0625
20.01690912246704,-5056.81005859375,-26673.939453125,-16308.169921875,-400000.0625,-400000.0625,-400000.0625,-400000.0625,-400000.0625
20.037592887878418,-5039.7900390625,-26659.109375,-16302.7802734375,-400000.0625,-400000.0625,-400000.0625,-400000.0625,-400000.0625
20.15384793281555,-5057.85986328125,-26677.7109375,-16314.650390625,-400000.0625,-400000.0625,-400000.0625,-400000.0625,-400000.0625
20.310355186462402,-5071.97021484375,-26679.7109375,-16317.0400390625,-400000.0625,-400000.0625,-400000.0625,-400000.0625,-400000.0625
20.332401990890503,-5035.58984375,-26665.0703125,-16299.5400390625,-400000.0625,-400000.0625,-400000.0625,-400000.0625,-400000.0625
20.41704034805298,-5041.4599609375,-26676.23046875,-16311.5498046875,-400000.0625,-400000.0625,-400000.0625,-400000.0625,-400000.0625
20.47258973121643,-5054.43017578125,-26684.759765625,-16320.66015625,-400000.0625,-400000.0625,-400000.0625,-400000.0625,-400000.0625
20.713956832885742,-4821.43994140625,-26687.33984375,-16493.26953125,-400000.0625,-400000.0625,-400000.0625,-400000.0625,-400000.0625
20.78982162475586,-4844.3798828125,-26700.830078125,-16508.529296875,-400000.0625,-400000.0625,-400000.0625,-400000.0625,-400000.0625
20.848018884658813,-4856.10986328125,-26700.740234375,-16493.890625,-400000.0625,-400000.0625,-400000.0625,-400000.0625,-400000.0625
20.944899320602417,-4868.35986328125,-26706.26953125,-16490.75,-400000.0625,-400000.0625,-400000.0625,-400000.0625,-400000.0625
20.97538471221924,-4831.22021484375,-26684.380859375,-16468.0,-400000.0625,-400000.0625,-400000.0625,-400000.0625,-400000.0625
21.051366806030273,-4870.60986328125,-26711.0390625,-16494.849609375,-400000.0625,-400000.0625,-400000.0625,-400000.0625,-400000.0625
21.11145281791687,-4839.0400390625,-26691.9609375,-16471.9609375,-400000.0625,-400000.0625,-400000.0625,-400000.0625,-400000.0625
21.26973605155945,-4858.259765625,-26703.41015625,-16482.640625,-400000.0625,-400000.0625,-400000.0625,-400000.0625,-400000.0625
21.32085347175598,-4869.509765625,-26728.8203125,-16501.94921875,-400000.0625,-400000.0625,-400000.0625,-400000.0625,-400000.0625
21.339104413986206,-4852.81982421875,-26715.94921875,-16491.509765625,-400000.0625,-400000.0625,-400000.0625,-400000.0625,-400000.0625
21.364670276641846,-4834.93994140625,-26696.880859375,-16474.73046875,-400000.0625,-400000.0625,-400000.0625,-400000.0625,-400000.0625
21.4245707988739,-4869.080078125,-26728.919921875,-16507.2890625,-400000.0625,-400000.0625,-400000.0625,-400000.0625,-400000.0625
21.524152278900146,-4811.81005859375,-26759.19921875,-16560.1796875,-400000.0625,-400000.0625,-400000.0625,-400000.0625,-400000.0625
21.567325592041016,-4823.02001953125,-26784.1796875,-16569.7109375,-400000.0625,-400000.0625,-400000.0625,-400000.0625,-400000.0625
21.622191190719604,-4803.47021484375,-26772.599609375,-16554.9296875,-400000.0625,-400000.0625,-400000.0625,-400000.0625,-400000.0625
21.7483172416687,-4832.22021484375,-26727.490234375,-16494.939453125,-400000.0625,-400000.0625,-400000.0625,-400000.0625,-400000.0625
21.859545469284058,-4857.490234375,-26740.509765625,-16503.4296875,-400000.0625,-400000.0625,-400000.0625,-400000.0625,-400000.0625
21.949490308761597,-4820.6298828125,-26726.150390625,-16489.130859375,-400000.0625,-400000.0625,-400000.0625,-400000.0625,-400000.0625
21.99514150619507,-4829.8798828125,-26727.060546875,-16487.98046875,-400000.0625,-400000.0625,-400000.0625,-400000.0625,-400000.0625
22.056920528411865,-4840.89990234375,-26746.08984375,-16505.240234375,-400000.0625,-400000.0625,-400000.0625,-400000.0625,-400000.0625
22.249454736709595,-4787.8701171875,-26730.58984375,-16503.0,-400000.0625,-400000.0625,-400000.0625,-400000.0625,-400000.0625
22.296420097351074,-4784.2001953125,-26728.73046875,-16501.51953125,-400000.0625,-400000.0625,-400000.0625,-400000.0625,-400000.0625
22.332075834274292,-4805.759765625,-26719.330078125,-16482.44921875,-400000.0625,-400000.0625,-400000.0625,-400000.0625,-400000.0625
22.482413291931152,-4841.81005859375,-26741.7890625,-16503.529296875,-400000.0625,-400000.0625,-400000.0625,-400000.0625,-400000.0625
22.594778776168823,-4809.0,-26726.580078125,-16485.169921875,-400000.0625,-400000.0625,-400000.0625,-400000.0625,-400000.0625
22.62637448310852,-4821.490234375,-26730.25,-16491.509765625,-400000.0625,-400000.0625,-400000.0625,-400000.0625,-400000.0625
22.639684677124023,-4814.72021484375,-26738.890625,-16497.0390625,-400000.0625,-400000.0625,-400000.0625,-400000.0625,-400000.0625
22.718509674072266,-4833.509765625,-26744.419921875,-16501.810546875,-400000.0625,-400000.0625,-400000.0625,-400000.0625,-400000.0625
22.782577514648438,-4832.169921875,-26749.80078125,-16502.48046875,-400000.0625,-400000.0625,-400000.0625,-400000.0625,-400000.0625
22.89733862876892,-4816.2001953125,-26726.33984375,-16488.26953125,-400000.0625,-400000.0625,-400000.0625,-400000.0625,-400000.0625
22.93539261817932,-4787.35009765625,-26746.3203125,-16513.830078125,-400000.0625,-400000.0625,-400000.0625,-400000.0625,-400000.0625
22.955159425735474,-4783.10986328125,-26745.69921875,-16519.55078125,-400000.0625,-400000.0625,-400000.0625,-400000.0625,-400000.0625
23.12752389907837,-4761.83984375,-26736.169921875,-16501.51953125,-400000.0625,-400000.0625,-400000.0625,-400000.0625,-400000.0625
23.30362343788147,-4821.25,-26762.439453125,-16509.8203125,-400000.0625,-400000.0625,-400000.0625,-400000.0625,-400000.0625
23.346630096435547,-4798.1298828125,-26731.919921875,-16490.080078125,-400000.0625,-400000.0625,-400000.0625,-400000.0625,-400000.0625
23.436472177505493,-4812.85986328125,-26740.939453125,-16502.4296875,-400000.0625,-400000.0625,-400000.0625,-400000.0625,-400000.0625
23.535203456878662,-4796.60009765625,-26730.400390625,-16482.9296875,-400000.0625,-400000.0625,-400000.0625,-400000.0625,-400000.0625
23.557229042053223,-4786.68017578125,-26728.869140625,-16485.55078125,-400000.0625,-400000.0625,-400000.0625,-400000.0625,-400000.0625
23.593803644180298,-4787.830078125,-26728.439453125,-16488.599609375,-400000.0625,-400000.0625,-400000.0625,-400000.0625,-400000.0625
23.659720182418823,-4774.08984375,-26764.919921875,-16533.0390625,-400000.0625,-400000.0625,-400000.0625,-400000.0625,-400000.0625
23.832454919815063,-4688.60009765625,-26804.16015625,-16619.349609375,-400000.0625,-400000.0625,-400000.0625,-400000.0625,-400000.0625
23.881267786026,-4817.68017578125,-26820.380859375,-16562.75,-400000.0625,-400000.0625,-400000.0625,-400000.0625,-400000.0625
23.982179403305054,-4884.2001953125,-26761.490234375,-16483.9296875,-400000.0625,-400000.0625,-400000.0625,-400000.0625,-400000.0625
24.095319747924805,-4864.83984375,-26718.859375,-16458.130859375,-400000.0625,-400000.0625,-400000.0625,-400000.0625,-400000.0625
24.17841100692749,-4819.10986328125,-26682.140625,-16417.9296875,-400000.0625,-400000.0625,-400000.0625,-400000.0625,-400000.0625
24.260077238082886,-4820.43994140625,-26674.4609375,-16409.109375,-400000.0625,-400000.0625,-400000.0625,-400000.0625,-400000.0625
24.30760669708252,-4838.419921875,-26695.25,-16431.5703125,-400000.0625,-400000.0625,-400000.0625,-400000.0625,-400000.0625
24.42699122428894,-4660.18017578125,-26799.73046875,-16617.349609375,-400000.0625,-400000.0625,-400000.0625,-400000.0625,-400000.0625
24.493834018707275,-4651.5498046875,-26808.029296875,-16628.359375,-400000.0625,-400000.0625,-400000.0625,-400000.0625,-400000.0625
24.552491426467896,-4644.2001953125,-26827.19921875,-16627.26953125,-400000.0625,-400000.0625,-400000.0625,-400000.0625,-400000.0625
24.628257989883423,-4659.4599609375,-26834.439453125,-16636.08984375,-400000.0625,-400000.0625,-400000.0625,-400000.0625,-400000.0625
24.801194429397583,-4849.0498046875,-26759.060546875,-16479.830078125,-400000.0625,-400000.0625,-400000.0625,-400000.0625,-400000.0625
24.90814781188965,-4840.52001953125,-26775.220703125,-16480.349609375,-400000.0625,-400000.0625,-400000.0625,-400000.0625,-400000.0625
24.957151412963867,-4852.8701171875,-26765.060546875,-16465.94921875,-400000.0625,-400000.0625,-400000.0625,-400000.0625,-400000.0625
25.047295808792114,-4846.85986328125,-26763.19921875,-16464.619140625,-400000.0625,-400000.0625,-400000.0625,-400000.0625,-400000.0625
25.14518451690674,-4842.56982421875,-26765.640625,-16461.08984375,-400000.0625,-400000.0625,-400000.0625,-400000.0625,-400000.0625
25.16721487045288,-4837.66015625,-26765.779296875,-16470.4296875,-400000.0625,-400000.0625,-400000.0625,-400000.0625,-400000.0625
25.20512580871582,-4758.35986328125,-26759.25,-16515.58984375,-400000.0625,-400000.0625,-400000.0625,-400000.0625,-400000.0625
25.258585453033447,-4596.66015625,-26789.0,-16634.560546875,-400000.0625,-400000.0625,-400000.0625,-400000.0625,-400000.0625
25.34707474708557,-4618.740234375,-26809.599609375,-16653.58984375,-400000.0625,-400000.0625,-400000.0625,-400000.0625,-400000.0625
25.42950940132141,-4626.22998046875,-26815.509765625,-16657.55078125,-400000.0625,-400000.0625,-400000.0625,-400000.0625,-400000.0625
25.452404975891113,-4601.43017578125,-26800.970703125,-16635.51953125,-400000.0625,-400000.0625,-400000.0625,-400000.0625,-400000.0625
25.587448120117188,-4569.39013671875,-26851.66015625,-16700.83984375,-400000.0625,-400000.0625,-400000.0625,-400000.0625,-400000.0625
25.655550718307495,-4561.6201171875,-26843.650390625,-16685.8203125,-400000.0625,-400000.0625,-400000.0625,-400000.0625,-400000.0625
25.70705509185791,-4491.52001953125,-26840.359375,-16698.7890625,-400000.0625,-400000.0625,-400000.0625,-400000.0625,-400000.0625
25.783424139022827,-4424.330078125,-26832.6796875,-16725.5390625,-400000.0625,-400000.0625,-400000.0625,-400000.0625,-400000.0625
25.877878189086914,-4311.1298828125,-26794.529296875,-16745.0390625,-400000.0625,-400000.0625,-400000.0625,-400000.0625,-400000.0625
25.91151189804077,-4324.8701171875,-26803.16015625,-16757.19921875,-400000.0625,-400000.0625,-400000.0625,-400000.0625,-400000.0625
25.978443145751953,-4353.08984375,-26829.25,-16779.140625,-400000.0625,-400000.0625,-400000.0625,-400000.0625,-400000.0625
26.052408933639526,-4345.0400390625,-26826.099609375,-16767.9296875,-400000.0625,-400000.0625,-400000.0625,-400000.0625,-400000.0625
26.104454517364502,-4522.75,-26718.94921875,-16673.5703125,-400000.0625,-400000.0625,-400000.0625,-400000.0625,-400000.0625
26.15952444076538,-4734.22998046875,-26690.76953125,-16567.419921875,-400000.0625,-400000.0625,-400000.0625,-400000.0625,-400000.0625
26.22923469543457,-4748.72998046875,-26733.689453125,-16570.669921875,-400000.0625,-400000.0625,-400000.0625,-400000.0625,-400000.0625
26.28546977043152,-4911.3798828125,-26801.6796875,-16548.01953125,-400000.0625,-400000.0625,-400000.0625,-400000.0625,-400000.0625
26.419740915298462,-4893.72998046875,-26817.849609375,-16526.080078125,-400000.0625,-400000.0625,-400000.0625,-400000.0625,-400000.0625
26.466681003570557,-4827.06982421875,-26757.859375,-16451.220703125,-400000.0625,-400000.0625,-400000.0625,-400000.0625,-400000.0625
26.495720624923706,-4736.3798828125,-26677.330078125,-16368.4404296875,-400000.0625,-400000.0625,-400000.0625,-400000.0625,-400000.0625
26.54013466835022,-4581.97998046875,-26525.119140625,-16203.98046875,-400000.0625,-400000.0625,-400000.0625,-400000.0625,-400000.0625
26.644452571868896,-4424.43017578125,-26362.1796875,-16064.83984375,-400000.0625,-400000.0625,-400000.0625,-400000.0625,-400000.0625
26.72202205657959,-4387.6201171875,-26329.08984375,-16019.7802734375,-400000.0625,-400000.0625,-400000.0625,-400000.0625,-400000.0625
26.738205671310425,-4159.58984375,-26443.060546875,-16261.8701171875,-400000.0625,-400000.0625,-400000.0625,-400000.0625,-400000.0625
26.899881601333618,-4578.77978515625,-26871.58984375,-16683.19921875,-400000.0625,-400000.0625,-400000.0625,-400000.0625,-400000.0625
26.947107315063477,-4690.080078125,-27014.119140625,-16819.529296875,-400000.0625,-400000.0625,-400000.0625,-400000.0625,-400000.0625
26.99003267288208,-4693.56005859375,-27009.060546875,-16806.939453125,-400000.0625,-400000.0625,-400000.0625,-400000.0625,-400000.0625
27.199997901916504,-4471.68017578125,-26917.26953125,-16761.01953125,-400000.0625,-400000.0625,-400000.0625,-400000.0625,-400000.0625
27.364452838897705,-4549.31005859375,-27010.58984375,-16823.580078125,-400000.0625,-400000.0625,-400000.0625,-400000.0625,-400000.0625
27.387551307678223,-4565.18994140625,-26970.529296875,-16779.900390625,-400000.0625,-400000.0625,-400000.0625,-400000.0625,-400000.0625
27.44918704032898,-4667.52001953125,-27030.66015625,-16825.869140625,-400000.0625,-400000.0625,-400000.0625,-400000.0625,-400000.0625
27.50491189956665,-4680.009765625,-27004.05078125,-16798.359375,-400000.0625,-400000.0625,-400000.0625,-400000.0625,-400000.0625
27.577813386917114,-4652.93017578125,-26917.509765625,-16694.5,-400000.0625,-400000.0625,-400000.0625,-400000.0625,-400000.0625
27.688508987426758,-4564.10009765625,-27021.4609375,-16800.98046875,-400000.0625,-400000.0625,-400000.0625,-400000.0625,-400000.0625
27.732422590255737,-4545.35986328125,-27014.310546875,-16811.23046875,-400000.0625,-400000.0625,-400000.0625,-400000.0625,-400000.0625
27.7558650970459,-4585.31005859375,-27019.0703125,-16811.94921875,-400000.0625,-400000.0625,-400000.0625,-400000.0625,-400000.0625
27.88995909690857,-4621.60009765625,-27015.98046875,-16789.580078125,-400000.0625,-400000.0625,-400000.0625,-400000.0625,-400000.0625
27.982972145080566,-4793.41015625,-26808.310546875,-16629.26953125,-400000.0625,-400000.0625,-400000.0625,-400000.0625,-400000.0625
28.01770544052124,-4980.60986328125,-26565.220703125,-16292.669921875,-400000.0625,-400000.0625,-400000.0625,-400000.0625,-400000.0625
28.159836053848267,-4957.580078125,-26644.609375,-16314.9404296875,-400000.0625,-400000.0625,-400000.0625,-400000.0625,-400000.0625
28.339582681655884,-4973.22021484375,-26771.599609375,-16438.8203125,-400000.0625,-400000.0625,-400000.0625,-400000.0625,-400000.0625
28.408625841140747,-4942.3701171875,-26828.529296875,-16491.130859375,-400000.0625,-400000.0625,-400000.0625,-400000.0625,-400000.0625
28.477818965911865,-4977.7001953125,-26869.8203125,-16527.23046875,-400000.0625,-400000.0625,-400000.0625,-400000.0625,-400000.0625
28.52092170715332,-4974.080078125,-26884.130859375,-16530.3203125,-400000.0625,-400000.0625,-400000.0625,-400000.0625,-400000.0625
28.63224720954895,-4977.56005859375,-26887.130859375,-16537.380859375,-400000.0625,-400000.0625,-400000.0625,-400000.0625,-400000.0625
28.651365280151367,-4913.52001953125,-26931.859375,-16621.0703125,-400000.0625,-400000.0625,-400000.0625,-400000.0625,-400000.0625
28.902916431427002,-4872.990234375,-26950.9296875,-16625.98046875,-400000.0625,-400000.0625,-400000.0625,-400000.0625,-400000.0625
29.013023376464844,-4900.7900390625,-26960.330078125,-16637.609375,-400000.0625,-400000.0625,-400000.0625,-400000.0625,-400000.0625
29.05214762687683,-4890.919921875,-26953.560546875,-16634.560546875,-400000.0625,-400000.0625,-400000.0625,-400000.0625,-400000.0625
29.09723973274231,-4931.740234375,-26985.220703125,-16669.419921875,-400000.0625,-400000.0625,-400000.0625,-400000.0625,-400000.0625
29.12250256538391,-4904.4599609375,-26946.259765625,-16622.880859375,-400000.0625,-400000.0625,-400000.0625,-400000.0625,-400000.0625
29.278107404708862,-4909.52001953125,-26924.94921875,-16576.099609375,-400000.0625,-400000.0625,-400000.0625,-400000.0625,-400000.0625
29.308735847473145,-4967.259765625,-26981.9296875,-16635.130859375,-400000.0625,-400000.0625,-400000.0625,-400000.0625,-400000.0625
29.413729190826416,-4943.66015625,-26972.490234375,-16627.9296875,-400000.0625,-400000.0625,-400000.0625,-400000.0625,-400000.0625
29.437182188034058,-4976.56005859375,-26999.810546875,-16647.099609375,-400000.0625,-400000.0625,-400000.0625,-400000.0625,-400000.0625
29.504606008529663,-4965.830078125,-26999.759765625,-16646.099609375,-400000.0625,-400000.0625,-400000.0625,-400000.0625,-400000.0625
29.554575443267822,-4951.669921875,-26988.3203125,-16641.48046875,-400000.0625,-400000.0625,-400000.0625,-400000.0625,-400000.0625
29.68378496170044,-4981.330078125,-27001.76953125,-16654.779296875,-400000.0625,-400000.0625,-400000.0625,-400000.0625,-400000.0625
29.749520301818848,-4990.0498046875,-27003.33984375,-16656.16015625,-400000.0625,-400000.0625,-400000.0625,-400000.0625,-400000.0625
29.80476665496826,-4971.5498046875,-26989.080078125,-16648.9609375,-400000.0625,-400000.0625,-400000.0625,-400000.0625,-400000.0625
29.93781590461731,-4965.77978515625,-26977.30078125,-16636.900390625,-400000.0625,-400000.0625,-400000.0625,-400000.0625,-400000.0625
30.000359296798706,-4985.7099609375,-26991.3203125,-16641.240234375,-400000.0625,-400000.0625,-400000.0625,-400000.0625,-400000.0625
30.079500913619995,-4998.490234375,-27004.33984375,-16646.48046875,-400000.0625,-400000.0625,-400000.0625,-400000.0625,-400000.0625
30.364563465118408,-4921.14990234375,-26995.380859375,-16669.66015625,-400000.0625,-400000.0625,-400000.0625,-400000.0625,-400000.0625
30.429465532302856,-4902.7001953125,-27018.740234375,-16700.3203125,-400000.0625,-400000.0625,-400000.0625,-400000.0625,-400000.0625
30.515118837356567,-4856.5400390625,-27008.630859375,-16710.330078125,-400000.0625,-400000.0625,-400000.0625,-400000.0625,-400000.0625
30.579090356826782,-4852.9599609375,-26991.1796875,-16690.5390625,-400000.0625,-400000.0625,-400000.0625,-400000.0625,-400000.0625
30.694960117340088,-4772.85009765625,-27028.1796875,-16748.619140625,-400000.0625,-400000.0625,-400000.0625,-400000.0625,-400000.0625
30.721518516540527,-4780.47998046875,-27052.5,-16779.5703125,-400000.0625,-400000.0625,-400000.0625,-400000.0625,-400000.0625
30.846806287765503,-4744.669921875,-27026.75,-16744.94921875,-400000.0625,-400000.0625,-400000.0625,-400000.0625,-400000.0625
30.903727293014526,-4700.47021484375,-27031.5703125,-16754.9609375,-400000.0625,-400000.0625,-400000.0625,-400000.0625,-400000.0625
30.962751626968384,-4615.740234375,-26997.0390625,-16778.140625,-400000.0625,-400000.0625,-400000.0625,-400000.0625,-400000.0625
31.032452821731567,-4659.7998046875,-27041.099609375,-16805.75,-400000.0625,-400000.0625,-400000.0625,-400000.0625,-400000.0625
31.0926411151886,-4648.919921875,-27018.83984375,-16784.380859375,-400000.0625,-400000.0625,-400000.0625,-400000.0625,-400000.0625
31.214165210723877,-4595.9501953125,-27036.150390625,-16818.140625,-400000.0625,-400000.0625,-400000.0625,-400000.0625,-400000.0625
31.302574396133423,-4620.97998046875,-27041.76953125,-16828.30078125,-400000.0625,-400000.0625,-400000.0625,-400000.0625,-400000.0625
31.46764588356018,-4623.83984375,-27078.109375,-16855.4296875,-400000.0625,-400000.0625,-400000.0625,-400000.0625,-400000.0625
31.534597635269165,-4635.6201171875,-27056.740234375,-16831.349609375,-400000.0625,-400000.0625,-400000.0625,-400000.0625,-400000.0625
31.60279870033264,-4600.240234375,-27014.0703125,-16773.990234375,-400000.0625,-400000.0625,-400000.0625,-400000.0625,-400000.0625
31.729568004608154,-4610.10986328125,-27015.830078125,-16780.0,-400000.0625,-400000.0625,-400000.0625,-400000.0625,-400000.0625
31.849863052368164,-4988.18994140625,-26965.5703125,-16599.509765625,-400000.0625,-400000.0625,-400000.0625,-400000.0625,-400000.0625
31.86814308166504,-5162.18994140625,-26644.810546875,-16184.6201171875,-400000.0625,-400000.0625,-400000.0625,-400000.0625,-400000.0625
31.97772979736328,-5186.22021484375,-26659.439453125,-16192.3896484375,-400000.0625,-400000.0625,-400000.0625,-400000.0625,-400000.0625
32.114813566207886,-5174.919921875,-26629.400390625,-16168.2099609375,-400000.0625,-400000.0625,-400000.0625,-400000.0625,-400000.0625
32.18411707878113,-5194.89990234375,-26665.0703125,-16212.3203125,-400000.0625,-400000.0625,-400000.0625,-400000.0625,-400000.0625
32.249650716781616,-5194.6201171875,-26665.55078125,-16230.6796875,-400000.0625,-400000.0625,-400000.0625,-400000.0625,-400000.0625
32.32230830192566,-5175.2099609375,-26616.0,-16221.5302734375,-400000.0625,-400000.0625,-400000.0625,-400000.0625,-400000.0625
32.42890453338623,-5194.759765625,-26646.470703125,-16246.6103515625,-400000.0625,-400000.0625,-400000.0625,-400000.0625,-400000.0625
32.472177267074585,-5169.72998046875,-26654.490234375,-16246.23046875,-400000.0625,-400000.0625,-400000.0625,-400000.0625,-400000.0625
32.496726274490356,-5195.3798828125,-26702.689453125,-16260.8203125,-400000.0625,-400000.0625,-400000.0625,-400000.0625,-400000.0625
32.57714223861694,-5151.4599609375,-26693.919921875,-16242.8896484375,-400000.0625,-400000.0625,-400000.0625,-400000.0625,-400000.0625
32.58822059631348,-5170.10986328125,-26704.310546875,-16250.51953125,-400000.0625,-400000.0625,-400000.0625,-400000.0625,-400000.0625
32.598653078079224,-5168.9599609375,-26699.58984375,-16248.2802734375,-400000.0625,-400000.0625,-400000.0625,-400000.0625,-400000.0625
32.61336898803711,-5152.419921875,-26694.400390625,-16238.5498046875,-400000.0625,-400000.0625,-400000.0625,-400000.0625,-400000.0625
32.627660274505615,-5141.31005859375,-26702.55078125,-16230.2001953125,-400000.0625,-400000.0625,-400000.0625,-400000.0625,-400000.0625
32.63929986953735,-5149.75,-26739.310546875,-16238.3603515625,-400000.0625,-400000.0625,-400000.0625,-400000.0625,-400000.0625
32.654226303100586,-5169.43994140625,-26743.130859375,-16243.5595703125,-400000.0625,-400000.0625,-400000.0625,-400000.0625,-400000.0625
32.66538429260254,-5172.830078125,-26730.830078125,-16249.4697265625,-400000.0625,-400000.0625,-400000.0625,-400000.0625,-400000.0625
32.67665410041809,-5186.990234375,-26741.080078125,-16256.91015625,-400000.0625,-400000.0625,-400000.0625,-400000.0625,-400000.0625
32.692790269851685,-5175.39990234375,-26758.630859375,-16270.73046875,-400000.0625,-400000.0625,-400000.0625,-400000.0625,-400000.0625
32.709606409072876,-5161.330078125,-26789.5703125,-16283.1796875,-400000.0625,-400000.0625,-400000.0625,-400000.0625,-400000.0625
32.72250723838806,-5176.1201171875,-26815.69921875,-16304.73046875,-400000.0625,-400000.0625,-400000.0625,-400000.0625,-400000.0625
32.733023166656494,-5168.52978515625,-26830.439453125,-16334.25,-400000.0625,-400000.0625,-400000.0625,-400000.0625,-400000.0625
32.74200463294983,-5132.9599609375,-26852.939453125,-16342.4501953125,-400000.0625,-400000.0625,-400000.0625,-400000.0625,-400000.0625
32.75459146499634,-5122.0400390625,-26870.779296875,-16368.7197265625,-400000.0625,-400000.0625,-400000.0625,-400000.0625,-400000.0625
32.76323628425598,-5121.990234375,-26891.66015625,-16416.689453125,-400000.0625,-400000.0625,-400000.0625,-400000.0625,-400000.0625
32.776084423065186,-5130.14990234375,-26932.619140625,-16463.94921875,-400000.0625,-400000.0625,-400000.0625,-400000.0625,-400000.0625
