time,ch1,ch2,ch3,ch4,ch5,ch6,ch7,ch8
0.0383455753326416,311.989990234375,-2728.3701171875,-5884.080078125,-400000.0625,-7232.43017578125,-400000.0625,-400000.0625,-400000.0625
0.03858757019042969,312.6099853515625,-2730.27001953125,-5882.5498046875,-400000.0625,-7221.02978515625,-400000.0625,-400000.0625,-400000.0625
0.03862714767456055,317.4800109863281,-2746.679931640625,-5884.7001953125,-400000.0625,-7225.509765625,-400000.0625,-400000.0625,-400000.0625
0.03865694999694824,318.3399963378906,-2754.449951171875,-5889.64990234375,-400000.0625,-7223.93994140625,-400000.0625,-400000.0625,-400000.0625
0.038686513900756836,313.2300109863281,-2772.860107421875,-5901.33984375,-400000.0625,-7222.75,-400000.0625,-400000.0625,-400000.0625
0.038715362548828125,314.239990234375,-2782.679931640625,-5911.8798828125,-400000.0625,-7226.89990234375,-400000.0625,-400000.0625,-400000.0625
0.038744211196899414,323.489990234375,-2791.5,-5919.93017578125,-400000.0625,-7227.0400390625,-400000.0625,-400000.0625,-400000.0625
0.0387728214263916,322.010009765625,-2814.9599609375,-5927.990234375,-400000.0625,-7226.7099609375,-400000.0625,-400000.0625,-400000.0625
0.03880167007446289,324.67999267578125,-2823.68994140625,-5934.10009765625,-400000.0625,-7223.02978515625,-400000.0625,-400000.0625,-400000.0625
0.03883099555969238,331.3999938964844,-2834.419921875,-5950.64013671875,-400000.0625,-7221.509765625,-400000.0625,-400000.0625,-400000.0625
0.03886818885803223,332.3599853515625,-2859.830078125,-5972.240234375,-400000.0625,-7223.7001953125,-400000.0625,-400000.0625,-400000.0625
0.03889822959899902,336.8900146484375,-2891.489990234375,-5988.169921875,-400000.0625,-7223.419921875,-400000.0625,-400000.0625,-400000.0625
0.038925886154174805,343.510009765625,-2916.429931640625,-5997.22998046875,-400000.0625,-7218.4599609375,-400000.0625,-400000.0625,-400000.0625
0.03895235061645508,354.1000061035156,-2923.43994140625,-6007.9599609375,-400000.0625,-7212.97021484375,-400000.0625,-400000.0625,-400000.0625
0.03898048400878906,351.8599853515625,-2949.429931640625,-6037.81005859375,-400000.0625,-7219.5498046875,-400000.0625,-400000.0625,-400000.0625
0.03900933265686035,346.4200134277344,-2982.429931640625,-6062.93994140625,-400000.0625,-7226.990234375,-400000.0625,-400000.0625,-400000.0625
0.059081315994262695,352.0,-3015.3798828125,-6072.43017578125,-400000.0625,-7220.93994140625,-400000.0625,-400000.0625,-400000.0625
0.059426069259643555,365.260009765625,-3030.72998046875,-6074.47998046875,-400000.0625,-7213.68994140625,-400000.0625,-400000.0625,-400000.0625
0.05959129333496094,366.6400146484375,-3039.929931640625,-6089.5498046875,-400000.0625,-7215.35986328125,-400000.0625,-400000.0625,-400000.0625
0.0596311092376709,363.7300109863281,-3060.530029296875,-6105.14013671875,-400000.0625,-7223.56005859375,-400000.0625,-400000.0625,-400000.0625
0.05965757369995117,371.6000061035156,-3076.739990234375,-6099.7001953125,-400000.0625,-7211.8798828125,-400000.0625,-400000.0625,-400000.0625
0.059684038162231445,373.7900085449219,-3087.85009765625,-6103.60986328125,-400000.0625,-7207.10986328125,-400000.0625,-400000.0625,-400000.0625
0.059709787368774414,371.0299987792969,-3091.0,-6113.240234375,-400000.0625,-7211.77978515625,-400000.0625,-400000.0625,-400000.0625
0.05973386764526367,365.69000244140625,-3113.64990234375,-6118.919921875,-400000.0625,-7218.35986328125,-400000.0625,-400000.0625,-400000.0625
0.05975914001464844,365.0199890136719,-3112.64990234375,-6121.77978515625,-400000.0625,-7222.3701171875,-400000.0625,-400000.0625,-400000.0625
0.05978512763977051,365.2099914550781,-3117.179931640625,-6118.97021484375,-400000.0625,-7211.5,-400000.0625,-400000.0625,-400000.0625
0.0598142147064209,370.1700134277344,-3130.14990234375,-6112.669921875,-400000.0625,-7207.72998046875,-400000.0625,-400000.0625,-400000.0625
0.059839487075805664,369.30999755859375,-3111.27001953125,-6114.14990234375,-400000.0625,-7211.16015625,-400000.0625,-400000.0625,-400000.0625
0.05986523628234863,368.6400146484375,-3123.6201171875,-6112.85986328125,-400000.0625,-7206.68017578125,-400000.0625,-400000.0625,-400000.0625
0.05989694595336914,363.05999755859375,-3129.14990234375,-6116.580078125,-400000.0625,-7210.2099609375,-400000.0625,-400000.0625,-400000.0625
0.059923410415649414,356.3399963378906,-3132.679931640625,-6119.43994140625,-400000.0625,-7210.10986328125,-400000.0625,-400000.0625,-400000.0625
0.05994844436645508,359.9599914550781,-3138.780029296875,-6113.39013671875,-400000.0625,-7208.16015625,-400000.0625,-400000.0625,-400000.0625
0.1224513053894043,363.25,-3134.300048828125,-6111.18994140625,-400000.0625,-7208.58984375,-400000.0625,-400000.0625,-400000.0625
0.15622162818908691,360.6300048828125,-3135.010009765625,-6113.6298828125,-400000.0625,-7216.259765625,-400000.0625,-400000.0625,-400000.0625
0.156463623046875,360.7799987792969,-3135.159912109375,-6112.43017578125,-400000.0625,-7210.68017578125,-400000.0625,-400000.0625,-400000.0625
0.15651631355285645,365.8800048828125,-3136.679931640625,-6112.10009765625,-400000.0625,-7211.64013671875,-400000.0625,-400000.0625,-400000.0625
0.15657806396484375,367.8299865722656,-3128.9599609375,-6111.56982421875,-400000.0625,-7215.68994140625,-400000.0625,-400000.0625,-400000.0625
0.15663647651672363,370.4100036621094,-3121.7099609375,-6103.990234375,-400000.0625,-7207.43994140625,-400000.0625,-400000.0625,-400000.0625
0.15670394897460938,375.6000061035156,-3117.1298828125,-6100.93994140625,-400000.0625,-7204.10009765625,-400000.0625,-400000.0625,-400000.0625
0.15676569938659668,368.7900085449219,-3121.139892578125,-6104.14013671875,-400000.0625,-7208.919921875,-400000.0625,-400000.0625,-400000.0625
0.15680551528930664,365.8800048828125,-3122.659912109375,-6104.0400390625,-400000.0625,-7214.169921875,-400000.0625,-400000.0625,-400000.0625
0.15683817863464355,370.4100036621094,-3119.419921875,-6097.169921875,-400000.0625,-7206.06005859375,-400000.0625,-400000.0625,-400000.0625
0.15688180923461914,373.75,-3117.3701171875,-6094.31005859375,-400000.0625,-7204.25,-400000.0625,-400000.0625,-400000.0625
0.15692758560180664,368.2099914550781,-3119.0400390625,-6100.419921875,-400000.0625,-7210.2099609375,-400000.0625,-400000.0625,-400000.0625
0.15696406364440918,360.8699951171875,-3129.2900390625,-6109.72021484375,-400000.0625,-7218.5,-400000.0625,-400000.0625,-400000.0625
0.15699315071105957,358.6300048828125,-3129.77001953125,-6108.330078125,-400000.0625,-7217.93017578125,-400000.0625,-400000.0625,-400000.0625
0.15702438354492188,363.5400085449219,-3120.090087890625,-6102.7099609375,-400000.0625,-7211.72998046875,-400000.0625,-400000.0625,-400000.0625
0.15705513954162598,372.7900085449219,-3114.989990234375,-6095.93017578125,-400000.0625,-7207.2001953125,-400000.0625,-400000.0625,-400000.0625
0.1863241195678711,376.6499938964844,-3107.639892578125,-6091.169921875,-400000.0625,-7203.14990234375,-400000.0625,-400000.0625,-400000.0625
0.18660211563110352,375.8399963378906,-3108.60009765625,-6092.02001953125,-400000.0625,-7209.8701171875,-400000.0625,-400000.0625,-400000.0625
0.1866474151611328,375.94000244140625,-3112.75,-6095.60009765625,-400000.0625,-7216.31005859375,-400000.0625,-400000.0625,-400000.0625
0.18667984008789062,380.4700012207031,-3105.830078125,-6088.10986328125,-400000.0625,-7208.6298828125,-400000.0625,-400000.0625,-400000.0625
0.18679046630859375,381.17999267578125,-3103.260009765625,-6084.6298828125,-400000.0625,-7204.25,-400000.0625,-400000.0625,-400000.0625
0.18684053421020508,378.17999267578125,-3111.550048828125,-6091.5498046875,-400000.0625,-7213.8798828125,-400000.0625,-400000.0625,-400000.0625
0.1869204044342041,376.6099853515625,-3115.4599609375,-6095.1201171875,-400000.0625,-7217.5,-400000.0625,-400000.0625,-400000.0625
0.18698740005493164,371.1199951171875,-3118.3701171875,-6098.93994140625,-400000.0625,-7212.68994140625,-400000.0625,-400000.0625,-400000.0625
0.1870419979095459,376.75,-3113.889892578125,-6093.5,-400000.0625,-7211.64013671875,-400000.0625,-400000.0625,-400000.0625
0.18711113929748535,377.8500061035156,-3111.4599609375,-6091.1201171875,-400000.0625,-7209.830078125,-400000.0625,-400000.0625,-400000.0625
0.1872413158416748,374.1300048828125,-3112.75,-6094.740234375,-400000.0625,-7213.830078125,-400000.0625,-400000.0625,-400000.0625
0.18729162216186523,377.3699951171875,-3106.31005859375,-6090.5,-400000.0625,-7209.58984375,-400000.0625,-400000.0625,-400000.0625
0.1873185634613037,382.4700012207031,-3108.68994140625,-6091.39990234375,-400000.0625,-7212.58984375,-400000.0625,-400000.0625,-400000.0625
0.18734216690063477,378.94000244140625,-3109.7900390625,-6093.93017578125,-400000.0625,-7214.830078125,-400000.0625,-400000.0625,-400000.0625
0.18736624717712402,382.8999938964844,-3104.159912109375,-6088.16015625,-400000.0625,-7207.43994140625,-400000.0625,-400000.0625,-400000.0625
0.18738818168640137,378.17999267578125,-3108.260009765625,-6089.5498046875,-400000.0625,-7213.5,-400000.0625,-400000.0625,-400000.0625
0.2811136245727539,373.2699890136719,-3111.93994140625,-6094.31005859375,-400000.0625,-7218.169921875,-400000.0625,-400000.0625,-400000.0625
0.3869152069091797,376.70001220703125,-3109.31005859375,-6093.93017578125,-400000.0625,-7214.97998046875,-400000.0625,-400000.0625,-400000.0625
0.45806336402893066,379.75,-3105.929931640625,-6091.64013671875,-400000.0625,-7209.97021484375,-400000.0625,-400000.0625,-400000.0625
0.48835110664367676,383.0899963378906,-3107.60009765625,-6089.97021484375,-400000.0625,-7207.81982421875,-400000.0625,-400000.0625,-400000.0625
0.5580148696899414,380.17999267578125,-3105.550048828125,-6091.06982421875,-400000.0625,-7204.8701171875,-400000.0625,-400000.0625,-400000.0625
0.5856797695159912,376.32000732421875,-3125.669921875,-6096.31982421875,-400000.0625,-7210.77978515625,-400000.0625,-400000.0625,-400000.0625
0.6122229099273682,376.8900146484375,-3135.590087890625,-6096.5498046875,-400000.0625,-7217.740234375,-400000.0625,-400000.0625,-400000.0625
0.6823899745941162,379.2300109863281,-3125.860107421875,-6092.97998046875,-400000.0625,-7213.77978515625,-400000.0625,-400000.0625,-400000.0625
0.709622859954834,373.1700134277344,-3126.050048828125,-6096.31982421875,-400000.0625,-7209.5400390625,-400000.0625,-400000.0625,-400000.0625
0.7494769096374512,364.29998779296875,-3129.77001953125,-6102.3701171875,-400000.0625,-7208.35009765625,-400000.0625,-400000.0625,-400000.0625
0.8046958446502686,358.82000732421875,-3147.550048828125,-6111.56982421875,-400000.0625,-7207.68017578125,-400000.0625,-400000.0625,-400000.0625
0.8376457691192627,360.3900146484375,-3143.8798828125,-6109.330078125,-400000.0625,-7206.14990234375,-400000.0625,-400000.0625,-400000.0625
0.8705334663391113,357.5799865722656,-3155.0400390625,-6108.56982421875,-400000.0625,-7205.33984375,-400000.0625,-400000.0625,-400000.0625
0.9418020248413086,357.5799865722656,-3164.239990234375,-6109.330078125,-400000.0625,-7211.10986328125,-400000.0625,-400000.0625,-400000.0625
0.9661672115325928,357.82000732421875,-3167.820068359375,-6115.14990234375,-400000.0625,-7210.68017578125,-400000.0625,-400000.0625,-400000.0625
0.9925291538238525,352.0,-3181.550048828125,-6118.10986328125,-400000.0625,-7209.39990234375,-400000.0625,-400000.0625,-400000.0625
1.0617339611053467,354.8599853515625,-3176.070068359375,-6115.25,-400000.0625,-7208.919921875,-400000.0625,-400000.0625,-400000.0625
1.0965497493743896,354.7200012207031,-3178.5,-6111.81005859375,-400000.0625,-7207.5400390625,-400000.0625,-400000.0625,-400000.0625
1.1618742942810059,363.05999755859375,-3173.639892578125,-6108.240234375,-400000.0625,-7202.009765625,-400000.0625,-400000.0625,-400000.0625
1.1918838024139404,357.5299987792969,-3168.5400390625,-6111.33984375,-400000.0625,-7206.14990234375,-400000.0625,-400000.0625,-400000.0625
1.230102777481079,346.4700012207031,-3184.409912109375,-6124.39990234375,-400000.0625,-7217.31005859375,-400000.0625,-400000.0625,-400000.0625
1.2870211601257324,347.3299865722656,-3190.610107421875,-6123.5,-400000.0625,-7218.080078125,-400000.0625,-400000.0625,-400000.0625
1.3132598400115967,354.239990234375,-3180.840087890625,-6116.919921875,-400000.0625,-7216.31005859375,-400000.0625,-400000.0625,-400000.0625
1.35469388961792,356.3399963378906,-3175.590087890625,-6112.43017578125,-400000.0625,-7204.2001953125,-400000.0625,-400000.0625,-400000.0625
1.4236598014831543,352.2900085449219,-3178.5,-6113.39013671875,-400000.0625,-7203.39013671875,-400000.0625,-400000.0625,-400000.0625
1.4600753784179688,355.8599853515625,-3174.929931640625,-6109.759765625,-400000.0625,-7205.06005859375,-400000.0625,-400000.0625,-400000.0625
1.5164399147033691,361.20001220703125,-3170.489990234375,-6106.81005859375,-400000.0625,-7204.72021484375,-400000.0625,-400000.0625,-400000.0625
1.5531857013702393,355.20001220703125,-3172.72998046875,-6110.0,-400000.0625,-7207.2001953125,-400000.0625,-400000.0625,-400000.0625
1.5827112197875977,352.19000244140625,-3178.8798828125,-6115.43994140625,-400000.0625,-7212.02001953125,-400000.0625,-400000.0625,-400000.0625
1.6534903049468994,354.7200012207031,-3172.830078125,-6111.81005859375,-400000.0625,-7213.16015625,-400000.0625,-400000.0625,-400000.0625
1.6998889446258545,349.8999938964844,-3176.449951171875,-6115.91015625,-400000.0625,-7213.830078125,-400000.0625,-400000.0625,-400000.0625
1.7483789920806885,350.5199890136719,-3183.27001953125,-6115.25,-400000.0625,-7210.68017578125,-400000.0625,-400000.0625,-400000.0625
1.7685656547546387,359.489990234375,-3173.780029296875,-6109.669921875,-400000.0625,-7204.43994140625,-400000.0625,-400000.0625,-400000.0625
1.8144769668579102,361.3900146484375,-3172.5400390625,-6106.3798828125,-400000.0625,-7203.81982421875,-400000.0625,-400000.0625,-400000.0625
1.864269733428955,360.1600036621094,-3169.06005859375,-6104.7998046875,-400000.0625,-7207.009765625,-400000.0625,-400000.0625,-400000.0625
1.8861234188079834,358.7699890136719,-3164.239990234375,-6102.18017578125,-400000.0625,-7207.490234375,-400000.0625,-400000.0625,-400000.0625
1.9068210124969482,356.2900085449219,-3174.260009765625,-6107.6201171875,-400000.0625,-7211.8798828125,-400000.0625,-400000.0625,-400000.0625
1.9403903484344482,352.1400146484375,-3176.929931640625,-6109.18994140625,-400000.0625,-7207.43994140625,-400000.0625,-400000.0625,-400000.0625
1.9975378513336182,354.7699890136719,-3175.35009765625,-6109.52001953125,-400000.0625,-7206.919921875,-400000.0625,-400000.0625,-400000.0625
2.023707389831543,353.5299987792969,-3176.68994140625,-6110.18994140625,-400000.0625,-7205.33984375,-400000.0625,-400000.0625,-400000.0625
2.0534656047821045,355.2900085449219,-3176.97998046875,-6108.3798828125,-400000.0625,-7205.14990234375,-400000.0625,-400000.0625,-400000.0625
2.1003329753875732,360.9200134277344,-3169.969970703125,-6104.08984375,-400000.0625,-7208.43994140625,-400000.0625,-400000.0625,-400000.0625
2.131708860397339,355.9599914550781,-3171.43994140625,-6107.47021484375,-400000.0625,-7211.06982421875,-400000.0625,-400000.0625,-400000.0625
2.1579737663269043,357.3399963378906,-3172.919921875,-6107.9501953125,-400000.0625,-7204.10009765625,-400000.0625,-400000.0625,-400000.0625
2.209092378616333,354.9599914550781,-3170.919921875,-6107.08984375,-400000.0625,-7202.580078125,-400000.0625,-400000.0625,-400000.0625
2.2376482486724854,349.95001220703125,-3175.260009765625,-6111.72021484375,-400000.0625,-7209.10986328125,-400000.0625,-400000.0625,-400000.0625
2.260533332824707,354.0,-3174.39990234375,-6109.2900390625,-400000.0625,-7208.35009765625,-400000.0625,-400000.0625,-400000.0625
2.313800811767578,360.6300048828125,-3168.14990234375,-6103.1298828125,-400000.0625,-7201.580078125,-400000.0625,-400000.0625,-400000.0625
2.342378854751587,359.9200134277344,-3167.199951171875,-6103.3701171875,-400000.0625,-7201.52978515625,-400000.0625,-400000.0625,-400000.0625
2.369954824447632,356.04998779296875,-3175.8798828125,-6109.759765625,-400000.0625,-7205.25,-400000.0625,-400000.0625,-400000.0625
2.422527551651001,361.1600036621094,-3168.340087890625,-6102.89990234375,-400000.0625,-7202.33984375,-400000.0625,-400000.0625,-400000.0625
2.4428350925445557,359.44000244140625,-3170.6298828125,-6107.330078125,-400000.0625,-7207.10986328125,-400000.0625,-400000.0625,-400000.0625
2.469555377960205,353.42999267578125,-3175.780029296875,-6112.43017578125,-400000.0625,-7214.259765625,-400000.0625,-400000.0625,-400000.0625
2.4924731254577637,353.5299987792969,-3173.449951171875,-6110.0498046875,-400000.0625,-7209.64013671875,-400000.0625,-400000.0625,-400000.0625
2.5365052223205566,355.9100036621094,-3171.639892578125,-6107.89990234375,-400000.0625,-7207.06005859375,-400000.0625,-400000.0625,-400000.0625
2.5628340244293213,354.80999755859375,-3175.2099609375,-6109.0498046875,-400000.0625,-7209.72998046875,-400000.0625,-400000.0625,-400000.0625
2.5823776721954346,351.4800109863281,-3174.639892578125,-6111.9599609375,-400000.0625,-7212.259765625,-400000.0625,-400000.0625,-400000.0625
2.6037180423736572,358.9599914550781,-3169.8701171875,-6105.14013671875,-400000.0625,-7203.43994140625,-400000.0625,-400000.0625,-400000.0625
2.65285587310791,363.8699951171875,-3159.860107421875,-6098.27001953125,-400000.0625,-7202.39013671875,-400000.0625,-400000.0625,-400000.0625
2.672194719314575,359.05999755859375,-3164.6298828125,-6102.75,-400000.0625,-7206.72998046875,-400000.0625,-400000.0625,-400000.0625
2.693924903869629,361.44000244140625,-3171.159912109375,-6105.7099609375,-400000.0625,-7203.39013671875,-400000.0625,-400000.0625,-400000.0625
2.7241787910461426,353.19000244140625,-3174.2099609375,-6111.43017578125,-400000.0625,-7212.93017578125,-400000.0625,-400000.0625,-400000.0625
2.7685434818267822,356.9100036621094,-3173.02001953125,-6108.0498046875,-400000.0625,-7213.740234375,-400000.0625,-400000.0625,-400000.0625
2.7983875274658203,363.7300109863281,-3172.5400390625,-6109.18994140625,-400000.0625,-7217.83984375,-400000.0625,-400000.0625,-400000.0625
2.8220696449279785,361.9200134277344,-3170.06005859375,-6114.2900390625,-400000.0625,-7220.41015625,-400000.0625,-400000.0625,-400000.0625
2.8418755531311035,348.2300109863281,-3152.0400390625,-6101.080078125,-400000.0625,-7212.1201171875,-400000.0625,-400000.0625,-400000.0625
2.892439126968384,336.2699890136719,-3141.260009765625,-6094.5498046875,-400000.0625,-7209.35009765625,-400000.0625,-400000.0625,-400000.0625
2.922095537185669,335.54998779296875,-3112.510009765625,-6080.2001953125,-400000.0625,-7202.580078125,-400000.0625,-400000.0625,-400000.0625
2.9471967220306396,330.92999267578125,-3090.18994140625,-6064.7001953125,-400000.0625,-7200.81005859375,-400000.0625,-400000.0625,-400000.0625
3.0042316913604736,314.8599853515625,-3062.14990234375,-6056.830078125,-400000.0625,-7211.5400390625,-400000.0625,-400000.0625,-400000.0625
3.0403521060943604,304.6000061035156,-3031.590087890625,-6039.72021484375,-400000.0625,-7209.97021484375,-400000.0625,-400000.0625,-400000.0625
3.0650501251220703,292.9200134277344,-2992.340087890625,-6016.39990234375,-400000.0625,-7205.009765625,-400000.0625,-400000.0625,-400000.0625
3.1158699989318848,280.3800048828125,-2953.9599609375,-5998.419921875,-400000.0625,-7208.06005859375,-400000.0625,-400000.0625,-400000.0625
3.1472554206848145,265.5,-2918.9599609375,-5983.259765625,-400000.0625,-7214.2099609375,-400000.0625,-400000.0625,-400000.0625
3.1755452156066895,257.29998779296875,-2883.580078125,-5964.9501953125,-400000.0625,-7212.58984375,-400000.0625,-400000.0625,-400000.0625
3.2346770763397217,249.6199951171875,-2857.110107421875,-5949.68994140625,-400000.0625,-7213.39990234375,-400000.0625,-400000.0625,-400000.0625
3.2588326930999756,240.08999633789062,-2828.929931640625,-5934.52978515625,-400000.0625,-7217.93017578125,-400000.0625,-400000.0625,-400000.0625
3.2830328941345215,235.99000549316406,-2804.7099609375,-5913.1201171875,-400000.0625,-7214.1201171875,-400000.0625,-400000.0625,-400000.0625
3.3389008045196533,205.0399932861328,-2953.010009765625,-5916.5,-400000.0625,-7193.759765625,-400000.0625,-400000.0625,-400000.0625
3.4510345458984375,234.83999633789062,-2845.239990234375,-5855.0400390625,-400000.0625,-7228.7099609375,-400000.0625,-400000.0625,-400000.0625
3.5138373374938965,226.25999450683594,-2858.31005859375,-5867.43017578125,-400000.0625,-7237.0498046875,-400000.0625,-400000.0625,-400000.0625
3.602031707763672,242.3800048828125,-2845.719970703125,-5855.080078125,-400000.0625,-7229.14013671875,-400000.0625,-400000.0625,-400000.0625
3.8049964904785156,230.64999389648438,-2876.3798828125,-5876.259765625,-400000.0625,-7236.2001953125,-400000.0625,-400000.0625,-400000.0625
3.9010238647460938,226.2100067138672,-2888.6298828125,-5886.60009765625,-400000.0625,-7237.47998046875,-400000.0625,-400000.0625,-400000.0625
4.105975151062012,232.32000732421875,-2888.159912109375,-5893.330078125,-400000.0625,-7242.06005859375,-400000.0625,-400000.0625,-400000.0625
4.2786571979522705,248.10000610351562,-2883.909912109375,-5888.93994140625,-400000.0625,-7239.2900390625,-400000.0625,-400000.0625,-400000.0625
4.346428632736206,237.55999755859375,-2895.590087890625,-5894.7998046875,-400000.0625,-7239.9599609375,-400000.0625,-400000.0625,-400000.0625
4.437291383743286,236.99000549316406,-2902.3701171875,-5903.2900390625,-400000.0625,-7239.33984375,-400000.0625,-400000.0625,-400000.0625
4.540862083435059,237.94000244140625,-2899.360107421875,-5898.52001953125,-400000.0625,-7230.14013671875,-400000.0625,-400000.0625,-400000.0625
4.615937948226929,235.94000244140625,-2902.3701171875,-5905.6298828125,-400000.0625,-7237.009765625,-400000.0625,-400000.0625,-400000.0625
4.662135601043701,243.80999755859375,-2899.030029296875,-5904.2900390625,-400000.0625,-7236.669921875,-400000.0625,-400000.0625,-400000.0625
4.822353839874268,230.7899932861328,-2904.93994140625,-5912.5,-400000.0625,-7245.10986328125,-400000.0625,-400000.0625,-400000.0625
4.914876937866211,235.27000427246094,-2903.4599609375,-5907.97021484375,-400000.0625,-7234.14990234375,-400000.0625,-400000.0625,-400000.0625
5.091416120529175,233.64999389648438,-2903.320068359375,-5907.72998046875,-400000.0625,-7238.2001953125,-400000.0625,-400000.0625,-400000.0625
5.310161590576172,234.1699981689453,-2901.7900390625,-5908.43994140625,-400000.0625,-7233.759765625,-400000.0625,-400000.0625,-400000.0625
5.566718578338623,234.88999938964844,-2895.68994140625,-5908.06005859375,-400000.0625,-7229.66015625,-400000.0625,-400000.0625,-400000.0625
5.709516286849976,230.5,-2896.639892578125,-5910.97021484375,-400000.0625,-7232.240234375,-400000.0625,-400000.0625,-400000.0625
6.3522937297821045,238.8000030517578,-2876.760009765625,-5903.10009765625,-400000.0625,-7232.240234375,-400000.0625,-400000.0625,-400000.0625
6.544794797897339,232.50999450683594,-2870.93994140625,-5898.81005859375,-400000.0625,-7229.85009765625,-400000.0625,-400000.0625,-400000.0625
6.768143177032471,230.4600067138672,-2873.75,-5901.91015625,-400000.0625,-7224.7998046875,-400000.0625,-400000.0625,-400000.0625
6.90501070022583,410.989990234375,-2993.8701171875,-6085.97021484375,-400000.0625,-7231.330078125,-400000.0625,-400000.0625,-400000.0625
6.987847328186035,424.8599853515625,-2986.2900390625,-6082.77001953125,-400000.0625,-7237.39013671875,-400000.0625,-400000.0625,-400000.0625
7.051700115203857,430.67999267578125,-2997.780029296875,-6086.2998046875,-400000.0625,-7241.43994140625,-400000.0625,-400000.0625,-400000.0625
7.096162557601929,454.57000732421875,-2988.909912109375,-6087.02001953125,-400000.0625,-7247.93017578125,-400000.0625,-400000.0625,-400000.0625
7.162340879440308,451.0400085449219,-2989.010009765625,-6086.16015625,-400000.0625,-7244.97021484375,-400000.0625,-400000.0625,-400000.0625
7.285768985748291,452.8999938964844,-2983.429931640625,-6085.830078125,-400000.0625,-7251.7900390625,-400000.0625,-400000.0625,-400000.0625
7.370526075363159,449.3699951171875,-2989.820068359375,-6086.10986328125,-400000.0625,-7239.72021484375,-400000.0625,-400000.0625,-400000.0625
7.414393424987793,451.55999755859375,-2984.0,-6085.68017578125,-400000.0625,-7235.6201171875,-400000.0625,-400000.0625,-400000.0625
7.617461919784546,455.0899963378906,-2992.340087890625,-6086.16015625,-400000.0625,-7234.6201171875,-400000.0625,-400000.0625,-400000.0625
7.758745193481445,459.239990234375,-2988.669921875,-6079.77001953125,-400000.0625,-7237.77001953125,-400000.0625,-400000.0625,-400000.0625
7.869920969009399,462.44000244140625,-2997.489990234375,-6087.35009765625,-400000.0625,-7234.14990234375,-400000.0625,-400000.0625,-400000.0625
7.936384201049805,464.6300048828125,-2994.300048828125,-6080.77001953125,-400000.0625,-7233.3798828125,-400000.0625,-400000.0625,-400000.0625
8.007656574249268,456.42999267578125,-3009.320068359375,-6090.02001953125,-400000.0625,-7236.10009765625,-400000.0625,-400000.0625,-400000.0625
8.077252626419067,455.3800048828125,-3004.030029296875,-6085.35009765625,-400000.0625,-7235.3798828125,-400000.0625,-400000.0625,-400000.0625
8.11548113822937,454.760009765625,-3001.7900390625,-6084.6298828125,-400000.0625,-7236.77001953125,-400000.0625,-400000.0625,-400000.0625
8.186935424804688,457.3800048828125,-3012.22998046875,-6081.77001953125,-400000.0625,-7235.10009765625,-400000.0625,-400000.0625,-400000.0625
8.26754641532898,446.94000244140625,-3016.280029296875,-6088.39990234375,-400000.0625,-7233.3798828125,-400000.0625,-400000.0625,-400000.0625
8.435029983520508,464.489990234375,-3011.56005859375,-6083.97021484375,-400000.0625,-7229.89990234375,-400000.0625,-400000.0625,-400000.0625
8.598220109939575,463.82000732421875,-3013.56005859375,-6085.35009765625,-400000.0625,-7229.759765625,-400000.0625,-400000.0625,-400000.0625
8.696723461151123,460.3399963378906,-3003.409912109375,-6076.33984375,-400000.0625,-7233.9501953125,-400000.0625,-400000.0625,-400000.0625
8.847973346710205,455.04998779296875,-3013.469970703125,-6077.91015625,-400000.0625,-7227.08984375,-400000.0625,-400000.0625,-400000.0625
8.9062340259552,443.3599853515625,-3027.679931640625,-6090.68994140625,-400000.0625,-7232.47998046875,-400000.0625,-400000.0625,-400000.0625
8.949765920639038,451.989990234375,-3024.050048828125,-6088.10986328125,-400000.0625,-7237.47998046875,-400000.0625,-400000.0625,-400000.0625
9.09707260131836,456.19000244140625,-3031.2099609375,-6090.830078125,-400000.0625,-7228.7099609375,-400000.0625,-400000.0625,-400000.0625
9.171941757202148,462.25,-3019.570068359375,-6082.5400390625,-400000.0625,-7231.56982421875,-400000.0625,-400000.0625,-400000.0625
9.301196336746216,457.3299865722656,-3033.02001953125,-6090.16015625,-400000.0625,-7233.0498046875,-400000.0625,-400000.0625,-400000.0625
9.559602975845337,460.8599853515625,-3031.830078125,-6089.4501953125,-400000.0625,-7236.81982421875,-400000.0625,-400000.0625,-400000.0625
9.74493956565857,459.7699890136719,-3043.7900390625,-6098.60009765625,-400000.0625,-7245.16015625,-400000.0625,-400000.0625,-400000.0625
10.052651643753052,273.70001220703125,-2884.25,-5918.4599609375,-400000.0625,-7230.89990234375,-400000.0625,-400000.0625,-400000.0625
10.18278694152832,265.07000732421875,-2867.64990234375,-5891.0400390625,-400000.0625,-7231.0,-400000.0625,-400000.0625,-400000.0625
10.299345254898071,272.79998779296875,-2868.56005859375,-5896.52001953125,-400000.0625,-7232.0,-400000.0625,-400000.0625,-400000.0625
10.366273164749146,270.510009765625,-2869.4599609375,-5892.7998046875,-400000.0625,-7234.0,-400000.0625,-400000.0625,-400000.0625
10.48488998413086,270.0799865722656,-2870.85009765625,-5889.22998046875,-400000.0625,-7231.52001953125,-400000.0625,-400000.0625,-400000.0625
10.612752199172974,270.2699890136719,-2881.0,-5893.85009765625,-400000.0625,-7238.2001953125,-400000.0625,-400000.0625,-400000.0625
10.741950511932373,266.2200012207031,-2888.5400390625,-5900.81005859375,-400000.0625,-7239.10009765625,-400000.0625,-400000.0625,-400000.0625
10.817386150360107,265.5,-2892.2099609375,-5902.72021484375,-400000.0625,-7234.33984375,-400000.0625,-400000.0625,-400000.0625
10.887089490890503,259.45001220703125,-2895.639892578125,-5899.669921875,-400000.0625,-7237.77001953125,-400000.0625,-400000.0625,-400000.0625
10.948804378509521,263.6400146484375,-2893.02001953125,-5896.47021484375,-400000.0625,-7233.669921875,-400000.0625,-400000.0625,-400000.0625
11.001570701599121,261.8299865722656,-2894.969970703125,-5892.22998046875,-400000.0625,-7232.85986328125,-400000.0625,-400000.0625,-400000.0625
11.069453001022339,265.260009765625,-2896.5,-5893.0400390625,-400000.0625,-7236.72021484375,-400000.0625,-400000.0625,-400000.0625
11.196834564208984,260.260009765625,-2901.1298828125,-5902.240234375,-400000.0625,-7242.77978515625,-400000.0625,-400000.0625,-400000.0625
11.252318143844604,269.32000732421875,-2896.8798828125,-5895.66015625,-400000.0625,-7239.39013671875,-400000.0625,-400000.0625,-400000.0625
11.467114210128784,258.3500061035156,-2890.43994140625,-5895.3798828125,-400000.0625,-7251.22021484375,-400000.0625,-400000.0625,-400000.0625
11.527583122253418,258.260009765625,-2879.52001953125,-5886.1298828125,-400000.0625,-7245.2099609375,-400000.0625,-400000.0625,-400000.0625
11.59191083908081,252.05999755859375,-2888.5400390625,-5891.85009765625,-400000.0625,-7252.31005859375,-400000.0625,-400000.0625,-400000.0625
11.705005884170532,257.8699951171875,-2892.68994140625,-5895.56982421875,-400000.0625,-7253.7900390625,-400000.0625,-400000.0625,-400000.0625
11.768423557281494,259.260009765625,-2888.43994140625,-5893.14013671875,-400000.0625,-7250.35986328125,-400000.0625,-400000.0625,-400000.0625
11.968629121780396,253.9600067138672,-2895.070068359375,-5905.33984375,-400000.0625,-7265.85009765625,-400000.0625,-400000.0625,-400000.0625
12.037944316864014,270.79998779296875,-2876.22998046875,-5890.93994140625,-400000.0625,-7258.22998046875,-400000.0625,-400000.0625,-400000.0625
12.115406274795532,261.45001220703125,-2881.47998046875,-5896.81005859375,-400000.0625,-7259.31982421875,-400000.0625,-400000.0625,-400000.0625
12.220318078994751,244.89999389648438,-2865.27001953125,-5893.47021484375,-400000.0625,-7257.41015625,-400000.0625,-400000.0625,-400000.0625
12.303798198699951,241.0399932861328,-2870.989990234375,-5894.18017578125,-400000.0625,-7264.0,-400000.0625,-400000.0625,-400000.0625
12.35270357131958,265.3599853515625,-2850.580078125,-5891.31982421875,-400000.0625,-7265.89990234375,-400000.0625,-400000.0625,-400000.0625
12.422903299331665,265.6000061035156,-2839.3701171875,-5885.89013671875,-400000.0625,-7257.7998046875,-400000.0625,-400000.0625,-400000.0625
12.49146318435669,258.29998779296875,-2844.2900390625,-5896.89990234375,-400000.0625,-7263.22998046875,-400000.0625,-400000.0625,-400000.0625
12.601349830627441,259.489990234375,-2857.02001953125,-5889.7998046875,-400000.0625,-7263.18017578125,-400000.0625,-400000.0625,-400000.0625
12.758888244628906,248.3800048828125,-2850.8701171875,-5886.97998046875,-400000.0625,-7265.52001953125,-400000.0625,-400000.0625,-400000.0625
12.85254454612732,244.0500030517578,-2861.2099609375,-5893.66015625,-400000.0625,-7264.56982421875,-400000.0625,-400000.0625,-400000.0625
12.94146466255188,226.30999755859375,-2861.260009765625,-5884.35986328125,-400000.0625,-7263.759765625,-400000.0625,-400000.0625,-400000.0625
12.999865293502808,86.30999755859375,-2733.56005859375,-5690.72021484375,-400000.0625,-7253.93017578125,-400000.0625,-400000.0625,-400000.0625
13.050188064575195,87.69000244140625,-2733.56005859375,-5669.830078125,-400000.0625,-7253.7001953125,-400000.0625,-400000.0625,-400000.0625
13.138121843338013,93.55999755859375,-2738.2900390625,-5665.259765625,-400000.0625,-7250.60009765625,-400000.0625,-400000.0625,-400000.0625
13.30561876296997,87.63999938964844,-2747.389892578125,-5666.72998046875,-400000.0625,-7258.3701171875,-400000.0625,-400000.0625,-400000.0625
13.397852420806885,86.9800033569336,-2745.010009765625,-5658.33984375,-400000.0625,-7245.5400390625,-400000.0625,-400000.0625,-400000.0625
13.498702764511108,82.77999877929688,-2754.969970703125,-5671.8798828125,-400000.0625,-7251.22021484375,-400000.0625,-400000.0625,-400000.0625
13.683612585067749,78.58000183105469,-2773.429931640625,-5677.02978515625,-400000.0625,-7254.31982421875,-400000.0625,-400000.0625,-400000.0625
13.748751401901245,80.87000274658203,-2766.22998046875,-5651.240234375,-400000.0625,-7252.259765625,-400000.0625,-400000.0625,-400000.0625
13.880893468856812,76.25,-2766.659912109375,-5650.759765625,-400000.0625,-7251.259765625,-400000.0625,-400000.0625,-400000.0625
14.207861185073853,74.0999984741211,-2783.389892578125,-5655.72021484375,-400000.0625,-7253.35986328125,-400000.0625,-400000.0625,-400000.0625
14.27429485321045,72.91000366210938,-2779.10009765625,-5647.759765625,-400000.0625,-7249.58984375,-400000.0625,-400000.0625,-400000.0625
14.337632656097412,76.4800033569336,-2784.110107421875,-5651.6201171875,-400000.0625,-7249.06982421875,-400000.0625,-400000.0625,-400000.0625
14.399951457977295,77.44000244140625,-2789.1201171875,-5647.52001953125,-400000.0625,-7244.39990234375,-400000.0625,-400000.0625,-400000.0625
14.467910766601562,72.66999816894531,-2788.449951171875,-5647.85009765625,-400000.0625,-7243.16015625,-400000.0625,-400000.0625,-400000.0625
14.708729028701782,58.36000061035156,-2810.0,-5659.10009765625,-400000.0625,-7245.68017578125,-400000.0625,-400000.0625,-400000.0625
14.870064735412598,58.88999938964844,-2809.18994140625,-5658.10009765625,-400000.0625,-7253.169921875,-400000.0625,-400000.0625,-400000.0625
15.02024531364441,50.5,-2816.580078125,-5662.77978515625,-400000.0625,-7259.18017578125,-400000.0625,-400000.0625,-400000.0625
15.16231393814087,37.04999923706055,-2839.659912109375,-5682.7998046875,-400000.0625,-7262.759765625,-400000.0625,-400000.0625,-400000.0625
15.248156309127808,44.779998779296875,-2830.409912109375,-5672.97998046875,-400000.0625,-7256.93994140625,-400000.0625,-400000.0625,-400000.0625
15.359012365341187,54.40999984741211,-2826.5,-5663.490234375,-400000.0625,-7257.509765625,-400000.0625,-400000.0625,-400000.0625
15.489954948425293,45.91999816894531,-2831.550048828125,-5675.4599609375,-400000.0625,-7261.85009765625,-400000.0625,-400000.0625,-400000.0625
15.622578144073486,50.970001220703125,-2826.360107421875,-5670.830078125,-400000.0625,-7256.31982421875,-400000.0625,-400000.0625,-400000.0625
15.687300205230713,53.93000030517578,-2826.739990234375,-5670.93017578125,-400000.0625,-7257.83984375,-400000.0625,-400000.0625,-400000.0625
15.714321374893188,58.130001068115234,-2820.43994140625,-5664.39990234375,-400000.0625,-7254.41015625,-400000.0625,-400000.0625,-400000.0625
15.735889196395874,60.650001525878906,-2814.580078125,-5662.72998046875,-400000.0625,-7255.31982421875,-400000.0625,-400000.0625,-400000.0625
15.822847604751587,45.25,-2825.070068359375,-5680.75,-400000.0625,-7259.93994140625,-400000.0625,-400000.0625,-400000.0625
15.868661642074585,51.2599983215332,-2816.820068359375,-5673.31005859375,-400000.0625,-7254.7900390625,-400000.0625,-400000.0625,-400000.0625
15.968175888061523,36.95000076293945,-2826.8798828125,-5680.75,-400000.0625,-7263.89990234375,-400000.0625,-400000.0625,-400000.0625
16.201104640960693,194.07000732421875,-2909.22998046875,-5894.85009765625,-400000.0625,-7274.52978515625,-400000.0625,-400000.0625,-400000.0625
16.322862148284912,208.3800048828125,-2905.0400390625,-5901.77001953125,-400000.0625,-7274.81982421875,-400000.0625,-400000.0625,-400000.0625
16.501097917556763,203.17999267578125,-2909.760009765625,-5903.580078125,-400000.0625,-7277.97021484375,-400000.0625,-400000.0625,-400000.0625
17.067351579666138,210.47999572753906,-2901.360107421875,-5893.27978515625,-400000.0625,-7276.97021484375,-400000.0625,-400000.0625,-400000.0625
17.142783641815186,196.1699981689453,-2915.570068359375,-5912.35009765625,-400000.0625,-7277.009765625,-400000.0625,-400000.0625,-400000.0625
17.272605657577515,209.9499969482422,-2900.31005859375,-5899.85986328125,-400000.0625,-7267.7099609375,-400000.0625,-400000.0625,-400000.0625
17.440460443496704,196.83999633789062,-2915.239990234375,-5908.25,-400000.0625,-7267.7099609375,-400000.0625,-400000.0625,-400000.0625
17.54573392868042,201.85000610351562,-2915.6201171875,-5911.830078125,-400000.0625,-7270.14990234375,-400000.0625,-400000.0625,-400000.0625
17.722773790359497,193.5500030517578,-2914.10009765625,-5905.009765625,-400000.0625,-7270.240234375,-400000.0625,-400000.0625,-400000.0625
17.86347770690918,184.72999572753906,-2913.090087890625,-5904.14990234375,-400000.0625,-7270.77001953125,-400000.0625,-400000.0625,-400000.0625
17.928576946258545,192.25999450683594,-2916.860107421875,-5913.830078125,-400000.0625,-7266.669921875,-400000.0625,-400000.0625,-400000.0625
17.973854064941406,188.63999938964844,-2917.389892578125,-5910.2099609375,-400000.0625,-7274.39013671875,-400000.0625,-400000.0625,-400000.0625
18.050843000411987,194.69000244140625,-2918.47998046875,-5912.58984375,-400000.0625,-7273.669921875,-400000.0625,-400000.0625,-400000.0625
18.17155361175537,191.5500030517578,-2915.669921875,-5904.14990234375,-400000.0625,-7275.580078125,-400000.0625,-400000.0625,-400000.0625
18.23945641517639,185.77999877929688,-2925.43994140625,-5910.72998046875,-400000.0625,-7271.91015625,-400000.0625,-400000.0625,-400000.0625
18.4252610206604,180.44000244140625,-2929.8798828125,-5918.4599609375,-400000.0625,-7283.02001953125,-400000.0625,-400000.0625,-400000.0625
18.550090551376343,174.86000061035156,-2938.840087890625,-5923.02978515625,-400000.0625,-7283.4501953125,-400000.0625,-400000.0625,-400000.0625
18.613091468811035,180.5800018310547,-2942.89990234375,-5927.60986328125,-400000.0625,-7287.64990234375,-400000.0625,-400000.0625,-400000.0625
18.807642459869385,181.77000427246094,-2939.64990234375,-5923.64990234375,-400000.0625,-7293.419921875,-400000.0625,-400000.0625,-400000.0625
18.889065980911255,188.49000549316406,-2932.550048828125,-5918.31005859375,-400000.0625,-7287.4599609375,-400000.0625,-400000.0625,-400000.0625
18.949092388153076,180.14999389648438,-2935.60009765625,-5920.080078125,-400000.0625,-7289.080078125,-400000.0625,-400000.0625,-400000.0625
19.15438413619995,98.51000213623047,-3145.64990234375,-5984.740234375,-400000.0625,-7279.68017578125,-400000.0625,-400000.0625,-400000.0625
19.25617551803589,132.88999938964844,-3082.320068359375,-5955.64990234375,-400000.0625,-7294.93994140625,-400000.0625,-400000.0625,-400000.0625
19.403498888015747,124.06999969482422,-3089.7099609375,-5960.990234375,-400000.0625,-7299.759765625,-400000.0625,-400000.0625,-400000.0625
19.459047079086304,120.3499984741211,-3088.469970703125,-5965.85009765625,-400000.0625,-7303.47998046875,-400000.0625,-400000.0625,-400000.0625
19.51623010635376,120.69000244140625,-3092.239990234375,-5963.52001953125,-400000.0625,-7304.52978515625,-400000.0625,-400000.0625,-400000.0625
19.79931354522705,106.29000091552734,-3114.1298828125,-5972.77001953125,-400000.0625,-7307.72021484375,-400000.0625,-400000.0625,-400000.0625
20.059728384017944,108.52999877929688,-3115.56005859375,-5972.9599609375,-400000.0625,-7300.759765625,-400000.0625,-400000.0625,-400000.0625
20.134334087371826,104.08999633789062,-3131.010009765625,-5979.81982421875,-400000.0625,-7304.9599609375,-400000.0625,-400000.0625,-400000.0625
20.212608814239502,103.37999725341797,-3139.449951171875,-5984.259765625,-400000.0625,-7297.08984375,-400000.0625,-400000.0625,-400000.0625
20.277838230133057,101.04000091552734,-3134.43994140625,-5991.31982421875,-400000.0625,-7304.759765625,-400000.0625,-400000.0625,-400000.0625
20.346922874450684,105.5199966430664,-3134.35009765625,-5984.740234375,-400000.0625,-7298.419921875,-400000.0625,-400000.0625,-400000.0625
20.43027925491333,95.08000183105469,-3139.8798828125,-5984.830078125,-400000.0625,-7303.81005859375,-400000.0625,-400000.0625,-400000.0625
20.496293783187866,93.36000061035156,-3148.409912109375,-5987.22021484375,-400000.0625,-7303.669921875,-400000.0625,-400000.0625,-400000.0625
20.604849576950073,107.29000091552734,-3133.389892578125,-5977.35009765625,-400000.0625,-7306.72021484375,-400000.0625,-400000.0625,-400000.0625
20.79134964942932,96.51000213623047,-3145.27001953125,-5980.68017578125,-400000.0625,-7301.240234375,-400000.0625,-400000.0625,-400000.0625
20.985679149627686,100.98999786376953,-3146.739990234375,-5983.93017578125,-400000.0625,-7305.9599609375,-400000.0625,-400000.0625,-400000.0625
21.071225881576538,103.76000213623047,-3142.7900390625,-5976.39013671875,-400000.0625,-7288.7900390625,-400000.0625,-400000.0625,-400000.0625
21.197067260742188,105.70999908447266,-3145.409912109375,-5982.2998046875,-400000.0625,-7296.47021484375,-400000.0625,-400000.0625,-400000.0625
21.739565134048462,111.91000366210938,-3138.969970703125,-5975.25,-400000.0625,-7290.22021484375,-400000.0625,-400000.0625,-400000.0625
22.021851539611816,102.9000015258789,-3152.56005859375,-5984.02001953125,-400000.0625,-7292.60986328125,-400000.0625,-400000.0625,-400000.0625
22.15088963508606,107.4800033569336,-3151.610107421875,-5974.52978515625,-400000.0625,-7289.02978515625,-400000.0625,-400000.0625,-400000.0625
22.399905920028687,151.82000732421875,-2979.570068359375,-5957.7900390625,-400000.0625,-7305.33984375,-400000.0625,-400000.0625,-400000.0625
22.488543272018433,163.97999572753906,-2963.780029296875,-5943.68017578125,-400000.0625,-7297.18017578125,-400000.0625,-400000.0625,-400000.0625
22.58901023864746,167.3699951171875,-2964.31005859375,-5944.919921875,-400000.0625,-7298.0400390625,-400000.0625,-400000.0625,-400000.0625
22.69848084449768,169.7100067138672,-2962.780029296875,-5945.97021484375,-400000.0625,-7302.7099609375,-400000.0625,-400000.0625,-400000.0625
22.772345781326294,154.16000366210938,-2968.97998046875,-5955.97998046875,-400000.0625,-7304.85986328125,-400000.0625,-400000.0625,-400000.0625
22.854549169540405,157.7899932861328,-2965.39990234375,-5950.8798828125,-400000.0625,-7301.6201171875,-400000.0625,-400000.0625,-400000.0625
22.95416569709778,155.8300018310547,-2966.02001953125,-5948.77978515625,-400000.0625,-7294.0400390625,-400000.0625,-400000.0625,-400000.0625
23.04864764213562,161.64999389648438,-2967.7900390625,-5954.5498046875,-400000.0625,-7298.66015625,-400000.0625,-400000.0625,-400000.0625
23.16396427154541,167.94000244140625,-2967.7900390625,-5948.8798828125,-400000.0625,-7293.419921875,-400000.0625,-400000.0625,-400000.0625
23.255951642990112,166.4600067138672,-2966.830078125,-5947.68994140625,-400000.0625,-7291.22021484375,-400000.0625,-400000.0625,-400000.0625
23.302383184432983,169.94000244140625,-2962.39990234375,-5947.68994140625,-400000.0625,-7292.509765625,-400000.0625,-400000.0625,-400000.0625
23.424479961395264,172.4199981689453,-2967.449951171875,-5947.5400390625,-400000.0625,-7298.85009765625,-400000.0625,-400000.0625,-400000.0625
23.56860589981079,182.33999633789062,-2959.110107421875,-5943.43994140625,-400000.0625,-7297.27978515625,-400000.0625,-400000.0625,-400000.0625
23.691166162490845,183.05999755859375,-2951.669921875,-5935.2900390625,-400000.0625,-7285.7900390625,-400000.0625,-400000.0625,-400000.0625
23.814688205718994,184.9199981689453,-2950.3798828125,-5933.85986328125,-400000.0625,-7291.080078125,-400000.0625,-400000.0625,-400000.0625
23.994439840316772,178.3800048828125,-2953.6298828125,-5934.759765625,-400000.0625,-7285.41015625,-400000.0625,-400000.0625,-400000.0625
24.20319962501526,180.52999877929688,-2955.820068359375,-5937.2001953125,-400000.0625,-7284.830078125,-400000.0625,-400000.0625,-400000.0625
24.45634436607361,182.67999267578125,-2955.010009765625,-5943.2998046875,-400000.0625,-7294.0400390625,-400000.0625,-400000.0625,-400000.0625
24.51158380508423,192.92999267578125,-2941.699951171875,-5923.60986328125,-400000.0625,-7285.8798828125,-400000.0625,-400000.0625,-400000.0625
24.564517498016357,185.3000030517578,-2946.0,-5928.27978515625,-400000.0625,-7278.2998046875,-400000.0625,-400000.0625,-400000.0625
24.656010627746582,187.77999877929688,-2945.22998046875,-5922.18017578125,-400000.0625,-7276.39013671875,-400000.0625,-400000.0625,-400000.0625
24.694525480270386,178.10000610351562,-2958.8701171875,-5935.3798828125,-400000.0625,-7294.990234375,-400000.0625,-400000.0625,-400000.0625
24.84841513633728,180.77000427246094,-2953.9599609375,-5931.89990234375,-400000.0625,-7285.64013671875,-400000.0625,-400000.0625,-400000.0625
24.910165786743164,184.77000427246094,-2950.239990234375,-5923.89013671875,-400000.0625,-7285.06982421875,-400000.0625,-400000.0625,-400000.0625
25.091116428375244,184.6300048828125,-2947.139892578125,-5918.740234375,-400000.0625,-7282.35009765625,-400000.0625,-400000.0625,-400000.0625
25.225167274475098,174.0,-2943.610107421875,-5929.0400390625,-400000.0625,-7287.22021484375,-400000.0625,-400000.0625,-400000.0625
25.29815912246704,220.67999267578125,-2844.18994140625,-5901.9599609375,-400000.0625,-7286.64013671875,-400000.0625,-400000.0625,-400000.0625
25.382943868637085,217.82000732421875,-2853.389892578125,-5897.330078125,-400000.0625,-7284.1201171875,-400000.0625,-400000.0625,-400000.0625
25.459721088409424,340.1300048828125,-2778.14990234375,-5904.2900390625,-400000.0625,-7288.5498046875,-400000.0625,-400000.0625,-400000.0625
25.557637691497803,262.5,-2835.320068359375,-5891.18017578125,-400000.0625,-7280.39990234375,-400000.0625,-400000.0625,-400000.0625
25.654033184051514,212.47999572753906,-2898.550048828125,-5885.740234375,-400000.0625,-7271.81982421875,-400000.0625,-400000.0625,-400000.0625
25.724671602249146,215.91000366210938,-2886.580078125,-5875.25,-400000.0625,-7264.81005859375,-400000.0625,-400000.0625,-400000.0625
25.79041862487793,210.47999572753906,-2890.43994140625,-5884.31005859375,-400000.0625,-7266.7099609375,-400000.0625,-400000.0625,-400000.0625
25.89155411720276,209.75999450683594,-2892.02001953125,-5887.89013671875,-400000.0625,-7261.27978515625,-400000.0625,-400000.0625,-400000.0625
26.03757357597351,228.41000366210938,-2871.510009765625,-5877.919921875,-400000.0625,-7265.66015625,-400000.0625,-400000.0625,-400000.0625
26.120243310928345,218.38999938964844,-2870.610107421875,-5879.740234375,-400000.0625,-7263.9501953125,-400000.0625,-400000.0625,-400000.0625
26.22816562652588,222.39999389648438,-2869.840087890625,-5881.8798828125,-400000.0625,-7271.47998046875,-400000.0625,-400000.0625,-400000.0625
26.354981899261475,218.77000427246094,-2871.469970703125,-5878.8798828125,-400000.0625,-7266.9501953125,-400000.0625,-400000.0625,-400000.0625
26.43937397003174,222.49000549316406,-2864.64990234375,-5869.580078125,-400000.0625,-7258.419921875,-400000.0625,-400000.0625,-400000.0625
26.54899311065674,220.82000732421875,-2869.56005859375,-5873.97021484375,-400000.0625,-7267.669921875,-400000.0625,-400000.0625,-400000.0625
26.678335428237915,218.44000244140625,-2865.929931640625,-5867.77001953125,-400000.0625,-7261.47021484375,-400000.0625,-400000.0625,-400000.0625
26.746410369873047,226.74000549316406,-2866.219970703125,-5870.9599609375,-400000.0625,-7266.56982421875,-400000.0625,-400000.0625,-400000.0625
26.856454610824585,229.4499969482422,-2862.550048828125,-5868.47998046875,-400000.0625,-7267.52001953125,-400000.0625,-400000.0625,-400000.0625
26.990373373031616,226.4499969482422,-2868.510009765625,-5874.58984375,-400000.0625,-7274.8701171875,-400000.0625,-400000.0625,-400000.0625
27.145134925842285,232.1699981689453,-2866.93994140625,-5871.8701171875,-400000.0625,-7278.2001953125,-400000.0625,-400000.0625,-400000.0625
27.257163524627686,238.3699951171875,-2860.360107421875,-5868.2900390625,-400000.0625,-7280.64013671875,-400000.0625,-400000.0625,-400000.0625
27.388575077056885,235.50999450683594,-2857.110107421875,-5870.43994140625,-400000.0625,-7278.72998046875,-400000.0625,-400000.0625,-400000.0625
27.53949475288391,239.52000427246094,-2855.159912109375,-5867.81982421875,-400000.0625,-7282.2099609375,-400000.0625,-400000.0625,-400000.0625
27.70258355140686,248.80999755859375,-2846.18994140625,-5864.81005859375,-400000.0625,-7280.5400390625,-400000.0625,-400000.0625,-400000.0625
27.837989807128906,249.6699981689453,-2844.6201171875,-5860.330078125,-400000.0625,-7282.06982421875,-400000.0625,-400000.0625,-400000.0625
28.045455932617188,247.52999877929688,-2848.580078125,-5862.81005859375,-400000.0625,-7283.02001953125,-400000.0625,-400000.0625,-400000.0625
28.11408019065857,248.86000061035156,-2842.280029296875,-5857.990234375,-400000.0625,-7279.8701171875,-400000.0625,-400000.0625,-400000.0625
28.140522718429565,247.6699981689453,-2846.77001953125,-5864.47998046875,-400000.0625,-7283.259765625,-400000.0625,-400000.0625,-400000.0625
28.18560028076172,244.7100067138672,-2851.340087890625,-5865.85986328125,-400000.0625,-7284.39990234375,-400000.0625,-400000.0625,-400000.0625
28.23901391029358,243.27999877929688,-2851.8701171875,-5867.47998046875,-400000.0625,-7287.22021484375,-400000.0625,-400000.0625,-400000.0625
28.265470504760742,245.57000732421875,-2846.580078125,-5864.10009765625,-400000.0625,-7282.2099609375,-400000.0625,-400000.0625,-400000.0625
28.298015832901,246.2899932861328,-2845.239990234375,-5861.56982421875,-400000.0625,-7276.580078125,-400000.0625,-400000.0625,-400000.0625
28.37421464920044,247.52999877929688,-2848.340087890625,-5863.6201171875,-400000.0625,-7281.64013671875,-400000.0625,-400000.0625,-400000.0625
28.404053211212158,244.19000244140625,-2852.340087890625,-5868.47998046875,-400000.0625,-7287.83984375,-400000.0625,-400000.0625,-400000.0625
28.471753120422363,242.4199981689453,-2852.340087890625,-5870.14990234375,-400000.0625,-7288.02978515625,-400000.0625,-400000.0625,-400000.0625
28.501967430114746,247.6199951171875,-2852.14990234375,-5866.6201171875,-400000.0625,-7286.169921875,-400000.0625,-400000.0625,-400000.0625
28.52799105644226,250.24000549316406,-2847.47998046875,-5863.10009765625,-400000.0625,-7287.60009765625,-400000.0625,-400000.0625,-400000.0625
28.587097644805908,246.91000366210938,-2849.820068359375,-5867.2900390625,-400000.0625,-7288.27001953125,-400000.0625,-400000.0625,-400000.0625
28.6118106842041,244.08999633789062,-2852.43994140625,-5870.14990234375,-400000.0625,-7286.60009765625,-400000.0625,-400000.0625,-400000.0625
28.636534929275513,243.47000122070312,-2849.47998046875,-5868.77001953125,-400000.0625,-7281.58984375,-400000.0625,-400000.0625,-400000.0625
28.69802689552307,243.3300018310547,-2849.389892578125,-5868.91015625,-400000.0625,-7286.31005859375,-400000.0625,-400000.0625,-400000.0625
28.72244691848755,246.57000732421875,-2845.47998046875,-5866.580078125,-400000.0625,-7287.64990234375,-400000.0625,-400000.0625,-400000.0625
28.75270700454712,245.3300018310547,-2849.47998046875,-5869.25,-400000.0625,-7286.8798828125,-400000.0625,-400000.0625,-400000.0625
28.80903720855713,244.9499969482422,-2848.719970703125,-5869.43994140625,-400000.0625,-7288.080078125,-400000.0625,-400000.0625,-400000.0625
28.832860231399536,244.80999755859375,-2850.010009765625,-5872.2001953125,-400000.0625,-7289.02978515625,-400000.0625,-400000.0625,-400000.0625
28.882995128631592,246.80999755859375,-2849.719970703125,-5869.91015625,-400000.0625,-7285.02001953125,-400000.0625,-400000.0625,-400000.0625
28.930216789245605,247.6699981689453,-2846.340087890625,-5865.0498046875,-400000.0625,-7281.2099609375,-400000.0625,-400000.0625,-400000.0625
28.952659368515015,245.57000732421875,-2843.570068359375,-5865.2900390625,-400000.0625,-7285.68994140625,-400000.0625,-400000.0625,-400000.0625
29.002394437789917,245.86000061035156,-2844.909912109375,-5869.06005859375,-400000.0625,-7285.93017578125,-400000.0625,-400000.0625,-400000.0625
29.056647062301636,242.80999755859375,-2844.669921875,-5869.2001953125,-400000.0625,-7287.7900390625,-400000.0625,-400000.0625,-400000.0625
29.082444190979004,248.0500030517578,-2845.10009765625,-5867.33984375,-400000.0625,-7287.41015625,-400000.0625,-400000.0625,-400000.0625
29.134826183319092,250.24000549316406,-2841.570068359375,-5863.85986328125,-400000.0625,-7279.39990234375,-400000.0625,-400000.0625,-400000.0625
29.298974990844727,240.0399932861328,-2845.860107421875,-5866.81005859375,-400000.0625,-7284.5,-400000.0625,-400000.0625,-400000.0625
29.72887086868286,239.1300048828125,-2846.530029296875,-5869.580078125,-400000.0625,-7290.22021484375,-400000.0625,-400000.0625,-400000.0625
29.77254867553711,242.13999938964844,-2846.10009765625,-5869.14990234375,-400000.0625,-7281.64013671875,-400000.0625,-400000.0625,-400000.0625
29.794389963150024,239.75,-2842.3798828125,-5865.43017578125,-400000.0625,-7281.259765625,-400000.0625,-400000.0625,-400000.0625
29.839975357055664,240.27999877929688,-2840.52001953125,-5863.2900390625,-400000.0625,-7285.31005859375,-400000.0625,-400000.0625,-400000.0625
29.88334560394287,241.08999633789062,-2843.429931640625,-5866.240234375,-400000.0625,-7285.259765625,-400000.0625,-400000.0625,-400000.0625
29.904532194137573,240.61000061035156,-2844.860107421875,-5867.10009765625,-400000.0625,-7286.93017578125,-400000.0625,-400000.0625,-400000.0625
29.95260500907898,240.4199981689453,-2842.239990234375,-5864.81005859375,-400000.0625,-7291.169921875,-400000.0625,-400000.0625,-400000.0625
30.000553607940674,242.19000244140625,-2844.2900390625,-5865.43017578125,-400000.0625,-7289.1201171875,-400000.0625,-400000.0625,-400000.0625
30.02334713935852,243.42999267578125,-2845.570068359375,-5864.759765625,-400000.0625,-7282.58984375,-400000.0625,-400000.0625,-400000.0625
30.068658351898193,241.57000732421875,-2846.239990234375,-5864.43017578125,-400000.0625,-7281.72998046875,-400000.0625,-400000.0625,-400000.0625
30.115008115768433,242.19000244140625,-2843.89990234375,-5862.89990234375,-400000.0625,-7285.02001953125,-400000.0625,-400000.0625,-400000.0625
30.14451241493225,237.99000549316406,-2846.050048828125,-5865.85986328125,-400000.0625,-7289.93994140625,-400000.0625,-400000.0625,-400000.0625
30.166547536849976,239.08999633789062,-2845.429931640625,-5863.3798828125,-400000.0625,-7286.93017578125,-400000.0625,-400000.0625,-400000.0625
30.200504541397095,242.85000610351562,-2842.860107421875,-5860.66015625,-400000.0625,-7284.35986328125,-400000.0625,-400000.0625,-400000.0625
30.275211334228516,240.7100067138672,-2841.330078125,-5861.56982421875,-400000.0625,-7285.35986328125,-400000.0625,-400000.0625,-400000.0625
30.30393409729004,241.89999389648438,-2841.090087890625,-5861.56982421875,-400000.0625,-7284.97998046875,-400000.0625,-400000.0625,-400000.0625
30.360284566879272,242.3800048828125,-2844.429931640625,-5865.14990234375,-400000.0625,-7285.830078125,-400000.0625,-400000.0625,-400000.0625
30.388845920562744,240.85000610351562,-2846.77001953125,-5864.9501953125,-400000.0625,-7283.93017578125,-400000.0625,-400000.0625,-400000.0625
30.43716311454773,240.3699951171875,-2845.18994140625,-5862.240234375,-400000.0625,-7288.27001953125,-400000.0625,-400000.0625,-400000.0625
30.496418476104736,238.17999267578125,-2846.9599609375,-5865.43017578125,-400000.0625,-7294.22998046875,-400000.0625,-400000.0625,-400000.0625
30.52087903022766,237.8000030517578,-2849.43994140625,-5869.14990234375,-400000.0625,-7290.4599609375,-400000.0625,-400000.0625,-400000.0625
30.574920415878296,240.0399932861328,-2846.340087890625,-5862.14013671875,-400000.0625,-7285.4501953125,-400000.0625,-400000.0625,-400000.0625
30.620349645614624,244.42999267578125,-2841.090087890625,-5859.419921875,-400000.0625,-7281.58984375,-400000.0625,-400000.0625,-400000.0625
30.6492600440979,243.3800048828125,-2845.2900390625,-5863.759765625,-400000.0625,-7283.740234375,-400000.0625,-400000.0625,-400000.0625
30.700615882873535,243.08999633789062,-2844.47998046875,-5862.3798828125,-400000.0625,-7278.72998046875,-400000.0625,-400000.0625,-400000.0625
30.75127863883972,240.27999877929688,-2845.860107421875,-5864.72021484375,-400000.0625,-7286.31005859375,-400000.0625,-400000.0625,-400000.0625
30.775354623794556,242.9499969482422,-2846.340087890625,-5866.39013671875,-400000.0625,-7292.56005859375,-400000.0625,-400000.0625,-400000.0625
30.829976081848145,245.2899932861328,-2843.89990234375,-5863.9501953125,-400000.0625,-7287.64990234375,-400000.0625,-400000.0625,-400000.0625
30.87248396873474,242.27999877929688,-2846.10009765625,-5865.2900390625,-400000.0625,-7286.60009765625,-400000.0625,-400000.0625,-400000.0625
30.895552396774292,240.9499969482422,-2846.340087890625,-5865.0498046875,-400000.0625,-7286.5,-400000.0625,-400000.0625,-400000.0625
30.94591736793518,239.52000427246094,-2840.85009765625,-5862.85986328125,-400000.0625,-7281.16015625,-400000.0625,-400000.0625,-400000.0625
30.99592924118042,240.7100067138672,-2840.659912109375,-5864.52978515625,-400000.0625,-7281.919921875,-400000.0625,-400000.0625,-400000.0625
31.021056413650513,242.4199981689453,-2838.75,-5861.56982421875,-400000.0625,-7287.5498046875,-400000.0625,-400000.0625,-400000.0625
31.07553005218506,244.08999633789062,-2840.330078125,-5860.0,-400000.0625,-7291.990234375,-400000.0625,-400000.0625,-400000.0625
31.123040914535522,245.08999633789062,-2843.570068359375,-5864.669921875,-400000.0625,-7289.27001953125,-400000.0625,-400000.0625,-400000.0625
31.155644416809082,242.0399932861328,-2846.909912109375,-5868.669921875,-400000.0625,-7289.7001953125,-400000.0625,-400000.0625,-400000.0625
31.19619631767273,239.55999755859375,-2843.81005859375,-5867.91015625,-400000.0625,-7288.93017578125,-400000.0625,-400000.0625,-400000.0625
31.250157594680786,244.57000732421875,-2839.659912109375,-5862.9501953125,-400000.0625,-7286.5,-400000.0625,-400000.0625,-400000.0625
31.279901027679443,250.86000061035156,-2834.27001953125,-5857.56005859375,-400000.0625,-7281.02001953125,-400000.0625,-400000.0625,-400000.0625
31.31379985809326,249.0500030517578,-2836.0400390625,-5862.18994140625,-400000.0625,-7288.27001953125,-400000.0625,-400000.0625,-400000.0625
31.37162947654724,244.47000122070312,-2841.81005859375,-5869.009765625,-400000.0625,-7293.89013671875,-400000.0625,-400000.0625,-400000.0625
31.399172067642212,245.2899932861328,-2838.139892578125,-5863.0498046875,-400000.0625,-7291.64990234375,-400000.0625,-400000.0625,-400000.0625
31.418635606765747,247.0500030517578,-2838.330078125,-5862.759765625,-400000.0625,-7288.64990234375,-400000.0625,-400000.0625,-400000.0625
31.470350742340088,242.4199981689453,-2843.47998046875,-5867.33984375,-400000.0625,-7287.1201171875,-400000.0625,-400000.0625,-400000.0625
31.49230456352234,239.4199981689453,-2849.909912109375,-5870.8701171875,-400000.0625,-7288.27001953125,-400000.0625,-400000.0625,-400000.0625
31.514016151428223,236.94000244140625,-2848.239990234375,-5872.919921875,-400000.0625,-7291.02978515625,-400000.0625,-400000.0625,-400000.0625
31.539366006851196,235.1300048828125,-2844.429931640625,-5872.72998046875,-400000.0625,-7291.64990234375,-400000.0625,-400000.0625,-400000.0625
31.588393926620483,240.13999938964844,-2842.18994140625,-5868.14990234375,-400000.0625,-7290.5498046875,-400000.0625,-400000.0625,-400000.0625
31.60908007621765,244.57000732421875,-2841.89990234375,-5864.10009765625,-400000.0625,-7288.5,-400000.0625,-400000.0625,-400000.0625
31.63876700401306,241.8000030517578,-2843.47998046875,-5866.72021484375,-400000.0625,-7292.60986328125,-400000.0625,-400000.0625,-400000.0625
31.658828735351562,239.17999267578125,-2841.6201171875,-5869.009765625,-400000.0625,-7294.0400390625,-400000.0625,-400000.0625,-400000.0625
31.69868040084839,243.52000427246094,-2837.469970703125,-5865.10009765625,-400000.0625,-7290.97998046875,-400000.0625,-400000.0625,-400000.0625
31.723411798477173,241.99000549316406,-2838.22998046875,-5864.52978515625,-400000.0625,-7290.5498046875,-400000.0625,-400000.0625,-400000.0625
31.755925178527832,240.27999877929688,-2838.330078125,-5864.669921875,-400000.0625,-7286.93017578125,-400000.0625,-400000.0625,-400000.0625
31.77596163749695,238.94000244140625,-2836.510009765625,-5862.56982421875,-400000.0625,-7288.02978515625,-400000.0625,-400000.0625,-400000.0625
31.824206590652466,236.85000610351562,-2836.75,-5863.85986328125,-400000.0625,-7289.7900390625,-400000.0625,-400000.0625,-400000.0625
31.85210347175598,240.13999938964844,-2837.7099609375,-5865.10009765625,-400000.0625,-7291.60009765625,-400000.0625,-400000.0625,-400000.0625
31.875327110290527,243.19000244140625,-2833.510009765625,-5863.18994140625,-400000.0625,-7295.419921875,-400000.0625,-400000.0625,-400000.0625
31.90193510055542,242.85000610351562,-2832.56005859375,-5862.52001953125,-400000.0625,-7294.85009765625,-400000.0625,-400000.0625,-400000.0625
31.941322565078735,240.22999572753906,-2835.320068359375,-5864.43017578125,-400000.0625,-7294.75,-400000.0625,-400000.0625,-400000.0625
31.969511032104492,239.0399932861328,-2838.330078125,-5866.85986328125,-400000.0625,-7291.31982421875,-400000.0625,-400000.0625,-400000.0625
31.987966299057007,241.9499969482422,-2837.85009765625,-5868.0498046875,-400000.0625,-7292.22021484375,-400000.0625,-400000.0625,-400000.0625
32.01622676849365,248.24000549316406,-2829.409912109375,-5862.669921875,-400000.0625,-7290.93994140625,-400000.0625,-400000.0625,-400000.0625
32.061107873916626,247.33999633789062,-2827.360107421875,-5860.27978515625,-400000.0625,-7292.60986328125,-400000.0625,-400000.0625,-400000.0625
32.08963227272034,248.0,-2826.02001953125,-5861.240234375,-400000.0625,-7289.7001953125,-400000.0625,-400000.0625,-400000.0625
32.11396598815918,247.6699981689453,-2828.219970703125,-5861.7099609375,-400000.0625,-7290.080078125,-400000.0625,-400000.0625,-400000.0625
32.14686918258667,243.57000732421875,-2831.169921875,-5864.52978515625,-400000.0625,-7294.56005859375,-400000.0625,-400000.0625,-400000.0625
32.198689460754395,241.9499969482422,-2832.169921875,-5862.27978515625,-400000.0625,-7291.509765625,-400000.0625,-400000.0625,-400000.0625
32.222755432128906,241.47000122070312,-2828.219970703125,-5861.330078125,-400000.0625,-7294.509765625,-400000.0625,-400000.0625,-400000.0625
32.25297260284424,243.85000610351562,-2830.840087890625,-5864.3798828125,-400000.0625,-7298.56982421875,-400000.0625,-400000.0625,-400000.0625
32.300533056259155,243.80999755859375,-2832.030029296875,-5864.18994140625,-400000.0625,-7296.60986328125,-400000.0625,-400000.0625,-400000.0625
32.32255697250366,243.13999938964844,-2828.929931640625,-5861.330078125,-400000.0625,-7292.93994140625,-400000.0625,-400000.0625,-400000.0625
32.35595989227295,246.10000610351562,-2828.030029296875,-5858.3701171875,-400000.0625,-7292.56005859375,-400000.0625,-400000.0625,-400000.0625
32.40849041938782,248.77000427246094,-2824.35009765625,-5855.93994140625,-400000.0625,-7290.5498046875,-400000.0625,-400000.0625,-400000.0625
32.4407114982605,247.91000366210938,-2820.06005859375,-5852.990234375,-400000.0625,-7286.64013671875,-400000.0625,-400000.0625,-400000.0625
32.46713185310364,243.0399932861328,-2823.780029296875,-5855.60986328125,-400000.0625,-7287.35986328125,-400000.0625,-400000.0625,-400000.0625
32.513649225234985,247.13999938964844,-2825.449951171875,-5857.56005859375,-400000.0625,-7287.4599609375,-400000.0625,-400000.0625,-400000.0625
32.54003357887268,250.0500030517578,-2819.489990234375,-5853.27001953125,-400000.0625,-7292.7998046875,-400000.0625,-400000.0625,-400000.0625
32.56424593925476,252.91000366210938,-2813.719970703125,-5847.5,-400000.0625,-7288.080078125,-400000.0625,-400000.0625,-400000.0625
32.5893874168396,246.0,-2817.199951171875,-5852.93994140625,-400000.0625,-7288.22021484375,-400000.0625,-400000.0625,-400000.0625
32.6351215839386,241.13999938964844,-2822.590087890625,-5858.52001953125,-400000.0625,-7293.27001953125,-400000.0625,-400000.0625,-400000.0625
32.66421031951904,242.4199981689453,-2819.679931640625,-5855.22998046875,-400000.0625,-7288.97998046875,-400000.0625,-400000.0625,-400000.0625
32.69183135032654,246.80999755859375,-2819.590087890625,-5855.75,-400000.0625,-7287.4599609375,-400000.0625,-400000.0625,-400000.0625
32.74790549278259,248.42999267578125,-2819.010009765625,-5853.93994140625,-400000.0625,-7290.60009765625,-400000.0625,-400000.0625,-400000.0625
32.77636647224426,247.0500030517578,-2817.9599609375,-5853.22021484375,-400000.0625,-7291.4599609375,-400000.0625,-400000.0625,-400000.0625
32.80651044845581,243.19000244140625,-2815.199951171875,-5858.0400390625,-400000.0625,-7292.080078125,-400000.0625,-400000.0625,-400000.0625
32.858256101608276,244.0,-2820.110107421875,-5860.759765625,-400000.0625,-7295.3701171875,-400000.0625,-400000.0625,-400000.0625
32.894726514816284,245.7100067138672,-2818.25,-5856.60986328125,-400000.0625,-7288.7900390625,-400000.0625,-400000.0625,-400000.0625
32.913341760635376,247.13999938964844,-2815.9599609375,-5853.22021484375,-400000.0625,-7287.06982421875,-400000.0625,-400000.0625,-400000.0625
32.953115940093994,244.27999877929688,-2820.43994140625,-5856.0400390625,-400000.0625,-7290.080078125,-400000.0625,-400000.0625,-400000.0625
32.97504734992981,244.75999450683594,-2822.72998046875,-5857.9501953125,-400000.0625,-7292.1298828125,-400000.0625,-400000.0625,-400000.0625
33.01569128036499,245.75999450683594,-2821.260009765625,-5859.66015625,-400000.0625,-7291.4599609375,-400000.0625,-400000.0625,-400000.0625
33.0664279460907,246.42999267578125,-2818.010009765625,-5857.990234375,-400000.0625,-7291.3701171875,-400000.0625,-400000.0625,-400000.0625
33.092395067214966,249.9600067138672,-2812.47998046875,-5853.64990234375,-400000.0625,-7289.1201171875,-400000.0625,-400000.0625,-400000.0625
33.11770582199097,245.3800048828125,-2817.199951171875,-5859.7998046875,-400000.0625,-7290.89013671875,-400000.0625,-400000.0625,-400000.0625
33.17480492591858,243.89999389648438,-2820.300048828125,-5863.18994140625,-400000.0625,-7297.14013671875,-400000.0625,-400000.0625,-400000.0625
33.20626759529114,248.9600067138672,-2821.260009765625,-5859.9501953125,-400000.0625,-7300.330078125,-400000.0625,-400000.0625,-400000.0625
33.234641790390015,250.14999389648438,-2819.06005859375,-5856.7998046875,-400000.0625,-7294.56005859375,-400000.0625,-400000.0625,-400000.0625
33.288692474365234,246.47999572753906,-2819.590087890625,-5856.22998046875,-400000.0625,-7287.93017578125,-400000.0625,-400000.0625,-400000.0625
33.30908823013306,241.0399932861328,-2839.659912109375,-5863.10009765625,-400000.0625,-7286.97998046875,-400000.0625,-400000.0625,-400000.0625
33.34160399436951,237.75,-2858.260009765625,-5865.47998046875,-400000.0625,-7297.56005859375,-400000.0625,-400000.0625,-400000.0625
33.39493775367737,235.3699951171875,-2858.260009765625,-5865.3798828125,-400000.0625,-7298.759765625,-400000.0625,-400000.0625,-400000.0625
33.42216730117798,237.88999938964844,-2849.199951171875,-5864.56982421875,-400000.0625,-7290.4599609375,-400000.0625,-400000.0625,-400000.0625
33.451868295669556,239.94000244140625,-2859.39990234375,-5873.97021484375,-400000.0625,-7286.83984375,-400000.0625,-400000.0625,-400000.0625
33.5070276260376,231.60000610351562,-2880.530029296875,-5878.1201171875,-400000.0625,-7286.5,-400000.0625,-400000.0625,-400000.0625
33.534146308898926,225.25999450683594,-2895.8798828125,-5886.83984375,-400000.0625,-7287.02978515625,-400000.0625,-400000.0625,-400000.0625
33.56360578536987,222.02000427246094,-2907.7099609375,-5893.990234375,-400000.0625,-7282.35009765625,-400000.0625,-400000.0625,-400000.0625
33.60756754875183,218.49000549316406,-2926.35009765625,-5900.52978515625,-400000.0625,-7273.25,-400000.0625,-400000.0625,-400000.0625
33.637898683547974,218.3000030517578,-2952.669921875,-5896.08984375,-400000.0625,-7268.0498046875,-400000.0625,-400000.0625,-400000.0625
33.662113904953,201.99000549316406,-2970.080078125,-5909.830078125,-400000.0625,-7272.43994140625,-400000.0625,-400000.0625,-400000.0625
33.68599081039429,201.50999450683594,-2981.3798828125,-5917.60009765625,-400000.0625,-7271.39013671875,-400000.0625,-400000.0625,-400000.0625
33.74090933799744,198.75,-2996.25,-5922.3701171875,-400000.0625,-7267.56982421875,-400000.0625,-400000.0625,-400000.0625
33.768497705459595,182.10000610351562,-3013.56005859375,-5930.0400390625,-400000.0625,-7264.330078125,-400000.0625,-400000.0625,-400000.0625
33.79828691482544,177.52999877929688,-3033.260009765625,-5934.9501953125,-400000.0625,-7259.419921875,-400000.0625,-400000.0625,-400000.0625
33.851667642593384,179.24000549316406,-3050.760009765625,-5940.2900390625,-400000.0625,-7257.31982421875,-400000.0625,-400000.0625,-400000.0625
33.87733793258667,171.22999572753906,-3083.090087890625,-5941.490234375,-400000.0625,-7259.0400390625,-400000.0625,-400000.0625,-400000.0625
33.90397763252258,153.05999755859375,-3092.909912109375,-5956.60009765625,-400000.0625,-7255.97998046875,-400000.0625,-400000.0625,-400000.0625
33.96169471740723,151.8699951171875,-3107.830078125,-5965.759765625,-400000.0625,-7249.58984375,-400000.0625,-400000.0625,-400000.0625
33.990192890167236,149.77000427246094,-3132.820068359375,-5968.2900390625,-400000.0625,-7243.10986328125,-400000.0625,-400000.0625,-400000.0625
34.01351046562195,149.5399932861328,-3156.81005859375,-5972.2001953125,-400000.0625,-7245.06005859375,-400000.0625,-400000.0625,-400000.0625
34.06754231452942,146.6300048828125,-3166.8701171875,-5974.580078125,-400000.0625,-7241.5400390625,-400000.0625,-400000.0625,-400000.0625
34.09348773956299,140.57000732421875,-3176.929931640625,-5983.39990234375,-400000.0625,-7244.8701171875,-400000.0625,-400000.0625,-400000.0625
34.118444204330444,137.75999450683594,-3182.75,-5986.8798828125,-400000.0625,-7245.97021484375,-400000.0625,-400000.0625,-400000.0625
34.17338705062866,137.47000122070312,-3185.320068359375,-5987.259765625,-400000.0625,-7240.52978515625,-400000.0625,-400000.0625,-400000.0625
34.20017695426941,135.47000122070312,-3188.659912109375,-5988.740234375,-400000.0625,-7241.06005859375,-400000.0625,-400000.0625,-400000.0625
34.23436236381531,132.50999450683594,-3190.570068359375,-5991.22021484375,-400000.0625,-7241.2998046875,-400000.0625,-400000.0625,-400000.0625
34.28151535987854,133.47000122070312,-3188.659912109375,-5988.68994140625,-400000.0625,-7240.10986328125,-400000.0625,-400000.0625,-400000.0625
34.307618856430054,140.2899932861328,-3184.840087890625,-5990.4599609375,-400000.0625,-7238.91015625,-400000.0625,-400000.0625,-400000.0625
34.339051961898804,143.5800018310547,-3177.02001953125,-5987.93017578125,-400000.0625,-7238.68017578125,-400000.0625,-400000.0625,-400000.0625
34.39030838012695,145.47999572753906,-3177.070068359375,-5988.5,-400000.0625,-7243.58984375,-400000.0625,-400000.0625,-400000.0625
34.41784167289734,148.38999938964844,-3175.929931640625,-5991.169921875,-400000.0625,-7246.919921875,-400000.0625,-400000.0625,-400000.0625
34.452303886413574,146.05999755859375,-3172.449951171875,-5996.080078125,-400000.0625,-7250.93017578125,-400000.0625,-400000.0625,-400000.0625
34.502986431121826,149.5399932861328,-3173.68994140625,-5999.3798828125,-400000.0625,-7252.60009765625,-400000.0625,-400000.0625,-400000.0625
34.538735151290894,147.3000030517578,-3173.780029296875,-5995.1298828125,-400000.0625,-7250.35986328125,-400000.0625,-400000.0625,-400000.0625
34.569202184677124,146.33999633789062,-3165.77001953125,-5991.35986328125,-400000.0625,-7245.4501953125,-400000.0625,-400000.0625,-400000.0625
34.618112564086914,141.10000610351562,-3164.010009765625,-5999.60986328125,-400000.0625,-7248.4501953125,-400000.0625,-400000.0625,-400000.0625
34.69291162490845,221.3000030517578,-2293.300048828125,-5988.259765625,-400000.0625,-7326.02978515625,-400000.0625,-400000.0625,-400000.0625
34.85097312927246,283.19000244140625,-2251.340087890625,-5912.68994140625,-400000.0625,-7266.240234375,-400000.0625,-400000.0625,-400000.0625
35.01486349105835,243.3300018310547,-2317.239990234375,-5953.97998046875,-400000.0625,-7291.41015625,-400000.0625,-400000.0625,-400000.0625
35.07227277755737,273.17999267578125,-2306.75,-5927.89990234375,-400000.0625,-7273.0498046875,-400000.0625,-400000.0625,-400000.0625
35.16137933731079,260.5,-2329.449951171875,-5938.6298828125,-400000.0625,-7278.2998046875,-400000.0625,-400000.0625,-400000.0625
35.25128102302551,241.17999267578125,-2377.4599609375,-5964.7099609375,-400000.0625,-7296.27978515625,-400000.0625,-400000.0625,-400000.0625
35.478793144226074,230.07000732421875,-2411.56005859375,-5971.10009765625,-400000.0625,-7294.990234375,-400000.0625,-400000.0625,-400000.0625
35.58291244506836,227.5,-2431.72998046875,-5971.52978515625,-400000.0625,-7289.83984375,-400000.0625,-400000.0625,-400000.0625
35.6487398147583,222.63999938964844,-2432.919921875,-5967.0498046875,-400000.0625,-7292.3701171875,-400000.0625,-400000.0625,-400000.0625
35.85672736167908,214.10000610351562,-2475.830078125,-5974.009765625,-400000.0625,-7297.3701171875,-400000.0625,-400000.0625,-400000.0625
36.03968143463135,213.77000427246094,-2490.0400390625,-5957.75,-400000.0625,-7290.169921875,-400000.0625,-400000.0625,-400000.0625
36.113653898239136,221.00999450683594,-2494.050048828125,-5951.68994140625,-400000.0625,-7283.8798828125,-400000.0625,-400000.0625,-400000.0625
36.17518639564514,221.00999450683594,-2498.9599609375,-5955.41015625,-400000.0625,-7293.75,-400000.0625,-400000.0625,-400000.0625
36.27588438987732,215.6300048828125,-2511.929931640625,-5957.31982421875,-400000.0625,-7280.64013671875,-400000.0625,-400000.0625,-400000.0625
36.40023231506348,220.11000061035156,-2524.22998046875,-5958.7998046875,-400000.0625,-7290.7900390625,-400000.0625,-400000.0625,-400000.0625
36.50154685974121,221.5399932861328,-2527.139892578125,-5953.169921875,-400000.0625,-7284.1201171875,-400000.0625,-400000.0625,-400000.0625
36.563188791275024,237.0800018310547,-2521.75,-5945.2099609375,-400000.0625,-7292.1298828125,-400000.0625,-400000.0625,-400000.0625
36.60827398300171,230.7899932861328,-2530.47998046875,-5945.25,-400000.0625,-7284.06982421875,-400000.0625,-400000.0625,-400000.0625
36.990238904953,233.75,-2552.1298828125,-5941.43994140625,-400000.0625,-7294.1298828125,-400000.0625,-400000.0625,-400000.0625
37.14047598838806,231.92999267578125,-2553.030029296875,-5934.14013671875,-400000.0625,-7280.2998046875,-400000.0625,-400000.0625,-400000.0625
37.19257211685181,224.49000549316406,-2568.580078125,-5943.39013671875,-400000.0625,-7282.16015625,-400000.0625,-400000.0625,-400000.0625
37.231892108917236,220.97000122070312,-2565.530029296875,-5941.8701171875,-400000.0625,-7287.83984375,-400000.0625,-400000.0625,-400000.0625
37.33854556083679,225.25999450683594,-2575.39990234375,-5950.7900390625,-400000.0625,-7287.1201171875,-400000.0625,-400000.0625,-400000.0625
37.450159788131714,184.11000061035156,-2748.8701171875,-5966.14013671875,-400000.0625,-7244.16015625,-400000.0625,-400000.0625,-400000.0625
37.675241231918335,204.52000427246094,-2645.489990234375,-5966.3798828125,-400000.0625,-7275.25,-400000.0625,-400000.0625,-400000.0625
37.815120220184326,214.38999938964844,-2620.030029296875,-5952.22021484375,-400000.0625,-7286.64013671875,-400000.0625,-400000.0625,-400000.0625
37.884846210479736,211.86000061035156,-2618.889892578125,-5946.97021484375,-400000.0625,-7282.4501953125,-400000.0625,-400000.0625,-400000.0625
37.956621170043945,213.9600067138672,-2622.179931640625,-5948.35009765625,-400000.0625,-7281.8798828125,-400000.0625,-400000.0625,-400000.0625
38.14033770561218,432.25,-2735.469970703125,-6138.3701171875,-400000.0625,-7298.60986328125,-400000.0625,-400000.0625,-400000.0625
38.24728512763977,453.2300109863281,-2716.35009765625,-6116.72021484375,-400000.0625,-7293.080078125,-400000.0625,-400000.0625,-400000.0625
38.39647555351257,455.5199890136719,-2730.85009765625,-6121.02001953125,-400000.0625,-7300.6201171875,-400000.0625,-400000.0625,-400000.0625
38.67264723777771,454.42999267578125,-2743.340087890625,-6130.22021484375,-400000.0625,-7309.8701171875,-400000.0625,-400000.0625,-400000.0625
38.739009141922,454.0,-2733.760009765625,-6117.009765625,-400000.0625,-7306.43017578125,-400000.0625,-400000.0625,-400000.0625
38.82111477851868,438.7900085449219,-2744.530029296875,-6119.81982421875,-400000.0625,-7301.669921875,-400000.0625,-400000.0625,-400000.0625
38.99230670928955,441.2200012207031,-2740.669921875,-6104.330078125,-400000.0625,-7285.169921875,-400000.0625,-400000.0625,-400000.0625
39.099817514419556,438.5,-2762.510009765625,-6113.2900390625,-400000.0625,-7286.5,-400000.0625,-400000.0625,-400000.0625
39.23758316040039,434.29998779296875,-2776.530029296875,-6122.02001953125,-400000.0625,-7287.31005859375,-400000.0625,-400000.0625,-400000.0625
39.32770752906799,436.1199951171875,-2773.6201171875,-6108.47998046875,-400000.0625,-7287.1201171875,-400000.0625,-400000.0625,-400000.0625
39.417962074279785,441.6000061035156,-2769.800048828125,-6107.0400390625,-400000.0625,-7284.64013671875,-400000.0625,-400000.0625,-400000.0625
39.639039516448975,434.2099914550781,-2785.830078125,-6118.6298828125,-400000.0625,-7293.27001953125,-400000.0625,-400000.0625,-400000.0625
39.69718408584595,435.07000732421875,-2783.25,-6109.43017578125,-400000.0625,-7286.169921875,-400000.0625,-400000.0625,-400000.0625
39.75534176826477,432.29998779296875,-2794.31005859375,-6115.009765625,-400000.0625,-7292.3701171875,-400000.0625,-400000.0625,-400000.0625
39.86204791069031,433.0199890136719,-2803.419921875,-6119.72998046875,-400000.0625,-7290.1298828125,-400000.0625,-400000.0625,-400000.0625
40.01733088493347,429.8699951171875,-2806.429931640625,-6122.06982421875,-400000.0625,-7292.080078125,-400000.0625,-400000.0625,-400000.0625
40.31925559043884,439.6400146484375,-2797.320068359375,-6106.22998046875,-400000.0625,-7280.35009765625,-400000.0625,-400000.0625,-400000.0625
40.394538164138794,440.8800048828125,-2802.320068359375,-6107.27978515625,-400000.0625,-7279.10986328125,-400000.0625,-400000.0625,-400000.0625
40.45936727523804,437.1199951171875,-2808.669921875,-6113.580078125,-400000.0625,-7290.169921875,-400000.0625,-400000.0625,-400000.0625
40.57152318954468,439.1700134277344,-2802.419921875,-6109.85986328125,-400000.0625,-7287.1201171875,-400000.0625,-400000.0625,-400000.0625
40.7046639919281,438.1199951171875,-2814.77001953125,-6108.759765625,-400000.0625,-7288.41015625,-400000.0625,-400000.0625,-400000.0625
40.854302167892456,431.82000732421875,-2820.159912109375,-6118.35009765625,-400000.0625,-7290.93994140625,-400000.0625,-400000.0625,-400000.0625
40.91801166534424,425.20001220703125,-2810.760009765625,-6113.39013671875,-400000.0625,-7284.740234375,-400000.0625,-400000.0625,-400000.0625
40.94868493080139,420.3800048828125,-2819.8701171875,-6116.009765625,-400000.0625,-7282.4501953125,-400000.0625,-400000.0625,-400000.0625
41.02125334739685,418.760009765625,-2818.820068359375,-6116.39013671875,-400000.0625,-7282.31005859375,-400000.0625,-400000.0625,-400000.0625
41.20773005485535,204.99000549316406,-2643.159912109375,-5921.93994140625,-400000.0625,-7274.52978515625,-400000.0625,-400000.0625,-400000.0625
41.29474997520447,209.57000732421875,-2644.830078125,-5916.4501953125,-400000.0625,-7273.25,-400000.0625,-400000.0625,-400000.0625
41.480061769485474,201.0800018310547,-2670.47998046875,-5922.7998046875,-400000.0625,-7277.72998046875,-400000.0625,-400000.0625,-400000.0625
41.74945378303528,201.3699951171875,-2665.949951171875,-5915.58984375,-400000.0625,-7272.33984375,-400000.0625,-400000.0625,-400000.0625
41.82747268676758,201.8000030517578,-2667.47998046875,-5916.68994140625,-400000.0625,-7278.77978515625,-400000.0625,-400000.0625,-400000.0625
41.9099235534668,204.27999877929688,-2674.14990234375,-5911.919921875,-400000.0625,-7272.39013671875,-400000.0625,-400000.0625,-400000.0625
41.995174169540405,202.0800018310547,-2684.2099609375,-5920.7001953125,-400000.0625,-7281.39990234375,-400000.0625,-400000.0625,-400000.0625
42.04104042053223,208.42999267578125,-2680.02001953125,-5923.02978515625,-400000.0625,-7274.10009765625,-400000.0625,-400000.0625,-400000.0625
42.10367703437805,198.97999572753906,-2697.0400390625,-5926.47021484375,-400000.0625,-7279.97021484375,-400000.0625,-400000.0625,-400000.0625
42.442118883132935,199.50999450683594,-2690.840087890625,-5922.93994140625,-400000.0625,-7279.02001953125,-400000.0625,-400000.0625,-400000.0625
42.547393798828125,212.0500030517578,-2692.989990234375,-5923.1298828125,-400000.0625,-7272.580078125,-400000.0625,-400000.0625,-400000.0625
42.61248159408569,207.9499969482422,-2693.510009765625,-5926.89990234375,-400000.0625,-7273.10009765625,-400000.0625,-400000.0625,-400000.0625
42.742364168167114,200.41000366210938,-2695.419921875,-5911.64013671875,-400000.0625,-7264.9501953125,-400000.0625,-400000.0625,-400000.0625
42.8936882019043,201.94000244140625,-2692.27001953125,-5903.77001953125,-400000.0625,-7267.91015625,-400000.0625,-400000.0625,-400000.0625
42.953497648239136,209.24000549316406,-2687.64990234375,-5909.2099609375,-400000.0625,-7274.81982421875,-400000.0625,-400000.0625,-400000.0625
43.06100535392761,210.24000549316406,-2693.56005859375,-5905.72021484375,-400000.0625,-7270.47998046875,-400000.0625,-400000.0625,-400000.0625
43.12826323509216,210.3300018310547,-2689.889892578125,-5900.91015625,-400000.0625,-7268.759765625,-400000.0625,-400000.0625,-400000.0625
43.19478178024292,214.10000610351562,-2692.179931640625,-5907.77001953125,-400000.0625,-7269.9599609375,-400000.0625,-400000.0625,-400000.0625
43.327852964401245,208.52000427246094,-2693.419921875,-5905.490234375,-400000.0625,-7273.2900390625,-400000.0625,-400000.0625,-400000.0625
43.39025068283081,205.55999755859375,-2698.0400390625,-5904.77001953125,-400000.0625,-7270.669921875,-400000.0625,-400000.0625,-400000.0625
43.470608949661255,203.99000549316406,-2705.9599609375,-5916.06982421875,-400000.0625,-7274.10009765625,-400000.0625,-400000.0625,-400000.0625
43.64934515953064,208.6199951171875,-2699.570068359375,-5909.009765625,-400000.0625,-7270.2900390625,-400000.0625,-400000.0625,-400000.0625
43.71609425544739,205.17999267578125,-2713.159912109375,-5919.27001953125,-400000.0625,-7268.14013671875,-400000.0625,-400000.0625,-400000.0625
43.765543699264526,201.61000061035156,-2720.68994140625,-5922.56005859375,-400000.0625,-7275.6298828125,-400000.0625,-400000.0625,-400000.0625
43.85000228881836,210.6699981689453,-2713.72998046875,-5916.4501953125,-400000.0625,-7279.68017578125,-400000.0625,-400000.0625,-400000.0625
43.900906562805176,211.2899932861328,-2708.860107421875,-5911.2099609375,-400000.0625,-7276.8701171875,-400000.0625,-400000.0625,-400000.0625
44.283586740493774,206.17999267578125,-2713.489990234375,-5909.919921875,-400000.0625,-7274.68017578125,-400000.0625,-400000.0625,-400000.0625
44.41807675361633,29.950000762939453,-2610.02001953125,-5664.06005859375,-400000.0625,-7255.75,-400000.0625,-400000.0625,-400000.0625
44.5459566116333,20.739999771118164,-2628.419921875,-5662.580078125,-400000.0625,-7253.7001953125,-400000.0625,-400000.0625,-400000.0625
44.79576754570007,22.030000686645508,-2627.659912109375,-5664.43994140625,-400000.0625,-7252.7900390625,-400000.0625,-400000.0625,-400000.0625
44.91594886779785,24.559999465942383,-2626.7099609375,-5652.85986328125,-400000.0625,-7253.97998046875,-400000.0625,-400000.0625,-400000.0625
45.009175300598145,24.1299991607666,-2622.93994140625,-5650.22998046875,-400000.0625,-7257.7998046875,-400000.0625,-400000.0625,-400000.0625
45.11898350715637,19.5,-2633.139892578125,-5650.22998046875,-400000.0625,-7259.7001953125,-400000.0625,-400000.0625,-400000.0625
45.19564127922058,26.040000915527344,-2627.419921875,-5651.18994140625,-400000.0625,-7256.75,-400000.0625,-400000.0625,-400000.0625
45.304853439331055,24.459999084472656,-2631.89990234375,-5642.02978515625,-400000.0625,-7253.740234375,-400000.0625,-400000.0625,-400000.0625
45.634679079055786,32.900001525878906,-2632.81005859375,-5632.64013671875,-400000.0625,-7257.93994140625,-400000.0625,-400000.0625,-400000.0625
45.81596255302429,26.079999923706055,-2633.139892578125,-5619.33984375,-400000.0625,-7265.43017578125,-400000.0625,-400000.0625,-400000.0625
45.94933223724365,28.799999237060547,-2646.830078125,-5638.7900390625,-400000.0625,-7269.14013671875,-400000.0625,-400000.0625,-400000.0625
46.0861394405365,33.470001220703125,-2649.739990234375,-5634.740234375,-400000.0625,-7266.330078125,-400000.0625,-400000.0625,-400000.0625
46.18557167053223,31.610000610351562,-2652.97998046875,-5638.64990234375,-400000.0625,-7271.6201171875,-400000.0625,-400000.0625,-400000.0625
46.40225005149841,34.04999923706055,-2648.929931640625,-5633.93017578125,-400000.0625,-7267.759765625,-400000.0625,-400000.0625,-400000.0625
46.51726007461548,37.720001220703125,-2649.929931640625,-5637.93017578125,-400000.0625,-7270.52978515625,-400000.0625,-400000.0625,-400000.0625
46.59410095214844,22.84000015258789,-2653.889892578125,-5635.93017578125,-400000.0625,-7272.77001953125,-400000.0625,-400000.0625,-400000.0625
46.86897373199463,36.86000061035156,-2648.5400390625,-5636.5,-400000.0625,-7272.009765625,-400000.0625,-400000.0625,-400000.0625
47.12411451339722,39.47999954223633,-2645.06005859375,-5636.97998046875,-400000.0625,-7268.0,-400000.0625,-400000.0625,-400000.0625
47.21127009391785,31.190000534057617,-2647.449951171875,-5644.93994140625,-400000.0625,-7280.919921875,-400000.0625,-400000.0625,-400000.0625
47.30352544784546,29.1299991607666,-2666.429931640625,-5660.490234375,-400000.0625,-7266.669921875,-400000.0625,-400000.0625,-400000.0625
47.525660037994385,164.32000732421875,-2838.89990234375,-5914.58984375,-400000.0625,-7273.8701171875,-400000.0625,-400000.0625,-400000.0625
47.71981644630432,172.3300018310547,-2799.179931640625,-5889.1298828125,-400000.0625,-7281.919921875,-400000.0625,-400000.0625,-400000.0625
47.76975774765015,187.44000244140625,-2793.97998046875,-5884.080078125,-400000.0625,-7279.8701171875,-400000.0625,-400000.0625,-400000.0625
47.802427768707275,194.92999267578125,-2788.31005859375,-5888.080078125,-400000.0625,-7279.77978515625,-400000.0625,-400000.0625,-400000.0625
47.87140393257141,190.77999877929688,-2793.739990234375,-5894.52001953125,-400000.0625,-7280.35009765625,-400000.0625,-400000.0625,-400000.0625
48.011138677597046,196.27000427246094,-2787.35009765625,-5894.3798828125,-400000.0625,-7275.009765625,-400000.0625,-400000.0625,-400000.0625
48.253763914108276,197.27000427246094,-2783.580078125,-5893.08984375,-400000.0625,-7267.7099609375,-400000.0625,-400000.0625,-400000.0625
48.33431529998779,199.6999969482422,-2792.360107421875,-5907.68017578125,-400000.0625,-7280.39990234375,-400000.0625,-400000.0625,-400000.0625
48.439741134643555,204.08999633789062,-2772.18994140625,-5893.990234375,-400000.0625,-7279.25,-400000.0625,-400000.0625,-400000.0625
48.504756450653076,204.3699951171875,-2782.06005859375,-5897.47021484375,-400000.0625,-7278.06005859375,-400000.0625,-400000.0625,-400000.0625
48.58767771720886,204.3699951171875,-2781.679931640625,-5900.18994140625,-400000.0625,-7278.5400390625,-400000.0625,-400000.0625,-400000.0625
48.72806262969971,203.94000244140625,-2770.7099609375,-5889.509765625,-400000.0625,-7275.14990234375,-400000.0625,-400000.0625,-400000.0625
48.902968645095825,209.7100067138672,-2781.919921875,-5893.47021484375,-400000.0625,-7280.06005859375,-400000.0625,-400000.0625,-400000.0625
49.02057909965515,218.33999633789062,-2778.389892578125,-5889.31982421875,-400000.0625,-7275.8701171875,-400000.0625,-400000.0625,-400000.0625
49.151599407196045,212.52999877929688,-2782.919921875,-5895.14013671875,-400000.0625,-7281.39990234375,-400000.0625,-400000.0625,-400000.0625
49.26842141151428,222.97000122070312,-2768.85009765625,-5880.4501953125,-400000.0625,-7281.16015625,-400000.0625,-400000.0625,-400000.0625
49.33717703819275,226.30999755859375,-2770.610107421875,-5879.35986328125,-400000.0625,-7281.72998046875,-400000.0625,-400000.0625,-400000.0625
49.50641870498657,224.5399932861328,-2767.320068359375,-5873.6298828125,-400000.0625,-7274.10009765625,-400000.0625,-400000.0625,-400000.0625
49.604743242263794,231.30999755859375,-2760.60009765625,-5863.52001953125,-400000.0625,-7278.06005859375,-400000.0625,-400000.0625,-400000.0625
49.6690092086792,227.25999450683594,-2792.7900390625,-5891.22998046875,-400000.0625,-7278.2998046875,-400000.0625,-400000.0625,-400000.0625
49.796356201171875,229.97999572753906,-2785.159912109375,-5876.2099609375,-400000.0625,-7274.52978515625,-400000.0625,-400000.0625,-400000.0625
49.874515771865845,231.22000122070312,-2787.300048828125,-5875.2099609375,-400000.0625,-7281.58984375,-400000.0625,-400000.0625,-400000.0625
49.908437728881836,225.25999450683594,-2779.580078125,-5874.490234375,-400000.0625,-7278.16015625,-400000.0625,-400000.0625,-400000.0625
49.99417209625244,226.92999267578125,-2779.820068359375,-5876.490234375,-400000.0625,-7281.68994140625,-400000.0625,-400000.0625,-400000.0625
50.16708469390869,231.7899932861328,-2771.280029296875,-5869.2001953125,-400000.0625,-7269.33984375,-400000.0625,-400000.0625,-400000.0625
50.238196849823,223.67999267578125,-2785.02001953125,-5869.2001953125,-400000.0625,-7275.919921875,-400000.0625,-400000.0625,-400000.0625
50.300891399383545,196.27000427246094,-2854.159912109375,-5888.18017578125,-400000.0625,-7266.240234375,-400000.0625,-400000.0625,-400000.0625
50.50284934043884,170.89999389648438,-2967.02001953125,-5908.68017578125,-400000.0625,-7264.56982421875,-400000.0625,-400000.0625,-400000.0625
50.615060329437256,175.75999450683594,-2957.580078125,-5901.240234375,-400000.0625,-7267.52001953125,-400000.0625,-400000.0625,-400000.0625
50.686219930648804,166.61000061035156,-2975.0400390625,-5922.080078125,-400000.0625,-7277.919921875,-400000.0625,-400000.0625,-400000.0625
50.80713605880737,183.14999389648438,-2954.9599609375,-5909.490234375,-400000.0625,-7271.10009765625,-400000.0625,-400000.0625,-400000.0625
50.95177459716797,186.49000549316406,-2948.330078125,-5906.10986328125,-400000.0625,-7264.81005859375,-400000.0625,-400000.0625,-400000.0625
51.00921821594238,196.0800018310547,-2945.7099609375,-5905.25,-400000.0625,-7270.85986328125,-400000.0625,-400000.0625,-400000.0625
51.06495451927185,182.2899932861328,-2957.919921875,-5917.02978515625,-400000.0625,-7271.91015625,-400000.0625,-400000.0625,-400000.0625
51.20969319343567,182.49000549316406,-2961.489990234375,-5916.7900390625,-400000.0625,-7274.580078125,-400000.0625,-400000.0625,-400000.0625
51.41093611717224,161.4600067138672,-2991.389892578125,-5926.18017578125,-400000.0625,-7268.85986328125,-400000.0625,-400000.0625,-400000.0625
51.721834897994995,155.02000427246094,-3000.1201171875,-5931.47021484375,-400000.0625,-7268.759765625,-400000.0625,-400000.0625,-400000.0625
51.85232329368591,148.00999450683594,-3011.85009765625,-5941.68017578125,-400000.0625,-7270.72021484375,-400000.0625,-400000.0625,-400000.0625
51.96975564956665,155.8300018310547,-2996.110107421875,-5929.52001953125,-400000.0625,-7268.0498046875,-400000.0625,-400000.0625,-400000.0625
52.09981083869934,154.69000244140625,-3005.64990234375,-5944.8701171875,-400000.0625,-7278.009765625,-400000.0625,-400000.0625,-400000.0625
52.16224908828735,148.05999755859375,-3015.280029296875,-5939.8701171875,-400000.0625,-7272.52978515625,-400000.0625,-400000.0625,-400000.0625
52.32245087623596,151.05999755859375,-3019.139892578125,-5937.669921875,-400000.0625,-7271.14990234375,-400000.0625,-400000.0625,-400000.0625
52.4354043006897,142.47999572753906,-3030.489990234375,-5953.5,-400000.0625,-7278.16015625,-400000.0625,-400000.0625,-400000.0625
52.55437994003296,143.19000244140625,-3022.389892578125,-5944.2099609375,-400000.0625,-7277.10986328125,-400000.0625,-400000.0625,-400000.0625
52.66887903213501,144.2899932861328,-3019.330078125,-5938.9599609375,-400000.0625,-7274.10009765625,-400000.0625,-400000.0625,-400000.0625
52.811041593551636,144.14999389648438,-3027.06005859375,-5946.58984375,-400000.0625,-7270.6201171875,-400000.0625,-400000.0625,-400000.0625
52.98590874671936,140.0,-3021.909912109375,-5935.240234375,-400000.0625,-7271.81982421875,-400000.0625,-400000.0625,-400000.0625
53.08283519744873,149.82000732421875,-3013.330078125,-5928.56005859375,-400000.0625,-7272.009765625,-400000.0625,-400000.0625,-400000.0625
53.167547941207886,145.72000122070312,-3017.139892578125,-5932.52001953125,-400000.0625,-7269.6201171875,-400000.0625,-400000.0625,-400000.0625
53.314685106277466,152.9199981689453,-3001.260009765625,-5923.93994140625,-400000.0625,-7262.0400390625,-400000.0625,-400000.0625,-400000.0625
53.438416481018066,172.89999389648438,-2886.340087890625,-5916.1201171875,-400000.0625,-7274.2001953125,-400000.0625,-400000.0625,-400000.0625
53.556681871414185,214.2899932861328,-2808.18994140625,-5893.419921875,-400000.0625,-7269.91015625,-400000.0625,-400000.0625,-400000.0625
53.74023771286011,211.10000610351562,-2829.550048828125,-5907.8701171875,-400000.0625,-7275.580078125,-400000.0625,-400000.0625,-400000.0625
53.817371129989624,206.0399932861328,-2836.989990234375,-5908.39013671875,-400000.0625,-7271.0,-400000.0625,-400000.0625,-400000.0625
53.96567988395691,201.22999572753906,-2838.89990234375,-5909.5400390625,-400000.0625,-7276.35009765625,-400000.0625,-400000.0625,-400000.0625
54.136348247528076,198.4600067138672,-2841.570068359375,-5911.490234375,-400000.0625,-7276.5400390625,-400000.0625,-400000.0625,-400000.0625
54.51587438583374,168.50999450683594,-2867.699951171875,-5921.35986328125,-400000.0625,-7299.330078125,-400000.0625,-400000.0625,-400000.0625
54.652438163757324,161.92999267578125,-2881.9599609375,-5933.18994140625,-400000.0625,-7304.85986328125,-400000.0625,-400000.0625,-400000.0625
54.819581508636475,154.5,-2879.760009765625,-5932.669921875,-400000.0625,-7303.2900390625,-400000.0625,-400000.0625,-400000.0625
55.10093688964844,152.8699951171875,-2887.6298828125,-5936.43017578125,-400000.0625,-7303.85986328125,-400000.0625,-400000.0625,-400000.0625
55.153918504714966,155.16000366210938,-2881.9599609375,-5933.759765625,-400000.0625,-7304.52978515625,-400000.0625,-400000.0625,-400000.0625
55.238648653030396,147.82000732421875,-2890.159912109375,-5937.43017578125,-400000.0625,-7306.52978515625,-400000.0625,-400000.0625,-400000.0625
55.41912579536438,161.22000122070312,-2889.969970703125,-5934.18994140625,-400000.0625,-7301.0,-400000.0625,-400000.0625,-400000.0625
55.54087281227112,164.41000366210938,-2886.300048828125,-5931.89990234375,-400000.0625,-7293.60986328125,-400000.0625,-400000.0625,-400000.0625
55.6877715587616,154.69000244140625,-2898.1201171875,-5944.72998046875,-400000.0625,-7298.27978515625,-400000.0625,-400000.0625,-400000.0625
55.74213266372681,163.36000061035156,-2887.199951171875,-5941.68017578125,-400000.0625,-7300.6201171875,-400000.0625,-400000.0625,-400000.0625
55.8757688999176,161.4600067138672,-2892.39990234375,-5946.97021484375,-400000.0625,-7298.89990234375,-400000.0625,-400000.0625,-400000.0625
55.939844608306885,160.41000366210938,-2886.389892578125,-5939.72021484375,-400000.0625,-7298.7998046875,-400000.0625,-400000.0625,-400000.0625
56.01836848258972,160.64999389648438,-2882.10009765625,-5940.14990234375,-400000.0625,-7295.66015625,-400000.0625,-400000.0625,-400000.0625
56.13737154006958,161.64999389648438,-2883.820068359375,-5946.58984375,-400000.0625,-7296.27978515625,-400000.0625,-400000.0625,-400000.0625
56.31205868721008,168.50999450683594,-2856.830078125,-5930.0400390625,-400000.0625,-7286.22021484375,-400000.0625,-400000.0625,-400000.0625
56.40105676651001,169.61000061035156,-2862.5,-5938.81982421875,-400000.0625,-7293.4599609375,-400000.0625,-400000.0625,-400000.0625
56.47098517417908,168.99000549316406,-2849.9599609375,-5939.25,-400000.0625,-7290.64990234375,-400000.0625,-400000.0625,-400000.0625
56.570042848587036,232.4600067138672,-2702.81005859375,-5897.3798828125,-400000.0625,-7286.60009765625,-400000.0625,-400000.0625,-400000.0625
56.6576726436615,229.25999450683594,-2724.169921875,-5901.9599609375,-400000.0625,-7283.39990234375,-400000.0625,-400000.0625,-400000.0625
56.759740114212036,223.9199981689453,-2725.7900390625,-5897.6201171875,-400000.0625,-7277.77978515625,-400000.0625,-400000.0625,-400000.0625
56.91560935974121,231.36000061035156,-2700.89990234375,-5893.89990234375,-400000.0625,-7274.2900390625,-400000.0625,-400000.0625,-400000.0625
57.01703643798828,231.6999969482422,-2688.219970703125,-5887.7001953125,-400000.0625,-7266.0,-400000.0625,-400000.0625,-400000.0625
57.089802503585815,247.86000061035156,-2677.389892578125,-5888.02978515625,-400000.0625,-7269.9599609375,-400000.0625,-400000.0625,-400000.0625
57.15221905708313,252.38999938964844,-2667.570068359375,-5883.5498046875,-400000.0625,-7267.0,-400000.0625,-400000.0625,-400000.0625
57.22408699989319,247.3800048828125,-2681.590087890625,-5888.02978515625,-400000.0625,-7269.240234375,-400000.0625,-400000.0625,-400000.0625
57.27094292640686,252.05999755859375,-2674.14990234375,-5887.31982421875,-400000.0625,-7269.10009765625,-400000.0625,-400000.0625,-400000.0625
57.3993501663208,248.6199951171875,-2674.530029296875,-5890.0400390625,-400000.0625,-7275.2001953125,-400000.0625,-400000.0625,-400000.0625
57.56579804420471,245.52000427246094,-2670.9599609375,-5880.58984375,-400000.0625,-7268.85986328125,-400000.0625,-400000.0625,-400000.0625
57.65472364425659,242.85000610351562,-2675.43994140625,-5879.93017578125,-400000.0625,-7267.669921875,-400000.0625,-400000.0625,-400000.0625
57.73969221115112,244.3300018310547,-2675.10009765625,-5876.64013671875,-400000.0625,-7267.43017578125,-400000.0625,-400000.0625,-400000.0625
57.92382860183716,247.91000366210938,-2673.47998046875,-5868.47998046875,-400000.0625,-7267.0498046875,-400000.0625,-400000.0625,-400000.0625
57.98774719238281,251.00999450683594,-2671.909912109375,-5864.47998046875,-400000.0625,-7263.419921875,-400000.0625,-400000.0625,-400000.0625
58.06662058830261,251.10000610351562,-2675.489990234375,-5864.18994140625,-400000.0625,-7270.669921875,-400000.0625,-400000.0625,-400000.0625
58.18228483200073,239.32000732421875,-2686.02001953125,-5873.490234375,-400000.0625,-7274.33984375,-400000.0625,-400000.0625,-400000.0625
58.33411264419556,238.27999877929688,-2689.64990234375,-5873.490234375,-400000.0625,-7272.77001953125,-400000.0625,-400000.0625,-400000.0625
58.54829525947571,237.1300048828125,-2696.610107421875,-5875.97021484375,-400000.0625,-7269.72021484375,-400000.0625,-400000.0625,-400000.0625
58.94063901901245,237.66000366210938,-2704.909912109375,-5880.740234375,-400000.0625,-7270.2900390625,-400000.0625,-400000.0625,-400000.0625
59.1435911655426,241.52000427246094,-2705.050048828125,-5882.64990234375,-400000.0625,-7278.2998046875,-400000.0625,-400000.0625,-400000.0625
59.203760385513306,240.85000610351562,-2708.820068359375,-5887.18017578125,-400000.0625,-7279.830078125,-400000.0625,-400000.0625,-400000.0625
59.23893427848816,249.82000732421875,-2698.760009765625,-5881.06982421875,-400000.0625,-7274.72021484375,-400000.0625,-400000.0625,-400000.0625
59.2681679725647,246.0,-2701.860107421875,-5884.27001953125,-400000.0625,-7279.10986328125,-400000.0625,-400000.0625,-400000.0625
59.33098649978638,241.66000366210938,-2708.6298828125,-5888.080078125,-400000.0625,-7285.169921875,-400000.0625,-400000.0625,-400000.0625
59.354926347732544,243.3300018310547,-2705.860107421875,-5884.60009765625,-400000.0625,-7283.740234375,-400000.0625,-400000.0625,-400000.0625
59.395275592803955,247.13999938964844,-2704.050048828125,-5883.41015625,-400000.0625,-7283.39990234375,-400000.0625,-400000.0625,-400000.0625
59.45275115966797,246.13999938964844,-2703.570068359375,-5882.7900390625,-400000.0625,-7275.6298828125,-400000.0625,-400000.0625,-400000.0625
59.476370334625244,242.89999389648438,-2704.330078125,-5883.7900390625,-400000.0625,-7279.43994140625,-400000.0625,-400000.0625,-400000.0625
59.528186082839966,241.89999389648438,-2708.389892578125,-5888.509765625,-400000.0625,-7284.169921875,-400000.0625,-400000.0625,-400000.0625
59.582581758499146,243.13999938964844,-2702.52001953125,-5883.68994140625,-400000.0625,-7281.10986328125,-400000.0625,-400000.0625,-400000.0625
59.609678506851196,243.22999572753906,-2700.139892578125,-5882.35986328125,-400000.0625,-7278.97021484375,-400000.0625,-400000.0625,-400000.0625
59.6632661819458,245.75999450683594,-2701.280029296875,-5883.740234375,-400000.0625,-7278.35009765625,-400000.0625,-400000.0625,-400000.0625
59.75686478614807,244.24000549316406,-2702.429931640625,-5883.7900390625,-400000.0625,-7278.06005859375,-400000.0625,-400000.0625,-400000.0625
59.79486966133118,240.99000549316406,-2705.14990234375,-5889.4599609375,-400000.0625,-7280.919921875,-400000.0625,-400000.0625,-400000.0625
59.86416220664978,244.89999389648438,-2707.199951171875,-5887.60009765625,-400000.0625,-7279.58984375,-400000.0625,-400000.0625,-400000.0625
59.894437074661255,247.42999267578125,-2705.3798828125,-5882.06982421875,-400000.0625,-7277.16015625,-400000.0625,-400000.0625,-400000.0625
59.94996643066406,248.6199951171875,-2701.81005859375,-5881.8798828125,-400000.0625,-7276.77001953125,-400000.0625,-400000.0625,-400000.0625
60.041327476501465,248.72000122070312,-2698.610107421875,-5877.919921875,-400000.0625,-7275.14990234375,-400000.0625,-400000.0625,-400000.0625
60.08081007003784,246.47999572753906,-2704.10009765625,-5884.31005859375,-400000.0625,-7280.8798828125,-400000.0625,-400000.0625,-400000.0625
60.13062381744385,241.9499969482422,-2704.719970703125,-5886.7001953125,-400000.0625,-7281.4501953125,-400000.0625,-400000.0625,-400000.0625
60.1623477935791,247.6199951171875,-2700.760009765625,-5880.169921875,-400000.0625,-7276.35009765625,-400000.0625,-400000.0625,-400000.0625
60.21764945983887,249.91000366210938,-2696.179931640625,-5874.919921875,-400000.0625,-7273.9599609375,-400000.0625,-400000.0625,-400000.0625
60.268778800964355,245.9499969482422,-2700.139892578125,-5880.68994140625,-400000.0625,-7278.5400390625,-400000.0625,-400000.0625,-400000.0625
60.29287528991699,243.80999755859375,-2705.860107421875,-5886.35986328125,-400000.0625,-7282.4501953125,-400000.0625,-400000.0625,-400000.0625
60.317978620529175,244.52000427246094,-2702.280029296875,-5883.7900390625,-400000.0625,-7282.31005859375,-400000.0625,-400000.0625,-400000.0625
60.37455725669861,251.44000244140625,-2696.320068359375,-5876.8798828125,-400000.0625,-7279.72998046875,-400000.0625,-400000.0625,-400000.0625
60.40064883232117,254.67999267578125,-2695.3701171875,-5878.06982421875,-400000.0625,-7277.490234375,-400000.0625,-400000.0625,-400000.0625
60.441548347473145,252.44000244140625,-2695.1298828125,-5875.5400390625,-400000.0625,-7276.77001953125,-400000.0625,-400000.0625,-400000.0625
60.49055027961731,249.6699981689453,-2698.52001953125,-5880.5,-400000.0625,-7280.72998046875,-400000.0625,-400000.0625,-400000.0625
60.51729083061218,245.2899932861328,-2703.139892578125,-5885.509765625,-400000.0625,-7285.830078125,-400000.0625,-400000.0625,-400000.0625
60.560489654541016,245.6199951171875,-2698.0400390625,-5879.2099609375,-400000.0625,-7281.10986328125,-400000.0625,-400000.0625,-400000.0625
60.60920786857605,249.1999969482422,-2693.27001953125,-5876.02001953125,-400000.0625,-7275.490234375,-400000.0625,-400000.0625,-400000.0625
60.65163540840149,248.10000610351562,-2699.949951171875,-5879.93017578125,-400000.0625,-7281.10986328125,-400000.0625,-400000.0625,-400000.0625
60.67696666717529,245.7100067138672,-2703.18994140625,-5881.35986328125,-400000.0625,-7281.58984375,-400000.0625,-400000.0625,-400000.0625
60.79021167755127,247.6199951171875,-2703.090087890625,-5879.16015625,-400000.0625,-7280.68017578125,-400000.0625,-400000.0625,-400000.0625
60.86930203437805,248.0,-2701.0400390625,-5877.77978515625,-400000.0625,-7277.68017578125,-400000.0625,-400000.0625,-400000.0625
60.893327713012695,251.1999969482422,-2697.52001953125,-5877.39990234375,-400000.0625,-7277.06005859375,-400000.0625,-400000.0625,-400000.0625
60.95268630981445,247.86000061035156,-2699.610107421875,-5876.919921875,-400000.0625,-7277.2001953125,-400000.0625,-400000.0625,-400000.0625
60.97756290435791,242.47000122070312,-2721.449951171875,-5883.60009765625,-400000.0625,-7286.02001953125,-400000.0625,-400000.0625,-400000.0625
61.004257678985596,239.52000427246094,-2720.5,-5884.93017578125,-400000.0625,-7283.5,-400000.0625,-400000.0625,-400000.0625
61.1760618686676,244.57000732421875,-2708.2900390625,-5883.740234375,-400000.0625,-7280.919921875,-400000.0625,-400000.0625,-400000.0625
61.2260103225708,249.1999969482422,-2707.340087890625,-5885.080078125,-400000.0625,-7278.77978515625,-400000.0625,-400000.0625,-400000.0625
61.25716996192932,240.85000610351562,-2713.06005859375,-5886.89013671875,-400000.0625,-7278.06005859375,-400000.0625,-400000.0625,-400000.0625
61.30027961730957,237.61000061035156,-2722.260009765625,-5889.60986328125,-400000.0625,-7279.10986328125,-400000.0625,-400000.0625,-400000.0625
61.35352349281311,241.47000122070312,-2720.68994140625,-5893.330078125,-400000.0625,-7279.5400390625,-400000.0625,-400000.0625,-400000.0625
61.3795371055603,239.17999267578125,-2718.070068359375,-5894.7099609375,-400000.0625,-7280.16015625,-400000.0625,-400000.0625,-400000.0625
61.4180588722229,239.55999755859375,-2722.449951171875,-5892.7998046875,-400000.0625,-7278.16015625,-400000.0625,-400000.0625,-400000.0625
61.47700476646423,240.22999572753906,-2721.5,-5889.1298828125,-400000.0625,-7280.68017578125,-400000.0625,-400000.0625,-400000.0625
61.51137328147888,239.75,-2727.93994140625,-5892.56005859375,-400000.0625,-7280.35009765625,-400000.0625,-400000.0625,-400000.0625
61.54880666732788,236.64999389648438,-2731.510009765625,-5894.3798828125,-400000.0625,-7280.919921875,-400000.0625,-400000.0625,-400000.0625
61.60936379432678,235.61000061035156,-2727.080078125,-5890.18017578125,-400000.0625,-7277.580078125,-400000.0625,-400000.0625,-400000.0625
61.66130018234253,237.6999969482422,-2727.4599609375,-5889.31982421875,-400000.0625,-7274.490234375,-400000.0625,-400000.0625,-400000.0625
61.72424507141113,236.4199981689453,-2724.840087890625,-5888.7998046875,-400000.0625,-7274.9599609375,-400000.0625,-400000.0625,-400000.0625
61.77282452583313,234.60000610351562,-2730.1298828125,-5891.990234375,-400000.0625,-7274.25,-400000.0625,-400000.0625,-400000.0625
61.86750054359436,236.85000610351562,-2733.7099609375,-5891.56005859375,-400000.0625,-7271.91015625,-400000.0625,-400000.0625,-400000.0625
61.89227223396301,239.89999389648438,-2730.22998046875,-5891.22998046875,-400000.0625,-7273.77001953125,-400000.0625,-400000.0625,-400000.0625
61.97486686706543,242.52000427246094,-2727.1298828125,-5890.080078125,-400000.0625,-7280.919921875,-400000.0625,-400000.0625,-400000.0625
61.9990656375885,239.7100067138672,-2727.60009765625,-5891.89990234375,-400000.0625,-7281.830078125,-400000.0625,-400000.0625,-400000.0625
62.066410303115845,237.0399932861328,-2732.0400390625,-5894.3798828125,-400000.0625,-7283.06982421875,-400000.0625,-400000.0625,-400000.0625
62.09533095359802,238.89999389648438,-2729.85009765625,-5892.47021484375,-400000.0625,-7279.490234375,-400000.0625,-400000.0625,-400000.0625
62.12143087387085,241.13999938964844,-2729.510009765625,-5890.7001953125,-400000.0625,-7274.9599609375,-400000.0625,-400000.0625,-400000.0625
62.252992391586304,236.85000610351562,-2729.610107421875,-5890.080078125,-400000.0625,-7278.39990234375,-400000.0625,-400000.0625,-400000.0625
62.305222511291504,236.6999969482422,-2733.52001953125,-5891.419921875,-400000.0625,-7282.31005859375,-400000.0625,-400000.0625,-400000.0625
62.33560800552368,235.4600067138672,-2733.800048828125,-5893.990234375,-400000.0625,-7284.259765625,-400000.0625,-400000.0625,-400000.0625
62.36039161682129,240.8000030517578,-2727.219970703125,-5891.1298828125,-400000.0625,-7279.10986328125,-400000.0625,-400000.0625,-400000.0625
62.4078106880188,244.19000244140625,-2727.840087890625,-5893.47021484375,-400000.0625,-7278.81982421875,-400000.0625,-400000.0625,-400000.0625
62.429877281188965,242.27999877929688,-2730.889892578125,-5894.9501953125,-400000.0625,-7283.02001953125,-400000.0625,-400000.0625,-400000.0625
62.46316599845886,240.17999267578125,-2733.800048828125,-5895.0400390625,-400000.0625,-7284.35986328125,-400000.0625,-400000.0625,-400000.0625
62.51439595222473,234.75,-2732.93994140625,-5895.419921875,-400000.0625,-7284.8798828125,-400000.0625,-400000.0625,-400000.0625
62.53985619544983,237.88999938964844,-2732.469970703125,-5894.60986328125,-400000.0625,-7284.2099609375,-400000.0625,-400000.0625,-400000.0625
62.58734655380249,243.42999267578125,-2735.0400390625,-5893.89990234375,-400000.0625,-7281.5,-400000.0625,-400000.0625,-400000.0625
62.631691455841064,240.99000549316406,-2733.280029296875,-5893.27978515625,-400000.0625,-7279.830078125,-400000.0625,-400000.0625,-400000.0625
62.657756090164185,238.61000061035156,-2735.090087890625,-5895.22998046875,-400000.0625,-7285.64013671875,-400000.0625,-400000.0625,-400000.0625
62.705371141433716,238.6999969482422,-2734.610107421875,-5893.85009765625,-400000.0625,-7284.68994140625,-400000.0625,-400000.0625,-400000.0625
62.75857090950012,237.27000427246094,-2738.52001953125,-5894.9501953125,-400000.0625,-7281.77978515625,-400000.0625,-400000.0625,-400000.0625
62.81230163574219,241.22999572753906,-2732.22998046875,-5890.080078125,-400000.0625,-7282.4501953125,-400000.0625,-400000.0625,-400000.0625
62.90575385093689,240.7100067138672,-2725.550048828125,-5888.3701171875,-400000.0625,-7283.259765625,-400000.0625,-400000.0625,-400000.0625
62.92996525764465,239.22999572753906,-2734.330078125,-5894.7099609375,-400000.0625,-7281.830078125,-400000.0625,-400000.0625,-400000.0625
63.00526976585388,236.94000244140625,-2737.239990234375,-5897.14013671875,-400000.0625,-7282.10986328125,-400000.0625,-400000.0625,-400000.0625
63.03214383125305,237.50999450683594,-2734.469970703125,-5894.89990234375,-400000.0625,-7284.1201171875,-400000.0625,-400000.0625,-400000.0625
63.11107921600342,242.3800048828125,-2733.179931640625,-5894.47021484375,-400000.0625,-7285.64013671875,-400000.0625,-400000.0625,-400000.0625
63.13617706298828,244.89999389648438,-2728.3701171875,-5889.7998046875,-400000.0625,-7280.4501953125,-400000.0625,-400000.0625,-400000.0625
63.191933393478394,243.19000244140625,-2732.320068359375,-5894.18017578125,-400000.0625,-7280.5400390625,-400000.0625,-400000.0625,-400000.0625
63.238269567489624,238.47000122070312,-2737.090087890625,-5902.2001953125,-400000.0625,-7289.35986328125,-400000.0625,-400000.0625,-400000.0625
63.303574562072754,238.4199981689453,-2738.330078125,-5900.81005859375,-400000.0625,-7290.83984375,-400000.0625,-400000.0625,-400000.0625
63.333436489105225,241.99000549316406,-2733.800048828125,-5894.85009765625,-400000.0625,-7284.02001953125,-400000.0625,-400000.0625,-400000.0625
63.35846471786499,241.9499969482422,-2737.280029296875,-5894.9501953125,-400000.0625,-7282.93017578125,-400000.0625,-400000.0625,-400000.0625
63.413296937942505,234.88999938964844,-2739.760009765625,-5896.85986328125,-400000.0625,-7283.5,-400000.0625,-400000.0625,-400000.0625
63.45357370376587,233.1300048828125,-2736.6201171875,-5894.85009765625,-400000.0625,-7284.35986328125,-400000.0625,-400000.0625,-400000.0625
63.47254538536072,236.17999267578125,-2736.760009765625,-5897.330078125,-400000.0625,-7289.97998046875,-400000.0625,-400000.0625,-400000.0625
63.518123149871826,238.66000366210938,-2733.89990234375,-5893.7099609375,-400000.0625,-7286.64013671875,-400000.0625,-400000.0625,-400000.0625
63.538289308547974,235.4600067138672,-2735.090087890625,-5895.330078125,-400000.0625,-7282.72998046875,-400000.0625,-400000.0625,-400000.0625
63.566325426101685,231.92999267578125,-2736.0,-5898.9501953125,-400000.0625,-7284.5,-400000.0625,-400000.0625,-400000.0625
63.59132409095764,231.22000122070312,-2738.330078125,-5902.580078125,-400000.0625,-7289.169921875,-400000.0625,-400000.0625,-400000.0625
63.65731477737427,233.5500030517578,-2739.909912109375,-5902.0,-400000.0625,-7288.97998046875,-400000.0625,-400000.0625,-400000.0625
63.69196891784668,237.66000366210938,-2735.570068359375,-5895.759765625,-400000.0625,-7286.8798828125,-400000.0625,-400000.0625,-400000.0625
63.75862503051758,241.52000427246094,-2734.090087890625,-5893.7099609375,-400000.0625,-7283.8798828125,-400000.0625,-400000.0625,-400000.0625
63.79357051849365,238.50999450683594,-2737.860107421875,-5897.0498046875,-400000.0625,-7287.68994140625,-400000.0625,-400000.0625,-400000.0625
63.85280680656433,234.75,-2740.669921875,-5898.43017578125,-400000.0625,-7289.5498046875,-400000.0625,-400000.0625,-400000.0625
63.88845705986023,239.1300048828125,-2736.570068359375,-5897.9501953125,-400000.0625,-7289.27001953125,-400000.0625,-400000.0625,-400000.0625
63.925660371780396,240.85000610351562,-2735.760009765625,-5897.240234375,-400000.0625,-7286.8798828125,-400000.0625,-400000.0625,-400000.0625
64.00112724304199,241.75999450683594,-2735.81005859375,-5895.18994140625,-400000.0625,-7284.830078125,-400000.0625,-400000.0625,-400000.0625
64.03156971931458,242.89999389648438,-2734.85009765625,-5894.47021484375,-400000.0625,-7284.1201171875,-400000.0625,-400000.0625,-400000.0625
64.10349893569946,238.61000061035156,-2743.77001953125,-5903.240234375,-400000.0625,-7285.35986328125,-400000.0625,-400000.0625,-400000.0625
64.13377642631531,236.02999877929688,-2745.14990234375,-5903.91015625,-400000.0625,-7292.22021484375,-400000.0625,-400000.0625,-400000.0625
64.20286297798157,238.89999389648438,-2741.77001953125,-5900.33984375,-400000.0625,-7292.7998046875,-400000.0625,-400000.0625,-400000.0625
64.23454904556274,241.22999572753906,-2738.050048828125,-5899.72021484375,-400000.0625,-7288.02978515625,-400000.0625,-400000.0625,-400000.0625
64.30662536621094,239.7100067138672,-2741.2900390625,-5900.9599609375,-400000.0625,-7290.64990234375,-400000.0625,-400000.0625,-400000.0625
64.34099578857422,238.85000610351562,-2746.919921875,-5904.47998046875,-400000.0625,-7293.7998046875,-400000.0625,-400000.0625,-400000.0625
64.40916037559509,238.32000732421875,-2741.909912109375,-5903.10009765625,-400000.0625,-7291.4599609375,-400000.0625,-400000.0625,-400000.0625
64.4461259841919,240.99000549316406,-2738.909912109375,-5900.2900390625,-400000.0625,-7287.35986328125,-400000.0625,-400000.0625,-400000.0625
64.51194310188293,244.6199951171875,-2736.139892578125,-5898.6201171875,-400000.0625,-7283.06982421875,-400000.0625,-400000.0625,-400000.0625
64.54748511314392,246.80999755859375,-2735.81005859375,-5895.56982421875,-400000.0625,-7282.35009765625,-400000.0625,-400000.0625,-400000.0625
64.61325407028198,242.47000122070312,-2740.10009765625,-5896.43017578125,-400000.0625,-7287.740234375,-400000.0625,-400000.0625,-400000.0625
64.64721250534058,237.50999450683594,-2741.909912109375,-5902.0,-400000.0625,-7293.080078125,-400000.0625,-400000.0625,-400000.0625
64.68309450149536,237.75,-2742.860107421875,-5901.81005859375,-400000.0625,-7294.509765625,-400000.0625,-400000.0625,-400000.0625
64.7523934841156,236.94000244140625,-2743.10009765625,-5900.3798828125,-400000.0625,-7290.89013671875,-400000.0625,-400000.0625,-400000.0625
64.79058408737183,238.27999877929688,-2740.47998046875,-5900.10009765625,-400000.0625,-7287.4599609375,-400000.0625,-400000.0625,-400000.0625
64.86106252670288,237.1300048828125,-2744.06005859375,-5905.8701171875,-400000.0625,-7293.509765625,-400000.0625,-400000.0625,-400000.0625
64.90173482894897,234.64999389648438,-2743.050048828125,-5905.490234375,-400000.0625,-7291.60009765625,-400000.0625,-400000.0625,-400000.0625
64.97118711471558,236.27000427246094,-2740.719970703125,-5900.669921875,-400000.0625,-7286.64013671875,-400000.0625,-400000.0625,-400000.0625
65.01181626319885,237.4600067138672,-2740.47998046875,-5895.52001953125,-400000.0625,-7282.97021484375,-400000.0625,-400000.0625,-400000.0625
65.09083127975464,236.88999938964844,-2743.669921875,-5898.0,-400000.0625,-7286.5,-400000.0625,-400000.0625,-400000.0625
65.12258100509644,233.1300048828125,-2746.340087890625,-5901.2900390625,-400000.0625,-7287.35986328125,-400000.0625,-400000.0625,-400000.0625
65.19934248924255,233.94000244140625,-2747.489990234375,-5900.10009765625,-400000.0625,-7281.5,-400000.0625,-400000.0625,-400000.0625
65.22955250740051,237.4199981689453,-2746.389892578125,-5901.14990234375,-400000.0625,-7285.68994140625,-400000.0625,-400000.0625,-400000.0625
65.29791760444641,237.3699951171875,-2746.389892578125,-5900.43017578125,-400000.0625,-7289.97998046875,-400000.0625,-400000.0625,-400000.0625
65.33501839637756,231.22000122070312,-2753.449951171875,-5905.10009765625,-400000.0625,-7292.41015625,-400000.0625,-400000.0625,-400000.0625
65.39867973327637,229.30999755859375,-2757.739990234375,-5908.39013671875,-400000.0625,-7289.97998046875,-400000.0625,-400000.0625,-400000.0625
65.42873620986938,229.30999755859375,-2758.030029296875,-5907.14990234375,-400000.0625,-7289.27001953125,-400000.0625,-400000.0625,-400000.0625
65.46156859397888,230.25999450683594,-2758.60009765625,-5908.35009765625,-400000.0625,-7286.41015625,-400000.0625,-400000.0625,-400000.0625
65.52534937858582,228.7899932861328,-2764.75,-5907.25,-400000.0625,-7282.58984375,-400000.0625,-400000.0625,-400000.0625
65.54679870605469,229.5,-2771.52001953125,-5909.06005859375,-400000.0625,-7286.1201171875,-400000.0625,-400000.0625,-400000.0625
65.56742548942566,226.5,-2781.340087890625,-5909.35009765625,-400000.0625,-7289.7001953125,-400000.0625,-400000.0625,-400000.0625
65.61855483055115,235.4600067138672,-2797.4599609375,-5900.91015625,-400000.0625,-7285.06982421875,-400000.0625,-400000.0625,-400000.0625
65.63836884498596,239.85000610351562,-2789.5,-5897.08984375,-400000.0625,-7279.02001953125,-400000.0625,-400000.0625,-400000.0625
65.65764951705933,223.49000549316406,-2794.360107421875,-5912.97021484375,-400000.0625,-7282.35009765625,-400000.0625,-400000.0625,-400000.0625
65.67672872543335,223.8800048828125,-2806.0400390625,-5914.02001953125,-400000.0625,-7284.830078125,-400000.0625,-400000.0625,-400000.0625
65.7536940574646,214.77000427246094,-2803.3701171875,-5913.93017578125,-400000.0625,-7279.35009765625,-400000.0625,-400000.0625,-400000.0625
65.79246950149536,209.0,-2820.780029296875,-5922.83984375,-400000.0625,-7274.25,-400000.0625,-400000.0625,-400000.0625
65.84989476203918,219.6300048828125,-2842.949951171875,-5910.830078125,-400000.0625,-7272.47998046875,-400000.0625,-400000.0625,-400000.0625
65.88699531555176,211.10000610351562,-2861.169921875,-5929.66015625,-400000.0625,-7272.2001953125,-400000.0625,-400000.0625,-400000.0625
65.91947388648987,196.64999389648438,-2868.179931640625,-5935.47998046875,-400000.0625,-7267.47998046875,-400000.0625,-400000.0625,-400000.0625
65.98014402389526,190.16000366210938,-2878.81005859375,-5925.990234375,-400000.0625,-7258.56005859375,-400000.0625,-400000.0625,-400000.0625
66.01386713981628,162.27000427246094,-2917.0,-5949.93017578125,-400000.0625,-7260.08984375,-400000.0625,-400000.0625,-400000.0625
66.04683208465576,158.92999267578125,-2948.090087890625,-5949.58984375,-400000.0625,-7255.64990234375,-400000.0625,-400000.0625,-400000.0625
66.11464285850525,158.02000427246094,-2954.14990234375,-5954.35986328125,-400000.0625,-7255.97998046875,-400000.0625,-400000.0625,-400000.0625
66.14583444595337,145.77000427246094,-2995.2099609375,-5966.14013671875,-400000.0625,-7252.60009765625,-400000.0625,-400000.0625,-400000.0625
66.18509912490845,135.52000427246094,-3026.300048828125,-5979.97021484375,-400000.0625,-7251.83984375,-400000.0625,-400000.0625,-400000.0625
66.24426317214966,126.16999816894531,-3042.030029296875,-5982.919921875,-400000.0625,-7245.58984375,-400000.0625,-400000.0625,-400000.0625
66.27668523788452,114.3499984741211,-3068.39990234375,-5993.83984375,-400000.0625,-7237.10009765625,-400000.0625,-400000.0625,-400000.0625
66.31762361526489,108.0,-3091.050048828125,-6007.52978515625,-400000.0625,-7236.77001953125,-400000.0625,-400000.0625,-400000.0625
66.38040137290955,97.12999725341797,-3116.1298828125,-6007.6201171875,-400000.0625,-7236.81982421875,-400000.0625,-400000.0625,-400000.0625
66.42748165130615,95.37000274658203,-3133.489990234375,-6005.759765625,-400000.0625,-7233.85986328125,-400000.0625,-400000.0625,-400000.0625
66.4961462020874,88.5,-3146.360107421875,-6007.9599609375,-400000.0625,-7221.22021484375,-400000.0625,-400000.0625,-400000.0625
66.53463768959045,82.87000274658203,-3158.6201171875,-6009.0498046875,-400000.0625,-7215.2099609375,-400000.0625,-400000.0625,-400000.0625
