time,ch1,ch2,ch3,ch4,ch5,ch6,ch7,ch8
187.14278435707092,205.27999877929688,-2693.3701171875,-5851.60009765625,-400000.0625,-7317.5,-400000.0625,-400000.0625,-400000.0625
187.18904399871826,184.25,-2712.6298828125,-5871.6298828125,-400000.0625,-7333.56982421875,-400000.0625,-400000.0625,-400000.0625
187.30129981040955,136.89999389648438,-2759.31005859375,-5920.509765625,-400000.0625,-7376.0498046875,-400000.0625,-400000.0625,-400000.0625
187.40333127975464,132.55999755859375,-2766.320068359375,-5926.93994140625,-400000.0625,-7381.77001953125,-400000.0625,-400000.0625,-400000.0625
187.51007413864136,172.89999389648438,-2724.699951171875,-5883.5498046875,-400000.0625,-7346.009765625,-400000.0625,-400000.0625,-400000.0625
187.6088743209839,206.7100067138672,-2694.699951171875,-5846.5498046875,-400000.0625,-7318.31005859375,-400000.0625,-400000.0625,-400000.0625
187.66578555107117,184.35000610351562,-2712.820068359375,-5869.580078125,-400000.0625,-7336.81005859375,-400000.0625,-400000.0625,-400000.0625
187.7696931362152,138.08999633789062,-2758.31005859375,-5922.18017578125,-400000.0625,-7373.52001953125,-400000.0625,-400000.0625,-400000.0625
187.8968596458435,132.99000549316406,-2764.889892578125,-5929.52001953125,-400000.0625,-7385.39990234375,-400000.0625,-400000.0625,-400000.0625
188.01094818115234,171.13999938964844,-2725.409912109375,-5884.4599609375,-400000.0625,-7353.39990234375,-400000.0625,-400000.0625,-400000.0625
188.14225244522095,203.89999389648438,-2701.469970703125,-5850.35986328125,-400000.0625,-7320.2099609375,-400000.0625,-400000.0625,-400000.0625
188.2750883102417,182.5800018310547,-2720.739990234375,-5873.72998046875,-400000.0625,-7337.669921875,-400000.0625,-400000.0625,-400000.0625
188.40427660942078,133.22999572753906,-2760.4599609375,-5922.18017578125,-400000.0625,-7375.669921875,-400000.0625,-400000.0625,-400000.0625
188.52763032913208,126.12000274658203,-2769.179931640625,-5927.990234375,-400000.0625,-7378.2001953125,-400000.0625,-400000.0625,-400000.0625
188.67059350013733,170.75999450683594,-2731.3701171875,-5882.06982421875,-400000.0625,-7338.72021484375,-400000.0625,-400000.0625,-400000.0625
188.8042643070221,202.94000244140625,-2694.699951171875,-5845.7900390625,-400000.0625,-7317.259765625,-400000.0625,-400000.0625,-400000.0625
188.92930817604065,183.14999389648438,-2715.639892578125,-5868.52978515625,-400000.0625,-7337.669921875,-400000.0625,-400000.0625,-400000.0625
189.0450358390808,138.3300018310547,-2763.93994140625,-5917.83984375,-400000.0625,-7380.06005859375,-400000.0625,-400000.0625,-400000.0625
189.1771388053894,124.5,-2787.969970703125,-5927.330078125,-400000.0625,-7387.72998046875,-400000.0625,-400000.0625,-400000.0625
189.31043100357056,168.50999450683594,-2753.72998046875,-5886.89013671875,-400000.0625,-7356.60009765625,-400000.0625,-400000.0625,-400000.0625
189.44635939598083,205.3300018310547,-2709.580078125,-5849.41015625,-400000.0625,-7323.60009765625,-400000.0625,-400000.0625,-400000.0625
189.57422351837158,180.44000244140625,-2723.64990234375,-5872.8701171875,-400000.0625,-7330.27978515625,-400000.0625,-400000.0625,-400000.0625
189.6890149116516,129.75,-2779.77001953125,-5924.85009765625,-400000.0625,-7366.75,-400000.0625,-400000.0625,-400000.0625
189.8149778842926,115.81999969482422,-2792.219970703125,-5932.0498046875,-400000.0625,-7379.81982421875,-400000.0625,-400000.0625,-400000.0625
189.95577001571655,155.5399932861328,-2757.550048828125,-5893.419921875,-400000.0625,-7346.2001953125,-400000.0625,-400000.0625,-400000.0625
190.06860852241516,186.00999450683594,-2733.139892578125,-5859.3798828125,-400000.0625,-7312.490234375,-400000.0625,-400000.0625,-400000.0625
190.20725345611572,168.3699951171875,-2752.39990234375,-5881.68994140625,-400000.0625,-7334.330078125,-400000.0625,-400000.0625,-400000.0625
190.32229328155518,123.44999694824219,-2807.330078125,-5934.43017578125,-400000.0625,-7379.14990234375,-400000.0625,-400000.0625,-400000.0625
190.4580626487732,112.0999984741211,-2818.389892578125,-5943.16015625,-400000.0625,-7387.02001953125,-400000.0625,-400000.0625,-400000.0625
190.58743619918823,153.9199981689453,-2775.340087890625,-5897.759765625,-400000.0625,-7351.259765625,-400000.0625,-400000.0625,-400000.0625
190.71454906463623,185.44000244140625,-2742.050048828125,-5859.47021484375,-400000.0625,-7319.7900390625,-400000.0625,-400000.0625,-400000.0625
190.84256839752197,164.22000122070312,-2765.93994140625,-5884.7900390625,-400000.0625,-7337.89990234375,-400000.0625,-400000.0625,-400000.0625
190.982568025589,117.77999877929688,-2806.760009765625,-5930.6201171875,-400000.0625,-7377.240234375,-400000.0625,-400000.0625,-400000.0625
191.11779117584229,109.4800033569336,-2814.580078125,-5938.6298828125,-400000.0625,-7384.39990234375,-400000.0625,-400000.0625,-400000.0625
191.24231553077698,152.25,-2775.2900390625,-5895.85009765625,-400000.0625,-7353.16015625,-400000.0625,-400000.0625,-400000.0625
191.35600423812866,187.44000244140625,-2744.47998046875,-5860.9501953125,-400000.0625,-7321.7900390625,-400000.0625,-400000.0625,-400000.0625
191.49134993553162,166.55999755859375,-2764.419921875,-5880.2099609375,-400000.0625,-7333.60986328125,-400000.0625,-400000.0625,-400000.0625
191.61343908309937,117.11000061035156,-2806.429931640625,-5928.52001953125,-400000.0625,-7377.2900390625,-400000.0625,-400000.0625,-400000.0625
191.74985194206238,113.68000030517578,-2813.530029296875,-5935.9599609375,-400000.0625,-7387.77978515625,-400000.0625,-400000.0625,-400000.0625
191.8817274570465,152.05999755859375,-2775.860107421875,-5895.330078125,-400000.0625,-7355.5,-400000.0625,-400000.0625,-400000.0625
192.02581691741943,184.00999450683594,-2748.6298828125,-5862.0498046875,-400000.0625,-7322.60009765625,-400000.0625,-400000.0625,-400000.0625
192.15327501296997,166.94000244140625,-2769.949951171875,-5883.35986328125,-400000.0625,-7337.89990234375,-400000.0625,-400000.0625,-400000.0625
192.28723335266113,121.06999969482422,-2804.989990234375,-5930.52001953125,-400000.0625,-7374.2900390625,-400000.0625,-400000.0625,-400000.0625
192.35796928405762,112.81999969482422,-2812.820068359375,-5938.72021484375,-400000.0625,-7380.919921875,-400000.0625,-400000.0625,-400000.0625
192.38423609733582,153.4499969482422,-2782.679931640625,-5898.2900390625,-400000.0625,-7355.64013671875,-400000.0625,-400000.0625,-400000.0625
192.40981197357178,188.49000549316406,-2751.639892578125,-5865.18994140625,-400000.0625,-7328.89013671875,-400000.0625,-400000.0625,-400000.0625
192.4597041606903,167.3699951171875,-2772.6201171875,-5886.60009765625,-400000.0625,-7343.81982421875,-400000.0625,-400000.0625,-400000.0625
192.4771842956543,119.77999877929688,-2812.239990234375,-5936.0,-400000.0625,-7379.68017578125,-400000.0625,-400000.0625,-400000.0625
192.503347158432,111.58000183105469,-2821.300048828125,-5945.68017578125,-400000.0625,-7385.77978515625,-400000.0625,-400000.0625,-400000.0625
192.5275046825409,151.5399932861328,-2785.590087890625,-5901.0498046875,-400000.0625,-7349.2998046875,-400000.0625,-400000.0625,-400000.0625
192.5733938217163,185.38999938964844,-2743.9599609375,-5858.7998046875,-400000.0625,-7315.06005859375,-400000.0625,-400000.0625,-400000.0625
192.59505939483643,168.4199981689453,-2762.169921875,-5879.5,-400000.0625,-7335.330078125,-400000.0625,-400000.0625,-400000.0625
192.62224435806274,124.55000305175781,-2810.2900390625,-5930.81005859375,-400000.0625,-7374.9599609375,-400000.0625,-400000.0625,-400000.0625
192.64012455940247,113.62999725341797,-2818.43994140625,-5940.580078125,-400000.0625,-7387.58984375,-400000.0625,-400000.0625,-400000.0625
192.68103790283203,152.97000122070312,-2781.340087890625,-5898.91015625,-400000.0625,-7359.080078125,-400000.0625,-400000.0625,-400000.0625
192.70768523216248,189.25999450683594,-2747.6298828125,-5860.22998046875,-400000.0625,-7321.5,-400000.0625,-400000.0625,-400000.0625
192.73000979423523,171.7100067138672,-2764.85009765625,-5880.5,-400000.0625,-7333.330078125,-400000.0625,-400000.0625,-400000.0625
192.7544469833374,124.16999816894531,-2809.0,-5931.330078125,-400000.0625,-7378.669921875,-400000.0625,-400000.0625,-400000.0625
192.7946002483368,112.68000030517578,-2806.52001953125,-5939.39013671875,-400000.0625,-7386.06982421875,-400000.0625,-400000.0625,-400000.0625
192.81898188591003,154.5399932861328,-2762.989990234375,-5894.85009765625,-400000.0625,-7351.2099609375,-400000.0625,-400000.0625,-400000.0625
192.8631112575531,195.25999450683594,-2738.81005859375,-5856.56005859375,-400000.0625,-7321.06982421875,-400000.0625,-400000.0625,-400000.0625
192.97610592842102,179.38999938964844,-2749.780029296875,-5872.2998046875,-400000.0625,-7335.08984375,-400000.0625,-400000.0625,-400000.0625
193.09400010108948,135.85000610351562,-2792.169921875,-5923.31982421875,-400000.0625,-7378.77001953125,-400000.0625,-400000.0625,-400000.0625
193.20781803131104,125.73999786376953,-2799.4599609375,-5935.2900390625,-400000.0625,-7390.68994140625,-400000.0625,-400000.0625,-400000.0625
193.3098964691162,166.22999572753906,-2747.580078125,-5889.27001953125,-400000.0625,-7349.5400390625,-400000.0625,-400000.0625,-400000.0625
193.43083930015564,203.32000732421875,-2716.2099609375,-5852.64990234375,-400000.0625,-7318.830078125,-400000.0625,-400000.0625,-400000.0625
193.56094932556152,186.00999450683594,-2723.360107421875,-5866.91015625,-400000.0625,-7335.85009765625,-400000.0625,-400000.0625,-400000.0625
193.6783950328827,137.0399932861328,-2764.080078125,-5915.1201171875,-400000.0625,-7375.91015625,-400000.0625,-400000.0625,-400000.0625
193.7987883090973,129.32000732421875,-2779.10009765625,-5928.14013671875,-400000.0625,-7391.02001953125,-400000.0625,-400000.0625,-400000.0625
193.9398684501648,169.94000244140625,-2738.52001953125,-5884.7001953125,-400000.0625,-7355.39990234375,-400000.0625,-400000.0625,-400000.0625
194.08874440193176,204.0399932861328,-2706.81005859375,-5847.5,-400000.0625,-7320.740234375,-400000.0625,-400000.0625,-400000.0625
194.22628951072693,184.1999969482422,-2726.409912109375,-5866.0,-400000.0625,-7337.3798828125,-400000.0625,-400000.0625,-400000.0625
194.34148526191711,139.86000061035156,-2770.22998046875,-5917.259765625,-400000.0625,-7377.47998046875,-400000.0625,-400000.0625,-400000.0625
194.467031955719,128.94000244140625,-2775.239990234375,-5927.47021484375,-400000.0625,-7383.97021484375,-400000.0625,-400000.0625,-400000.0625
194.6012578010559,163.1300048828125,-2742.47998046875,-5889.22998046875,-400000.0625,-7350.02001953125,-400000.0625,-400000.0625,-400000.0625
194.72006177902222,198.02999877929688,-2714.06005859375,-5852.75,-400000.0625,-7321.259765625,-400000.0625,-400000.0625,-400000.0625
194.83579993247986,177.6699981689453,-2733.280029296875,-5871.5400390625,-400000.0625,-7343.47998046875,-400000.0625,-400000.0625,-400000.0625
194.959392786026,131.27000427246094,-2774.10009765625,-5920.740234375,-400000.0625,-7380.10009765625,-400000.0625,-400000.0625,-400000.0625
195.08614802360535,120.44999694824219,-2784.8701171875,-5933.9501953125,-400000.0625,-7386.259765625,-400000.0625,-400000.0625,-400000.0625
195.19479537010193,161.22000122070312,-2751.02001953125,-5892.08984375,-400000.0625,-7355.5498046875,-400000.0625,-400000.0625,-400000.0625
195.31527519226074,196.5,-2714.72998046875,-5854.89013671875,-400000.0625,-7323.080078125,-400000.0625,-400000.0625,-400000.0625
195.43903875350952,179.82000732421875,-2731.1298828125,-5874.35009765625,-400000.0625,-7334.27978515625,-400000.0625,-400000.0625,-400000.0625
195.5570092201233,130.83999633789062,-2777.14990234375,-5922.64990234375,-400000.0625,-7377.580078125,-400000.0625,-400000.0625,-400000.0625
195.68334913253784,118.97000122070312,-2786.5400390625,-5933.2900390625,-400000.0625,-7387.8798828125,-400000.0625,-400000.0625,-400000.0625
195.810405254364,158.74000549316406,-2745.909912109375,-5889.990234375,-400000.0625,-7352.31005859375,-400000.0625,-400000.0625,-400000.0625
195.9535391330719,194.97999572753906,-2714.010009765625,-5851.080078125,-400000.0625,-7320.60009765625,-400000.0625,-400000.0625,-400000.0625
196.07412219047546,177.9600067138672,-2733.139892578125,-5871.10986328125,-400000.0625,-7340.33984375,-400000.0625,-400000.0625,-400000.0625
196.1987648010254,133.66000366210938,-2774.139892578125,-5919.080078125,-400000.0625,-7383.43994140625,-400000.0625,-400000.0625,-400000.0625
196.31832456588745,125.06999969482422,-2788.830078125,-5934.330078125,-400000.0625,-7393.93017578125,-400000.0625,-400000.0625,-400000.0625
196.4447205066681,164.3699951171875,-2749.8701171875,-5889.22998046875,-400000.0625,-7357.5498046875,-400000.0625,-400000.0625,-400000.0625
196.55619883537292,200.22000122070312,-2716.159912109375,-5851.93994140625,-400000.0625,-7326.4599609375,-400000.0625,-400000.0625,-400000.0625
196.6731505393982,184.8699951171875,-2734.659912109375,-5871.490234375,-400000.0625,-7340.6201171875,-400000.0625,-400000.0625,-400000.0625
196.79892420768738,134.89999389648438,-2776.10009765625,-5919.740234375,-400000.0625,-7375.10009765625,-400000.0625,-400000.0625,-400000.0625
196.9234390258789,125.12000274658203,-2789.31005859375,-5933.85986328125,-400000.0625,-7388.8798828125,-400000.0625,-400000.0625,-400000.0625
197.04233503341675,165.1300048828125,-2746.14990234375,-5890.31982421875,-400000.0625,-7354.830078125,-400000.0625,-400000.0625,-400000.0625
197.15950870513916,200.1300048828125,-2712.919921875,-5852.18017578125,-400000.0625,-7323.60009765625,-400000.0625,-400000.0625,-400000.0625
197.28272414207458,182.82000732421875,-2734.949951171875,-5871.81982421875,-400000.0625,-7345.06005859375,-400000.0625,-400000.0625,-400000.0625
197.4159438610077,137.08999633789062,-2776.669921875,-5919.64990234375,-400000.0625,-7385.35009765625,-400000.0625,-400000.0625,-400000.0625
197.5389585494995,121.83000183105469,-2780.14990234375,-5929.9501953125,-400000.0625,-7389.1201171875,-400000.0625,-400000.0625,-400000.0625
197.65879154205322,160.36000061035156,-2746.25,-5890.31982421875,-400000.0625,-7354.93017578125,-400000.0625,-400000.0625,-400000.0625
197.77746963500977,200.55999755859375,-2715.43994140625,-5854.22998046875,-400000.0625,-7325.60009765625,-400000.0625,-400000.0625,-400000.0625
197.88840746879578,184.11000061035156,-2731.659912109375,-5871.39013671875,-400000.0625,-7341.2001953125,-400000.0625,-400000.0625,-400000.0625
198.0082471370697,136.13999938964844,-2774.81005859375,-5921.1298828125,-400000.0625,-7383.10986328125,-400000.0625,-400000.0625,-400000.0625
198.06359148025513,123.79000091552734,-2786.679931640625,-5936.47998046875,-400000.0625,-7395.27001953125,-400000.0625,-400000.0625,-400000.0625
198.08325386047363,163.97999572753906,-2750.110107421875,-5892.7998046875,-400000.0625,-7361.22021484375,-400000.0625,-400000.0625,-400000.0625
198.10476994514465,202.22999572753906,-2715.25,-5853.509765625,-400000.0625,-7328.22998046875,-400000.0625,-400000.0625,-400000.0625
198.12875652313232,187.5399932861328,-2733.610107421875,-5873.5400390625,-400000.0625,-7340.72021484375,-400000.0625,-400000.0625,-400000.0625
198.17916083335876,140.80999755859375,-2776.0,-5920.4599609375,-400000.0625,-7376.9599609375,-400000.0625,-400000.0625,-400000.0625
198.20705938339233,130.22000122070312,-2785.110107421875,-5931.3798828125,-400000.0625,-7389.5,-400000.0625,-400000.0625,-400000.0625
198.22650790214539,167.4199981689453,-2748.199951171875,-5891.1298828125,-400000.0625,-7363.22021484375,-400000.0625,-400000.0625,-400000.0625
198.25166273117065,205.7100067138672,-2715.679931640625,-5852.509765625,-400000.0625,-7331.7998046875,-400000.0625,-400000.0625,-400000.0625
198.29426407814026,192.07000732421875,-2731.659912109375,-5869.72021484375,-400000.0625,-7344.25,-400000.0625,-400000.0625,-400000.0625
198.31748867034912,145.10000610351562,-2772.89990234375,-5915.93017578125,-400000.0625,-7383.919921875,-400000.0625,-400000.0625,-400000.0625
198.33839678764343,130.94000244140625,-2775.860107421875,-5924.89013671875,-400000.0625,-7388.8798828125,-400000.0625,-400000.0625,-400000.0625
198.36552262306213,165.88999938964844,-2736.6201171875,-5883.31005859375,-400000.0625,-7354.93017578125,-400000.0625,-400000.0625,-400000.0625
198.41225481033325,202.4199981689453,-2703.3798828125,-5845.8798828125,-400000.0625,-7322.169921875,-400000.0625,-400000.0625,-400000.0625
198.43876481056213,184.00999450683594,-2718.5400390625,-5858.60986328125,-400000.0625,-7338.759765625,-400000.0625,-400000.0625,-400000.0625
198.45895719528198,135.08999633789062,-2757.840087890625,-5904.68017578125,-400000.0625,-7379.68017578125,-400000.0625,-400000.0625,-400000.0625
198.49205255508423,122.20999908447266,-2770.949951171875,-5917.259765625,-400000.0625,-7389.58984375,-400000.0625,-400000.0625,-400000.0625
198.5889711380005,164.64999389648438,-2734.090087890625,-5874.919921875,-400000.0625,-7356.60009765625,-400000.0625,-400000.0625,-400000.0625
198.6558244228363,203.4199981689453,-2694.27001953125,-5834.14990234375,-400000.0625,-7321.60009765625,-400000.0625,-400000.0625,-400000.0625
198.77966737747192,185.3000030517578,-2711.110107421875,-5852.27001953125,-400000.0625,-7337.52001953125,-400000.0625,-400000.0625,-400000.0625
198.90854573249817,135.8000030517578,-2754.449951171875,-5901.240234375,-400000.0625,-7376.6201171875,-400000.0625,-400000.0625,-400000.0625
199.01069855690002,126.36000061035156,-2768.22998046875,-5915.4501953125,-400000.0625,-7391.97998046875,-400000.0625,-400000.0625,-400000.0625
199.12761783599854,163.97999572753906,-2732.1298828125,-5874.72998046875,-400000.0625,-7360.509765625,-400000.0625,-400000.0625,-400000.0625
199.2574234008789,198.50999450683594,-2700.659912109375,-5834.8701171875,-400000.0625,-7330.85009765625,-400000.0625,-400000.0625,-400000.0625
199.37813186645508,180.1999969482422,-2714.72998046875,-5852.75,-400000.0625,-7340.2900390625,-400000.0625,-400000.0625,-400000.0625
199.49434089660645,135.47000122070312,-2760.510009765625,-5905.39013671875,-400000.0625,-7377.9599609375,-400000.0625,-400000.0625,-400000.0625
199.61319756507874,122.26000213623047,-2770.139892578125,-5918.22021484375,-400000.0625,-7383.43994140625,-400000.0625,-400000.0625,-400000.0625
199.7293131351471,161.1199951171875,-2731.469970703125,-5874.43994140625,-400000.0625,-7349.77978515625,-400000.0625,-400000.0625,-400000.0625
199.8751003742218,198.60000610351562,-2700.280029296875,-5835.39013671875,-400000.0625,-7323.1201171875,-400000.0625,-400000.0625,-400000.0625
200.01881647109985,183.33999633789062,-2712.389892578125,-5850.5498046875,-400000.0625,-7338.0,-400000.0625,-400000.0625,-400000.0625
200.13899683952332,135.85000610351562,-2756.409912109375,-5903.580078125,-400000.0625,-7377.9599609375,-400000.0625,-400000.0625,-400000.0625
200.25523233413696,123.87999725341797,-2770.89990234375,-5917.5498046875,-400000.0625,-7388.93017578125,-400000.0625,-400000.0625,-400000.0625
200.37647318840027,158.97999572753906,-2738.81005859375,-5879.97998046875,-400000.0625,-7355.259765625,-400000.0625,-400000.0625,-400000.0625
200.51578521728516,195.4600067138672,-2703.0,-5840.8701171875,-400000.0625,-7325.93994140625,-400000.0625,-400000.0625,-400000.0625
200.63591885566711,181.38999938964844,-2715.5400390625,-5855.31982421875,-400000.0625,-7341.0,-400000.0625,-400000.0625,-400000.0625
200.76980757713318,134.0399932861328,-2762.219970703125,-5905.10009765625,-400000.0625,-7381.5400390625,-400000.0625,-400000.0625,-400000.0625
200.90382957458496,123.36000061035156,-2772.139892578125,-5919.080078125,-400000.0625,-7393.169921875,-400000.0625,-400000.0625,-400000.0625
201.03705430030823,160.69000244140625,-2735.419921875,-5878.16015625,-400000.0625,-7354.68994140625,-400000.0625,-400000.0625,-400000.0625
201.17475628852844,198.1699981689453,-2702.570068359375,-5836.009765625,-400000.0625,-7318.5,-400000.0625,-400000.0625,-400000.0625
201.31091237068176,181.9600067138672,-2714.780029296875,-5851.60009765625,-400000.0625,-7331.31982421875,-400000.0625,-400000.0625,-400000.0625
201.43473505973816,132.3699951171875,-2757.68994140625,-5902.47998046875,-400000.0625,-7374.33984375,-400000.0625,-400000.0625,-400000.0625
201.57158017158508,121.30999755859375,-2769.280029296875,-5917.97998046875,-400000.0625,-7391.5498046875,-400000.0625,-400000.0625,-400000.0625
201.70253038406372,158.8300018310547,-2735.85009765625,-5878.02001953125,-400000.0625,-7362.18017578125,-400000.0625,-400000.0625,-400000.0625
201.8256561756134,193.8300018310547,-2700.330078125,-5839.2099609375,-400000.0625,-7333.08984375,-400000.0625,-400000.0625,-400000.0625
201.9807939529419,179.38999938964844,-2718.780029296875,-5858.7099609375,-400000.0625,-7343.81982421875,-400000.0625,-400000.0625,-400000.0625
202.10148191452026,130.6999969482422,-2764.080078125,-5907.97021484375,-400000.0625,-7374.47998046875,-400000.0625,-400000.0625,-400000.0625
202.24104809761047,115.11000061035156,-2778.010009765625,-5918.68994140625,-400000.0625,-7381.68017578125,-400000.0625,-400000.0625,-400000.0625
202.36057686805725,148.6300048828125,-2745.2900390625,-5875.77978515625,-400000.0625,-7353.06982421875,-400000.0625,-400000.0625,-400000.0625
202.4764461517334,191.2100067138672,-2711.580078125,-5837.68017578125,-400000.0625,-7326.4599609375,-400000.0625,-400000.0625,-400000.0625
202.6011519432068,188.97000122070312,-2728.699951171875,-5863.669921875,-400000.0625,-7340.85986328125,-400000.0625,-400000.0625,-400000.0625
202.73411512374878,151.35000610351562,-2768.280029296875,-5921.02978515625,-400000.0625,-7379.39013671875,-400000.0625,-400000.0625,-400000.0625
202.8759264945984,142.52999877929688,-2789.449951171875,-5941.72998046875,-400000.0625,-7389.1201171875,-400000.0625,-400000.0625,-400000.0625
203.0124237537384,183.38999938964844,-2765.27001953125,-5911.2099609375,-400000.0625,-7358.60009765625,-400000.0625,-400000.0625,-400000.0625
203.1182403564453,230.5500030517578,-2733.989990234375,-5883.740234375,-400000.0625,-7327.1298828125,-400000.0625,-400000.0625,-400000.0625
203.25594091415405,224.8800048828125,-2753.159912109375,-5910.830078125,-400000.0625,-7339.0,-400000.0625,-400000.0625,-400000.0625
203.39218473434448,181.9600067138672,-2802.659912109375,-5967.0,-400000.0625,-7381.490234375,-400000.0625,-400000.0625,-400000.0625
203.524267911911,173.85000610351562,-2819.199951171875,-5980.77978515625,-400000.0625,-7394.64990234375,-400000.0625,-400000.0625,-400000.0625
203.61099314689636,214.86000061035156,-2784.199951171875,-5942.06005859375,-400000.0625,-7359.1201171875,-400000.0625,-400000.0625,-400000.0625
203.6486692428589,253.82000732421875,-2743.580078125,-5900.81005859375,-400000.0625,-7324.169921875,-400000.0625,-400000.0625,-400000.0625
203.70918798446655,238.3699951171875,-2759.409912109375,-5917.68994140625,-400000.0625,-7336.89990234375,-400000.0625,-400000.0625,-400000.0625
203.74222946166992,192.58999633789062,-2803.610107421875,-5968.2900390625,-400000.0625,-7378.10009765625,-400000.0625,-400000.0625,-400000.0625
203.76137852668762,179.42999267578125,-2813.2900390625,-5982.259765625,-400000.0625,-7384.72998046875,-400000.0625,-400000.0625,-400000.0625
203.81467938423157,220.00999450683594,-2778.47998046875,-5944.5400390625,-400000.0625,-7356.60009765625,-400000.0625,-400000.0625,-400000.0625
203.83807277679443,251.91000366210938,-2742.199951171875,-5908.5400390625,-400000.0625,-7331.22998046875,-400000.0625,-400000.0625,-400000.0625
203.8656497001648,236.64999389648438,-2756.830078125,-5924.31982421875,-400000.0625,-7342.33984375,-400000.0625,-400000.0625,-400000.0625
203.91758942604065,190.39999389648438,-2803.139892578125,-5974.2001953125,-400000.0625,-7380.52978515625,-400000.0625,-400000.0625,-400000.0625
203.9370412826538,177.6199951171875,-2815.199951171875,-5987.8798828125,-400000.0625,-7393.4599609375,-400000.0625,-400000.0625,-400000.0625
203.957266330719,216.8699951171875,-2779.43994140625,-5948.58984375,-400000.0625,-7364.89013671875,-400000.0625,-400000.0625,-400000.0625
203.9835991859436,252.8699951171875,-2744.340087890625,-5908.2001953125,-400000.0625,-7327.7001953125,-400000.0625,-400000.0625,-400000.0625
204.02655148506165,240.4199981689453,-2757.409912109375,-5922.56005859375,-400000.0625,-7336.89990234375,-400000.0625,-400000.0625,-400000.0625
204.0550844669342,197.36000061035156,-2800.800048828125,-5971.6201171875,-400000.0625,-7380.2998046875,-400000.0625,-400000.0625,-400000.0625
204.07691049575806,180.14999389648438,-2816.580078125,-5985.4501953125,-400000.0625,-7391.259765625,-400000.0625,-400000.0625,-400000.0625
204.0993688106537,217.10000610351562,-2780.6298828125,-5944.35009765625,-400000.0625,-7361.3701171875,-400000.0625,-400000.0625,-400000.0625
204.16160488128662,253.05999755859375,-2747.580078125,-5905.43994140625,-400000.0625,-7330.56005859375,-400000.0625,-400000.0625,-400000.0625
204.21757078170776,235.83999633789062,-2763.320068359375,-5927.3701171875,-400000.0625,-7345.06005859375,-400000.0625,-400000.0625,-400000.0625
204.32241868972778,188.16000366210938,-2806.85009765625,-5978.2998046875,-400000.0625,-7385.77978515625,-400000.0625,-400000.0625,-400000.0625
204.4376449584961,176.13999938964844,-2818.35009765625,-5987.02978515625,-400000.0625,-7399.509765625,-400000.0625,-400000.0625,-400000.0625
204.55806350708008,213.77000427246094,-2784.06005859375,-5950.39990234375,-400000.0625,-7362.7998046875,-400000.0625,-400000.0625,-400000.0625
204.66802740097046,247.86000061035156,-2755.02001953125,-5914.259765625,-400000.0625,-7328.22998046875,-400000.0625,-400000.0625,-400000.0625
204.79148983955383,233.5500030517578,-2764.989990234375,-5926.89990234375,-400000.0625,-7345.009765625,-400000.0625,-400000.0625,-400000.0625
204.90423250198364,190.8800048828125,-2809.139892578125,-5973.72021484375,-400000.0625,-7385.39990234375,-400000.0625,-400000.0625,-400000.0625
205.01906514167786,173.6199951171875,-2818.300048828125,-5985.68994140625,-400000.0625,-7394.27001953125,-400000.0625,-400000.0625,-400000.0625
205.13092756271362,208.13999938964844,-2783.820068359375,-5945.77978515625,-400000.0625,-7364.18017578125,-400000.0625,-400000.0625,-400000.0625
205.24831104278564,248.5800018310547,-2746.8701171875,-5903.2001953125,-400000.0625,-7328.31982421875,-400000.0625,-400000.0625,-400000.0625
205.36898112297058,233.22000122070312,-2757.030029296875,-5919.41015625,-400000.0625,-7341.9599609375,-400000.0625,-400000.0625,-400000.0625
205.48837780952454,188.97000122070312,-2805.81005859375,-5973.2900390625,-400000.0625,-7384.72998046875,-400000.0625,-400000.0625,-400000.0625
205.6154866218567,172.08999633789062,-2820.43994140625,-5988.41015625,-400000.0625,-7398.1298828125,-400000.0625,-400000.0625,-400000.0625
205.7310872077942,209.3800048828125,-2789.449951171875,-5952.41015625,-400000.0625,-7368.89990234375,-400000.0625,-400000.0625,-400000.0625
205.8409857749939,248.0,-2755.7900390625,-5913.93017578125,-400000.0625,-7332.85009765625,-400000.0625,-400000.0625,-400000.0625
205.9785885810852,235.3699951171875,-2769.280029296875,-5927.08984375,-400000.0625,-7343.33984375,-400000.0625,-400000.0625,-400000.0625
206.0991973876953,189.69000244140625,-2810.909912109375,-5975.43994140625,-400000.0625,-7381.33984375,-400000.0625,-400000.0625,-400000.0625
206.2278413772583,173.47000122070312,-2823.2099609375,-5992.7001953125,-400000.0625,-7395.7001953125,-400000.0625,-400000.0625,-400000.0625
206.35544443130493,212.24000549316406,-2784.25,-5947.2998046875,-400000.0625,-7362.64990234375,-400000.0625,-400000.0625,-400000.0625
206.48564505577087,249.52999877929688,-2755.1201171875,-5911.68017578125,-400000.0625,-7333.27978515625,-400000.0625,-400000.0625,-400000.0625
206.59326100349426,240.89999389648438,-2766.090087890625,-5924.02978515625,-400000.0625,-7350.64013671875,-400000.0625,-400000.0625,-400000.0625
206.72617626190186,196.22000122070312,-2805.090087890625,-5972.81982421875,-400000.0625,-7388.64013671875,-400000.0625,-400000.0625,-400000.0625
206.8545117378235,179.47999572753906,-2822.300048828125,-5988.8798828125,-400000.0625,-7397.990234375,-400000.0625,-400000.0625,-400000.0625
207.0035798549652,216.77000427246094,-2784.43994140625,-5947.68994140625,-400000.0625,-7365.56005859375,-400000.0625,-400000.0625,-400000.0625
207.13799118995667,253.33999633789062,-2750.02001953125,-5910.43994140625,-400000.0625,-7335.18994140625,-400000.0625,-400000.0625,-400000.0625
207.2647840976715,241.7100067138672,-2764.419921875,-5926.0400390625,-400000.0625,-7338.85986328125,-400000.0625,-400000.0625,-400000.0625
207.37950110435486,194.92999267578125,-2806.3798828125,-5974.009765625,-400000.0625,-7377.10009765625,-400000.0625,-400000.0625,-400000.0625
207.5145366191864,179.1999969482422,-2817.489990234375,-5986.06982421875,-400000.0625,-7396.02978515625,-400000.0625,-400000.0625,-400000.0625
207.62911224365234,217.52999877929688,-2784.679931640625,-5947.2998046875,-400000.0625,-7364.4599609375,-400000.0625,-400000.0625,-400000.0625
207.75782561302185,256.010009765625,-2752.39990234375,-5909.39990234375,-400000.0625,-7328.7001953125,-400000.0625,-400000.0625,-400000.0625
207.87785696983337,241.47000122070312,-2763.1298828125,-5923.3701171875,-400000.0625,-7340.9599609375,-400000.0625,-400000.0625,-400000.0625
208.0181930065155,195.1699981689453,-2808.52001953125,-5971.3798828125,-400000.0625,-7381.39013671875,-400000.0625,-400000.0625,-400000.0625
208.13551354408264,181.33999633789062,-2823.969970703125,-5988.7900390625,-400000.0625,-7394.35986328125,-400000.0625,-400000.0625,-400000.0625
208.2745225429535,217.10000610351562,-2795.4599609375,-5955.7900390625,-400000.0625,-7365.60986328125,-400000.0625,-400000.0625,-400000.0625
208.39176058769226,254.8699951171875,-2756.2099609375,-5915.31005859375,-400000.0625,-7335.47021484375,-400000.0625,-400000.0625,-400000.0625
208.52605271339417,237.3699951171875,-2757.840087890625,-5918.5498046875,-400000.0625,-7340.240234375,-400000.0625,-400000.0625,-400000.0625
208.64905858039856,185.00999450683594,-2794.219970703125,-5962.27978515625,-400000.0625,-7383.43994140625,-400000.0625,-400000.0625,-400000.0625
208.7713966369629,165.41000366210938,-2808.429931640625,-5977.009765625,-400000.0625,-7397.1298828125,-400000.0625,-400000.0625,-400000.0625
208.88298892974854,198.97999572753906,-2769.89990234375,-5933.52001953125,-400000.0625,-7359.02978515625,-400000.0625,-400000.0625,-400000.0625
209.01823377609253,231.92999267578125,-2737.949951171875,-5893.52001953125,-400000.0625,-7328.1298828125,-400000.0625,-400000.0625,-400000.0625
209.1503689289093,216.1999969482422,-2745.2900390625,-5901.14990234375,-400000.0625,-7333.7998046875,-400000.0625,-400000.0625,-400000.0625
209.25278687477112,172.80999755859375,-2788.159912109375,-5952.64990234375,-400000.0625,-7371.89990234375,-400000.0625,-400000.0625,-400000.0625
209.32016730308533,156.74000549316406,-2798.64990234375,-5968.2900390625,-400000.0625,-7389.68994140625,-400000.0625,-400000.0625,-400000.0625
209.34824299812317,193.1699981689453,-2767.280029296875,-5929.7998046875,-400000.0625,-7364.75,-400000.0625,-400000.0625,-400000.0625
209.37527585029602,230.4600067138672,-2733.659912109375,-5889.7998046875,-400000.0625,-7330.7001953125,-400000.0625,-400000.0625,-400000.0625
209.42719864845276,219.25,-2742.530029296875,-5903.10009765625,-400000.0625,-7337.7099609375,-400000.0625,-400000.0625,-400000.0625
209.45334386825562,173.22999572753906,-2791.1201171875,-5954.93017578125,-400000.0625,-7379.490234375,-400000.0625,-400000.0625,-400000.0625
209.48174715042114,152.8699951171875,-2803.659912109375,-5969.18994140625,-400000.0625,-7390.4501953125,-400000.0625,-400000.0625,-400000.0625
209.5255959033966,190.63999938964844,-2769.3798828125,-5928.419921875,-400000.0625,-7363.02978515625,-400000.0625,-400000.0625,-400000.0625
209.55756378173828,234.41000366210938,-2733.330078125,-5886.41015625,-400000.0625,-7328.02978515625,-400000.0625,-400000.0625,-400000.0625
209.57785153388977,225.5399932861328,-2745.340087890625,-5899.330078125,-400000.0625,-7331.27978515625,-400000.0625,-400000.0625,-400000.0625
209.60323524475098,174.80999755859375,-2791.5,-5951.60009765625,-400000.0625,-7376.240234375,-400000.0625,-400000.0625,-400000.0625
209.64253854751587,155.63999938964844,-2808.0,-5968.0,-400000.0625,-7396.83984375,-400000.0625,-400000.0625,-400000.0625
209.66802620887756,190.58999633789062,-2770.280029296875,-5927.66015625,-400000.0625,-7363.60986328125,-400000.0625,-400000.0625,-400000.0625
209.69456386566162,230.69000244140625,-2734.469970703125,-5888.990234375,-400000.0625,-7328.7001953125,-400000.0625,-400000.0625,-400000.0625
209.71869921684265,218.3000030517578,-2750.969970703125,-5902.85986328125,-400000.0625,-7339.18994140625,-400000.0625,-400000.0625,-400000.0625
209.7880563735962,172.3800048828125,-2794.929931640625,-5950.7900390625,-400000.0625,-7376.72021484375,-400000.0625,-400000.0625,-400000.0625
209.84284043312073,153.67999267578125,-2805.280029296875,-5965.0,-400000.0625,-7385.68017578125,-400000.0625,-400000.0625,-400000.0625
209.96375608444214,192.36000061035156,-2768.469970703125,-5928.47021484375,-400000.0625,-7358.02978515625,-400000.0625,-400000.0625,-400000.0625
210.09419178962708,234.75,-2732.610107421875,-5886.7900390625,-400000.0625,-7329.31982421875,-400000.0625,-400000.0625,-400000.0625
210.21279335021973,220.11000061035156,-2747.969970703125,-5899.9501953125,-400000.0625,-7341.14990234375,-400000.0625,-400000.0625,-400000.0625
210.3395276069641,173.6199951171875,-2792.5,-5950.7900390625,-400000.0625,-7378.91015625,-400000.0625,-400000.0625,-400000.0625
210.4746870994568,158.25999450683594,-2809.239990234375,-5966.7099609375,-400000.0625,-7392.4599609375,-400000.0625,-400000.0625,-400000.0625
210.59782528877258,193.25999450683594,-2776.47998046875,-5932.81005859375,-400000.0625,-7363.89013671875,-400000.0625,-400000.0625,-400000.0625
210.72829222679138,232.27000427246094,-2735.7099609375,-5890.7998046875,-400000.0625,-7328.080078125,-400000.0625,-400000.0625,-400000.0625
210.851726770401,219.14999389648438,-2749.8701171875,-5901.6201171875,-400000.0625,-7336.759765625,-400000.0625,-400000.0625,-400000.0625
210.97283840179443,175.08999633789062,-2793.8798828125,-5951.1201171875,-400000.0625,-7379.14990234375,-400000.0625,-400000.0625,-400000.0625
211.09498953819275,155.8300018310547,-2807.669921875,-5969.240234375,-400000.0625,-7396.080078125,-400000.0625,-400000.0625,-400000.0625
211.22220492362976,191.5500030517578,-2778.010009765625,-5933.0,-400000.0625,-7367.9501953125,-400000.0625,-400000.0625,-400000.0625
211.35083866119385,228.8300018310547,-2740.050048828125,-5891.27978515625,-400000.0625,-7332.330078125,-400000.0625,-400000.0625,-400000.0625
211.46888971328735,216.25,-2754.159912109375,-5901.85986328125,-400000.0625,-7336.9501953125,-400000.0625,-400000.0625,-400000.0625
211.59179139137268,169.0399932861328,-2799.1298828125,-5952.259765625,-400000.0625,-7373.47998046875,-400000.0625,-400000.0625,-400000.0625
211.71686840057373,151.67999267578125,-2814.8701171875,-5973.47998046875,-400000.0625,-7386.58984375,-400000.0625,-400000.0625,-400000.0625
211.8492214679718,182.2899932861328,-2785.35009765625,-5937.10009765625,-400000.0625,-7360.75,-400000.0625,-400000.0625,-400000.0625
211.98916697502136,221.39999389648438,-2749.5400390625,-5895.89990234375,-400000.0625,-7330.990234375,-400000.0625,-400000.0625,-400000.0625
212.12439274787903,211.47999572753906,-2754.929931640625,-5906.77001953125,-400000.0625,-7339.10009765625,-400000.0625,-400000.0625,-400000.0625
212.24126815795898,164.6999969482422,-2796.75,-5953.5498046875,-400000.0625,-7377.669921875,-400000.0625,-400000.0625,-400000.0625
212.37566900253296,149.05999755859375,-2815.389892578125,-5973.85986328125,-400000.0625,-7394.60009765625,-400000.0625,-400000.0625,-400000.0625
212.50622963905334,184.67999267578125,-2778.6298828125,-5933.9501953125,-400000.0625,-7362.22021484375,-400000.0625,-400000.0625,-400000.0625
212.64122939109802,224.72999572753906,-2743.199951171875,-5894.7998046875,-400000.0625,-7326.64990234375,-400000.0625,-400000.0625,-400000.0625
212.78523468971252,215.82000732421875,-2753.2099609375,-5905.2998046875,-400000.0625,-7332.27978515625,-400000.0625,-400000.0625,-400000.0625
212.92495918273926,171.8000030517578,-2799.56005859375,-5953.740234375,-400000.0625,-7371.0,-400000.0625,-400000.0625,-400000.0625
213.0593569278717,149.8699951171875,-2817.8701171875,-5971.81005859375,-400000.0625,-7391.5,-400000.0625,-400000.0625,-400000.0625
213.18949627876282,182.10000610351562,-2781.580078125,-5934.56982421875,-400000.0625,-7365.31982421875,-400000.0625,-400000.0625,-400000.0625
213.3393256664276,222.35000610351562,-2748.06005859375,-5895.759765625,-400000.0625,-7328.93994140625,-400000.0625,-400000.0625,-400000.0625
213.4694414138794,211.10000610351562,-2761.080078125,-5909.72998046875,-400000.0625,-7337.6201171875,-400000.0625,-400000.0625,-400000.0625
213.5827112197876,166.55999755859375,-2803.52001953125,-5957.02978515625,-400000.0625,-7377.91015625,-400000.0625,-400000.0625,-400000.0625
213.71101880073547,152.77999877929688,-2820.35009765625,-5975.8701171875,-400000.0625,-7393.35986328125,-400000.0625,-400000.0625,-400000.0625
213.83382320404053,183.8699951171875,-2788.5400390625,-5941.580078125,-400000.0625,-7361.22021484375,-400000.0625,-400000.0625,-400000.0625
213.9764325618744,224.39999389648438,-2751.110107421875,-5897.14013671875,-400000.0625,-7327.89013671875,-400000.0625,-400000.0625,-400000.0625
214.097186088562,213.52999877929688,-2759.699951171875,-5905.33984375,-400000.0625,-7334.81005859375,-400000.0625,-400000.0625,-400000.0625
214.2272825241089,165.88999938964844,-2806.0400390625,-5956.75,-400000.0625,-7377.2001953125,-400000.0625,-400000.0625,-400000.0625
214.35738396644592,144.2899932861328,-2825.1201171875,-5981.2099609375,-400000.0625,-7392.83984375,-400000.0625,-400000.0625,-400000.0625
214.49396896362305,176.42999267578125,-2796.360107421875,-5946.72998046875,-400000.0625,-7360.7900390625,-400000.0625,-400000.0625,-400000.0625
214.62738513946533,212.52999877929688,-2767.3701171875,-5904.52978515625,-400000.0625,-7329.18017578125,-400000.0625,-400000.0625,-400000.0625
214.7584297657013,206.57000732421875,-2774.239990234375,-5914.259765625,-400000.0625,-7337.85986328125,-400000.0625,-400000.0625,-400000.0625
214.8919084072113,171.7100067138672,-2809.949951171875,-5964.66015625,-400000.0625,-7375.10009765625,-400000.0625,-400000.0625,-400000.0625
214.95432877540588,159.92999267578125,-2825.929931640625,-5987.31005859375,-400000.0625,-7389.58984375,-400000.0625,-400000.0625,-400000.0625
214.98258352279663,194.25999450683594,-2803.52001953125,-5956.35986328125,-400000.0625,-7363.3701171875,-400000.0625,-400000.0625,-400000.0625
215.01175045967102,235.61000061035156,-2770.949951171875,-5919.5,-400000.0625,-7330.7001953125,-400000.0625,-400000.0625,-400000.0625
215.05443167686462,233.22000122070312,-2782.6298828125,-5930.47021484375,-400000.0625,-7335.22998046875,-400000.0625,-400000.0625,-400000.0625
215.08287405967712,192.5500030517578,-2828.68994140625,-5983.31005859375,-400000.0625,-7374.9599609375,-400000.0625,-400000.0625,-400000.0625
215.11040496826172,176.86000061035156,-2849.669921875,-6005.0,-400000.0625,-7395.22021484375,-400000.0625,-400000.0625,-400000.0625
215.14446997642517,209.0500030517578,-2818.06005859375,-5969.10009765625,-400000.0625,-7362.93994140625,-400000.0625,-400000.0625,-400000.0625
215.2140669822693,244.57000732421875,-2781.580078125,-5930.7099609375,-400000.0625,-7327.56005859375,-400000.0625,-400000.0625,-400000.0625
215.2403166294098,234.1300048828125,-2784.35009765625,-5940.6298828125,-400000.0625,-7334.330078125,-400000.0625,-400000.0625,-400000.0625
215.2623474597931,190.16000366210938,-2830.080078125,-5990.35986328125,-400000.0625,-7377.2001953125,-400000.0625,-400000.0625,-400000.0625
215.30430340766907,171.52000427246094,-2843.330078125,-6005.81005859375,-400000.0625,-7393.22021484375,-400000.0625,-400000.0625,-400000.0625
215.32189750671387,207.89999389648438,-2812.530029296875,-5970.72021484375,-400000.0625,-7363.1298828125,-400000.0625,-400000.0625,-400000.0625
215.34575366973877,249.91000366210938,-2772.7099609375,-5927.85009765625,-400000.0625,-7328.75,-400000.0625,-400000.0625,-400000.0625
215.36770367622375,242.4199981689453,-2775.3798828125,-5933.669921875,-400000.0625,-7334.81005859375,-400000.0625,-400000.0625,-400000.0625
215.41860389709473,194.4499969482422,-2823.68994140625,-5984.8798828125,-400000.0625,-7372.52001953125,-400000.0625,-400000.0625,-400000.0625
215.4679834842682,177.6699981689453,-2845.10009765625,-6006.2900390625,-400000.0625,-7390.830078125,-400000.0625,-400000.0625,-400000.0625
215.57370615005493,211.0,-2814.10009765625,-5973.6298828125,-400000.0625,-7366.22998046875,-400000.0625,-400000.0625,-400000.0625
215.6846387386322,247.6699981689453,-2775.47998046875,-5929.66015625,-400000.0625,-7328.1298828125,-400000.0625,-400000.0625,-400000.0625
215.79767179489136,241.17999267578125,-2784.300048828125,-5938.14990234375,-400000.0625,-7336.89990234375,-400000.0625,-400000.0625,-400000.0625
215.9195671081543,196.64999389648438,-2827.68994140625,-5987.740234375,-400000.0625,-7378.9599609375,-400000.0625,-400000.0625,-400000.0625
216.02495336532593,180.14999389648438,-2843.330078125,-6003.85986328125,-400000.0625,-7393.02978515625,-400000.0625,-400000.0625,-400000.0625
216.14039540290833,216.2899932861328,-2809.429931640625,-5966.22998046875,-400000.0625,-7357.31005859375,-400000.0625,-400000.0625,-400000.0625
216.2564914226532,253.33999633789062,-2772.760009765625,-5926.75,-400000.0625,-7322.740234375,-400000.0625,-400000.0625,-400000.0625
216.37274432182312,246.3300018310547,-2779.6298828125,-5933.08984375,-400000.0625,-7331.66015625,-400000.0625,-400000.0625,-400000.0625
216.50232815742493,204.66000366210938,-2819.590087890625,-5980.490234375,-400000.0625,-7376.0,-400000.0625,-400000.0625,-400000.0625
216.62055611610413,179.9600067138672,-2841.280029296875,-6003.47998046875,-400000.0625,-7399.22998046875,-400000.0625,-400000.0625,-400000.0625
216.74888706207275,211.6199951171875,-2808.669921875,-5968.330078125,-400000.0625,-7362.4599609375,-400000.0625,-400000.0625,-400000.0625
216.88286685943604,253.49000549316406,-2774.050048828125,-5928.08984375,-400000.0625,-7322.64990234375,-400000.0625,-400000.0625,-400000.0625
217.01857447624207,244.13999938964844,-2782.389892578125,-5939.2001953125,-400000.0625,-7333.14013671875,-400000.0625,-400000.0625,-400000.0625
217.15371179580688,200.17999267578125,-2824.35009765625,-5987.169921875,-400000.0625,-7370.89990234375,-400000.0625,-400000.0625,-400000.0625
217.2952482700348,179.77000427246094,-2842.760009765625,-6006.0498046875,-400000.0625,-7391.740234375,-400000.0625,-400000.0625,-400000.0625
217.4250934123993,217.49000549316406,-2811.580078125,-5969.3798828125,-400000.0625,-7364.1298828125,-400000.0625,-400000.0625,-400000.0625
217.5551130771637,254.82000732421875,-2773.090087890625,-5926.509765625,-400000.0625,-7329.75,-400000.0625,-400000.0625,-400000.0625
217.6860864162445,245.6699981689453,-2780.340087890625,-5934.43017578125,-400000.0625,-7338.0,-400000.0625,-400000.0625,-400000.0625
217.82049107551575,198.41000366210938,-2828.68994140625,-5986.31005859375,-400000.0625,-7374.240234375,-400000.0625,-400000.0625,-400000.0625
217.9610915184021,179.0,-2846.6201171875,-6004.759765625,-400000.0625,-7391.259765625,-400000.0625,-400000.0625,-400000.0625
218.09509372711182,209.52000427246094,-2812.669921875,-5969.6201171875,-400000.0625,-7366.7099609375,-400000.0625,-400000.0625,-400000.0625
218.23569345474243,249.1999969482422,-2777.860107421875,-5928.3701171875,-400000.0625,-7329.27001953125,-400000.0625,-400000.0625,-400000.0625
218.37346029281616,245.2899932861328,-2785.300048828125,-5937.14990234375,-400000.0625,-7330.60986328125,-400000.0625,-400000.0625,-400000.0625
218.5068485736847,201.27000427246094,-2827.550048828125,-5983.8798828125,-400000.0625,-7371.240234375,-400000.0625,-400000.0625,-400000.0625
218.61916041374207,179.9600067138672,-2845.9599609375,-6004.85986328125,-400000.0625,-7388.39990234375,-400000.0625,-400000.0625,-400000.0625
218.74871277809143,210.86000061035156,-2816.389892578125,-5970.56982421875,-400000.0625,-7360.02978515625,-400000.0625,-400000.0625,-400000.0625
218.877849817276,251.14999389648438,-2782.199951171875,-5930.66015625,-400000.0625,-7334.47021484375,-400000.0625,-400000.0625,-400000.0625
219.0234386920929,241.8000030517578,-2782.389892578125,-5938.0498046875,-400000.0625,-7336.669921875,-400000.0625,-400000.0625,-400000.0625
219.14918875694275,197.88999938964844,-2825.550048828125,-5985.5498046875,-400000.0625,-7373.91015625,-400000.0625,-400000.0625,-400000.0625
219.27327275276184,179.77000427246094,-2849.199951171875,-6008.91015625,-400000.0625,-7389.31005859375,-400000.0625,-400000.0625,-400000.0625
219.409024477005,215.38999938964844,-2816.530029296875,-5970.47998046875,-400000.0625,-7363.419921875,-400000.0625,-400000.0625,-400000.0625
219.5375578403473,253.25,-2778.239990234375,-5929.759765625,-400000.0625,-7329.7998046875,-400000.0625,-400000.0625,-400000.0625
219.64879488945007,248.6199951171875,-2788.969970703125,-5937.85986328125,-400000.0625,-7335.14013671875,-400000.0625,-400000.0625,-400000.0625
219.77778244018555,204.1300048828125,-2826.929931640625,-5981.39990234375,-400000.0625,-7372.18994140625,-400000.0625,-400000.0625,-400000.0625
219.91734790802002,185.1999969482422,-2841.570068359375,-6000.81005859375,-400000.0625,-7388.5400390625,-400000.0625,-400000.0625,-400000.0625
220.04218769073486,214.72000122070312,-2818.389892578125,-5971.77001953125,-400000.0625,-7362.22021484375,-400000.0625,-400000.0625,-400000.0625
220.16909456253052,247.91000366210938,-2796.080078125,-5935.0498046875,-400000.0625,-7336.0,-400000.0625,-400000.0625,-400000.0625
220.277517080307,234.4600067138672,-2792.929931640625,-5936.47998046875,-400000.0625,-7341.33984375,-400000.0625,-400000.0625,-400000.0625
220.3989861011505,186.8699951171875,-2813.199951171875,-5971.81005859375,-400000.0625,-7371.14013671875,-400000.0625,-400000.0625,-400000.0625
220.51187920570374,163.1300048828125,-2828.219970703125,-5985.31005859375,-400000.0625,-7386.5400390625,-400000.0625,-400000.0625,-400000.0625
220.56834888458252,185.3000030517578,-2782.389892578125,-5939.33984375,-400000.0625,-7357.8798828125,-400000.0625,-400000.0625,-400000.0625
220.5941412448883,214.52999877929688,-2729.699951171875,-5887.7001953125,-400000.0625,-7322.740234375,-400000.0625,-400000.0625,-400000.0625
220.61773991584778,202.3699951171875,-2739.429931640625,-5892.66015625,-400000.0625,-7334.85009765625,-400000.0625,-400000.0625,-400000.0625
220.68674111366272,149.72999572753906,-2781.679931640625,-5928.9501953125,-400000.0625,-7374.47998046875,-400000.0625,-400000.0625,-400000.0625
220.70903182029724,120.0199966430664,-2788.639892578125,-5943.2998046875,-400000.0625,-7385.4501953125,-400000.0625,-400000.0625,-400000.0625
220.73717737197876,144.2899932861328,-2754.39990234375,-5906.2001953125,-400000.0625,-7353.35009765625,-400000.0625,-400000.0625,-400000.0625
220.78804731369019,180.44000244140625,-2725.699951171875,-5862.18994140625,-400000.0625,-7326.22021484375,-400000.0625,-400000.0625,-400000.0625
220.8112165927887,171.3800048828125,-2734.949951171875,-5872.2001953125,-400000.0625,-7335.47021484375,-400000.0625,-400000.0625,-400000.0625
220.84035205841064,126.16999816894531,-2775.570068359375,-5921.22021484375,-400000.0625,-7371.9501953125,-400000.0625,-400000.0625,-400000.0625
220.8917498588562,104.13999938964844,-2795.93994140625,-5940.8701171875,-400000.0625,-7391.740234375,-400000.0625,-400000.0625,-400000.0625
220.91685891151428,133.94000244140625,-2766.469970703125,-5908.5400390625,-400000.0625,-7367.52001953125,-400000.0625,-400000.0625,-400000.0625
220.93895554542542,172.80999755859375,-2731.56005859375,-5867.2001953125,-400000.0625,-7330.7001953125,-400000.0625,-400000.0625,-400000.0625
220.96122884750366,164.7899932861328,-2739.429931640625,-5871.14990234375,-400000.0625,-7333.47021484375,-400000.0625,-400000.0625,-400000.0625
221.00959634780884,125.93000030517578,-2780.719970703125,-5916.169921875,-400000.0625,-7368.08984375,-400000.0625,-400000.0625,-400000.0625
221.06880640983582,109.1500015258789,-2794.699951171875,-5933.7099609375,-400000.0625,-7381.39013671875,-400000.0625,-400000.0625,-400000.0625
221.17818522453308,139.13999938964844,-2764.179931640625,-5901.18994140625,-400000.0625,-7359.4599609375,-400000.0625,-400000.0625,-400000.0625
221.28522157669067,178.24000549316406,-2727.64990234375,-5859.47021484375,-400000.0625,-7328.02978515625,-400000.0625,-400000.0625,-400000.0625
221.3937544822693,170.13999938964844,-2734.7099609375,-5868.0498046875,-400000.0625,-7337.0498046875,-400000.0625,-400000.0625,-400000.0625
221.50868129730225,124.55000305175781,-2779.43994140625,-5916.2099609375,-400000.0625,-7374.2900390625,-400000.0625,-400000.0625,-400000.0625
221.63753533363342,105.70999908447266,-2798.699951171875,-5936.10009765625,-400000.0625,-7387.68994140625,-400000.0625,-400000.0625,-400000.0625
221.7674422264099,134.75,-2771.22998046875,-5903.9599609375,-400000.0625,-7359.080078125,-400000.0625,-400000.0625,-400000.0625
221.8875870704651,171.47000122070312,-2735.85009765625,-5864.2900390625,-400000.0625,-7327.3701171875,-400000.0625,-400000.0625,-400000.0625
222.0261266231537,164.1300048828125,-2741.239990234375,-5870.580078125,-400000.0625,-7330.56005859375,-400000.0625,-400000.0625,-400000.0625
222.15860176086426,123.26000213623047,-2778.340087890625,-5911.68017578125,-400000.0625,-7366.60986328125,-400000.0625,-400000.0625,-400000.0625
222.2684714794159,103.47000122070312,-2796.030029296875,-5932.14013671875,-400000.0625,-7387.830078125,-400000.0625,-400000.0625,-400000.0625
222.38596510887146,133.61000061035156,-2771.81005859375,-5901.33984375,-400000.0625,-7366.85009765625,-400000.0625,-400000.0625,-400000.0625
222.5170934200287,172.47000122070312,-2738.760009765625,-5862.43017578125,-400000.0625,-7330.27978515625,-400000.0625,-400000.0625,-400000.0625
222.62621521949768,168.85000610351562,-2742.429931640625,-5869.009765625,-400000.0625,-7332.27978515625,-400000.0625,-400000.0625,-400000.0625
222.75544691085815,128.64999389648438,-2779.10009765625,-5910.43994140625,-400000.0625,-7367.7099609375,-400000.0625,-400000.0625,-400000.0625
222.88531804084778,108.43000030517578,-2800.85009765625,-5932.669921875,-400000.0625,-7384.5400390625,-400000.0625,-400000.0625,-400000.0625
223.02371835708618,133.17999267578125,-2778.6298828125,-5906.33984375,-400000.0625,-7361.89013671875,-400000.0625,-400000.0625,-400000.0625
223.1511471271515,172.0,-2741.9599609375,-5864.6201171875,-400000.0625,-7329.56005859375,-400000.0625,-400000.0625,-400000.0625
223.30675268173218,170.3699951171875,-2745.77001953125,-5871.5400390625,-400000.0625,-7335.89990234375,-400000.0625,-400000.0625,-400000.0625
223.42719078063965,128.6999969482422,-2787.68994140625,-5914.31005859375,-400000.0625,-7373.14013671875,-400000.0625,-400000.0625,-400000.0625
223.54202818870544,107.66999816894531,-2800.85009765625,-5932.759765625,-400000.0625,-7390.93017578125,-400000.0625,-400000.0625,-400000.0625
223.66689658164978,135.99000549316406,-2773.909912109375,-5905.25,-400000.0625,-7365.509765625,-400000.0625,-400000.0625,-400000.0625
223.80447912216187,174.9499969482422,-2746.010009765625,-5869.68017578125,-400000.0625,-7327.7001953125,-400000.0625,-400000.0625,-400000.0625
223.9348976612091,168.0399932861328,-2747.25,-5869.10009765625,-400000.0625,-7329.31982421875,-400000.0625,-400000.0625,-400000.0625
224.0690884590149,128.41000366210938,-2786.39990234375,-5910.97021484375,-400000.0625,-7369.56982421875,-400000.0625,-400000.0625,-400000.0625
224.19832921028137,111.05999755859375,-2802.0400390625,-5932.759765625,-400000.0625,-7389.4501953125,-400000.0625,-400000.0625,-400000.0625
224.3323633670807,135.55999755859375,-2776.239990234375,-5901.91015625,-400000.0625,-7363.509765625,-400000.0625,-400000.0625,-400000.0625
224.47386384010315,171.9499969482422,-2741.909912109375,-5861.9501953125,-400000.0625,-7328.4599609375,-400000.0625,-400000.0625,-400000.0625
224.60498356819153,170.13999938964844,-2744.25,-5864.56982421875,-400000.0625,-7330.56005859375,-400000.0625,-400000.0625,-400000.0625
224.7304332256317,132.75,-2782.25,-5903.2900390625,-400000.0625,-7367.330078125,-400000.0625,-400000.0625,-400000.0625
224.8560438156128,111.87000274658203,-2802.090087890625,-5925.7998046875,-400000.0625,-7387.830078125,-400000.0625,-400000.0625,-400000.0625
224.9864513874054,134.3699951171875,-2775.760009765625,-5901.39013671875,-400000.0625,-7361.080078125,-400000.0625,-400000.0625,-400000.0625
225.11684107780457,171.13999938964844,-2736.52001953125,-5858.89990234375,-400000.0625,-7328.60986328125,-400000.0625,-400000.0625,-400000.0625
225.23632836341858,165.6999969482422,-2741.429931640625,-5862.43017578125,-400000.0625,-7333.3701171875,-400000.0625,-400000.0625,-400000.0625
225.35539150238037,127.5999984741211,-2779.820068359375,-5903.0498046875,-400000.0625,-7369.47021484375,-400000.0625,-400000.0625,-400000.0625
225.48205757141113,104.27999877929688,-2801.89990234375,-5922.83984375,-400000.0625,-7381.5400390625,-400000.0625,-400000.0625,-400000.0625
225.5935709476471,133.75,-2776.14990234375,-5895.56982421875,-400000.0625,-7359.080078125,-400000.0625,-400000.0625,-400000.0625
225.72837090492249,174.19000244140625,-2743.530029296875,-5857.66015625,-400000.0625,-7330.1298828125,-400000.0625,-400000.0625,-400000.0625
225.85774660110474,171.3300018310547,-2753.1201171875,-5861.18994140625,-400000.0625,-7334.9501953125,-400000.0625,-400000.0625,-400000.0625
226.00757479667664,130.22000122070312,-2781.919921875,-5894.47021484375,-400000.0625,-7368.419921875,-400000.0625,-400000.0625,-400000.0625
226.15150380134583,103.27999877929688,-2781.820068359375,-5907.8701171875,-400000.0625,-7382.39013671875,-400000.0625,-400000.0625,-400000.0625
226.20737743377686,119.11000061035156,-2755.590087890625,-5879.5,-400000.0625,-7353.259765625,-400000.0625,-400000.0625,-400000.0625
226.23051738739014,149.9199981689453,-2722.8798828125,-5840.10986328125,-400000.0625,-7325.509765625,-400000.0625,-400000.0625,-400000.0625
226.2553267478943,145.82000732421875,-2714.25,-5838.2001953125,-400000.0625,-7325.5498046875,-400000.0625,-400000.0625,-400000.0625
226.30456924438477,103.08999633789062,-2755.550048828125,-5875.5400390625,-400000.0625,-7362.89013671875,-400000.0625,-400000.0625,-400000.0625
226.32953596115112,80.01000213623047,-2778.530029296875,-5892.47021484375,-400000.0625,-7380.10009765625,-400000.0625,-400000.0625,-400000.0625
226.348783493042,104.33000183105469,-2748.590087890625,-5864.91015625,-400000.0625,-7357.4599609375,-400000.0625,-400000.0625,-400000.0625
226.3741376399994,140.24000549316406,-2710.010009765625,-5824.3798828125,-400000.0625,-7326.64990234375,-400000.0625,-400000.0625,-400000.0625
226.41762351989746,136.0399932861328,-2712.06005859375,-5825.89990234375,-400000.0625,-7328.22998046875,-400000.0625,-400000.0625,-400000.0625
226.43968725204468,96.61000061035156,-2753.070068359375,-5866.81005859375,-400000.0625,-7359.509765625,-400000.0625,-400000.0625,-400000.0625
226.46417832374573,73.0,-2771.659912109375,-5888.419921875,-400000.0625,-7381.580078125,-400000.0625,-400000.0625,-400000.0625
226.48757600784302,99.61000061035156,-2749.010009765625,-5864.81005859375,-400000.0625,-7363.080078125,-400000.0625,-400000.0625,-400000.0625
226.52658414840698,132.6999969482422,-2720.5,-5829.6201171875,-400000.0625,-7329.56005859375,-400000.0625,-400000.0625,-400000.0625
226.55265378952026,130.64999389648438,-2723.68994140625,-5833.85986328125,-400000.0625,-7330.60986328125,-400000.0625,-400000.0625,-400000.0625
226.5746283531189,93.02999877929688,-2759.080078125,-5875.77978515625,-400000.0625,-7365.66015625,-400000.0625,-400000.0625,-400000.0625
226.60182166099548,75.86000061035156,-2778.389892578125,-5897.0498046875,-400000.0625,-7384.39990234375,-400000.0625,-400000.0625,-400000.0625
226.64033007621765,100.2300033569336,-2754.159912109375,-5867.10009765625,-400000.0625,-7362.64990234375,-400000.0625,-400000.0625,-400000.0625
226.6825885772705,136.3800048828125,-2721.830078125,-5827.3798828125,-400000.0625,-7329.60986328125,-400000.0625,-400000.0625,-400000.0625
226.73186230659485,140.6199951171875,-2718.02001953125,-5826.0400390625,-400000.0625,-7325.93994140625,-400000.0625,-400000.0625,-400000.0625
226.83939409255981,103.27999877929688,-2756.639892578125,-5868.009765625,-400000.0625,-7363.60986328125,-400000.0625,-400000.0625,-400000.0625
226.95282316207886,77.7699966430664,-2779.820068359375,-5893.52001953125,-400000.0625,-7382.35009765625,-400000.0625,-400000.0625,-400000.0625
227.05970406532288,102.19000244140625,-2756.409912109375,-5867.2001953125,-400000.0625,-7358.740234375,-400000.0625,-400000.0625,-400000.0625
227.18214535713196,142.42999267578125,-2720.169921875,-5824.89990234375,-400000.0625,-7329.7998046875,-400000.0625,-400000.0625,-400000.0625
227.30747818946838,143.72000122070312,-2719.02001953125,-5826.81005859375,-400000.0625,-7330.18017578125,-400000.0625,-400000.0625,-400000.0625
227.42994236946106,100.27999877929688,-2759.169921875,-5868.47998046875,-400000.0625,-7367.89990234375,-400000.0625,-400000.0625,-400000.0625
227.54614663124084,76.68000030517578,-2780.820068359375,-5891.85009765625,-400000.0625,-7385.5400390625,-400000.0625,-400000.0625,-400000.0625
227.67711067199707,100.66000366210938,-2755.739990234375,-5867.580078125,-400000.0625,-7361.31982421875,-400000.0625,-400000.0625,-400000.0625
227.80722999572754,142.52999877929688,-2721.97998046875,-5826.08984375,-400000.0625,-7326.22021484375,-400000.0625,-400000.0625,-400000.0625
227.93130207061768,140.6699981689453,-2726.169921875,-5828.6201171875,-400000.0625,-7328.56005859375,-400000.0625,-400000.0625,-400000.0625
228.0502290725708,100.76000213623047,-2761.7900390625,-5868.72021484375,-400000.0625,-7368.18017578125,-400000.0625,-400000.0625,-400000.0625
228.16864776611328,77.30000305175781,-2784.590087890625,-5893.3701171875,-400000.0625,-7384.10986328125,-400000.0625,-400000.0625,-400000.0625
228.3007776737213,100.08999633789062,-2758.840087890625,-5865.3798828125,-400000.0625,-7363.31982421875,-400000.0625,-400000.0625,-400000.0625
228.4356768131256,138.19000244140625,-2718.969970703125,-5821.990234375,-400000.0625,-7335.27978515625,-400000.0625,-400000.0625,-400000.0625
228.55583024024963,137.08999633789062,-2721.639892578125,-5824.0400390625,-400000.0625,-7333.7099609375,-400000.0625,-400000.0625,-400000.0625
228.67581582069397,102.33000183105469,-2757.929931640625,-5863.3798828125,-400000.0625,-7355.830078125,-400000.0625,-400000.0625,-400000.0625
228.80652165412903,76.05999755859375,-2777.199951171875,-5884.97998046875,-400000.0625,-7374.52978515625,-400000.0625,-400000.0625,-400000.0625
228.93663501739502,102.8499984741211,-2754.639892578125,-5860.66015625,-400000.0625,-7362.7998046875,-400000.0625,-400000.0625,-400000.0625
229.0631468296051,142.6199951171875,-2715.780029296875,-5818.75,-400000.0625,-7327.27001953125,-400000.0625,-400000.0625,-400000.0625
229.19493675231934,141.57000732421875,-2723.8798828125,-5821.08984375,-400000.0625,-7327.02978515625,-400000.0625,-400000.0625,-400000.0625
229.34437131881714,101.94999694824219,-2759.5,-5864.2900390625,-400000.0625,-7361.990234375,-400000.0625,-400000.0625,-400000.0625
229.49123406410217,78.30000305175781,-2778.530029296875,-5889.60986328125,-400000.0625,-7386.4501953125,-400000.0625,-400000.0625,-400000.0625
229.61422443389893,102.80999755859375,-2756.2099609375,-5860.85009765625,-400000.0625,-7363.60986328125,-400000.0625,-400000.0625,-400000.0625
229.75763821601868,139.27999877929688,-2723.5,-5822.9501953125,-400000.0625,-7329.18017578125,-400000.0625,-400000.0625,-400000.0625
229.88499212265015,137.52000427246094,-2722.60009765625,-5823.08984375,-400000.0625,-7328.1298828125,-400000.0625,-400000.0625,-400000.0625
230.01902318000793,101.13999938964844,-2754.31005859375,-5860.0400390625,-400000.0625,-7359.35986328125,-400000.0625,-400000.0625,-400000.0625
230.15409755706787,81.68000030517578,-2779.909912109375,-5886.83984375,-400000.0625,-7379.580078125,-400000.0625,-400000.0625,-400000.0625
230.29570722579956,106.80999755859375,-2751.919921875,-5855.0400390625,-400000.0625,-7356.1201171875,-400000.0625,-400000.0625,-400000.0625
230.4185392856598,142.33999633789062,-2716.260009765625,-5814.97998046875,-400000.0625,-7322.93017578125,-400000.0625,-400000.0625,-400000.0625
230.54522514343262,137.66000366210938,-2722.739990234375,-5821.31982421875,-400000.0625,-7328.89013671875,-400000.0625,-400000.0625,-400000.0625
230.67732763290405,98.2300033569336,-2759.27001953125,-5862.08984375,-400000.0625,-7359.22021484375,-400000.0625,-400000.0625,-400000.0625
230.8185477256775,68.70999908447266,-2785.2099609375,-5887.4599609375,-400000.0625,-7380.14990234375,-400000.0625,-400000.0625,-400000.0625
230.94990372657776,91.88999938964844,-2771.89990234375,-5862.3798828125,-400000.0625,-7362.89013671875,-400000.0625,-400000.0625,-400000.0625
231.09381580352783,144.0500030517578,-2736.429931640625,-5826.89990234375,-400000.0625,-7330.27978515625,-400000.0625,-400000.0625,-400000.0625
231.22825622558594,155.16000366210938,-2727.179931640625,-5834.91015625,-400000.0625,-7326.22021484375,-400000.0625,-400000.0625,-400000.0625
231.35348057746887,123.63999938964844,-2766.320068359375,-5881.35986328125,-400000.0625,-7362.31982421875,-400000.0625,-400000.0625,-400000.0625
231.4953694343567,104.94999694824219,-2800.75,-5913.740234375,-400000.0625,-7381.8701171875,-400000.0625,-400000.0625,-400000.0625
231.6392331123352,132.22999572753906,-2789.1201171875,-5898.3798828125,-400000.0625,-7358.740234375,-400000.0625,-400000.0625,-400000.0625
231.75285744667053,179.33999633789062,-2752.39990234375,-5862.0498046875,-400000.0625,-7324.5498046875,-400000.0625,-400000.0625,-400000.0625
231.82194304466248,182.77000427246094,-2755.739990234375,-5867.43017578125,-400000.0625,-7326.1298828125,-400000.0625,-400000.0625,-400000.0625
231.8464138507843,145.14999389648438,-2795.739990234375,-5914.5,-400000.0625,-7360.27001953125,-400000.0625,-400000.0625,-400000.0625
231.87649989128113,126.2699966430664,-2816.489990234375,-5938.81982421875,-400000.0625,-7382.10986328125,-400000.0625,-400000.0625,-400000.0625
231.92293763160706,150.8699951171875,-2792.31005859375,-5911.5400390625,-400000.0625,-7359.93017578125,-400000.0625,-400000.0625,-400000.0625
231.9514195919037,192.4499969482422,-2760.4599609375,-5876.02001953125,-400000.0625,-7327.02978515625,-400000.0625,-400000.0625,-400000.0625
231.97561883926392,191.02000427246094,-2757.8798828125,-5877.10986328125,-400000.0625,-7327.41015625,-400000.0625,-400000.0625,-400000.0625
232.005122423172,151.97000122070312,-2794.4599609375,-5920.97998046875,-400000.0625,-7361.31982421875,-400000.0625,-400000.0625,-400000.0625
232.0498387813568,129.3699951171875,-2816.199951171875,-5947.2998046875,-400000.0625,-7382.10986328125,-400000.0625,-400000.0625,-400000.0625
232.077654838562,154.58999633789062,-2792.550048828125,-5917.60009765625,-400000.0625,-7359.31005859375,-400000.0625,-400000.0625,-400000.0625
232.1032145023346,196.6999969482422,-2754.780029296875,-5873.81982421875,-400000.0625,-7323.4599609375,-400000.0625,-400000.0625,-400000.0625
232.12729716300964,197.83999633789062,-2754.639892578125,-5873.10986328125,-400000.0625,-7328.080078125,-400000.0625,-400000.0625,-400000.0625
232.17543697357178,156.5500030517578,-2795.030029296875,-5918.5,-400000.0625,-7368.27978515625,-400000.0625,-400000.0625,-400000.0625
232.20268177986145,132.47000122070312,-2815.820068359375,-5943.72998046875,-400000.0625,-7384.35009765625,-400000.0625,-400000.0625,-400000.0625
232.23211526870728,157.39999389648438,-2796.219970703125,-5915.5,-400000.0625,-7358.169921875,-400000.0625,-400000.0625,-400000.0625
232.30732655525208,197.36000061035156,-2756.639892578125,-5872.35009765625,-400000.0625,-7327.990234375,-400000.0625,-400000.0625,-400000.0625
232.35440468788147,192.5,-2755.260009765625,-5874.68017578125,-400000.0625,-7326.4599609375,-400000.0625,-400000.0625,-400000.0625
232.46161365509033,152.05999755859375,-2799.4599609375,-5918.68994140625,-400000.0625,-7364.56005859375,-400000.0625,-400000.0625,-400000.0625
232.557537317276,128.94000244140625,-2820.489990234375,-5942.81982421875,-400000.0625,-7387.2099609375,-400000.0625,-400000.0625,-400000.0625
232.61829471588135,153.02000427246094,-2801.280029296875,-5917.7900390625,-400000.0625,-7365.3701171875,-400000.0625,-400000.0625,-400000.0625
232.73031949996948,193.07000732421875,-2759.409912109375,-5873.72998046875,-400000.0625,-7329.60986328125,-400000.0625,-400000.0625,-400000.0625
232.84343433380127,191.97000122070312,-2763.3701171875,-5875.06005859375,-400000.0625,-7328.990234375,-400000.0625,-400000.0625,-400000.0625
232.96990823745728,149.11000061035156,-2800.080078125,-5920.080078125,-400000.0625,-7358.60009765625,-400000.0625,-400000.0625,-400000.0625
233.10051107406616,127.88999938964844,-2822.35009765625,-5946.10986328125,-400000.0625,-7380.14990234375,-400000.0625,-400000.0625,-400000.0625
233.20538067817688,158.8800048828125,-2799.1298828125,-5916.06982421875,-400000.0625,-7364.1298828125,-400000.0625,-400000.0625,-400000.0625
233.32035446166992,199.02999877929688,-2757.60009765625,-5871.25,-400000.0625,-7327.89013671875,-400000.0625,-400000.0625,-400000.0625
233.4382712841034,195.5500030517578,-2759.27001953125,-5872.14990234375,-400000.0625,-7329.27001953125,-400000.0625,-400000.0625,-400000.0625
233.5482268333435,156.1199951171875,-2801.800048828125,-5917.4501953125,-400000.0625,-7364.7998046875,-400000.0625,-400000.0625,-400000.0625
233.66905093193054,132.27000427246094,-2822.639892578125,-5943.5400390625,-400000.0625,-7386.830078125,-400000.0625,-400000.0625,-400000.0625
233.79901313781738,155.97000122070312,-2797.699951171875,-5914.8798828125,-400000.0625,-7362.64990234375,-400000.0625,-400000.0625,-400000.0625
233.9299476146698,196.5500030517578,-2763.1298828125,-5873.009765625,-400000.0625,-7325.93994140625,-400000.0625,-400000.0625,-400000.0625
234.0614619255066,196.7899932861328,-2759.889892578125,-5870.43994140625,-400000.0625,-7322.35986328125,-400000.0625,-400000.0625,-400000.0625
234.18767285346985,155.1199951171875,-2796.699951171875,-5915.35986328125,-400000.0625,-7361.83984375,-400000.0625,-400000.0625,-400000.0625
234.31720781326294,129.3699951171875,-2828.840087890625,-5944.43994140625,-400000.0625,-7387.02001953125,-400000.0625,-400000.0625,-400000.0625
234.46027135849,153.25999450683594,-2806.429931640625,-5918.5498046875,-400000.0625,-7364.85009765625,-400000.0625,-400000.0625,-400000.0625
234.6052691936493,193.74000549316406,-2765.469970703125,-5875.5400390625,-400000.0625,-7329.89013671875,-400000.0625,-400000.0625,-400000.0625
234.72604060173035,195.25999450683594,-2763.1298828125,-5873.81982421875,-400000.0625,-7329.75,-400000.0625,-400000.0625,-400000.0625
234.85809874534607,153.77999877929688,-2803.179931640625,-5916.5,-400000.0625,-7361.02978515625,-400000.0625,-400000.0625,-400000.0625
235.00561690330505,129.1300048828125,-2827.219970703125,-5940.580078125,-400000.0625,-7379.14990234375,-400000.0625,-400000.0625,-400000.0625
235.12975335121155,156.5,-2802.800048828125,-5911.919921875,-400000.0625,-7366.7998046875,-400000.0625,-400000.0625,-400000.0625
235.265380859375,197.5500030517578,-2763.56005859375,-5868.77001953125,-400000.0625,-7329.27001953125,-400000.0625,-400000.0625,-400000.0625
235.3918137550354,197.6999969482422,-2765.27001953125,-5869.580078125,-400000.0625,-7324.740234375,-400000.0625,-400000.0625,-400000.0625
235.52527046203613,156.07000732421875,-2803.56005859375,-5913.2099609375,-400000.0625,-7362.4599609375,-400000.0625,-400000.0625,-400000.0625
235.67292046546936,132.0399932861328,-2827.8798828125,-5940.25,-400000.0625,-7387.4501953125,-400000.0625,-400000.0625,-400000.0625
235.80678749084473,158.1199951171875,-2804.0400390625,-5911.77978515625,-400000.0625,-7364.60986328125,-400000.0625,-400000.0625,-400000.0625
235.92728924751282,195.5,-2764.56005859375,-5867.81982421875,-400000.0625,-7324.7900390625,-400000.0625,-400000.0625,-400000.0625
236.05452275276184,197.22000122070312,-2762.75,-5866.2900390625,-400000.0625,-7326.1298828125,-400000.0625,-400000.0625,-400000.0625
236.1725218296051,155.4499969482422,-2797.27001953125,-5908.72998046875,-400000.0625,-7361.169921875,-400000.0625,-400000.0625,-400000.0625
236.2939648628235,128.1699981689453,-2826.449951171875,-5938.52978515625,-400000.0625,-7390.169921875,-400000.0625,-400000.0625,-400000.0625
236.4178822040558,151.82000732421875,-2817.010009765625,-5916.60009765625,-400000.0625,-7367.47021484375,-400000.0625,-400000.0625,-400000.0625
236.55520606040955,198.50999450683594,-2765.989990234375,-5864.6201171875,-400000.0625,-7324.169921875,-400000.0625,-400000.0625,-400000.0625
236.66902804374695,192.4499969482422,-2757.8798828125,-5862.08984375,-400000.0625,-7316.2099609375,-400000.0625,-400000.0625,-400000.0625
236.78857398033142,143.9600067138672,-2791.739990234375,-5904.77001953125,-400000.0625,-7355.8798828125,-400000.0625,-400000.0625,-400000.0625
236.91742372512817,114.01000213623047,-2811.6201171875,-5928.3701171875,-400000.0625,-7379.39013671875,-400000.0625,-400000.0625,-400000.0625
237.04979395866394,139.0500030517578,-2800.56005859375,-5903.580078125,-400000.0625,-7360.64990234375,-400000.0625,-400000.0625,-400000.0625
237.17605781555176,177.52999877929688,-2764.64990234375,-5860.18994140625,-400000.0625,-7328.31982421875,-400000.0625,-400000.0625,-400000.0625
237.29986238479614,180.6699981689453,-2753.5400390625,-5855.419921875,-400000.0625,-7324.93017578125,-400000.0625,-400000.0625,-400000.0625
237.43198347091675,136.08999633789062,-2789.68994140625,-5898.81005859375,-400000.0625,-7357.41015625,-400000.0625,-400000.0625,-400000.0625
237.48453378677368,111.0999984741211,-2822.02001953125,-5930.0400390625,-400000.0625,-7382.25,-400000.0625,-400000.0625,-400000.0625
237.51352763175964,136.8000030517578,-2801.89990234375,-5902.77001953125,-400000.0625,-7359.89013671875,-400000.0625,-400000.0625,-400000.0625
237.53836750984192,175.08999633789062,-2760.699951171875,-5857.89990234375,-400000.0625,-7326.64990234375,-400000.0625,-400000.0625,-400000.0625
237.59052991867065,173.19000244140625,-2760.1201171875,-5858.27978515625,-400000.0625,-7326.1298828125,-400000.0625,-400000.0625,-400000.0625
237.62104415893555,131.99000549316406,-2805.419921875,-5903.0498046875,-400000.0625,-7363.7998046875,-400000.0625,-400000.0625,-400000.0625
237.6469292640686,108.0,-2831.510009765625,-5932.330078125,-400000.0625,-7383.2001953125,-400000.0625,-400000.0625,-400000.0625
237.69318652153015,132.3699951171875,-2805.090087890625,-5907.68017578125,-400000.0625,-7363.990234375,-400000.0625,-400000.0625,-400000.0625
237.7168869972229,175.9499969482422,-2763.409912109375,-5864.43017578125,-400000.0625,-7330.56005859375,-400000.0625,-400000.0625,-400000.0625
237.7370195388794,176.52999877929688,-2769.0400390625,-5863.18994140625,-400000.0625,-7328.83984375,-400000.0625,-400000.0625,-400000.0625
237.76225757598877,137.27999877929688,-2802.89990234375,-5905.39013671875,-400000.0625,-7363.22021484375,-400000.0625,-400000.0625,-400000.0625
237.81177806854248,112.72000122070312,-2824.68994140625,-5931.240234375,-400000.0625,-7380.81982421875,-400000.0625,-400000.0625,-400000.0625
237.8379328250885,136.13999938964844,-2801.699951171875,-5905.72021484375,-400000.0625,-7362.41015625,-400000.0625,-400000.0625,-400000.0625
237.85656452178955,173.0,-2764.699951171875,-5865.3798828125,-400000.0625,-7329.18017578125,-400000.0625,-400000.0625,-400000.0625
237.883873462677,175.42999267578125,-2770.330078125,-5865.2900390625,-400000.0625,-7328.4599609375,-400000.0625,-400000.0625,-400000.0625
237.93323707580566,138.47000122070312,-2800.419921875,-5902.81982421875,-400000.0625,-7361.64990234375,-400000.0625,-400000.0625,-400000.0625
237.9779863357544,113.7300033569336,-2821.639892578125,-5929.759765625,-400000.0625,-7379.39013671875,-400000.0625,-400000.0625,-400000.0625
238.03055143356323,133.7100067138672,-2804.610107421875,-5907.39013671875,-400000.0625,-7360.83984375,-400000.0625,-400000.0625,-400000.0625
238.13458681106567,172.19000244140625,-2767.75,-5867.009765625,-400000.0625,-7332.47021484375,-400000.0625,-400000.0625,-400000.0625
238.23725533485413,175.80999755859375,-2766.800048828125,-5864.240234375,-400000.0625,-7327.18017578125,-400000.0625,-400000.0625,-400000.0625
238.32406067848206,139.0,-2801.93994140625,-5903.2001953125,-400000.0625,-7357.8798828125,-400000.0625,-400000.0625,-400000.0625
238.3826768398285,113.62999725341797,-2821.35009765625,-5926.7099609375,-400000.0625,-7381.919921875,-400000.0625,-400000.0625,-400000.0625
238.48233222961426,134.66000366210938,-2800.56005859375,-5904.43994140625,-400000.0625,-7363.18017578125,-400000.0625,-400000.0625,-400000.0625
238.5416464805603,171.7100067138672,-2764.030029296875,-5863.3798828125,-400000.0625,-7327.18017578125,-400000.0625,-400000.0625,-400000.0625
238.66123795509338,172.52000427246094,-2761.169921875,-5862.330078125,-400000.0625,-7327.27001953125,-400000.0625,-400000.0625,-400000.0625
238.78543734550476,136.08999633789062,-2802.469970703125,-5905.25,-400000.0625,-7362.22021484375,-400000.0625,-400000.0625,-400000.0625
238.90577387809753,111.68000030517578,-2825.070068359375,-5930.759765625,-400000.0625,-7383.25,-400000.0625,-400000.0625,-400000.0625
239.02962803840637,132.8000030517578,-2807.239990234375,-5908.2998046875,-400000.0625,-7365.27978515625,-400000.0625,-400000.0625,-400000.0625
239.1647868156433,171.85000610351562,-2769.570068359375,-5866.72021484375,-400000.0625,-7330.93994140625,-400000.0625,-400000.0625,-400000.0625
239.29186296463013,174.75999450683594,-2766.469970703125,-5862.7099609375,-400000.0625,-7326.93994140625,-400000.0625,-400000.0625,-400000.0625
239.42374682426453,140.9499969482422,-2802.090087890625,-5900.91015625,-400000.0625,-7364.93994140625,-400000.0625,-400000.0625,-400000.0625
239.5322709083557,114.58000183105469,-2823.929931640625,-5928.60986328125,-400000.0625,-7381.580078125,-400000.0625,-400000.0625,-400000.0625
239.68252730369568,132.3699951171875,-2804.800048828125,-5909.58984375,-400000.0625,-7363.3701171875,-400000.0625,-400000.0625,-400000.0625
239.8066782951355,172.6199951171875,-2769.610107421875,-5868.10009765625,-400000.0625,-7331.419921875,-400000.0625,-400000.0625,-400000.0625
239.92038655281067,175.75999450683594,-2766.89990234375,-5863.43017578125,-400000.0625,-7328.89013671875,-400000.0625,-400000.0625,-400000.0625
240.04542899131775,137.75999450683594,-2807.429931640625,-5905.9599609375,-400000.0625,-7365.419921875,-400000.0625,-400000.0625,-400000.0625
240.16527104377747,109.0999984741211,-2829.889892578125,-5933.85986328125,-400000.0625,-7389.39990234375,-400000.0625,-400000.0625,-400000.0625
240.2926070690155,130.55999755859375,-2810.719970703125,-5912.5400390625,-400000.0625,-7372.7099609375,-400000.0625,-400000.0625,-400000.0625
240.4294238090515,170.08999633789062,-2770.52001953125,-5866.669921875,-400000.0625,-7330.3701171875,-400000.0625,-400000.0625,-400000.0625
240.54544353485107,173.13999938964844,-2759.030029296875,-5854.89013671875,-400000.0625,-7320.35986328125,-400000.0625,-400000.0625,-400000.0625
240.678475856781,129.02999877929688,-2797.080078125,-5896.330078125,-400000.0625,-7359.7900390625,-400000.0625,-400000.0625,-400000.0625
240.80627489089966,100.27999877929688,-2822.489990234375,-5924.02978515625,-400000.0625,-7383.6298828125,-400000.0625,-400000.0625,-400000.0625
240.9390857219696,121.83000183105469,-2792.929931640625,-5895.85009765625,-400000.0625,-7364.7001953125,-400000.0625,-400000.0625,-400000.0625
241.04453539848328,161.30999755859375,-2755.68994140625,-5852.509765625,-400000.0625,-7331.0400390625,-400000.0625,-400000.0625,-400000.0625
241.18382263183594,163.94000244140625,-2752.159912109375,-5847.41015625,-400000.0625,-7329.22998046875,-400000.0625,-400000.0625,-400000.0625
241.294673204422,125.06999969482422,-2781.919921875,-5885.169921875,-400000.0625,-7359.1201171875,-400000.0625,-400000.0625,-400000.0625
241.41474556922913,99.04000091552734,-2807.090087890625,-5912.39990234375,-400000.0625,-7384.25,-400000.0625,-400000.0625,-400000.0625
241.53747057914734,120.97000122070312,-2787.830078125,-5889.4599609375,-400000.0625,-7362.75,-400000.0625,-400000.0625,-400000.0625
241.6584506034851,158.5,-2752.070068359375,-5849.169921875,-400000.0625,-7327.83984375,-400000.0625,-400000.0625,-400000.0625
241.78429555892944,164.22000122070312,-2751.300048828125,-5847.97998046875,-400000.0625,-7330.60986328125,-400000.0625,-400000.0625,-400000.0625
241.92458987236023,125.45999908447266,-2791.5,-5887.56005859375,-400000.0625,-7359.7001953125,-400000.0625,-400000.0625,-400000.0625
242.06921577453613,101.04000091552734,-2813.77001953125,-5912.8798828125,-400000.0625,-7384.02001953125,-400000.0625,-400000.0625,-400000.0625
242.18609428405762,121.58999633789062,-2790.639892578125,-5889.85009765625,-400000.0625,-7364.75,-400000.0625,-400000.0625,-400000.0625
242.30802941322327,160.92999267578125,-2752.8798828125,-5845.39990234375,-400000.0625,-7327.4599609375,-400000.0625,-400000.0625,-400000.0625
242.44010090827942,166.85000610351562,-2748.35009765625,-5839.2099609375,-400000.0625,-7325.83984375,-400000.0625,-400000.0625,-400000.0625
242.56852269172668,126.88999938964844,-2785.43994140625,-5882.68994140625,-400000.0625,-7360.5498046875,-400000.0625,-400000.0625,-400000.0625
242.7011969089508,101.37999725341797,-2808.139892578125,-5910.39990234375,-400000.0625,-7385.35009765625,-400000.0625,-400000.0625,-400000.0625
242.82532691955566,122.44999694824219,-2790.1201171875,-5888.56005859375,-400000.0625,-7370.89990234375,-400000.0625,-400000.0625,-400000.0625
242.95718145370483,156.5,-2760.27001953125,-5850.7001953125,-400000.0625,-7336.18994140625,-400000.0625,-400000.0625,-400000.0625
243.08579063415527,159.8800048828125,-2753.5400390625,-5844.97998046875,-400000.0625,-7322.06982421875,-400000.0625,-400000.0625,-400000.0625
243.15576648712158,121.5,-2787.72998046875,-5886.27001953125,-400000.0625,-7349.77978515625,-400000.0625,-400000.0625,-400000.0625
243.18101263046265,94.55999755859375,-2812.239990234375,-5913.06982421875,-400000.0625,-7372.9501953125,-400000.0625,-400000.0625,-400000.0625
243.20616793632507,112.0999984741211,-2797.7900390625,-5890.419921875,-400000.0625,-7361.60009765625,-400000.0625,-400000.0625,-400000.0625
243.25353240966797,153.25999450683594,-2763.3701171875,-5848.740234375,-400000.0625,-7331.47021484375,-400000.0625,-400000.0625,-400000.0625
243.27783918380737,158.74000549316406,-2752.639892578125,-5841.2998046875,-400000.0625,-7326.27001953125,-400000.0625,-400000.0625,-400000.0625
243.30130815505981,121.87999725341797,-2786.489990234375,-5879.5,-400000.0625,-7354.35986328125,-400000.0625,-400000.0625,-400000.0625
243.32326078414917,97.55999755859375,-2812.47998046875,-5909.10986328125,-400000.0625,-7382.580078125,-400000.0625,-400000.0625,-400000.0625
243.3689980506897,113.7699966430664,-2795.93994140625,-5891.990234375,-400000.0625,-7366.7998046875,-400000.0625,-400000.0625,-400000.0625
243.39420676231384,146.9600067138672,-2763.610107421875,-5852.02978515625,-400000.0625,-7329.75,-400000.0625,-400000.0625,-400000.0625
243.41523051261902,152.3000030517578,-2760.1201171875,-5846.68994140625,-400000.0625,-7320.1201171875,-400000.0625,-400000.0625,-400000.0625
243.4397497177124,116.05999755859375,-2800.080078125,-5889.990234375,-400000.0625,-7357.41015625,-400000.0625,-400000.0625,-400000.0625
243.48453307151794,90.55000305175781,-2827.070068359375,-5916.830078125,-400000.0625,-7383.06005859375,-400000.0625,-400000.0625,-400000.0625
243.50726342201233,106.4800033569336,-2810.2900390625,-5897.43017578125,-400000.0625,-7365.31982421875,-400000.0625,-400000.0625,-400000.0625
243.53683304786682,144.52999877929688,-2784.199951171875,-5856.27978515625,-400000.0625,-7328.080078125,-400000.0625,-400000.0625,-400000.0625
243.5595293045044,155.8300018310547,-2777.580078125,-5849.83984375,-400000.0625,-7321.7900390625,-400000.0625,-400000.0625,-400000.0625
243.60388946533203,112.58000183105469,-2817.199951171875,-5887.4599609375,-400000.0625,-7353.5498046875,-400000.0625,-400000.0625,-400000.0625
243.65050530433655,82.05999755859375,-2853.389892578125,-5916.93017578125,-400000.0625,-7372.81005859375,-400000.0625,-400000.0625,-400000.0625
243.71617484092712,101.08999633789062,-2860.1201171875,-5893.56005859375,-400000.0625,-7352.2099609375,-400000.0625,-400000.0625,-400000.0625
243.81287288665771,146.14999389648438,-2819.820068359375,-5849.64990234375,-400000.0625,-7320.02001953125,-400000.0625,-400000.0625,-400000.0625
243.88367247581482,148.8699951171875,-2824.639892578125,-5850.5498046875,-400000.0625,-7311.39013671875,-400000.0625,-400000.0625,-400000.0625
244.00307846069336,96.94000244140625,-2878.860107421875,-5905.919921875,-400000.0625,-7341.85986328125,-400000.0625,-400000.0625,-400000.0625
244.12345027923584,65.8499984741211,-2928.31005859375,-5928.08984375,-400000.0625,-7364.419921875,-400000.0625,-400000.0625,-400000.0625
244.23446011543274,77.1500015258789,-2928.110107421875,-5916.41015625,-400000.0625,-7346.490234375,-400000.0625,-400000.0625,-400000.0625
244.37092280387878,103.33000183105469,-2905.889892578125,-5877.39990234375,-400000.0625,-7304.47998046875,-400000.0625,-400000.0625,-400000.0625
244.47842407226562,104.33000183105469,-2914.860107421875,-5867.669921875,-400000.0625,-7293.7998046875,-400000.0625,-400000.0625,-400000.0625
244.5959827899933,67.0,-2984.47998046875,-5911.72998046875,-400000.0625,-7325.22021484375,-400000.0625,-400000.0625,-400000.0625
244.72137665748596,35.2400016784668,-3046.27001953125,-5942.6298828125,-400000.0625,-7344.72021484375,-400000.0625,-400000.0625,-400000.0625
244.8482050895691,34.619998931884766,-3034.969970703125,-5923.7998046875,-400000.0625,-7316.8798828125,-400000.0625,-400000.0625,-400000.0625
244.97843432426453,50.63999938964844,-3020.139892578125,-5899.10009765625,-400000.0625,-7281.830078125,-400000.0625,-400000.0625,-400000.0625
245.1097674369812,52.209999084472656,-3044.56005859375,-5899.9501953125,-400000.0625,-7277.39013671875,-400000.0625,-400000.0625,-400000.0625
245.2519142627716,21.979999542236328,-3100.110107421875,-5937.39013671875,-400000.0625,-7307.669921875,-400000.0625,-400000.0625,-400000.0625
245.37888193130493,-0.05000000074505806,-3131.77001953125,-5951.60009765625,-400000.0625,-7324.64990234375,-400000.0625,-400000.0625,-400000.0625
245.51564645767212,2.0999999046325684,-3151.510009765625,-5940.72021484375,-400000.0625,-7307.14990234375,-400000.0625,-400000.0625,-400000.0625
245.64716839790344,27.510000228881836,-3129.77001953125,-5925.22998046875,-400000.0625,-7274.009765625,-400000.0625,-400000.0625,-400000.0625
245.76153373718262,27.280000686645508,-3148.75,-5933.669921875,-400000.0625,-7265.47021484375,-400000.0625,-400000.0625,-400000.0625
245.8794801235199,0.10000000149011612,-3177.2099609375,-5960.509765625,-400000.0625,-7290.89013671875,-400000.0625,-400000.0625,-400000.0625
245.99993252754211,-31.56999969482422,-3213.02001953125,-5980.43994140625,-400000.0625,-7308.2001953125,-400000.0625,-400000.0625,-400000.0625
246.1392867565155,-8.680000305175781,-3240.35009765625,-5953.7900390625,-400000.0625,-7289.97998046875,-400000.0625,-400000.0625,-400000.0625
246.2716417312622,17.790000915527344,-3216.7900390625,-5933.6201171875,-400000.0625,-7259.47021484375,-400000.0625,-400000.0625,-400000.0625
246.40402460098267,9.729999542236328,-3215.64990234375,-5942.2001953125,-400000.0625,-7258.7001953125,-400000.0625,-400000.0625,-400000.0625
246.53106927871704,-28.850000381469727,-3263.7099609375,-5983.35009765625,-400000.0625,-7283.39990234375,-400000.0625,-400000.0625,-400000.0625
246.66584873199463,-63.31999969482422,-3305.820068359375,-6009.72021484375,-400000.0625,-7300.89990234375,-400000.0625,-400000.0625,-400000.0625
246.79843592643738,-45.20000076293945,-3303.719970703125,-5991.31982421875,-400000.0625,-7289.02978515625,-400000.0625,-400000.0625,-400000.0625
246.94213366508484,-8.390000343322754,-3287.739990234375,-5956.93994140625,-400000.0625,-7251.60009765625,-400000.0625,-400000.0625,-400000.0625
247.0738399028778,1.2400000095367432,-3294.659912109375,-5948.72998046875,-400000.0625,-7242.5400390625,-400000.0625,-400000.0625,-400000.0625
247.19304251670837,-33.470001220703125,-3329.469970703125,-5984.58984375,-400000.0625,-7271.6201171875,-400000.0625,-400000.0625,-400000.0625
247.32801055908203,-65.33000183105469,-3342.489990234375,-6016.64013671875,-400000.0625,-7298.22998046875,-400000.0625,-400000.0625,-400000.0625
247.44867157936096,-63.130001068115234,-3326.699951171875,-6004.3798828125,-400000.0625,-7276.490234375,-400000.0625,-400000.0625,-400000.0625
247.56770825386047,-26.559999465942383,-3299.570068359375,-5972.72021484375,-400000.0625,-7243.5400390625,-400000.0625,-400000.0625,-400000.0625
247.69465374946594,-18.690000534057617,-3303.389892578125,-5967.89990234375,-400000.0625,-7241.06005859375,-400000.0625,-400000.0625,-400000.0625
247.81115078926086,-53.7400016784668,-3339.719970703125,-6005.81005859375,-400000.0625,-7269.52978515625,-400000.0625,-400000.0625,-400000.0625
247.95645117759705,-82.05999755859375,-3366.570068359375,-6037.08984375,-400000.0625,-7289.93994140625,-400000.0625,-400000.0625,-400000.0625
248.07404494285583,-63.130001068115234,-3356.550048828125,-6018.72998046875,-400000.0625,-7271.10009765625,-400000.0625,-400000.0625,-400000.0625
248.21204495429993,-19.40999984741211,-3319.929931640625,-5976.009765625,-400000.0625,-7233.43017578125,-400000.0625,-400000.0625,-400000.0625
248.33932042121887,-6.010000228881836,-3303.81005859375,-5967.0,-400000.0625,-7231.85986328125,-400000.0625,-400000.0625,-400000.0625
248.49607586860657,-39.099998474121094,-3322.840087890625,-6003.240234375,-400000.0625,-7267.91015625,-400000.0625,-400000.0625,-400000.0625
248.62068462371826,-69.0,-3326.56005859375,-6032.93994140625,-400000.0625,-7296.0400390625,-400000.0625,-400000.0625,-400000.0625
248.77384233474731,-49.15999984741211,-3307.43994140625,-6016.830078125,-400000.0625,-7281.10986328125,-400000.0625,-400000.0625,-400000.0625
248.85037684440613,-4.820000171661377,-3262.139892578125,-5976.14990234375,-400000.0625,-7247.93017578125,-400000.0625,-400000.0625,-400000.0625
248.88285851478577,3.619999885559082,-3231.10009765625,-5966.43017578125,-400000.0625,-7240.490234375,-400000.0625,-400000.0625,-400000.0625
248.935227394104,-28.280000686645508,-3252.080078125,-6004.0498046875,-400000.0625,-7279.2099609375,-400000.0625,-400000.0625,-400000.0625
248.95851302146912,-53.7400016784668,-3263.429931640625,-6034.419921875,-400000.0625,-7302.81005859375,-400000.0625,-400000.0625,-400000.0625
248.9838626384735,-34.900001525878906,-3222.1298828125,-6013.72998046875,-400000.0625,-7288.7900390625,-400000.0625,-400000.0625,-400000.0625
249.03842997550964,9.010000228881836,-3166.010009765625,-5967.56982421875,-400000.0625,-7262.60986328125,-400000.0625,-400000.0625,-400000.0625
249.0598442554474,21.170000076293945,-3137.919921875,-5955.89013671875,-400000.0625,-7259.080078125,-400000.0625,-400000.0625,-400000.0625
249.08677673339844,-10.680000305175781,-3156.280029296875,-5994.509765625,-400000.0625,-7296.85009765625,-400000.0625,-400000.0625,-400000.0625
249.13484120368958,-31.809999465942383,-3172.639892578125,-6021.60009765625,-400000.0625,-7327.75,-400000.0625,-400000.0625,-400000.0625
249.15703082084656,-11.970000267028809,-3126.18994140625,-5990.4599609375,-400000.0625,-7309.25,-400000.0625,-400000.0625,-400000.0625
249.1817922592163,34.13999938964844,-3080.889892578125,-5948.1201171875,-400000.0625,-7271.91015625,-400000.0625,-400000.0625,-400000.0625
249.20553350448608,43.91999816894531,-3062.679931640625,-5938.14990234375,-400000.0625,-7271.240234375,-400000.0625,-400000.0625,-400000.0625
249.25259351730347,14.970000267028809,-3073.5,-5970.10009765625,-400000.0625,-7312.77978515625,-400000.0625,-400000.0625,-400000.0625
249.28007102012634,-10.819999694824219,-3087.330078125,-6000.08984375,-400000.0625,-7343.39013671875,-400000.0625,-400000.0625,-400000.0625
249.30212116241455,12.680000305175781,-3058.860107421875,-5976.52978515625,-400000.0625,-7327.27001953125,-400000.0625,-400000.0625,-400000.0625
249.34500193595886,56.459999084472656,-3004.169921875,-5927.7099609375,-400000.0625,-7293.509765625,-400000.0625,-400000.0625,-400000.0625
249.4704349040985,66.66000366210938,-2978.280029296875,-5916.02001953125,-400000.0625,-7292.990234375,-400000.0625,-400000.0625,-400000.0625
249.5881118774414,33.09000015258789,-3002.7900390625,-5953.259765625,-400000.0625,-7331.08984375,-400000.0625,-400000.0625,-400000.0625
249.6932089328766,10.25,-3019.860107421875,-5980.5400390625,-400000.0625,-7353.8798828125,-400000.0625,-400000.0625,-400000.0625
249.80735301971436,28.229999542236328,-2990.530029296875,-5953.8798828125,-400000.0625,-7336.0,-400000.0625,-400000.0625,-400000.0625
249.91641926765442,72.4800033569336,-2940.699951171875,-5908.06005859375,-400000.0625,-7306.33984375,-400000.0625,-400000.0625,-400000.0625
250.05226016044617,85.4000015258789,-2918.239990234375,-5895.22998046875,-400000.0625,-7300.14013671875,-400000.0625,-400000.0625,-400000.0625
250.19939661026,52.36000061035156,-2936.64990234375,-5926.56005859375,-400000.0625,-7337.3798828125,-400000.0625,-400000.0625,-400000.0625
250.3226182460785,26.270000457763672,-2953.010009765625,-5951.60009765625,-400000.0625,-7366.0400390625,-400000.0625,-400000.0625,-400000.0625
250.47171115875244,46.779998779296875,-2929.070068359375,-5930.3798828125,-400000.0625,-7345.009765625,-400000.0625,-400000.0625,-400000.0625
250.6352915763855,90.73999786376953,-2884.909912109375,-5885.64990234375,-400000.0625,-7308.52978515625,-400000.0625,-400000.0625,-400000.0625
250.76134324073792,103.5199966430664,-2871.320068359375,-5875.8701171875,-400000.0625,-7306.91015625,-400000.0625,-400000.0625,-400000.0625
250.90164804458618,65.5199966430664,-2901.360107421875,-5912.58984375,-400000.0625,-7341.0498046875,-400000.0625,-400000.0625,-400000.0625
251.03487014770508,36.290000915527344,-2920.14990234375,-5943.25,-400000.0625,-7369.47021484375,-400000.0625,-400000.0625,-400000.0625
251.1744544506073,57.650001525878906,-2897.219970703125,-5920.93994140625,-400000.0625,-7357.06982421875,-400000.0625,-400000.0625,-400000.0625
251.29469871520996,102.41999816894531,-2856.39990234375,-5878.16015625,-400000.0625,-7325.75,-400000.0625,-400000.0625,-400000.0625
251.42450952529907,113.11000061035156,-2845.050048828125,-5870.919921875,-400000.0625,-7319.8798828125,-400000.0625,-400000.0625,-400000.0625
251.57493448257446,74.52999877929688,-2878.139892578125,-5909.490234375,-400000.0625,-7351.97021484375,-400000.0625,-400000.0625,-400000.0625
251.7065999507904,48.59000015258789,-2895.68994140625,-5935.6201171875,-400000.0625,-7377.81982421875,-400000.0625,-400000.0625,-400000.0625
251.8400695323944,69.86000061035156,-2868.510009765625,-5911.2099609375,-400000.0625,-7357.5,-400000.0625,-400000.0625,-400000.0625
251.96375632286072,113.62999725341797,-2828.7900390625,-5867.47998046875,-400000.0625,-7320.97998046875,-400000.0625,-400000.0625,-400000.0625
252.10760521888733,121.63999938964844,-2818.389892578125,-5856.08984375,-400000.0625,-7318.1201171875,-400000.0625,-400000.0625,-400000.0625
252.23760199546814,83.91999816894531,-2853.8701171875,-5898.669921875,-400000.0625,-7353.1201171875,-400000.0625,-400000.0625,-400000.0625
252.37613081932068,55.84000015258789,-2877.18994140625,-5929.759765625,-400000.0625,-7379.39013671875,-400000.0625,-400000.0625,-400000.0625
252.51192450523376,76.52999877929688,-2849.77001953125,-5906.06005859375,-400000.0625,-7364.4599609375,-400000.0625,-400000.0625,-400000.0625
252.6570200920105,119.4000015258789,-2810.47998046875,-5860.81005859375,-400000.0625,-7328.56005859375,-400000.0625,-400000.0625,-400000.0625
252.80292916297913,129.60000610351562,-2801.419921875,-5851.35986328125,-400000.0625,-7319.169921875,-400000.0625,-400000.0625,-400000.0625
252.94717121124268,91.5999984741211,-2838.85009765625,-5894.14013671875,-400000.0625,-7351.5400390625,-400000.0625,-400000.0625,-400000.0625
253.0795292854309,59.40999984741211,-2867.889892578125,-5926.22998046875,-400000.0625,-7383.5400390625,-400000.0625,-400000.0625,-400000.0625
253.20494651794434,81.25,-2847.389892578125,-5903.669921875,-400000.0625,-7371.85986328125,-400000.0625,-400000.0625,-400000.0625
253.33710741996765,123.79000091552734,-2803.949951171875,-5858.47021484375,-400000.0625,-7329.990234375,-400000.0625,-400000.0625,-400000.0625
253.46859765052795,130.61000061035156,-2791.449951171875,-5847.64990234375,-400000.0625,-7317.10986328125,-400000.0625,-400000.0625,-400000.0625
253.60395503044128,94.83999633789062,-2826.7900390625,-5886.97998046875,-400000.0625,-7356.60009765625,-400000.0625,-400000.0625,-400000.0625
253.74767088890076,65.08999633789062,-2858.72998046875,-5921.1298828125,-400000.0625,-7389.740234375,-400000.0625,-400000.0625,-400000.0625
253.90111351013184,82.4000015258789,-2837.419921875,-5898.0498046875,-400000.0625,-7365.080078125,-400000.0625,-400000.0625,-400000.0625
254.04034972190857,126.73999786376953,-2795.97998046875,-5851.31982421875,-400000.0625,-7324.83984375,-400000.0625,-400000.0625,-400000.0625
254.17115449905396,139.75999450683594,-2783.489990234375,-5840.97021484375,-400000.0625,-7321.22021484375,-400000.0625,-400000.0625,-400000.0625
254.27658319473267,100.66000366210938,-2816.300048828125,-5877.2998046875,-400000.0625,-7358.080078125,-400000.0625,-400000.0625,-400000.0625
254.43099308013916,71.4800033569336,-2847.050048828125,-5909.39990234375,-400000.0625,-7385.68017578125,-400000.0625,-400000.0625,-400000.0625
254.49448251724243,91.79000091552734,-2826.639892578125,-5890.990234375,-400000.0625,-7370.22998046875,-400000.0625,-400000.0625,-400000.0625
254.5239245891571,136.4199981689453,-2784.919921875,-5842.8798828125,-400000.0625,-7328.31982421875,-400000.0625,-400000.0625,-400000.0625
254.55090928077698,144.86000061035156,-2778.010009765625,-5834.52978515625,-400000.0625,-7318.5,-400000.0625,-400000.0625,-400000.0625
254.5983805656433,99.41999816894531,-2819.489990234375,-5879.830078125,-400000.0625,-7355.31005859375,-400000.0625,-400000.0625,-400000.0625
254.6228563785553,70.70999908447266,-2848.719970703125,-5913.830078125,-400000.0625,-7379.25,-400000.0625,-400000.0625,-400000.0625
254.6493730545044,91.69999694824219,-2829.360107421875,-5893.14013671875,-400000.0625,-7362.7998046875,-400000.0625,-400000.0625,-400000.0625
254.6689760684967,133.99000549316406,-2786.679931640625,-5845.97998046875,-400000.0625,-7332.22998046875,-400000.0625,-400000.0625,-400000.0625
254.7225546836853,142.14999389648438,-2776.0,-5836.6298828125,-400000.0625,-7326.56005859375,-400000.0625,-400000.0625,-400000.0625
254.75125575065613,107.05000305175781,-2808.81005859375,-5876.490234375,-400000.0625,-7359.60009765625,-400000.0625,-400000.0625,-400000.0625
254.77622842788696,76.25,-2837.419921875,-5907.35009765625,-400000.0625,-7384.72998046875,-400000.0625,-400000.0625,-400000.0625
254.82702684402466,89.83999633789062,-2820.679931640625,-5886.509765625,-400000.0625,-7360.93994140625,-400000.0625,-400000.0625,-400000.0625
254.85501408576965,133.47000122070312,-2779.909912109375,-5844.259765625,-400000.0625,-7326.4599609375,-400000.0625,-400000.0625,-400000.0625
254.88517904281616,144.24000549316406,-2770.610107421875,-5831.72021484375,-400000.0625,-7323.7900390625,-400000.0625,-400000.0625,-400000.0625
254.93693685531616,108.05000305175781,-2805.52001953125,-5870.14990234375,-400000.0625,-7352.31005859375,-400000.0625,-400000.0625,-400000.0625
254.974374294281,76.19999694824219,-2838.090087890625,-5906.39013671875,-400000.0625,-7379.9599609375,-400000.0625,-400000.0625,-400000.0625
255.02739810943604,91.2699966430664,-2823.929931640625,-5886.22021484375,-400000.0625,-7365.0400390625,-400000.0625,-400000.0625,-400000.0625
255.14135003089905,131.02999877929688,-2782.820068359375,-5841.35009765625,-400000.0625,-7329.419921875,-400000.0625,-400000.0625,-400000.0625
255.25811958312988,139.0500030517578,-2773.050048828125,-5834.43994140625,-400000.0625,-7321.4501953125,-400000.0625,-400000.0625,-400000.0625
255.3695764541626,99.55999755859375,-2813.050048828125,-5878.8798828125,-400000.0625,-7354.8798828125,-400000.0625,-400000.0625,-400000.0625
255.49272537231445,66.9000015258789,-2840.89990234375,-5913.06982421875,-400000.0625,-7388.2099609375,-400000.0625,-400000.0625,-400000.0625
255.60440635681152,86.77999877929688,-2823.929931640625,-5894.0400390625,-400000.0625,-7371.759765625,-400000.0625,-400000.0625,-400000.0625
255.73332381248474,128.7899932861328,-2785.639892578125,-5847.5,-400000.0625,-7334.18994140625,-400000.0625,-400000.0625,-400000.0625
255.88959002494812,139.19000244140625,-2775.2900390625,-5835.25,-400000.0625,-7327.3701171875,-400000.0625,-400000.0625,-400000.0625
256.02386450767517,102.70999908447266,-2814.43994140625,-5876.72998046875,-400000.0625,-7359.22021484375,-400000.0625,-400000.0625,-400000.0625
256.1570074558258,71.0999984741211,-2846.10009765625,-5910.64013671875,-400000.0625,-7382.2998046875,-400000.0625,-400000.0625,-400000.0625
256.29141330718994,90.45999908447266,-2820.590087890625,-5887.4599609375,-400000.0625,-7363.3701171875,-400000.0625,-400000.0625,-400000.0625
256.4240095615387,129.6999969482422,-2769.85009765625,-5838.10986328125,-400000.0625,-7326.41015625,-400000.0625,-400000.0625,-400000.0625
256.55566787719727,130.3699951171875,-2764.989990234375,-5830.14990234375,-400000.0625,-7321.60009765625,-400000.0625,-400000.0625,-400000.0625
256.6850275993347,89.12000274658203,-2805.610107421875,-5868.10009765625,-400000.0625,-7354.77978515625,-400000.0625,-400000.0625,-400000.0625
256.8149404525757,55.06999969482422,-2835.800048828125,-5902.39013671875,-400000.0625,-7385.8701171875,-400000.0625,-400000.0625,-400000.0625
256.96271800994873,70.91000366210938,-2818.679931640625,-5884.22021484375,-400000.0625,-7366.52001953125,-400000.0625,-400000.0625,-400000.0625
257.1244041919708,119.30000305175781,-2776.81005859375,-5837.009765625,-400000.0625,-7330.1298828125,-400000.0625,-400000.0625,-400000.0625
257.2455849647522,129.22000122070312,-2762.4599609375,-5823.22998046875,-400000.0625,-7322.02978515625,-400000.0625,-400000.0625,-400000.0625
257.38224267959595,95.51000213623047,-2796.93994140625,-5865.81005859375,-400000.0625,-7353.97021484375,-400000.0625,-400000.0625,-400000.0625
257.51525259017944,63.31999969482422,-2828.409912109375,-5899.52978515625,-400000.0625,-7378.39013671875,-400000.0625,-400000.0625,-400000.0625
257.6528105735779,83.4000015258789,-2810.530029296875,-5874.830078125,-400000.0625,-7363.7001953125,-400000.0625,-400000.0625,-400000.0625
257.7902674674988,126.83999633789062,-2769.0400390625,-5829.18994140625,-400000.0625,-7327.3701171875,-400000.0625,-400000.0625,-400000.0625
257.92357635498047,134.66000366210938,-2761.56005859375,-5819.0400390625,-400000.0625,-7318.06982421875,-400000.0625,-400000.0625,-400000.0625
258.07774209976196,93.41000366210938,-2798.1298828125,-5859.18017578125,-400000.0625,-7350.25,-400000.0625,-400000.0625,-400000.0625
258.20515036582947,61.040000915527344,-2827.260009765625,-5894.7099609375,-400000.0625,-7382.72998046875,-400000.0625,-400000.0625,-400000.0625
258.3414418697357,79.1500015258789,-2811.3798828125,-5875.16015625,-400000.0625,-7367.22998046875,-400000.0625,-400000.0625,-400000.0625
258.47788095474243,119.0199966430664,-2770.139892578125,-5829.2900390625,-400000.0625,-7326.60009765625,-400000.0625,-400000.0625,-400000.0625
258.61659836769104,130.61000061035156,-2758.8798828125,-5818.7001953125,-400000.0625,-7316.39990234375,-400000.0625,-400000.0625,-400000.0625
258.73563146591187,95.51000213623047,-2799.510009765625,-5862.08984375,-400000.0625,-7347.43994140625,-400000.0625,-400000.0625,-400000.0625
258.85921716690063,63.709999084472656,-2829.030029296875,-5897.56982421875,-400000.0625,-7381.490234375,-400000.0625,-400000.0625,-400000.0625
258.99811601638794,78.87000274658203,-2812.14990234375,-5878.97021484375,-400000.0625,-7371.330078125,-400000.0625,-400000.0625,-400000.0625
259.13012075424194,121.63999938964844,-2771.429931640625,-5834.68017578125,-400000.0625,-7336.7099609375,-400000.0625,-400000.0625,-400000.0625
259.2616775035858,134.3699951171875,-2763.699951171875,-5825.0400390625,-400000.0625,-7324.83984375,-400000.0625,-400000.0625,-400000.0625
259.39955949783325,97.61000061035156,-2798.510009765625,-5864.9501953125,-400000.0625,-7356.35986328125,-400000.0625,-400000.0625,-400000.0625
259.52468276023865,56.599998474121094,-2834.93994140625,-5899.240234375,-400000.0625,-7381.81982421875,-400000.0625,-400000.0625,-400000.0625
259.6650094985962,76.4800033569336,-2824.739990234375,-5882.02978515625,-400000.0625,-7368.22998046875,-400000.0625,-400000.0625,-400000.0625
259.80351090431213,131.17999267578125,-2776.3798828125,-5841.06982421875,-400000.0625,-7331.1298828125,-400000.0625,-400000.0625,-400000.0625
259.91714119911194,151.2100067138672,-2760.030029296875,-5836.43994140625,-400000.0625,-7320.93017578125,-400000.0625,-400000.0625,-400000.0625
260.0303690433502,115.16000366210938,-2800.989990234375,-5878.830078125,-400000.0625,-7351.259765625,-400000.0625,-400000.0625,-400000.0625
260.1513831615448,87.30999755859375,-2842.0,-5916.41015625,-400000.0625,-7384.02001953125,-400000.0625,-400000.0625,-400000.0625
260.20171642303467,108.66999816894531,-2826.739990234375,-5900.0,-400000.0625,-7370.81005859375,-400000.0625,-400000.0625,-400000.0625
260.22709560394287,152.97000122070312,-2783.06005859375,-5859.14013671875,-400000.0625,-7337.89990234375,-400000.0625,-400000.0625,-400000.0625
260.25650000572205,164.0800018310547,-2776.429931640625,-5851.31982421875,-400000.0625,-7325.31982421875,-400000.0625,-400000.0625,-400000.0625
260.3019483089447,125.2699966430664,-2807.570068359375,-5889.27001953125,-400000.0625,-7348.5400390625,-400000.0625,-400000.0625,-400000.0625
260.3249056339264,94.37000274658203,-2838.56005859375,-5921.35986328125,-400000.0625,-7374.91015625,-400000.0625,-400000.0625,-400000.0625
260.35251808166504,110.05000305175781,-2823.5400390625,-5902.580078125,-400000.0625,-7366.08984375,-400000.0625,-400000.0625,-400000.0625
260.38092970848083,151.67999267578125,-2782.06005859375,-5859.7099609375,-400000.0625,-7332.419921875,-400000.0625,-400000.0625,-400000.0625
260.436075925827,163.02999877929688,-2773.949951171875,-5849.169921875,-400000.0625,-7322.259765625,-400000.0625,-400000.0625,-400000.0625
260.45518493652344,125.06999969482422,-2809.719970703125,-5887.83984375,-400000.0625,-7353.68994140625,-400000.0625,-400000.0625,-400000.0625
260.48166847229004,95.88999938964844,-2842.330078125,-5921.7001953125,-400000.0625,-7378.91015625,-400000.0625,-400000.0625,-400000.0625
260.521479845047,113.19999694824219,-2821.639892578125,-5904.06005859375,-400000.0625,-7369.47021484375,-400000.0625,-400000.0625,-400000.0625
260.54578828811646,153.72999572753906,-2783.35009765625,-5860.52001953125,-400000.0625,-7333.14013671875,-400000.0625,-400000.0625,-400000.0625
260.57110047340393,160.25999450683594,-2775.6201171875,-5850.509765625,-400000.0625,-7322.169921875,-400000.0625,-400000.0625,-400000.0625
260.59427666664124,123.20999908447266,-2810.760009765625,-5890.080078125,-400000.0625,-7354.4501953125,-400000.0625,-400000.0625,-400000.0625
260.658997297287,90.79000091552734,-2841.52001953125,-5922.4599609375,-400000.0625,-7384.25,-400000.0625,-400000.0625,-400000.0625
260.7255504131317,106.23999786376953,-2820.919921875,-5904.009765625,-400000.0625,-7371.6201171875,-400000.0625,-400000.0625,-400000.0625
260.83662247657776,151.5399932861328,-2785.02001953125,-5861.27978515625,-400000.0625,-7334.27978515625,-400000.0625,-400000.0625,-400000.0625
260.9447832107544,160.97999572753906,-2775.860107421875,-5849.35986328125,-400000.0625,-7320.169921875,-400000.0625,-400000.0625,-400000.0625
261.06626987457275,123.79000091552734,-2815.2900390625,-5892.1298828125,-400000.0625,-7351.10986328125,-400000.0625,-400000.0625,-400000.0625
261.1849195957184,91.36000061035156,-2844.570068359375,-5927.7099609375,-400000.0625,-7379.33984375,-400000.0625,-400000.0625,-400000.0625
261.30832600593567,102.94999694824219,-2827.97998046875,-5911.97021484375,-400000.0625,-7369.85009765625,-400000.0625,-400000.0625,-400000.0625
261.4419438838959,146.5800018310547,-2788.5,-5866.43017578125,-400000.0625,-7335.89990234375,-400000.0625,-400000.0625,-400000.0625
261.562374830246,156.07000732421875,-2775.10009765625,-5852.27001953125,-400000.0625,-7325.169921875,-400000.0625,-400000.0625,-400000.0625
261.674528837204,120.58999633789062,-2811.9599609375,-5891.75,-400000.0625,-7357.31005859375,-400000.0625,-400000.0625,-400000.0625
261.80278491973877,90.06999969482422,-2842.090087890625,-5923.31982421875,-400000.0625,-7386.2998046875,-400000.0625,-400000.0625,-400000.0625
261.93107414245605,106.05000305175781,-2822.260009765625,-5904.8701171875,-400000.0625,-7371.0,-400000.0625,-400000.0625,-400000.0625
262.06853795051575,150.25,-2783.25,-5860.81005859375,-400000.0625,-7330.27978515625,-400000.0625,-400000.0625,-400000.0625
262.2247095108032,157.63999938964844,-2781.340087890625,-5853.31982421875,-400000.0625,-7321.22021484375,-400000.0625,-400000.0625,-400000.0625
262.3431203365326,122.0199966430664,-2814.14990234375,-5891.75,-400000.0625,-7356.1201171875,-400000.0625,-400000.0625,-400000.0625
262.4782633781433,87.87999725341797,-2844.909912109375,-5925.080078125,-400000.0625,-7384.25,-400000.0625,-400000.0625,-400000.0625
262.60347270965576,105.05000305175781,-2828.64990234375,-5909.35009765625,-400000.0625,-7371.0498046875,-400000.0625,-400000.0625,-400000.0625
262.72532749176025,148.77000427246094,-2788.969970703125,-5864.9501953125,-400000.0625,-7334.08984375,-400000.0625,-400000.0625,-400000.0625
262.84195709228516,161.41000366210938,-2778.010009765625,-5852.89013671875,-400000.0625,-7326.64990234375,-400000.0625,-400000.0625,-400000.0625
262.9867293834686,127.36000061035156,-2811.860107421875,-5891.1298828125,-400000.0625,-7359.7900390625,-400000.0625,-400000.0625,-400000.0625
263.1153531074524,91.88999938964844,-2840.760009765625,-5925.0400390625,-400000.0625,-7384.2099609375,-400000.0625,-400000.0625,-400000.0625
263.22385573387146,109.0999984741211,-2828.31005859375,-5911.2998046875,-400000.0625,-7370.0400390625,-400000.0625,-400000.0625,-400000.0625
263.3587181568146,150.82000732421875,-2790.39990234375,-5864.240234375,-400000.0625,-7330.47021484375,-400000.0625,-400000.0625,-400000.0625
263.47039437294006,160.1199951171875,-2781.340087890625,-5855.0400390625,-400000.0625,-7323.97998046875,-400000.0625,-400000.0625,-400000.0625
263.6064963340759,123.93000030517578,-2817.389892578125,-5897.0,-400000.0625,-7358.02978515625,-400000.0625,-400000.0625,-400000.0625
263.7286808490753,93.55999755859375,-2846.860107421875,-5931.18994140625,-400000.0625,-7386.97021484375,-400000.0625,-400000.0625,-400000.0625
263.84536242485046,105.33000183105469,-2833.179931640625,-5916.93017578125,-400000.0625,-7372.9501953125,-400000.0625,-400000.0625,-400000.0625
263.9624562263489,147.25,-2792.68994140625,-5873.16015625,-400000.0625,-7333.47021484375,-400000.0625,-400000.0625,-400000.0625
264.0940387248993,161.1199951171875,-2781.820068359375,-5859.7099609375,-400000.0625,-7325.83984375,-400000.0625,-400000.0625,-400000.0625
264.21385645866394,126.5,-2814.8701171875,-5897.7099609375,-400000.0625,-7355.259765625,-400000.0625,-400000.0625,-400000.0625
264.3397057056427,97.41999816894531,-2845.9599609375,-5932.27978515625,-400000.0625,-7388.06982421875,-400000.0625,-400000.0625,-400000.0625
264.46121311187744,110.05000305175781,-2830.4599609375,-5916.4501953125,-400000.0625,-7373.18994140625,-400000.0625,-400000.0625,-400000.0625
264.59204387664795,148.11000061035156,-2792.02001953125,-5871.6298828125,-400000.0625,-7332.52001953125,-400000.0625,-400000.0625,-400000.0625
264.7189099788666,161.7899932861328,-2784.06005859375,-5858.66015625,-400000.0625,-7324.509765625,-400000.0625,-400000.0625,-400000.0625
264.8347351551056,125.22000122070312,-2813.340087890625,-5895.9501953125,-400000.0625,-7356.83984375,-400000.0625,-400000.0625,-400000.0625
264.9719829559326,91.02999877929688,-2849.050048828125,-5932.85986328125,-400000.0625,-7386.02001953125,-400000.0625,-400000.0625,-400000.0625
265.0979058742523,105.66999816894531,-2836.3701171875,-5915.93017578125,-400000.0625,-7370.7099609375,-400000.0625,-400000.0625,-400000.0625
265.2226068973541,149.8699951171875,-2795.27001953125,-5870.580078125,-400000.0625,-7335.85009765625,-400000.0625,-400000.0625,-400000.0625
265.3537073135376,162.5500030517578,-2778.77001953125,-5853.7001953125,-400000.0625,-7324.080078125,-400000.0625,-400000.0625,-400000.0625
265.47961926460266,127.31999969482422,-2812.429931640625,-5891.0400390625,-400000.0625,-7353.58984375,-400000.0625,-400000.0625,-400000.0625
265.5917570590973,92.45999908447266,-2848.6298828125,-5930.0,-400000.0625,-7382.68017578125,-400000.0625,-400000.0625,-400000.0625
265.70590019226074,105.56999969482422,-2835.889892578125,-5914.39990234375,-400000.0625,-7369.9501953125,-400000.0625,-400000.0625,-400000.0625
265.8097243309021,149.00999450683594,-2798.75,-5870.8701171875,-400000.0625,-7335.85009765625,-400000.0625,-400000.0625,-400000.0625
265.86234879493713,162.50999450683594,-2784.300048828125,-5855.509765625,-400000.0625,-7322.93017578125,-400000.0625,-400000.0625,-400000.0625
265.8853452205658,126.41000366210938,-2815.489990234375,-5893.7998046875,-400000.0625,-7349.16015625,-400000.0625,-400000.0625,-400000.0625
265.9154131412506,91.12000274658203,-2848.340087890625,-5929.7998046875,-400000.0625,-7382.16015625,-400000.0625,-400000.0625,-400000.0625
265.96050333976746,105.05000305175781,-2831.840087890625,-5912.16015625,-400000.0625,-7369.81005859375,-400000.0625,-400000.0625,-400000.0625
265.9855978488922,144.9600067138672,-2797.7900390625,-5869.2900390625,-400000.0625,-7336.18994140625,-400000.0625,-400000.0625,-400000.0625
266.00928258895874,157.5500030517578,-2787.260009765625,-5857.08984375,-400000.0625,-7328.4599609375,-400000.0625,-400000.0625,-400000.0625
266.0353190898895,120.3499984741211,-2818.820068359375,-5895.330078125,-400000.0625,-7354.35986328125,-400000.0625,-400000.0625,-400000.0625
266.08706521987915,89.26000213623047,-2849.909912109375,-5930.66015625,-400000.0625,-7379.10009765625,-400000.0625,-400000.0625,-400000.0625
266.12451696395874,104.05000305175781,-2837.22998046875,-5917.4501953125,-400000.0625,-7372.3798828125,-400000.0625,-400000.0625,-400000.0625
266.156010389328,146.8699951171875,-2798.800048828125,-5872.10986328125,-400000.0625,-7335.47021484375,-400000.0625,-400000.0625,-400000.0625
266.2120752334595,161.30999755859375,-2791.639892578125,-5861.89990234375,-400000.0625,-7322.7900390625,-400000.0625,-400000.0625,-400000.0625
266.23140597343445,125.45999908447266,-2824.070068359375,-5898.240234375,-400000.0625,-7355.2099609375,-400000.0625,-400000.0625,-400000.0625
266.2540457248688,90.2699966430664,-2851.300048828125,-5930.81005859375,-400000.0625,-7383.06005859375,-400000.0625,-400000.0625,-400000.0625
266.27659273147583,102.33000183105469,-2842.760009765625,-5918.5498046875,-400000.0625,-7374.3798828125,-400000.0625,-400000.0625,-400000.0625
266.375607252121,144.1999969482422,-2802.179931640625,-5873.06005859375,-400000.0625,-7336.7099609375,-400000.0625,-400000.0625,-400000.0625
266.43008184432983,159.7899932861328,-2788.72998046875,-5858.47021484375,-400000.0625,-7322.8798828125,-400000.0625,-400000.0625,-400000.0625
266.5433304309845,126.41000366210938,-2823.110107421875,-5895.08984375,-400000.0625,-7352.5400390625,-400000.0625,-400000.0625,-400000.0625
266.666100025177,86.93000030517578,-2860.260009765625,-5934.669921875,-400000.0625,-7382.10986328125,-400000.0625,-400000.0625,-400000.0625
266.7825312614441,99.61000061035156,-2850.6298828125,-5920.7001953125,-400000.0625,-7371.14013671875,-400000.0625,-400000.0625,-400000.0625
266.90168619155884,142.57000732421875,-2810.909912109375,-5877.39990234375,-400000.0625,-7343.2001953125,-400000.0625,-400000.0625,-400000.0625
267.03353691101074,154.4499969482422,-2794.219970703125,-5862.759765625,-400000.0625,-7329.080078125,-400000.0625,-400000.0625,-400000.0625
267.16522669792175,117.83000183105469,-2826.5,-5897.81005859375,-400000.0625,-7357.68994140625,-400000.0625,-400000.0625,-400000.0625
267.3028542995453,85.77999877929688,-2861.550048828125,-5933.9501953125,-400000.0625,-7384.97021484375,-400000.0625,-400000.0625,-400000.0625
267.4047141075134,100.9000015258789,-2845.719970703125,-5919.5498046875,-400000.0625,-7371.7099609375,-400000.0625,-400000.0625,-400000.0625
267.5121419429779,142.72000122070312,-2803.659912109375,-5872.43994140625,-400000.0625,-7333.89990234375,-400000.0625,-400000.0625,-400000.0625
267.658887386322,154.8800048828125,-2791.360107421875,-5856.75,-400000.0625,-7323.60009765625,-400000.0625,-400000.0625,-400000.0625
267.7892770767212,120.16000366210938,-2827.02001953125,-5894.330078125,-400000.0625,-7351.8798828125,-400000.0625,-400000.0625,-400000.0625
267.92441058158875,87.83000183105469,-2856.5400390625,-5928.330078125,-400000.0625,-7382.81982421875,-400000.0625,-400000.0625,-400000.0625
268.0475845336914,104.27999877929688,-2847.77001953125,-5914.93017578125,-400000.0625,-7372.52001953125,-400000.0625,-400000.0625,-400000.0625
268.1696283817291,147.00999450683594,-2804.7099609375,-5871.14990234375,-400000.0625,-7333.7998046875,-400000.0625,-400000.0625,-400000.0625
268.3065881729126,159.7899932861328,-2790.550048828125,-5857.3701171875,-400000.0625,-7320.31005859375,-400000.0625,-400000.0625,-400000.0625
268.42117619514465,121.12000274658203,-2833.1298828125,-5900.56982421875,-400000.0625,-7348.68017578125,-400000.0625,-400000.0625,-400000.0625
268.5679876804352,82.91999816894531,-2864.739990234375,-5935.85986328125,-400000.0625,-7381.5400390625,-400000.0625,-400000.0625,-400000.0625
268.6891360282898,98.94000244140625,-2847.050048828125,-5919.740234375,-400000.0625,-7375.52978515625,-400000.0625,-400000.0625,-400000.0625
268.82261085510254,142.86000061035156,-2811.669921875,-5874.25,-400000.0625,-7338.330078125,-400000.0625,-400000.0625,-400000.0625
268.9351661205292,154.77999877929688,-2798.179931640625,-5859.759765625,-400000.0625,-7326.4599609375,-400000.0625,-400000.0625,-400000.0625
269.05667996406555,116.3499984741211,-2827.739990234375,-5894.7099609375,-400000.0625,-7355.68994140625,-400000.0625,-400000.0625,-400000.0625
269.1816260814667,85.97000122070312,-2861.97998046875,-5932.43017578125,-400000.0625,-7389.830078125,-400000.0625,-400000.0625,-400000.0625
269.3230743408203,96.8499984741211,-2852.72998046875,-5917.41015625,-400000.0625,-7374.56982421875,-400000.0625,-400000.0625,-400000.0625
269.4520032405853,138.80999755859375,-2810.340087890625,-5871.77001953125,-400000.0625,-7330.22998046875,-400000.0625,-400000.0625,-400000.0625
269.60410809516907,159.60000610351562,-2797.56005859375,-5864.18994140625,-400000.0625,-7320.68994140625,-400000.0625,-400000.0625,-400000.0625
269.72401094436646,125.79000091552734,-2837.52001953125,-5911.02001953125,-400000.0625,-7352.8798828125,-400000.0625,-400000.0625,-400000.0625
269.8401880264282,94.80000305175781,-2875.139892578125,-5946.58984375,-400000.0625,-7388.5,-400000.0625,-400000.0625,-400000.0625
269.95910143852234,107.0999984741211,-2863.409912109375,-5932.08984375,-400000.0625,-7376.77001953125,-400000.0625,-400000.0625,-400000.0625
270.0792808532715,148.82000732421875,-2831.510009765625,-5891.7998046875,-400000.0625,-7340.81005859375,-400000.0625,-400000.0625,-400000.0625
270.21026968955994,163.36000061035156,-2815.06005859375,-5877.830078125,-400000.0625,-7326.1298828125,-400000.0625,-400000.0625,-400000.0625
270.3176805973053,128.55999755859375,-2843.139892578125,-5915.5498046875,-400000.0625,-7355.06982421875,-400000.0625,-400000.0625,-400000.0625
270.45386695861816,91.2699966430664,-2881.239990234375,-5955.169921875,-400000.0625,-7384.8701171875,-400000.0625,-400000.0625,-400000.0625
270.5567843914032,103.86000061035156,-2866.169921875,-5939.77001953125,-400000.0625,-7374.52978515625,-400000.0625,-400000.0625,-400000.0625
270.68830275535583,144.33999633789062,-2824.739990234375,-5894.7998046875,-400000.0625,-7337.14013671875,-400000.0625,-400000.0625,-400000.0625
270.80845069885254,158.69000244140625,-2811.81005859375,-5875.4501953125,-400000.0625,-7322.35986328125,-400000.0625,-400000.0625,-400000.0625
270.94524359703064,128.75,-2843.89990234375,-5911.4501953125,-400000.0625,-7351.259765625,-400000.0625,-400000.0625,-400000.0625
271.0770423412323,95.88999938964844,-2877.52001953125,-5950.7900390625,-400000.0625,-7382.39013671875,-400000.0625,-400000.0625,-400000.0625
271.19783329963684,108.0999984741211,-2865.080078125,-5937.33984375,-400000.0625,-7372.330078125,-400000.0625,-400000.0625,-400000.0625
271.3114230632782,150.38999938964844,-2828.5,-5894.22998046875,-400000.0625,-7336.330078125,-400000.0625,-400000.0625,-400000.0625
271.4449076652527,163.64999389648438,-2813.9599609375,-5878.830078125,-400000.0625,-7321.22021484375,-400000.0625,-400000.0625,-400000.0625
271.49193024635315,126.9800033569336,-2845.760009765625,-5911.68017578125,-400000.0625,-7352.31005859375,-400000.0625,-400000.0625,-400000.0625
271.52486777305603,95.02999877929688,-2876.659912109375,-5947.919921875,-400000.0625,-7382.2001953125,-400000.0625,-400000.0625,-400000.0625
271.55109786987305,102.27999877929688,-2865.60009765625,-5937.47998046875,-400000.0625,-7369.85009765625,-400000.0625,-400000.0625,-400000.0625
271.5976810455322,143.6699981689453,-2829.64990234375,-5892.330078125,-400000.0625,-7337.9501953125,-400000.0625,-400000.0625,-400000.0625
271.6234543323517,162.0800018310547,-2810.2900390625,-5875.919921875,-400000.0625,-7324.89013671875,-400000.0625,-400000.0625,-400000.0625
271.64595651626587,130.4600067138672,-2843.280029296875,-5911.10986328125,-400000.0625,-7352.830078125,-400000.0625,-400000.0625,-400000.0625
271.67232179641724,98.51000213623047,-2879.050048828125,-5946.830078125,-400000.0625,-7384.35009765625,-400000.0625,-400000.0625,-400000.0625
271.7149393558502,110.33999633789062,-2864.840087890625,-5934.330078125,-400000.0625,-7375.52978515625,-400000.0625,-400000.0625,-400000.0625
271.7356927394867,148.05999755859375,-2830.31005859375,-5894.52001953125,-400000.0625,-7337.56982421875,-400000.0625,-400000.0625,-400000.0625
271.7624456882477,165.83999633789062,-2821.35009765625,-5880.169921875,-400000.0625,-7324.22021484375,-400000.0625,-400000.0625,-400000.0625
271.7883987426758,132.6999969482422,-2846.77001953125,-5913.68994140625,-400000.0625,-7349.58984375,-400000.0625,-400000.0625,-400000.0625
271.83204102516174,101.47000122070312,-2876.429931640625,-5946.4501953125,-400000.0625,-7379.9599609375,-400000.0625,-400000.0625,-400000.0625
271.85376930236816,112.19999694824219,-2866.219970703125,-5938.10009765625,-400000.0625,-7374.47998046875,-400000.0625,-400000.0625,-400000.0625
271.88265085220337,147.14999389648438,-2830.550048828125,-5896.759765625,-400000.0625,-7340.77001953125,-400000.0625,-400000.0625,-400000.0625
271.9025194644928,161.41000366210938,-2816.110107421875,-5878.740234375,-400000.0625,-7328.02978515625,-400000.0625,-400000.0625,-400000.0625
271.9442415237427,132.3699951171875,-2846.429931640625,-5910.490234375,-400000.0625,-7350.830078125,-400000.0625,-400000.0625,-400000.0625
271.9933671951294,100.18000030517578,-2877.89990234375,-5942.97021484375,-400000.0625,-7378.91015625,-400000.0625,-400000.0625,-400000.0625
272.05835127830505,110.05000305175781,-2863.97998046875,-5931.81005859375,-400000.0625,-7373.52001953125,-400000.0625,-400000.0625,-400000.0625
