time,ch1,ch2,ch3,ch4,ch5,ch6,ch7,ch8
320.6291153430939,-400000.0625,-12690.8798828125,-2479.64990234375,-400000.0625,-6697.85009765625,-400000.0625,-16873.169921875,-400000.0625
320.6591761112213,-400000.0625,-12696.1201171875,-2481.510009765625,-400000.0625,-6696.3701171875,-400000.0625,-16878.990234375,-400000.0625
320.7379803657532,-400000.0625,-12722.73046875,-2501.199951171875,-400000.0625,-6716.77978515625,-400000.0625,-16904.689453125,-400000.0625
320.7841827869415,-400000.0625,-12728.0703125,-2507.159912109375,-400000.0625,-6731.4599609375,-400000.0625,-16921.08984375,-400000.0625
320.8512284755707,-400000.0625,-12715.8701171875,-2501.43994140625,-400000.0625,-6718.97021484375,-400000.0625,-16903.310546875,-400000.0625
320.8993887901306,-400000.0625,-12697.509765625,-2483.989990234375,-400000.0625,-6695.7001953125,-400000.0625,-16874.740234375,-400000.0625
320.9736604690552,-400000.0625,-12699.41015625,-2485.419921875,-400000.0625,-6697.7001953125,-400000.0625,-16876.7890625,-400000.0625
321.00904965400696,-400000.0625,-12715.2900390625,-2495.340087890625,-400000.0625,-6719.10986328125,-400000.0625,-16903.44921875,-400000.0625
321.0820164680481,-400000.0625,-12731.650390625,-2507.5,-400000.0625,-6731.1298828125,-400000.0625,-16917.08984375,-400000.0625
321.1202390193939,-400000.0625,-12723.6904296875,-2500.580078125,-400000.0625,-6714.919921875,-400000.0625,-16900.349609375,-400000.0625
321.1954560279846,-400000.0625,-12698.41015625,-2482.080078125,-400000.0625,-6694.93994140625,-400000.0625,-16875.3203125,-400000.0625
321.2379529476166,-400000.0625,-12690.1201171875,-2479.97998046875,-400000.0625,-6698.419921875,-400000.0625,-16873.41015625,-400000.0625
321.3045856952667,-400000.0625,-12717.0595703125,-2501.679931640625,-400000.0625,-6723.740234375,-400000.0625,-16900.259765625,-400000.0625
321.34141874313354,-400000.0625,-12731.3203125,-2507.110107421875,-400000.0625,-6738.27978515625,-400000.0625,-16914.369140625,-400000.0625
321.42624735832214,-400000.0625,-12719.25,-2501.77001953125,-400000.0625,-6723.31005859375,-400000.0625,-16894.869140625,-400000.0625
321.4542136192322,-400000.0625,-12700.650390625,-2490.330078125,-400000.0625,-6697.27001953125,-400000.0625,-16875.69921875,-400000.0625
321.5100920200348,-400000.0625,-12694.259765625,-2484.179931640625,-400000.0625,-6696.64990234375,-400000.0625,-16870.689453125,-400000.0625
321.54665303230286,-400000.0625,-12715.009765625,-2495.340087890625,-400000.0625,-6719.06982421875,-400000.0625,-16899.439453125,-400000.0625
321.5836329460144,-400000.0625,-12735.419921875,-2510.39990234375,-400000.0625,-6732.4599609375,-400000.0625,-16911.560546875,-400000.0625
321.6502833366394,-400000.0625,-12716.490234375,-2499.909912109375,-400000.0625,-6722.68994140625,-400000.0625,-16901.349609375,-400000.0625
321.6903805732727,-400000.0625,-12691.9296875,-2481.889892578125,-400000.0625,-6702.18994140625,-400000.0625,-16887.240234375,-400000.0625
321.7519426345825,-400000.0625,-12701.7998046875,-2487.7099609375,-400000.0625,-6701.759765625,-400000.0625,-16880.69921875,-400000.0625
321.7899343967438,-400000.0625,-12729.3603515625,-2506.5400390625,-400000.0625,-6723.2099609375,-400000.0625,-16905.0703125,-400000.0625
321.8190414905548,-400000.0625,-12735.990234375,-2511.409912109375,-400000.0625,-6729.56005859375,-400000.0625,-16924.91015625,-400000.0625
321.8730728626251,-400000.0625,-12720.1103515625,-2500.580078125,-400000.0625,-6722.58984375,-400000.0625,-16897.970703125,-400000.0625
321.90912222862244,-400000.0625,-12693.0302734375,-2478.4599609375,-400000.0625,-6701.7998046875,-400000.0625,-16882.470703125,-400000.0625
321.9376175403595,-400000.0625,-12697.5595703125,-2483.800048828125,-400000.0625,-6703.85009765625,-400000.0625,-16881.990234375,-400000.0625
321.9925310611725,-400000.0625,-12725.9697265625,-2500.340087890625,-400000.0625,-6724.31005859375,-400000.0625,-16907.740234375,-400000.0625
322.02419233322144,-400000.0625,-12745.5703125,-2514.60009765625,-400000.0625,-6737.759765625,-400000.0625,-16921.94921875,-400000.0625
322.0611870288849,-400000.0625,-12731.650390625,-2509.169921875,-400000.0625,-6726.5,-400000.0625,-16908.98046875,-400000.0625
322.1291346549988,-400000.0625,-12704.66015625,-2488.800048828125,-400000.0625,-6709.33984375,-400000.0625,-16886.810546875,-400000.0625
322.17471957206726,-400000.0625,-12702.6103515625,-2484.3701171875,-400000.0625,-6700.990234375,-400000.0625,-16886.7109375,-400000.0625
322.2393102645874,-400000.0625,-12720.8701171875,-2500.72998046875,-400000.0625,-6719.2998046875,-400000.0625,-16906.310546875,-400000.0625
322.2798352241516,-400000.0625,-12741.8095703125,-2518.699951171875,-400000.0625,-6738.85009765625,-400000.0625,-16920.4296875,-400000.0625
322.38276839256287,-400000.0625,-12730.9296875,-2509.02001953125,-400000.0625,-6732.60986328125,-400000.0625,-16903.689453125,-400000.0625
322.4650056362152,-400000.0625,-12705.2802734375,-2485.0400390625,-400000.0625,-6709.2900390625,-400000.0625,-16885.0390625,-400000.0625
322.52396726608276,-400000.0625,-12705.66015625,-2483.1298828125,-400000.0625,-6702.14013671875,-400000.0625,-16884.849609375,-400000.0625
322.6222174167633,-400000.0625,-12730.8896484375,-2503.8701171875,-400000.0625,-6726.7900390625,-400000.0625,-16908.55078125,-400000.0625
322.679319858551,-400000.0625,-12748.9599609375,-2518.030029296875,-400000.0625,-6740.27978515625,-400000.0625,-16918.80078125,-400000.0625
322.7680654525757,-400000.0625,-12730.7900390625,-2504.43994140625,-400000.0625,-6719.64013671875,-400000.0625,-16906.0703125,-400000.0625
322.81202125549316,-400000.0625,-12700.3203125,-2480.1298828125,-400000.0625,-6706.18994140625,-400000.0625,-16878.890625,-400000.0625
322.8878080844879,-400000.0625,-12697.83984375,-2481.27001953125,-400000.0625,-6710.85986328125,-400000.0625,-16881.23046875,-400000.0625
322.94128036499023,-400000.0625,-12727.2099609375,-2504.06005859375,-400000.0625,-6733.080078125,-400000.0625,-16911.080078125,-400000.0625
323.0091254711151,-400000.0625,-12748.91015625,-2517.75,-400000.0625,-6745.52978515625,-400000.0625,-16922.669921875,-400000.0625
323.05686831474304,-400000.0625,-12728.0703125,-2503.5400390625,-400000.0625,-6725.5,-400000.0625,-16902.970703125,-400000.0625
323.1630835533142,-400000.0625,-12704.7998046875,-2481.889892578125,-400000.0625,-6702.9501953125,-400000.0625,-16880.75,-400000.0625
323.25080370903015,-400000.0625,-12701.66015625,-2478.409912109375,-400000.0625,-6702.47021484375,-400000.0625,-16878.80078125,-400000.0625
323.2996542453766,-400000.0625,-12720.2001953125,-2494.050048828125,-400000.0625,-6720.97021484375,-400000.0625,-16900.640625,-400000.0625
323.3883900642395,-400000.0625,-12745.3798828125,-2514.7900390625,-400000.0625,-6739.18994140625,-400000.0625,-16918.470703125,-400000.0625
323.4393527507782,-400000.0625,-12731.3603515625,-2503.35009765625,-400000.0625,-6731.080078125,-400000.0625,-16908.69921875,-400000.0625
323.5183551311493,-400000.0625,-12703.900390625,-2483.320068359375,-400000.0625,-6708.18994140625,-400000.0625,-16883.7109375,-400000.0625
323.54714584350586,-400000.0625,-12705.849609375,-2482.800048828125,-400000.0625,-6704.9501953125,-400000.0625,-16884.140625,-400000.0625
323.62658858299255,-400000.0625,-12728.6904296875,-2501.340087890625,-400000.0625,-6724.64013671875,-400000.0625,-16908.220703125,-400000.0625
323.66166472435,-400000.0625,-12743.669921875,-2513.1201171875,-400000.0625,-6739.27978515625,-400000.0625,-16919.609375,-400000.0625
323.7458791732788,-400000.0625,-12727.9296875,-2500.110107421875,-400000.0625,-6724.169921875,-400000.0625,-16904.58984375,-400000.0625
323.7893946170807,-400000.0625,-12707.330078125,-2484.3701171875,-400000.0625,-6705.0,-400000.0625,-16881.900390625,-400000.0625
323.8714759349823,-400000.0625,-12707.5703125,-2484.22998046875,-400000.0625,-6704.759765625,-400000.0625,-16878.130859375,-400000.0625
323.91916489601135,-400000.0625,-12724.2099609375,-2500.110107421875,-400000.0625,-6728.169921875,-400000.0625,-16907.9296875,-400000.0625
323.9819304943085,-400000.0625,-12744.4296875,-2511.550048828125,-400000.0625,-6746.10009765625,-400000.0625,-16925.0,-400000.0625
324.027108669281,-400000.0625,-12728.6396484375,-2502.43994140625,-400000.0625,-6727.1201171875,-400000.0625,-16913.23046875,-400000.0625
324.1218659877777,-400000.0625,-12711.3798828125,-2490.85009765625,-400000.0625,-6709.39013671875,-400000.0625,-16887.140625,-400000.0625
324.1608862876892,-400000.0625,-12708.7099609375,-2483.27001953125,-400000.0625,-6707.2900390625,-400000.0625,-16887.140625,-400000.0625
324.2319209575653,-400000.0625,-12729.83984375,-2499.43994140625,-400000.0625,-6722.58984375,-400000.0625,-16910.650390625,-400000.0625
324.27377128601074,-400000.0625,-12749.9599609375,-2514.27001953125,-400000.0625,-6737.81005859375,-400000.0625,-16920.810546875,-400000.0625
324.3398332595825,-400000.0625,-12730.5,-2502.25,-400000.0625,-6733.93994140625,-400000.0625,-16908.029296875,-400000.0625
324.38036465644836,-400000.0625,-12699.990234375,-2481.64990234375,-400000.0625,-6704.6201171875,-400000.0625,-16881.419921875,-400000.0625
324.4657473564148,-400000.0625,-12709.7099609375,-2484.419921875,-400000.0625,-6706.759765625,-400000.0625,-16882.990234375,-400000.0625
324.50261640548706,-400000.0625,-12735.3203125,-2503.25,-400000.0625,-6732.75,-400000.0625,-16906.599609375,-400000.0625
324.58636569976807,-400000.0625,-12745.7197265625,-2515.360107421875,-400000.0625,-6740.27978515625,-400000.0625,-16922.5703125,-400000.0625
324.63324880599976,-400000.0625,-12731.41015625,-2503.010009765625,-400000.0625,-6724.68994140625,-400000.0625,-16904.01953125,-400000.0625
324.7154276371002,-400000.0625,-12704.330078125,-2481.75,-400000.0625,-6705.89990234375,-400000.0625,-16877.83984375,-400000.0625
324.76111030578613,-400000.0625,-12700.1298828125,-2478.64990234375,-400000.0625,-6712.06005859375,-400000.0625,-16874.890625,-400000.0625
324.85353684425354,-400000.0625,-12727.6396484375,-2496.719970703125,-400000.0625,-6731.31982421875,-400000.0625,-16903.16015625,-400000.0625
324.88902950286865,-400000.0625,-12742.9501953125,-2507.449951171875,-400000.0625,-6733.990234375,-400000.0625,-16915.279296875,-400000.0625
324.94909024238586,-400000.0625,-12726.5,-2495.860107421875,-400000.0625,-6716.919921875,-400000.0625,-16896.76953125,-400000.0625
324.99529123306274,-400000.0625,-12702.3701171875,-2477.4599609375,-400000.0625,-6702.81005859375,-400000.0625,-16877.130859375,-400000.0625
325.051283121109,-400000.0625,-12703.2802734375,-2481.56005859375,-400000.0625,-6710.009765625,-400000.0625,-16873.220703125,-400000.0625
325.1010699272156,-400000.0625,-12721.6796875,-2492.81005859375,-400000.0625,-6728.509765625,-400000.0625,-16895.529296875,-400000.0625
325.196426153183,-400000.0625,-12737.4697265625,-2504.5400390625,-400000.0625,-6740.81005859375,-400000.0625,-16911.369140625,-400000.0625
325.2429447174072,-400000.0625,-12723.16015625,-2492.090087890625,-400000.0625,-6727.509765625,-400000.0625,-16894.6796875,-400000.0625
325.3181505203247,-400000.0625,-12699.990234375,-2475.7900390625,-400000.0625,-6704.52001953125,-400000.0625,-16875.130859375,-400000.0625
325.3608429431915,-400000.0625,-12701.7001953125,-2476.260009765625,-400000.0625,-6703.0400390625,-400000.0625,-16875.220703125,-400000.0625
325.4462947845459,-400000.0625,-12731.9404296875,-2497.909912109375,-400000.0625,-6728.509765625,-400000.0625,-16901.400390625,-400000.0625
325.4794316291809,-400000.0625,-12745.3798828125,-2510.8798828125,-400000.0625,-6736.7099609375,-400000.0625,-16911.75,-400000.0625
325.54475378990173,-400000.0625,-12734.7998046875,-2502.969970703125,-400000.0625,-6721.830078125,-400000.0625,-16905.01953125,-400000.0625
325.5798513889313,-400000.0625,-12707.330078125,-2480.93994140625,-400000.0625,-6705.47998046875,-400000.0625,-16880.279296875,-400000.0625
325.6588656902313,-400000.0625,-12705.759765625,-2481.64990234375,-400000.0625,-6711.9599609375,-400000.0625,-16877.3203125,-400000.0625
325.76330494880676,-400000.0625,-12724.349609375,-2496.909912109375,-400000.0625,-6727.31005859375,-400000.0625,-16897.919921875,-400000.0625
325.86331248283386,-400000.0625,-12747.91015625,-2514.4599609375,-400000.0625,-6745.6298828125,-400000.0625,-16913.939453125,-400000.0625
325.96114015579224,-400000.0625,-12735.7998046875,-2507.070068359375,-400000.0625,-6731.93994140625,-400000.0625,-16906.259765625,-400000.0625
326.0056037902832,-400000.0625,-12705.849609375,-2485.56005859375,-400000.0625,-6705.6201171875,-400000.0625,-16880.3203125,-400000.0625
326.100608587265,-400000.0625,-12708.6201171875,-2484.989990234375,-400000.0625,-6704.3798828125,-400000.0625,-16877.69921875,-400000.0625
326.1376576423645,-400000.0625,-12734.2197265625,-2500.679931640625,-400000.0625,-6730.1298828125,-400000.0625,-16899.30078125,-400000.0625
326.2138350009918,-400000.0625,-12744.48046875,-2511.739990234375,-400000.0625,-6744.47998046875,-400000.0625,-16911.7890625,-400000.0625
326.2601912021637,-400000.0625,-12725.9296875,-2498.77001953125,-400000.0625,-6731.7998046875,-400000.0625,-16898.490234375,-400000.0625
326.42625069618225,-400000.0625,-12706.0400390625,-2480.1298828125,-400000.0625,-6712.25,-400000.0625,-16873.69921875,-400000.0625
326.5420045852661,-400000.0625,-12706.849609375,-2484.699951171875,-400000.0625,-6708.81005859375,-400000.0625,-16872.119140625,-400000.0625
326.61342883110046,-400000.0625,-12729.8798828125,-2503.489990234375,-400000.0625,-6729.41015625,-400000.0625,-16894.720703125,-400000.0625
326.65450525283813,-400000.0625,-12750.669921875,-2518.080078125,-400000.0625,-6745.77001953125,-400000.0625,-16916.470703125,-400000.0625
326.7638578414917,-400000.0625,-12736.7001953125,-2502.820068359375,-400000.0625,-6732.18017578125,-400000.0625,-16904.880859375,-400000.0625
326.84188652038574,-400000.0625,-12712.7197265625,-2485.93994140625,-400000.0625,-6718.8701171875,-400000.0625,-16876.029296875,-400000.0625
326.8775131702423,-400000.0625,-12709.3798828125,-2482.179931640625,-400000.0625,-6715.490234375,-400000.0625,-16868.119140625,-400000.0625
326.94532680511475,-400000.0625,-12732.7900390625,-2500.389892578125,-400000.0625,-6733.990234375,-400000.0625,-16895.150390625,-400000.0625
326.99979186058044,-400000.0625,-12748.9599609375,-2512.5,-400000.0625,-6749.14990234375,-400000.0625,-16906.689453125,-400000.0625
327.0837585926056,-400000.0625,-12739.7998046875,-2508.780029296875,-400000.0625,-6740.43017578125,-400000.0625,-16897.30078125,-400000.0625
327.1138985157013,-400000.0625,-12710.48046875,-2486.469970703125,-400000.0625,-6712.10009765625,-400000.0625,-16875.080078125,-400000.0625
327.2230942249298,-400000.0625,-12709.9501953125,-2485.320068359375,-400000.0625,-6712.8701171875,-400000.0625,-16867.2109375,-400000.0625
327.31783652305603,-400000.0625,-12734.7998046875,-2505.830078125,-400000.0625,-6733.080078125,-400000.0625,-16891.33984375,-400000.0625
327.3773274421692,-400000.0625,-12751.0595703125,-2512.31005859375,-400000.0625,-6736.759765625,-400000.0625,-16914.560546875,-400000.0625
327.4504747390747,-400000.0625,-12735.75,-2503.679931640625,-400000.0625,-6732.7998046875,-400000.0625,-16901.689453125,-400000.0625
327.48457860946655,-400000.0625,-12708.2802734375,-2485.989990234375,-400000.0625,-6720.10986328125,-400000.0625,-16874.359375,-400000.0625
327.62451577186584,-400000.0625,-12707.4296875,-2477.68994140625,-400000.0625,-6721.4501953125,-400000.0625,-16868.01953125,-400000.0625
327.72571444511414,-400000.0625,-12734.2197265625,-2501.389892578125,-400000.0625,-6739.0400390625,-400000.0625,-16895.76953125,-400000.0625
327.81241035461426,-400000.0625,-12749.6298828125,-2515.889892578125,-400000.0625,-6746.9599609375,-400000.0625,-16915.990234375,-400000.0625
327.86358880996704,-400000.0625,-12730.3603515625,-2503.39990234375,-400000.0625,-6736.18017578125,-400000.0625,-16893.580078125,-400000.0625
327.92988324165344,-400000.0625,-12712.8095703125,-2486.419921875,-400000.0625,-6716.58984375,-400000.0625,-16872.0703125,-400000.0625
327.96755051612854,-400000.0625,-12706.23046875,-2481.75,-400000.0625,-6711.009765625,-400000.0625,-16876.560546875,-400000.0625
328.0607821941376,-400000.0625,-12727.98046875,-2497.010009765625,-400000.0625,-6731.4599609375,-400000.0625,-16893.669921875,-400000.0625
328.12192583084106,-400000.0625,-12746.1904296875,-2507.8798828125,-400000.0625,-6748.6298828125,-400000.0625,-16908.98046875,-400000.0625
328.2185683250427,-400000.0625,-12729.2197265625,-2497.239990234375,-400000.0625,-6732.56005859375,-400000.0625,-16904.119140625,-400000.0625
328.2732603549957,-400000.0625,-12701.23046875,-2479.889892578125,-400000.0625,-6708.91015625,-400000.0625,-16874.939453125,-400000.0625
328.36419796943665,-400000.0625,-12703.23046875,-2481.93994140625,-400000.0625,-6705.08984375,-400000.0625,-16865.349609375,-400000.0625
328.4143900871277,-400000.0625,-12726.6396484375,-2496.10009765625,-400000.0625,-6724.41015625,-400000.0625,-16893.630859375,-400000.0625
328.5200288295746,-400000.0625,-12743.1904296875,-2509.5,-400000.0625,-6749.81982421875,-400000.0625,-16910.080078125,-400000.0625
328.598432302475,-400000.0625,-12729.6904296875,-2501.300048828125,-400000.0625,-6741.72021484375,-400000.0625,-16896.580078125,-400000.0625
328.6329598426819,-400000.0625,-12702.900390625,-2479.699951171875,-400000.0625,-6716.81982421875,-400000.0625,-16871.41015625,-400000.0625
328.67090797424316,-400000.0625,-12700.0302734375,-2479.64990234375,-400000.0625,-6710.580078125,-400000.0625,-16861.970703125,-400000.0625
328.6935844421387,-400000.0625,-12727.830078125,-2498.340087890625,-400000.0625,-6732.509765625,-400000.0625,-16890.810546875,-400000.0625
328.729305267334,-400000.0625,-12747.8095703125,-2511.219970703125,-400000.0625,-6746.6298828125,-400000.0625,-16899.779296875,-400000.0625
328.773663520813,-400000.0625,-12727.6904296875,-2497.530029296875,-400000.0625,-6739.0,-400000.0625,-16888.669921875,-400000.0625
328.8428304195404,-400000.0625,-12699.5595703125,-2481.60009765625,-400000.0625,-6715.25,-400000.0625,-16863.919921875,-400000.0625
328.87762331962585,-400000.0625,-12699.6103515625,-2476.739990234375,-400000.0625,-6715.10986328125,-400000.0625,-16859.390625,-400000.0625
328.9221053123474,-400000.0625,-12725.8798828125,-2496.2900390625,-400000.0625,-6734.7998046875,-400000.0625,-16884.900390625,-400000.0625
328.93838691711426,-400000.0625,-12742.900390625,-2510.39990234375,-400000.0625,-6744.43017578125,-400000.0625,-16905.640625,-400000.0625
328.97566747665405,-400000.0625,-12729.6904296875,-2500.77001953125,-400000.0625,-6733.93994140625,-400000.0625,-16889.240234375,-400000.0625
329.00142526626587,-400000.0625,-12700.7001953125,-2477.739990234375,-400000.0625,-6716.5400390625,-400000.0625,-16866.779296875,-400000.0625
329.0582938194275,-400000.0625,-12694.9296875,-2475.639892578125,-400000.0625,-6714.77001953125,-400000.0625,-16860.9609375,-400000.0625
329.0959117412567,-400000.0625,-12719.1103515625,-2495.3798828125,-400000.0625,-6734.56005859375,-400000.0625,-16883.279296875,-400000.0625
329.13025736808777,-400000.0625,-12742.7099609375,-2514.169921875,-400000.0625,-6757.93017578125,-400000.0625,-16899.400390625,-400000.0625
329.2001485824585,-400000.0625,-12729.740234375,-2500.489990234375,-400000.0625,-6745.77001953125,-400000.0625,-16892.33984375,-400000.0625
329.22065138816833,-400000.0625,-12700.849609375,-2479.030029296875,-400000.0625,-6714.14990234375,-400000.0625,-16863.869140625,-400000.0625
329.25335812568665,-400000.0625,-12705.330078125,-2481.030029296875,-400000.0625,-6713.72021484375,-400000.0625,-16858.580078125,-400000.0625
329.3390123844147,-400000.0625,-12732.509765625,-2505.110107421875,-400000.0625,-6739.14013671875,-400000.0625,-16885.23046875,-400000.0625
329.376348733902,-400000.0625,-12748.9599609375,-2513.739990234375,-400000.0625,-6749.81982421875,-400000.0625,-16904.44921875,-400000.0625
329.43367886543274,-400000.0625,-12734.0302734375,-2500.530029296875,-400000.0625,-6734.85009765625,-400000.0625,-16888.859375,-400000.0625
329.45904302597046,-400000.0625,-12706.4697265625,-2482.840087890625,-400000.0625,-6718.8701171875,-400000.0625,-16862.009765625,-400000.0625
329.49416399002075,-400000.0625,-12708.8095703125,-2484.659912109375,-400000.0625,-6721.31005859375,-400000.0625,-16864.349609375,-400000.0625
329.56791639328003,-400000.0625,-12734.509765625,-2503.969970703125,-400000.0625,-6741.759765625,-400000.0625,-16892.240234375,-400000.0625
329.6020665168762,-400000.0625,-12746.3798828125,-2514.080078125,-400000.0625,-6757.1201171875,-400000.0625,-16905.41015625,-400000.0625
329.6578371524811,-400000.0625,-12728.83984375,-2499.8701171875,-400000.0625,-6740.27978515625,-400000.0625,-16884.7109375,-400000.0625
329.6828305721283,-400000.0625,-12698.599609375,-2476.739990234375,-400000.0625,-6718.490234375,-400000.0625,-16859.720703125,-400000.0625
329.7040648460388,-400000.0625,-12694.9296875,-2477.5,-400000.0625,-6715.8701171875,-400000.0625,-16857.439453125,-400000.0625
329.7731955051422,-400000.0625,-12725.8798828125,-2497.6298828125,-400000.0625,-6735.18017578125,-400000.0625,-16886.759765625,-400000.0625
329.8066713809967,-400000.0625,-12742.4296875,-2512.360107421875,-400000.0625,-6751.58984375,-400000.0625,-16909.41015625,-400000.0625
329.8839066028595,-400000.0625,-12727.2099609375,-2501.6298828125,-400000.0625,-6742.52978515625,-400000.0625,-16887.330078125,-400000.0625
329.91399455070496,-400000.0625,-12704.900390625,-2483.75,-400000.0625,-6722.5498046875,-400000.0625,-16865.109375,-400000.0625
329.9539828300476,-400000.0625,-12701.23046875,-2480.080078125,-400000.0625,-6715.97021484375,-400000.0625,-16864.01953125,-400000.0625
330.022234916687,-400000.0625,-12723.5,-2497.14990234375,-400000.0625,-6736.14013671875,-400000.0625,-16890.580078125,-400000.0625
330.11337995529175,-400000.0625,-12740.66015625,-2511.60009765625,-400000.0625,-6763.27001953125,-400000.0625,-16901.830078125,-400000.0625
330.15139603614807,-400000.0625,-12729.599609375,-2503.159912109375,-400000.0625,-6740.0498046875,-400000.0625,-16886.4296875,-400000.0625
330.2396216392517,-400000.0625,-12704.4697265625,-2484.22998046875,-400000.0625,-6718.4501953125,-400000.0625,-16864.6796875,-400000.0625
330.3092088699341,-400000.0625,-12702.1796875,-2481.75,-400000.0625,-6725.22021484375,-400000.0625,-16869.2109375,-400000.0625
330.4057722091675,-400000.0625,-12732.41015625,-2505.72998046875,-400000.0625,-6753.490234375,-400000.0625,-16891.619140625,-400000.0625
330.46400213241577,-400000.0625,-12747.0,-2516.56005859375,-400000.0625,-6763.75,-400000.0625,-16909.7890625,-400000.0625
330.5287094116211,-400000.0625,-12729.3095703125,-2504.639892578125,-400000.0625,-6745.9599609375,-400000.0625,-16891.91015625,-400000.0625
330.5712721347809,-400000.0625,-12703.3701171875,-2485.56005859375,-400000.0625,-6722.740234375,-400000.0625,-16863.919921875,-400000.0625
330.6432681083679,-400000.0625,-12704.759765625,-2482.93994140625,-400000.0625,-6723.5,-400000.0625,-16866.109375,-400000.0625
330.6869263648987,-400000.0625,-12734.6103515625,-2509.2099609375,-400000.0625,-6750.72998046875,-400000.0625,-16891.240234375,-400000.0625
330.79128861427307,-400000.0625,-12751.2001953125,-2521.7099609375,-400000.0625,-6751.81982421875,-400000.0625,-16908.169921875,-400000.0625
330.8966555595398,-400000.0625,-12734.2197265625,-2509.169921875,-400000.0625,-6740.3798828125,-400000.0625,-16888.91015625,-400000.0625
331.0009343624115,-400000.0625,-12706.3798828125,-2486.800048828125,-400000.0625,-6728.35986328125,-400000.0625,-16864.2109375,-400000.0625
331.09514594078064,-400000.0625,-12706.0,-2482.93994140625,-400000.0625,-6727.35986328125,-400000.0625,-16864.060546875,-400000.0625
331.1556215286255,-400000.0625,-12731.1201171875,-2506.35009765625,-400000.0625,-6745.43017578125,-400000.0625,-16888.189453125,-400000.0625
331.23165011405945,-400000.0625,-12748.7197265625,-2520.3701171875,-400000.0625,-6763.31982421875,-400000.0625,-16907.9296875,-400000.0625
331.27116870880127,-400000.0625,-12751.099609375,-2509.260009765625,-400000.0625,-6759.259765625,-400000.0625,-16890.91015625,-400000.0625
331.34604024887085,-400000.0625,-12726.400390625,-2491.139892578125,-400000.0625,-6733.27978515625,-400000.0625,-16865.01953125,-400000.0625
331.4065067768097,-400000.0625,-12705.759765625,-2487.989990234375,-400000.0625,-6723.1201171875,-400000.0625,-16861.919921875,-400000.0625
331.48150420188904,-400000.0625,-12724.830078125,-2508.830078125,-400000.0625,-6743.0498046875,-400000.0625,-16894.6796875,-400000.0625
331.54320907592773,-400000.0625,-12755.9697265625,-2524.81005859375,-400000.0625,-6757.06982421875,-400000.0625,-16913.130859375,-400000.0625
331.6123869419098,-400000.0625,-12746.8095703125,-2510.169921875,-400000.0625,-6744.240234375,-400000.0625,-16896.919921875,-400000.0625
331.6337077617645,-400000.0625,-12715.33984375,-2486.0400390625,-400000.0625,-6723.830078125,-400000.0625,-16873.740234375,-400000.0625
331.66129183769226,-400000.0625,-12713.91015625,-2481.320068359375,-400000.0625,-6722.64013671875,-400000.0625,-16876.220703125,-400000.0625
331.71203088760376,-400000.0625,-12744.0498046875,-2503.489990234375,-400000.0625,-6740.85986328125,-400000.0625,-16905.259765625,-400000.0625
331.73639941215515,-400000.0625,-12757.259765625,-2515.030029296875,-400000.0625,-6749.14990234375,-400000.0625,-16922.7109375,-400000.0625
331.7638466358185,-400000.0625,-12746.2900390625,-2506.8798828125,-400000.0625,-6741.0,-400000.0625,-16909.080078125,-400000.0625
331.8171401023865,-400000.0625,-12719.1103515625,-2486.56005859375,-400000.0625,-6723.4501953125,-400000.0625,-16883.94921875,-400000.0625
331.85168385505676,-400000.0625,-12716.150390625,-2488.52001953125,-400000.0625,-6722.5498046875,-400000.0625,-16879.369140625,-400000.0625
331.87719321250916,-400000.0625,-12746.8095703125,-2505.639892578125,-400000.0625,-6742.33984375,-400000.0625,-16904.169921875,-400000.0625
331.91672372817993,-400000.0625,-12758.1103515625,-2514.169921875,-400000.0625,-6753.5400390625,-400000.0625,-16920.140625,-400000.0625
331.93921065330505,-400000.0625,-12742.1396484375,-2502.5400390625,-400000.0625,-6736.7099609375,-400000.0625,-16905.41015625,-400000.0625
331.97379994392395,-400000.0625,-12721.2998046875,-2488.570068359375,-400000.0625,-6722.259765625,-400000.0625,-16880.470703125,-400000.0625
331.99554896354675,-400000.0625,-12720.7802734375,-2483.56005859375,-400000.0625,-6729.1298828125,-400000.0625,-16881.3203125,-400000.0625
332.0433568954468,-400000.0625,-12747.6201171875,-2503.43994140625,-400000.0625,-6744.72021484375,-400000.0625,-16902.640625,-400000.0625
332.0923297405243,-400000.0625,-12766.7900390625,-2518.989990234375,-400000.0625,-6762.7001953125,-400000.0625,-16919.7109375,-400000.0625
332.1404221057892,-400000.0625,-12747.7197265625,-2508.31005859375,-400000.0625,-6747.14990234375,-400000.0625,-16910.359375,-400000.0625
332.21788001060486,-400000.0625,-12725.259765625,-2492.6201171875,-400000.0625,-6722.8798828125,-400000.0625,-16884.51953125,-400000.0625
332.25855898857117,-400000.0625,-12721.2998046875,-2487.7099609375,-400000.0625,-6717.35009765625,-400000.0625,-16876.650390625,-400000.0625
332.3595407009125,-400000.0625,-12736.66015625,-2498.10009765625,-400000.0625,-6737.9501953125,-400000.0625,-16900.490234375,-400000.0625
332.4282343387604,-400000.0625,-12757.01953125,-2510.2099609375,-400000.0625,-6757.5498046875,-400000.0625,-16914.369140625,-400000.0625
332.4764289855957,-400000.0625,-12747.580078125,-2503.780029296875,-400000.0625,-6746.8701171875,-400000.0625,-16903.830078125,-400000.0625
332.53622460365295,-400000.0625,-12716.3896484375,-2481.989990234375,-400000.0625,-6722.64013671875,-400000.0625,-16879.419921875,-400000.0625
332.5736963748932,-400000.0625,-12715.2900390625,-2480.1298828125,-400000.0625,-6716.2998046875,-400000.0625,-16872.0703125,-400000.0625
332.61223101615906,-400000.0625,-12741.51953125,-2502.5400390625,-400000.0625,-6741.10009765625,-400000.0625,-16899.869140625,-400000.0625
332.6941990852356,-400000.0625,-12768.169921875,-2524.89990234375,-400000.0625,-6759.259765625,-400000.0625,-16918.08984375,-400000.0625
332.73189663887024,-400000.0625,-12755.2998046875,-2511.31005859375,-400000.0625,-6743.72021484375,-400000.0625,-16902.640625,-400000.0625
332.8056581020355,-400000.0625,-12722.6796875,-2486.800048828125,-400000.0625,-6722.1201171875,-400000.0625,-16877.509765625,-400000.0625
332.84731364250183,-400000.0625,-12719.7802734375,-2481.699951171875,-400000.0625,-6719.97021484375,-400000.0625,-16873.310546875,-400000.0625
332.92586159706116,-400000.0625,-12745.759765625,-2503.820068359375,-400000.0625,-6746.91015625,-400000.0625,-16895.30078125,-400000.0625
332.9729206562042,-400000.0625,-12757.6396484375,-2514.550048828125,-400000.0625,-6759.35986328125,-400000.0625,-16909.3203125,-400000.0625
333.0371460914612,-400000.0625,-12746.8095703125,-2505.489990234375,-400000.0625,-6748.25,-400000.0625,-16898.630859375,-400000.0625
333.0683126449585,-400000.0625,-12725.4501953125,-2490.81005859375,-400000.0625,-6721.35009765625,-400000.0625,-16876.560546875,-400000.0625
333.1084198951721,-400000.0625,-12722.830078125,-2487.7099609375,-400000.0625,-6719.259765625,-400000.0625,-16879.849609375,-400000.0625
333.2035472393036,-400000.0625,-12751.009765625,-2503.820068359375,-400000.0625,-6744.91015625,-400000.0625,-16897.390625,-400000.0625
333.25555753707886,-400000.0625,-12767.0302734375,-2513.929931640625,-400000.0625,-6760.22021484375,-400000.0625,-16914.66015625,-400000.0625
333.32827854156494,-400000.0625,-12758.01953125,-2512.260009765625,-400000.0625,-6748.39013671875,-400000.0625,-16900.73046875,-400000.0625
333.3700256347656,-400000.0625,-12725.830078125,-2487.949951171875,-400000.0625,-6722.5,-400000.0625,-16874.359375,-400000.0625
333.43159675598145,-400000.0625,-12719.6796875,-2483.320068359375,-400000.0625,-6723.4501953125,-400000.0625,-16874.26953125,-400000.0625
333.4564814567566,-400000.0625,-12753.150390625,-2507.35009765625,-400000.0625,-6753.10986328125,-400000.0625,-16898.8203125,-400000.0625
333.49057841300964,-400000.0625,-12766.4599609375,-2514.739990234375,-400000.0625,-6758.06982421875,-400000.0625,-16917.990234375,-400000.0625
333.5605983734131,-400000.0625,-12755.0595703125,-2511.639892578125,-400000.0625,-6744.18994140625,-400000.0625,-16904.169921875,-400000.0625
333.5996615886688,-400000.0625,-12730.7001953125,-2489.760009765625,-400000.0625,-6726.31005859375,-400000.0625,-16878.080078125,-400000.0625
333.6794972419739,-400000.0625,-12726.740234375,-2488.330078125,-400000.0625,-6722.77978515625,-400000.0625,-16872.83984375,-400000.0625
333.71307468414307,-400000.0625,-12754.0595703125,-2506.969970703125,-400000.0625,-6743.9599609375,-400000.0625,-16899.2109375,-400000.0625
333.77325558662415,-400000.0625,-12770.23046875,-2518.840087890625,-400000.0625,-6762.1201171875,-400000.0625,-16919.330078125,-400000.0625
333.82212376594543,-400000.0625,-12757.6796875,-2510.360107421875,-400000.0625,-6748.580078125,-400000.0625,-16904.9296875,-400000.0625
333.8745665550232,-400000.0625,-12732.080078125,-2491.570068359375,-400000.0625,-6726.60009765625,-400000.0625,-16881.939453125,-400000.0625
333.91277623176575,-400000.0625,-12734.650390625,-2494.3798828125,-400000.0625,-6727.02978515625,-400000.0625,-16876.130859375,-400000.0625
333.94262051582336,-400000.0625,-12756.58984375,-2506.919921875,-400000.0625,-6748.06005859375,-400000.0625,-16900.779296875,-400000.0625
334.0165026187897,-400000.0625,-12769.509765625,-2514.929931640625,-400000.0625,-6762.35986328125,-400000.0625,-16921.669921875,-400000.0625
334.04567289352417,-400000.0625,-12756.490234375,-2503.969970703125,-400000.0625,-6745.669921875,-400000.0625,-16906.0703125,-400000.0625
334.1334328651428,-400000.0625,-12739.4697265625,-2489.469970703125,-400000.0625,-6725.68994140625,-400000.0625,-16884.0390625,-400000.0625
334.1672577857971,-400000.0625,-12734.0302734375,-2485.93994140625,-400000.0625,-6722.97998046875,-400000.0625,-16881.80078125,-400000.0625
334.26147270202637,-400000.0625,-12756.0595703125,-2502.389892578125,-400000.0625,-6744.77001953125,-400000.0625,-16904.58984375,-400000.0625
334.2871539592743,-400000.0625,-12770.990234375,-2515.7900390625,-400000.0625,-6760.41015625,-400000.0625,-16920.279296875,-400000.0625
334.34671926498413,-400000.0625,-12758.0703125,-2506.449951171875,-400000.0625,-6746.72021484375,-400000.0625,-16908.119140625,-400000.0625
334.3773319721222,-400000.0625,-12731.599609375,-2488.139892578125,-400000.0625,-6726.1201171875,-400000.0625,-16885.619140625,-400000.0625
334.40893721580505,-400000.0625,-12731.3603515625,-2487.7099609375,-400000.0625,-6719.4501953125,-400000.0625,-16876.130859375,-400000.0625
334.46068382263184,-400000.0625,-12756.01953125,-2502.389892578125,-400000.0625,-6740.3798828125,-400000.0625,-16899.73046875,-400000.0625
334.4905638694763,-400000.0625,-12772.990234375,-2517.27001953125,-400000.0625,-6756.58984375,-400000.0625,-16921.279296875,-400000.0625
334.5216941833496,-400000.0625,-12759.4501953125,-2508.31005859375,-400000.0625,-6750.72998046875,-400000.0625,-16906.220703125,-400000.0625
334.5780203342438,-400000.0625,-12730.98046875,-2484.419921875,-400000.0625,-6721.35009765625,-400000.0625,-16881.75,-400000.0625
334.60706901550293,-400000.0625,-12730.1201171875,-2482.030029296875,-400000.0625,-6718.4501953125,-400000.0625,-16876.650390625,-400000.0625
334.6370987892151,-400000.0625,-12755.73046875,-2506.070068359375,-400000.0625,-6741.10009765625,-400000.0625,-16898.869140625,-400000.0625
334.6959068775177,-400000.0625,-12774.419921875,-2520.179931640625,-400000.0625,-6759.35986328125,-400000.0625,-16918.0390625,-400000.0625
334.7260956764221,-400000.0625,-12759.9697265625,-2510.02001953125,-400000.0625,-6752.6298828125,-400000.0625,-16906.259765625,-400000.0625
334.7462306022644,-400000.0625,-12736.66015625,-2492.47998046875,-400000.0625,-6730.7998046875,-400000.0625,-16882.470703125,-400000.0625
334.81637382507324,-400000.0625,-12728.8798828125,-2489.52001953125,-400000.0625,-6723.740234375,-400000.0625,-16878.26953125,-400000.0625
334.8482391834259,-400000.0625,-12759.7802734375,-2507.31005859375,-400000.0625,-6750.009765625,-400000.0625,-16902.5,-400000.0625
334.9255020618439,-400000.0625,-12778.08984375,-2518.93994140625,-400000.0625,-6762.83984375,-400000.0625,-16915.279296875,-400000.0625
334.95204067230225,-400000.0625,-12761.400390625,-2509.169921875,-400000.0625,-6743.52978515625,-400000.0625,-16900.830078125,-400000.0625
335.01439595222473,-400000.0625,-12738.1796875,-2490.6201171875,-400000.0625,-6722.64013671875,-400000.0625,-16880.509765625,-400000.0625
335.0538227558136,-400000.0625,-12731.3603515625,-2484.510009765625,-400000.0625,-6724.68994140625,-400000.0625,-16878.939453125,-400000.0625
335.1251971721649,-400000.0625,-12756.16015625,-2506.39990234375,-400000.0625,-6749.009765625,-400000.0625,-16904.740234375,-400000.0625
335.1577272415161,-400000.0625,-12779.51953125,-2520.989990234375,-400000.0625,-6766.419921875,-400000.0625,-16918.849609375,-400000.0625
335.22643780708313,-400000.0625,-12763.6396484375,-2508.550048828125,-400000.0625,-6751.490234375,-400000.0625,-16902.689453125,-400000.0625
335.253723859787,-400000.0625,-12733.5595703125,-2484.889892578125,-400000.0625,-6724.8798828125,-400000.0625,-16877.69921875,-400000.0625
335.2683708667755,-400000.0625,-12728.259765625,-2480.4599609375,-400000.0625,-6723.06982421875,-400000.0625,-16873.55078125,-400000.0625
335.33518838882446,-400000.0625,-12750.6298828125,-2496.14990234375,-400000.0625,-6744.240234375,-400000.0625,-16904.640625,-400000.0625
335.3649334907532,-400000.0625,-12767.26953125,-2509.449951171875,-400000.0625,-6755.64013671875,-400000.0625,-16918.419921875,-400000.0625
335.3947081565857,-400000.0625,-12750.580078125,-2497.9599609375,-400000.0625,-6741.85986328125,-400000.0625,-16899.970703125,-400000.0625
335.44801688194275,-400000.0625,-12728.5,-2485.469970703125,-400000.0625,-6727.5498046875,-400000.0625,-16878.419921875,-400000.0625
335.4767687320709,-400000.0625,-12732.509765625,-2485.699951171875,-400000.0625,-6731.31982421875,-400000.0625,-16886.669921875,-400000.0625
335.4971807003021,-400000.0625,-12756.25,-2504.5400390625,-400000.0625,-6751.10986328125,-400000.0625,-16910.83984375,-400000.0625
335.5451352596283,-400000.0625,-12777.3798828125,-2521.7099609375,-400000.0625,-6768.89990234375,-400000.0625,-16919.900390625,-400000.0625
335.5681540966034,-400000.0625,-12756.490234375,-2505.590087890625,-400000.0625,-6745.77001953125,-400000.0625,-16907.5,-400000.0625
335.601633310318,-400000.0625,-12725.58984375,-2482.75,-400000.0625,-6717.10986328125,-400000.0625,-16883.80078125,-400000.0625
335.6554298400879,-400000.0625,-12725.830078125,-2481.7900390625,-400000.0625,-6721.8798828125,-400000.0625,-16883.470703125,-400000.0625
335.6855978965759,-400000.0625,-12750.8203125,-2502.110107421875,-400000.0625,-6741.14013671875,-400000.0625,-16903.58984375,-400000.0625
335.7182791233063,-400000.0625,-12773.5595703125,-2515.97998046875,-400000.0625,-6759.5,-400000.0625,-16923.4296875,-400000.0625
335.77164006233215,-400000.0625,-12765.2197265625,-2507.070068359375,-400000.0625,-6748.77001953125,-400000.0625,-16914.1796875,-400000.0625
335.787734746933,-400000.0625,-12738.419921875,-2488.800048828125,-400000.0625,-6730.56005859375,-400000.0625,-16888.240234375,-400000.0625
335.81301641464233,-400000.0625,-12730.4599609375,-2485.080078125,-400000.0625,-6725.8798828125,-400000.0625,-16884.94921875,-400000.0625
335.8453137874603,-400000.0625,-12758.400390625,-2504.590087890625,-400000.0625,-6744.72021484375,-400000.0625,-16909.890625,-400000.0625
335.93562150001526,-400000.0625,-12773.7998046875,-2517.1298828125,-400000.0625,-6757.259765625,-400000.0625,-16921.380859375,-400000.0625
335.97944712638855,-400000.0625,-12761.169921875,-2507.830078125,-400000.0625,-6743.72021484375,-400000.0625,-16913.75,-400000.0625
336.0683228969574,-400000.0625,-12733.5595703125,-2489.139892578125,-400000.0625,-6726.169921875,-400000.0625,-16890.380859375,-400000.0625
336.1035261154175,-400000.0625,-12733.0302734375,-2487.949951171875,-400000.0625,-6726.60009765625,-400000.0625,-16886.619140625,-400000.0625
336.1699573993683,-400000.0625,-12758.400390625,-2508.739990234375,-400000.0625,-6749.580078125,-400000.0625,-16913.23046875,-400000.0625
336.2033236026764,-400000.0625,-12775.9501953125,-2521.56005859375,-400000.0625,-6766.56005859375,-400000.0625,-16925.859375,-400000.0625
336.22485995292664,-400000.0625,-12760.7802734375,-2511.070068359375,-400000.0625,-6753.06005859375,-400000.0625,-16910.029296875,-400000.0625
336.2722954750061,-400000.0625,-12733.169921875,-2489.85009765625,-400000.0625,-6722.31005859375,-400000.0625,-16883.419921875,-400000.0625
336.309889793396,-400000.0625,-12728.5,-2483.320068359375,-400000.0625,-6713.68017578125,-400000.0625,-16882.900390625,-400000.0625
336.3415422439575,-400000.0625,-12758.0703125,-2504.35009765625,-400000.0625,-6741.18994140625,-400000.0625,-16904.640625,-400000.0625
336.40788078308105,-400000.0625,-12775.51953125,-2517.56005859375,-400000.0625,-6760.22021484375,-400000.0625,-16921.5703125,-400000.0625
336.43563437461853,-400000.0625,-12761.5498046875,-2510.260009765625,-400000.0625,-6759.740234375,-400000.0625,-16912.080078125,-400000.0625
336.47104048728943,-400000.0625,-12736.849609375,-2490.469970703125,-400000.0625,-6735.08984375,-400000.0625,-16888.189453125,-400000.0625
336.52993083000183,-400000.0625,-12731.3603515625,-2484.659912109375,-400000.0625,-6724.8798828125,-400000.0625,-16885.66015625,-400000.0625
336.56461358070374,-400000.0625,-12757.73046875,-2506.919921875,-400000.0625,-6746.9599609375,-400000.0625,-16902.349609375,-400000.0625
336.5982041358948,-400000.0625,-12774.7998046875,-2520.989990234375,-400000.0625,-6763.5498046875,-400000.0625,-16916.130859375,-400000.0625
336.65138006210327,-400000.0625,-12762.5498046875,-2511.219970703125,-400000.0625,-6750.77978515625,-400000.0625,-16910.7890625,-400000.0625
336.682080745697,-400000.0625,-12739.66015625,-2491.89990234375,-400000.0625,-6727.1201171875,-400000.0625,-16885.4296875,-400000.0625
336.7067987918854,-400000.0625,-12735.990234375,-2490.139892578125,-400000.0625,-6722.16015625,-400000.0625,-16879.1796875,-400000.0625
336.7628252506256,-400000.0625,-12764.5498046875,-2509.449951171875,-400000.0625,-6752.10986328125,-400000.0625,-16909.599609375,-400000.0625
336.7943823337555,-400000.0625,-12785.48046875,-2520.1298828125,-400000.0625,-6768.75,-400000.0625,-16934.30078125,-400000.0625
336.8269543647766,-400000.0625,-12772.2802734375,-2521.22998046875,-400000.0625,-6756.68994140625,-400000.0625,-16908.9296875,-400000.0625
336.8819811344147,-400000.0625,-12742.849609375,-2509.31005859375,-400000.0625,-6732.7998046875,-400000.0625,-16878.75,-400000.0625
336.91663217544556,-400000.0625,-12740.23046875,-2498.199951171875,-400000.0625,-6726.02978515625,-400000.0625,-16873.55078125,-400000.0625
336.9428918361664,-400000.0625,-12772.990234375,-2520.699951171875,-400000.0625,-6748.6298828125,-400000.0625,-16893.439453125,-400000.0625
337.02790665626526,-400000.0625,-12781.0498046875,-2535.14990234375,-400000.0625,-6764.22021484375,-400000.0625,-16908.119140625,-400000.0625
337.04941868782043,-400000.0625,-12765.5,-2528.6201171875,-400000.0625,-6748.52978515625,-400000.0625,-16898.25,-400000.0625
337.1807577610016,-400000.0625,-12752.9599609375,-2516.889892578125,-400000.0625,-6730.18017578125,-400000.0625,-16868.310546875,-400000.0625
337.30621576309204,-400000.0625,-12758.7802734375,-2515.409912109375,-400000.0625,-6728.509765625,-400000.0625,-16861.439453125,-400000.0625
337.4071650505066,-400000.0625,-12778.900390625,-2530.3798828125,-400000.0625,-6745.9599609375,-400000.0625,-16886.08984375,-400000.0625
337.49586391448975,-400000.0625,-12795.01953125,-2545.7900390625,-400000.0625,-6765.22021484375,-400000.0625,-16900.490234375,-400000.0625
337.53605675697327,-400000.0625,-12784.6298828125,-2539.39990234375,-400000.0625,-6758.31005859375,-400000.0625,-16887.859375,-400000.0625
337.6120946407318,-400000.0625,-12755.7802734375,-2516.27001953125,-400000.0625,-6730.3701171875,-400000.0625,-16866.30078125,-400000.0625
337.70431303977966,-400000.0625,-12746.669921875,-2509.830078125,-400000.0625,-6720.06982421875,-400000.0625,-16859.099609375,-400000.0625
337.7945351600647,-400000.0625,-12773.3203125,-2531.719970703125,-400000.0625,-6745.72021484375,-400000.0625,-16878.560546875,-400000.0625
337.8343987464905,-400000.0625,-12787.6298828125,-2542.830078125,-400000.0625,-6763.75,-400000.0625,-16896.5390625,-400000.0625
337.93349838256836,-400000.0625,-12780.759765625,-2537.72998046875,-400000.0625,-6760.5,-400000.0625,-16885.380859375,-400000.0625
337.98229694366455,-400000.0625,-12762.98046875,-2520.280029296875,-400000.0625,-6736.85009765625,-400000.0625,-16862.25,-400000.0625
338.0497190952301,-400000.0625,-12757.0595703125,-2518.510009765625,-400000.0625,-6731.7998046875,-400000.0625,-16859.630859375,-400000.0625
338.0886118412018,-400000.0625,-12777.3798828125,-2535.719970703125,-400000.0625,-6753.35009765625,-400000.0625,-16884.380859375,-400000.0625
338.19392108917236,-400000.0625,-12799.41015625,-2553.64990234375,-400000.0625,-6772.81005859375,-400000.0625,-16901.0703125,-400000.0625
338.25685572624207,-400000.0625,-12789.4404296875,-2543.39990234375,-400000.0625,-6761.5,-400000.0625,-16889.759765625,-400000.0625
338.3324730396271,-400000.0625,-12762.8798828125,-2521.3701171875,-400000.0625,-6738.18994140625,-400000.0625,-16869.880859375,-400000.0625
338.4147653579712,-400000.0625,-12752.2001953125,-2516.27001953125,-400000.0625,-6727.89013671875,-400000.0625,-16862.439453125,-400000.0625
338.4465584754944,-400000.0625,-12771.23046875,-2528.139892578125,-400000.0625,-6742.81005859375,-400000.0625,-16883.94921875,-400000.0625
338.5055134296417,-400000.0625,-12794.01953125,-2546.360107421875,-400000.0625,-6765.75,-400000.0625,-16899.400390625,-400000.0625
338.598427772522,-400000.0625,-12783.91015625,-2536.489990234375,-400000.0625,-6759.22021484375,-400000.0625,-16889.529296875,-400000.0625
338.682902097702,-400000.0625,-12758.1103515625,-2519.080078125,-400000.0625,-6735.18017578125,-400000.0625,-16871.220703125,-400000.0625
338.7378408908844,-400000.0625,-12753.580078125,-2517.27001953125,-400000.0625,-6734.31982421875,-400000.0625,-16866.349609375,-400000.0625
338.80042457580566,-400000.0625,-12779.0498046875,-2532.820068359375,-400000.0625,-6754.58984375,-400000.0625,-16884.51953125,-400000.0625
338.8394911289215,-400000.0625,-12796.1201171875,-2544.780029296875,-400000.0625,-6769.31982421875,-400000.0625,-16903.880859375,-400000.0625
338.9242663383484,-400000.0625,-12783.580078125,-2536.110107421875,-400000.0625,-6755.10986328125,-400000.0625,-16888.2890625,-400000.0625
338.97410440444946,-400000.0625,-12757.400390625,-2515.409912109375,-400000.0625,-6728.5498046875,-400000.0625,-16862.19921875,-400000.0625
339.06701016426086,-400000.0625,-12750.7197265625,-2513.840087890625,-400000.0625,-6720.830078125,-400000.0625,-16861.970703125,-400000.0625
339.1182816028595,-400000.0625,-12773.9404296875,-2531.9599609375,-400000.0625,-6747.81982421875,-400000.0625,-16884.419921875,-400000.0625
339.2292218208313,-400000.0625,-12792.259765625,-2544.39990234375,-400000.0625,-6768.27978515625,-400000.0625,-16903.349609375,-400000.0625
339.337842464447,-400000.0625,-12779.669921875,-2532.820068359375,-400000.0625,-6759.64013671875,-400000.0625,-16894.580078125,-400000.0625
339.42170119285583,-400000.0625,-12761.3095703125,-2520.659912109375,-400000.0625,-6739.330078125,-400000.0625,-16864.400390625,-400000.0625
339.4673054218292,-400000.0625,-12755.58984375,-2513.60009765625,-400000.0625,-6732.990234375,-400000.0625,-16862.439453125,-400000.0625
339.53159260749817,-400000.0625,-12777.330078125,-2529.669921875,-400000.0625,-6751.68017578125,-400000.0625,-16880.419921875,-400000.0625
339.5770175457001,-400000.0625,-12794.16015625,-2546.409912109375,-400000.0625,-6766.990234375,-400000.0625,-16898.25,-400000.0625
339.6522512435913,-400000.0625,-12782.8603515625,-2537.580078125,-400000.0625,-6752.10986328125,-400000.0625,-16889.189453125,-400000.0625
339.6972873210907,-400000.0625,-12761.6904296875,-2522.75,-400000.0625,-6735.419921875,-400000.0625,-16859.33984375,-400000.0625
339.7364902496338,-400000.0625,-12753.8203125,-2517.840087890625,-400000.0625,-6733.3701171875,-400000.0625,-16859.150390625,-400000.0625
339.75749588012695,-400000.0625,-12777.7099609375,-2533.820068359375,-400000.0625,-6753.77978515625,-400000.0625,-16884.419921875,-400000.0625
339.7844340801239,-400000.0625,-12796.2099609375,-2548.409912109375,-400000.0625,-6773.81005859375,-400000.0625,-16902.109375,-400000.0625
339.82116651535034,-400000.0625,-12785.76953125,-2540.300048828125,-400000.0625,-6761.31005859375,-400000.0625,-16890.240234375,-400000.0625
339.8650481700897,-400000.0625,-12759.7802734375,-2520.080078125,-400000.0625,-6735.18017578125,-400000.0625,-16866.830078125,-400000.0625
339.8835434913635,-400000.0625,-12759.259765625,-2513.929931640625,-400000.0625,-6730.22021484375,-400000.0625,-16855.529296875,-400000.0625
339.9174048900604,-400000.0625,-12786.91015625,-2537.06005859375,-400000.0625,-6752.10986328125,-400000.0625,-16880.1796875,-400000.0625
339.94330406188965,-400000.0625,-12805.1796875,-2554.22998046875,-400000.0625,-6767.85009765625,-400000.0625,-16910.130859375,-400000.0625
339.9824516773224,-400000.0625,-12790.4404296875,-2541.110107421875,-400000.0625,-6753.02001953125,-400000.0625,-16894.009765625,-400000.0625
340.0136618614197,-400000.0625,-12761.259765625,-2520.179931640625,-400000.0625,-6729.56005859375,-400000.0625,-16863.5390625,-400000.0625
340.0439975261688,-400000.0625,-12758.2998046875,-2517.64990234375,-400000.0625,-6732.75,-400000.0625,-16862.8203125,-400000.0625
340.1105868816376,-400000.0625,-12784.33984375,-2537.06005859375,-400000.0625,-6754.490234375,-400000.0625,-16885.94921875,-400000.0625
340.1517367362976,-400000.0625,-12803.41015625,-2554.0400390625,-400000.0625,-6770.9501953125,-400000.0625,-16904.58984375,-400000.0625
340.2170774936676,-400000.0625,-12787.9599609375,-2542.2099609375,-400000.0625,-6759.06982421875,-400000.0625,-16889.619140625,-400000.0625
340.23989033699036,-400000.0625,-12759.01953125,-2523.3701171875,-400000.0625,-6740.56982421875,-400000.0625,-16859.720703125,-400000.0625
340.2676086425781,-400000.0625,-12751.4404296875,-2515.1298828125,-400000.0625,-6731.7998046875,-400000.0625,-16860.869140625,-400000.0625
340.3135938644409,-400000.0625,-12777.9501953125,-2536.5400390625,-400000.0625,-6747.8701171875,-400000.0625,-16884.759765625,-400000.0625
340.333291053772,-400000.0625,-12797.599609375,-2549.550048828125,-400000.0625,-6766.56005859375,-400000.0625,-16898.109375,-400000.0625
340.35525131225586,-400000.0625,-12785.2900390625,-2536.5400390625,-400000.0625,-6747.580078125,-400000.0625,-16890.91015625,-400000.0625
340.3728084564209,-400000.0625,-12763.2197265625,-2522.7099609375,-400000.0625,-6727.509765625,-400000.0625,-16865.400390625,-400000.0625
340.4346568584442,-400000.0625,-12755.4404296875,-2517.4599609375,-400000.0625,-6731.27001953125,-400000.0625,-16860.529296875,-400000.0625
340.46230578422546,-400000.0625,-12782.150390625,-2538.6298828125,-400000.0625,-6752.25,-400000.0625,-16881.1796875,-400000.0625
340.496461391449,-400000.0625,-12802.1298828125,-2555.080078125,-400000.0625,-6771.66015625,-400000.0625,-16904.830078125,-400000.0625
340.55620408058167,-400000.0625,-12785.580078125,-2541.159912109375,-400000.0625,-6760.41015625,-400000.0625,-16895.9609375,-400000.0625
340.59399342536926,-400000.0625,-12758.8798828125,-2525.85009765625,-400000.0625,-6734.47021484375,-400000.0625,-16866.16015625,-400000.0625
340.62055015563965,-400000.0625,-12756.16015625,-2520.3701171875,-400000.0625,-6728.4599609375,-400000.0625,-16860.33984375,-400000.0625
340.681928396225,-400000.0625,-12780.5703125,-2538.43994140625,-400000.0625,-6749.33984375,-400000.0625,-16877.939453125,-400000.0625
340.74511909484863,-400000.0625,-12801.7900390625,-2554.800048828125,-400000.0625,-6765.7001953125,-400000.0625,-16897.490234375,-400000.0625
340.8242561817169,-400000.0625,-12789.919921875,-2542.5400390625,-400000.0625,-6749.43994140625,-400000.0625,-16890.9609375,-400000.0625
340.8704323768616,-400000.0625,-12761.2099609375,-2526.469970703125,-400000.0625,-6737.330078125,-400000.0625,-16874.080078125,-400000.0625
340.9458680152893,-400000.0625,-12761.2099609375,-2523.610107421875,-400000.0625,-6736.9501953125,-400000.0625,-16866.880859375,-400000.0625
341.0182731151581,-400000.0625,-12784.9599609375,-2542.5,-400000.0625,-6752.8701171875,-400000.0625,-16889.150390625,-400000.0625
341.1152346134186,-400000.0625,-12805.1796875,-2557.989990234375,-400000.0625,-6771.89990234375,-400000.0625,-16909.7890625,-400000.0625
341.1705927848816,-400000.0625,-12794.349609375,-2544.929931640625,-400000.0625,-6753.77978515625,-400000.0625,-16898.25,-400000.0625
341.2827696800232,-400000.0625,-12763.98046875,-2523.989990234375,-400000.0625,-6725.64990234375,-400000.0625,-16868.640625,-400000.0625
341.44461464881897,-400000.0625,-12758.2998046875,-2521.7099609375,-400000.0625,-6728.75,-400000.0625,-16865.01953125,-400000.0625
341.5654938220978,-400000.0625,-12777.66015625,-2530.909912109375,-400000.0625,-6748.10009765625,-400000.0625,-16879.75,-400000.0625
341.7011983394623,-400000.0625,-12798.5,-2550.550048828125,-400000.0625,-6765.3701171875,-400000.0625,-16900.970703125,-400000.0625
341.83000016212463,-400000.0625,-12784.33984375,-2542.260009765625,-400000.0625,-6752.919921875,-400000.0625,-16891.05078125,-400000.0625
341.94164657592773,-400000.0625,-12769.2197265625,-2527.570068359375,-400000.0625,-6736.419921875,-400000.0625,-16870.259765625,-400000.0625
342.0357942581177,-400000.0625,-12761.6904296875,-2524.570068359375,-400000.0625,-6731.22021484375,-400000.0625,-16869.359375,-400000.0625
342.08435440063477,-400000.0625,-12786.25,-2546.97998046875,-400000.0625,-6756.02001953125,-400000.0625,-16886.05078125,-400000.0625
342.2079885005951,-400000.0625,-12801.3603515625,-2560.7099609375,-400000.0625,-6770.7099609375,-400000.0625,-16898.58984375,-400000.0625
342.32354283332825,-400000.0625,-12796.6396484375,-2548.60009765625,-400000.0625,-6761.06982421875,-400000.0625,-16890.150390625,-400000.0625
342.3986599445343,-400000.0625,-12760.0703125,-2520.469970703125,-400000.0625,-6735.419921875,-400000.0625,-16865.349609375,-400000.0625
342.4330725669861,-400000.0625,-12752.3896484375,-2519.0400390625,-400000.0625,-6727.97998046875,-400000.0625,-16858.76953125,-400000.0625
342.49677205085754,-400000.0625,-12782.48046875,-2538.590087890625,-400000.0625,-6745.0498046875,-400000.0625,-16882.849609375,-400000.0625
342.5271408557892,-400000.0625,-12800.41015625,-2552.889892578125,-400000.0625,-6764.169921875,-400000.0625,-16900.58984375,-400000.0625
342.56532096862793,-400000.0625,-12788.490234375,-2542.35009765625,-400000.0625,-6757.8798828125,-400000.0625,-16889.859375,-400000.0625
342.628536939621,-400000.0625,-12771.1796875,-2529.340087890625,-400000.0625,-6742.240234375,-400000.0625,-16864.640625,-400000.0625
342.6530759334564,-400000.0625,-12764.1201171875,-2525.659912109375,-400000.0625,-6737.85009765625,-400000.0625,-16863.2109375,-400000.0625
342.6731376647949,-400000.0625,-12787.1103515625,-2542.070068359375,-400000.0625,-6752.77978515625,-400000.0625,-16886.669921875,-400000.0625
342.73041009902954,-400000.0625,-12805.990234375,-2551.93994140625,-400000.0625,-6769.7099609375,-400000.0625,-16907.359375,-400000.0625
342.7558557987213,-400000.0625,-12786.3896484375,-2542.2099609375,-400000.0625,-6758.39990234375,-400000.0625,-16897.779296875,-400000.0625
342.78344655036926,-400000.0625,-12766.3603515625,-2531.9599609375,-400000.0625,-6740.14013671875,-400000.0625,-16868.9296875,-400000.0625
342.83521485328674,-400000.0625,-12762.01953125,-2527.090087890625,-400000.0625,-6734.56005859375,-400000.0625,-16857.529296875,-400000.0625
342.8692350387573,-400000.0625,-12786.6796875,-2544.97998046875,-400000.0625,-6753.8701171875,-400000.0625,-16883.80078125,-400000.0625
342.9062342643738,-400000.0625,-12814.48046875,-2564.47998046875,-400000.0625,-6770.9501953125,-400000.0625,-16901.58984375,-400000.0625
342.96420311927795,-400000.0625,-12794.830078125,-2554.75,-400000.0625,-6758.39990234375,-400000.0625,-16895.8203125,-400000.0625
343.0122880935669,-400000.0625,-12760.9296875,-2529.909912109375,-400000.0625,-6745.91015625,-400000.0625,-16872.029296875,-400000.0625
343.09504985809326,-400000.0625,-12757.349609375,-2521.89990234375,-400000.0625,-6739.759765625,-400000.0625,-16863.16015625,-400000.0625
343.1381585597992,-400000.0625,-12786.6298828125,-2543.260009765625,-400000.0625,-6758.4501953125,-400000.0625,-16881.560546875,-400000.0625
343.2364902496338,-400000.0625,-12809.66015625,-2562.949951171875,-400000.0625,-6775.7099609375,-400000.0625,-16906.689453125,-400000.0625
343.2731409072876,-400000.0625,-12788.4404296875,-2546.739990234375,-400000.0625,-6762.5498046875,-400000.0625,-16891.150390625,-400000.0625
343.36856174468994,-400000.0625,-12762.599609375,-2528.239990234375,-400000.0625,-6738.27978515625,-400000.0625,-16865.400390625,-400000.0625
343.4047930240631,-400000.0625,-12760.6396484375,-2527.330078125,-400000.0625,-6735.18017578125,-400000.0625,-16868.970703125,-400000.0625
343.50742173194885,-400000.0625,-12787.8203125,-2545.7900390625,-400000.0625,-6759.259765625,-400000.0625,-16887.330078125,-400000.0625
343.5956823825836,-400000.0625,-12810.51953125,-2566.10009765625,-400000.0625,-6782.33984375,-400000.0625,-16911.69921875,-400000.0625
343.6398732662201,-400000.0625,-12799.5,-2559.610107421875,-400000.0625,-6766.7001953125,-400000.0625,-16898.73046875,-400000.0625
343.72007846832275,-400000.0625,-12768.5595703125,-2537.300048828125,-400000.0625,-6742.72021484375,-400000.0625,-16867.5,-400000.0625
343.7656235694885,-400000.0625,-12760.400390625,-2526.090087890625,-400000.0625,-6739.759765625,-400000.0625,-16860.73046875,-400000.0625
343.827942609787,-400000.0625,-12781.8095703125,-2541.02001953125,-400000.0625,-6756.830078125,-400000.0625,-16888.859375,-400000.0625
343.85302996635437,-400000.0625,-12805.080078125,-2556.469970703125,-400000.0625,-6769.85009765625,-400000.0625,-16906.44921875,-400000.0625
343.89693331718445,-400000.0625,-12798.1201171875,-2551.080078125,-400000.0625,-6767.89013671875,-400000.0625,-16898.8203125,-400000.0625
343.9659757614136,-400000.0625,-12772.849609375,-2534.77001953125,-400000.0625,-6745.9599609375,-400000.0625,-16876.029296875,-400000.0625
343.9978063106537,-400000.0625,-12758.349609375,-2524.85009765625,-400000.0625,-6735.990234375,-400000.0625,-16863.109375,-400000.0625
344.08733463287354,-400000.0625,-12780.7197265625,-2543.02001953125,-400000.0625,-6757.1201171875,-400000.0625,-16892.150390625,-400000.0625
344.133820772171,-400000.0625,-12806.1298828125,-2562.570068359375,-400000.0625,-6775.7099609375,-400000.0625,-16909.650390625,-400000.0625
344.2114517688751,-400000.0625,-12787.2001953125,-2547.929931640625,-400000.0625,-6756.93017578125,-400000.0625,-16890.529296875,-400000.0625
344.25609731674194,-400000.0625,-12760.7802734375,-2527.050048828125,-400000.0625,-6737.89990234375,-400000.0625,-16867.970703125,-400000.0625
344.33781385421753,-400000.0625,-12756.4404296875,-2525.3798828125,-400000.0625,-6736.85009765625,-400000.0625,-16870.2109375,-400000.0625
344.3899381160736,-400000.0625,-12781.33984375,-2546.5,-400000.0625,-6756.5400390625,-400000.0625,-16890.2890625,-400000.0625
344.4767413139343,-400000.0625,-12804.080078125,-2560.139892578125,-400000.0625,-6775.18994140625,-400000.0625,-16908.9296875,-400000.0625
344.51672196388245,-400000.0625,-12791.349609375,-2551.75,-400000.0625,-6764.97998046875,-400000.0625,-16901.779296875,-400000.0625
344.5919907093048,-400000.0625,-12756.4404296875,-2525.570068359375,-400000.0625,-6732.7998046875,-400000.0625,-16870.119140625,-400000.0625
344.6213409900665,-400000.0625,-12755.919921875,-2525.6201171875,-400000.0625,-6727.02978515625,-400000.0625,-16857.580078125,-400000.0625
344.6796164512634,-400000.0625,-12776.8095703125,-2536.580078125,-400000.0625,-6747.06005859375,-400000.0625,-16882.419921875,-400000.0625
344.70536184310913,-400000.0625,-12794.16015625,-2548.889892578125,-400000.0625,-6767.7001953125,-400000.0625,-16906.0703125,-400000.0625
344.7296509742737,-400000.0625,-12787.9599609375,-2547.260009765625,-400000.0625,-6764.509765625,-400000.0625,-16890.720703125,-400000.0625
344.7953791618347,-400000.0625,-12763.6396484375,-2530.0,-400000.0625,-6739.56982421875,-400000.0625,-16865.640625,-400000.0625
344.8281478881836,-400000.0625,-12757.73046875,-2525.090087890625,-400000.0625,-6733.93994140625,-400000.0625,-16859.580078125,-400000.0625
344.8684153556824,-400000.0625,-12783.48046875,-2546.219970703125,-400000.0625,-6759.169921875,-400000.0625,-16885.5703125,-400000.0625
344.9390158653259,-400000.0625,-12803.990234375,-2558.570068359375,-400000.0625,-6784.43994140625,-400000.0625,-16907.359375,-400000.0625
344.97901153564453,-400000.0625,-12789.2001953125,-2549.929931640625,-400000.0625,-6765.56005859375,-400000.0625,-16893.33984375,-400000.0625
345.0707805156708,-400000.0625,-12759.73046875,-2525.18994140625,-400000.0625,-6735.27978515625,-400000.0625,-16864.970703125,-400000.0625
345.0872473716736,-400000.0625,-12755.1103515625,-2517.409912109375,-400000.0625,-6729.93994140625,-400000.0625,-16859.630859375,-400000.0625
345.1624195575714,-400000.0625,-12773.7099609375,-2537.159912109375,-400000.0625,-6751.43994140625,-400000.0625,-16880.80078125,-400000.0625
345.20983481407166,-400000.0625,-12802.2197265625,-2558.179931640625,-400000.0625,-6774.18994140625,-400000.0625,-16900.6796875,-400000.0625
345.2765200138092,-400000.0625,-12793.01953125,-2550.320068359375,-400000.0625,-6765.22021484375,-400000.0625,-16896.349609375,-400000.0625
345.32307720184326,-400000.0625,-12765.740234375,-2530.860107421875,-400000.0625,-6740.14013671875,-400000.0625,-16870.740234375,-400000.0625
345.3777480125427,-400000.0625,-12762.740234375,-2526.669921875,-400000.0625,-6736.419921875,-400000.0625,-16863.30078125,-400000.0625
345.4085669517517,-400000.0625,-12782.669921875,-2541.5400390625,-400000.0625,-6754.58984375,-400000.0625,-16885.849609375,-400000.0625
345.438818693161,-400000.0625,-12803.0302734375,-2556.7099609375,-400000.0625,-6772.85009765625,-400000.0625,-16899.16015625,-400000.0625
345.4986946582794,-400000.0625,-12799.7900390625,-2551.889892578125,-400000.0625,-6766.990234375,-400000.0625,-16891.33984375,-400000.0625
345.51927280426025,-400000.0625,-12767.3203125,-2527.89990234375,-400000.0625,-6738.22998046875,-400000.0625,-16871.5,-400000.0625
345.53865337371826,-400000.0625,-12755.16015625,-2520.989990234375,-400000.0625,-6729.56005859375,-400000.0625,-16859.529296875,-400000.0625
345.5661029815674,-400000.0625,-12773.849609375,-2535.919921875,-400000.0625,-6747.91015625,-400000.0625,-16879.419921875,-400000.0625
345.64418506622314,-400000.0625,-12798.1201171875,-2556.1298828125,-400000.0625,-6769.08984375,-400000.0625,-16906.310546875,-400000.0625
345.68621587753296,-400000.0625,-12794.9697265625,-2554.56005859375,-400000.0625,-6769.27978515625,-400000.0625,-16896.5390625,-400000.0625
345.74778175354004,-400000.0625,-12766.169921875,-2528.050048828125,-400000.0625,-6744.81005859375,-400000.0625,-16868.2109375,-400000.0625
345.78467631340027,-400000.0625,-12755.2998046875,-2515.889892578125,-400000.0625,-6728.93994140625,-400000.0625,-16866.259765625,-400000.0625
345.8122732639313,-400000.0625,-12780.91015625,-2542.929931640625,-400000.0625,-6748.68017578125,-400000.0625,-16885.66015625,-400000.0625
345.8947505950928,-400000.0625,-12808.6103515625,-2560.18994140625,-400000.0625,-6775.330078125,-400000.0625,-16911.130859375,-400000.0625
345.93989515304565,-400000.0625,-12797.6904296875,-2555.56005859375,-400000.0625,-6767.509765625,-400000.0625,-16895.919921875,-400000.0625
346.01075434684753,-400000.0625,-12763.3095703125,-2527.330078125,-400000.0625,-6741.47998046875,-400000.0625,-16865.6796875,-400000.0625
346.04296493530273,-400000.0625,-12752.009765625,-2515.360107421875,-400000.0625,-6734.7099609375,-400000.0625,-16866.259765625,-400000.0625
346.12686920166016,-400000.0625,-12783.6201171875,-2542.639892578125,-400000.0625,-6752.97021484375,-400000.0625,-16881.0390625,-400000.0625
346.1715281009674,-400000.0625,-12804.41015625,-2556.989990234375,-400000.0625,-6771.66015625,-400000.0625,-16902.259765625,-400000.0625
346.21606731414795,-400000.0625,-12789.7802734375,-2548.550048828125,-400000.0625,-6765.509765625,-400000.0625,-16897.490234375,-400000.0625
346.24160528182983,-400000.0625,-12767.3203125,-2525.85009765625,-400000.0625,-6748.919921875,-400000.0625,-16873.220703125,-400000.0625
346.2691459655762,-400000.0625,-12763.6904296875,-2521.85009765625,-400000.0625,-6744.0498046875,-400000.0625,-16867.9296875,-400000.0625
346.2936396598816,-400000.0625,-12790.6796875,-2549.699951171875,-400000.0625,-6756.1201171875,-400000.0625,-16893.48046875,-400000.0625
346.3624789714813,-400000.0625,-12800.0302734375,-2552.56005859375,-400000.0625,-6766.64990234375,-400000.0625,-16904.01953125,-400000.0625
346.3939368724823,-400000.0625,-12786.25,-2541.39990234375,-400000.0625,-6761.7900390625,-400000.0625,-16889.240234375,-400000.0625
346.4388906955719,-400000.0625,-12759.4501953125,-2522.75,-400000.0625,-6736.60986328125,-400000.0625,-16872.259765625,-400000.0625
346.4651346206665,-400000.0625,-12760.2099609375,-2521.419921875,-400000.0625,-6731.27001953125,-400000.0625,-16870.359375,-400000.0625
346.49787878990173,-400000.0625,-12789.4404296875,-2540.300048828125,-400000.0625,-6755.06982421875,-400000.0625,-16884.5703125,-400000.0625
346.5502989292145,-400000.0625,-12811.23046875,-2560.18994140625,-400000.0625,-6772.3798828125,-400000.0625,-16904.400390625,-400000.0625
346.5787105560303,-400000.0625,-12799.9296875,-2555.85009765625,-400000.0625,-6756.16015625,-400000.0625,-16890.669921875,-400000.0625
346.6049358844757,-400000.0625,-12771.990234375,-2528.81005859375,-400000.0625,-6740.0,-400000.0625,-16873.55078125,-400000.0625
346.6862106323242,-400000.0625,-12769.080078125,-2517.800048828125,-400000.0625,-6743.52978515625,-400000.0625,-16871.650390625,-400000.0625
346.7123260498047,-400000.0625,-12789.6796875,-2549.31005859375,-400000.0625,-6759.740234375,-400000.0625,-16883.66015625,-400000.0625
346.76343846321106,-400000.0625,-12801.2197265625,-2556.56005859375,-400000.0625,-6770.7099609375,-400000.0625,-16902.01953125,-400000.0625
346.80588006973267,-400000.0625,-12800.740234375,-2548.889892578125,-400000.0625,-6764.1298828125,-400000.0625,-16897.009765625,-400000.0625
346.8394784927368,-400000.0625,-12779.5703125,-2536.110107421875,-400000.0625,-6745.2900390625,-400000.0625,-16881.990234375,-400000.0625
346.89602756500244,-400000.0625,-12771.419921875,-2534.14990234375,-400000.0625,-6735.75,-400000.0625,-16871.41015625,-400000.0625
346.93380522727966,-400000.0625,-12779.4296875,-2532.010009765625,-400000.0625,-6755.58984375,-400000.0625,-16888.0,-400000.0625
346.96045303344727,-400000.0625,-12804.2197265625,-2546.8798828125,-400000.0625,-6766.7998046875,-400000.0625,-16908.4609375,-400000.0625
347.0111815929413,-400000.0625,-12798.5,-2554.4599609375,-400000.0625,-6768.56005859375,-400000.0625,-16887.51953125,-400000.0625
347.03626465797424,-400000.0625,-12763.6904296875,-2526.89990234375,-400000.0625,-6749.2998046875,-400000.0625,-16864.640625,-400000.0625
347.06244373321533,-400000.0625,-12758.400390625,-2516.75,-400000.0625,-6734.31982421875,-400000.0625,-16870.689453125,-400000.0625
347.1217362880707,-400000.0625,-12796.5,-2548.550048828125,-400000.0625,-6758.259765625,-400000.0625,-16885.470703125,-400000.0625
347.1547737121582,-400000.0625,-12817.0,-2563.719970703125,-400000.0625,-6777.85986328125,-400000.0625,-16906.0703125,-400000.0625
347.18046951293945,-400000.0625,-12791.58984375,-2546.449951171875,-400000.0625,-6759.93017578125,-400000.0625,-16901.01953125,-400000.0625
347.23903799057007,-400000.0625,-12762.6904296875,-2520.75,-400000.0625,-6738.0400390625,-400000.0625,-16875.69921875,-400000.0625
347.26776218414307,-400000.0625,-12754.5400390625,-2518.3701171875,-400000.0625,-6731.1298828125,-400000.0625,-16859.9609375,-400000.0625
347.29275488853455,-400000.0625,-12780.0498046875,-2534.580078125,-400000.0625,-6753.02001953125,-400000.0625,-16883.5703125,-400000.0625
347.3576605319977,-400000.0625,-12798.83984375,-2544.929931640625,-400000.0625,-6760.97998046875,-400000.0625,-16917.0390625,-400000.0625
347.396075963974,-400000.0625,-12784.580078125,-2530.860107421875,-400000.0625,-6753.06005859375,-400000.0625,-16901.30078125,-400000.0625
347.4461579322815,-400000.0625,-12754.8701171875,-2513.739990234375,-400000.0625,-6741.14013671875,-400000.0625,-16871.169921875,-400000.0625
347.4846827983856,-400000.0625,-12752.580078125,-2509.070068359375,-400000.0625,-6734.31982421875,-400000.0625,-16879.990234375,-400000.0625
347.50254011154175,-400000.0625,-12783.150390625,-2536.010009765625,-400000.0625,-6752.43994140625,-400000.0625,-16900.58984375,-400000.0625
347.54870200157166,-400000.0625,-12798.41015625,-2549.929931640625,-400000.0625,-6767.85009765625,-400000.0625,-16920.380859375,-400000.0625
347.584068775177,-400000.0625,-12790.0595703125,-2546.260009765625,-400000.0625,-6757.5498046875,-400000.0625,-16910.69921875,-400000.0625
347.61617398262024,-400000.0625,-12766.7001953125,-2524.330078125,-400000.0625,-6734.31982421875,-400000.0625,-16882.900390625,-400000.0625
347.6803250312805,-400000.0625,-12751.5302734375,-2513.219970703125,-400000.0625,-6726.1201171875,-400000.0625,-16874.41015625,-400000.0625
347.7131655216217,-400000.0625,-12778.1904296875,-2530.9599609375,-400000.0625,-6749.5400390625,-400000.0625,-16892.859375,-400000.0625
347.7336657047272,-400000.0625,-12802.2197265625,-2549.60009765625,-400000.0625,-6764.02978515625,-400000.0625,-16917.1796875,-400000.0625
347.7783627510071,-400000.0625,-12789.5400390625,-2542.929931640625,-400000.0625,-6754.2099609375,-400000.0625,-16912.1796875,-400000.0625
347.8072052001953,-400000.0625,-12765.1201171875,-2519.659912109375,-400000.0625,-6740.759765625,-400000.0625,-16883.66015625,-400000.0625
347.82967615127563,-400000.0625,-12758.919921875,-2513.360107421875,-400000.0625,-6733.3701171875,-400000.0625,-16876.3203125,-400000.0625
347.8503830432892,-400000.0625,-12777.7099609375,-2526.570068359375,-400000.0625,-6749.2998046875,-400000.0625,-16909.890625,-400000.0625
347.94654154777527,-400000.0625,-12799.7900390625,-2545.31005859375,-400000.0625,-6772.7099609375,-400000.0625,-16926.2890625,-400000.0625
348.03441739082336,-400000.0625,-12793.259765625,-2542.2099609375,-400000.0625,-6761.5,-400000.0625,-16906.640625,-400000.0625
348.1170303821564,-400000.0625,-12766.509765625,-2517.989990234375,-400000.0625,-6732.22998046875,-400000.0625,-16878.849609375,-400000.0625
348.1715896129608,-400000.0625,-12758.73046875,-2515.60009765625,-400000.0625,-6725.02978515625,-400000.0625,-16881.900390625,-400000.0625
348.2281217575073,-400000.0625,-12782.4296875,-2531.81005859375,-400000.0625,-6743.77001953125,-400000.0625,-16910.3203125,-400000.0625
348.26775765419006,-400000.0625,-12799.2197265625,-2543.31005859375,-400000.0625,-6765.1298828125,-400000.0625,-16916.7109375,-400000.0625
348.29788422584534,-400000.0625,-12793.400390625,-2538.489990234375,-400000.0625,-6764.97998046875,-400000.0625,-16899.970703125,-400000.0625
348.4361472129822,-400000.0625,-12770.509765625,-2524.81005859375,-400000.0625,-6734.3701171875,-400000.0625,-16893.76953125,-400000.0625
348.5057075023651,-400000.0625,-12758.1103515625,-2504.02001953125,-400000.0625,-6722.68994140625,-400000.0625,-16888.94921875,-400000.0625
348.54910016059875,-400000.0625,-12784.7197265625,-2534.8701171875,-400000.0625,-6750.77978515625,-400000.0625,-16901.5390625,-400000.0625
348.63340950012207,-400000.0625,-12806.990234375,-2548.219970703125,-400000.0625,-6766.89013671875,-400000.0625,-16918.849609375,-400000.0625
348.67125272750854,-400000.0625,-12792.8701171875,-2545.550048828125,-400000.0625,-6756.02001953125,-400000.0625,-16915.279296875,-400000.0625
348.73138761520386,-400000.0625,-12773.5595703125,-2520.85009765625,-400000.0625,-6737.27978515625,-400000.0625,-16890.150390625,-400000.0625
348.7588186264038,-400000.0625,-12764.740234375,-2517.800048828125,-400000.0625,-6733.7001953125,-400000.0625,-16880.3203125,-400000.0625
348.7910375595093,-400000.0625,-12785.6298828125,-2530.10009765625,-400000.0625,-6746.43994140625,-400000.0625,-16901.58984375,-400000.0625
348.87430691719055,-400000.0625,-12807.1298828125,-2548.030029296875,-400000.0625,-6763.7001953125,-400000.0625,-16921.619140625,-400000.0625
348.9057717323303,-400000.0625,-12795.8798828125,-2544.550048828125,-400000.0625,-6759.1201171875,-400000.0625,-16915.23046875,-400000.0625
348.9696385860443,-400000.0625,-12768.7001953125,-2525.469970703125,-400000.0625,-6736.330078125,-400000.0625,-16882.279296875,-400000.0625
349.03689074516296,-400000.0625,-12761.400390625,-2518.93994140625,-400000.0625,-6729.22021484375,-400000.0625,-16881.470703125,-400000.0625
349.11570596694946,-400000.0625,-12785.5302734375,-2534.679931640625,-400000.0625,-6753.06005859375,-400000.0625,-16904.44921875,-400000.0625
349.1466073989868,-400000.0625,-12807.3701171875,-2550.409912109375,-400000.0625,-6770.08984375,-400000.0625,-16924.91015625,-400000.0625
349.2030806541443,-400000.0625,-12799.83984375,-2550.27001953125,-400000.0625,-6762.1201171875,-400000.0625,-16913.23046875,-400000.0625
349.2827196121216,-400000.0625,-12775.1396484375,-2523.469970703125,-400000.0625,-6741.330078125,-400000.0625,-16893.33984375,-400000.0625
349.35616540908813,-400000.0625,-12769.7998046875,-2528.330078125,-400000.0625,-6731.7998046875,-400000.0625,-16889.759765625,-400000.0625
349.3957555294037,-400000.0625,-12787.580078125,-2533.909912109375,-400000.0625,-6746.8701171875,-400000.0625,-16907.599609375,-400000.0625
349.46866726875305,-400000.0625,-12810.5703125,-2551.699951171875,-400000.0625,-6774.89990234375,-400000.0625,-16924.9609375,-400000.0625
349.4966983795166,-400000.0625,-12798.98046875,-2546.260009765625,-400000.0625,-6763.169921875,-400000.0625,-16920.279296875,-400000.0625
349.57335329055786,-400000.0625,-12771.23046875,-2525.659912109375,-400000.0625,-6734.419921875,-400000.0625,-16886.900390625,-400000.0625
349.6168782711029,-400000.0625,-12766.4599609375,-2514.31005859375,-400000.0625,-6727.080078125,-400000.0625,-16884.810546875,-400000.0625
349.69324350357056,-400000.0625,-12787.8701171875,-2538.43994140625,-400000.0625,-6748.06005859375,-400000.0625,-16905.740234375,-400000.0625
349.74242091178894,-400000.0625,-12809.08984375,-2549.739990234375,-400000.0625,-6767.4599609375,-400000.0625,-16928.19921875,-400000.0625
349.8181383609772,-400000.0625,-12798.01953125,-2542.780029296875,-400000.0625,-6758.7900390625,-400000.0625,-16925.669921875,-400000.0625
349.86615324020386,-400000.0625,-12774.6103515625,-2524.3798828125,-400000.0625,-6730.64990234375,-400000.0625,-16896.060546875,-400000.0625
349.9335443973541,-400000.0625,-12763.01953125,-2513.409912109375,-400000.0625,-6720.830078125,-400000.0625,-16888.91015625,-400000.0625
349.96560549736023,-400000.0625,-12787.4404296875,-2538.489990234375,-400000.0625,-6748.72021484375,-400000.0625,-16906.119140625,-400000.0625
349.99008226394653,-400000.0625,-12810.3701171875,-2551.75,-400000.0625,-6765.7998046875,-400000.0625,-16918.609375,-400000.0625
350.0260579586029,-400000.0625,-12803.83984375,-2549.510009765625,-400000.0625,-6759.64013671875,-400000.0625,-16905.01953125,-400000.0625
350.04456400871277,-400000.0625,-12776.23046875,-2533.10009765625,-400000.0625,-6734.419921875,-400000.0625,-16888.669921875,-400000.0625
350.0642251968384,-400000.0625,-12779.0,-2531.580078125,-400000.0625,-6734.31982421875,-400000.0625,-16874.169921875,-400000.0625
350.0910358428955,-400000.0625,-12793.01953125,-2536.110107421875,-400000.0625,-6746.81982421875,-400000.0625,-16901.779296875,-400000.0625
350.12942719459534,-400000.0625,-12816.4296875,-2562.3798828125,-400000.0625,-6769.7998046875,-400000.0625,-16919.66015625,-400000.0625
350.1528568267822,-400000.0625,-12804.75,-2553.179931640625,-400000.0625,-6759.4501953125,-400000.0625,-16902.5390625,-400000.0625
350.1718771457672,-400000.0625,-12776.4697265625,-2535.010009765625,-400000.0625,-6735.66015625,-400000.0625,-16892.76953125,-400000.0625
350.1880736351013,-400000.0625,-12772.75,-2530.2900390625,-400000.0625,-6732.419921875,-400000.0625,-16883.279296875,-400000.0625
350.2028408050537,-400000.0625,-12790.4404296875,-2544.780029296875,-400000.0625,-6746.77001953125,-400000.0625,-16907.119140625,-400000.0625
350.2555732727051,-400000.0625,-12818.3896484375,-2561.139892578125,-400000.0625,-6768.89990234375,-400000.0625,-16921.380859375,-400000.0625
350.2793872356415,-400000.0625,-12800.9296875,-2550.4599609375,-400000.0625,-6756.06982421875,-400000.0625,-16907.7890625,-400000.0625
350.2983982563019,-400000.0625,-12770.509765625,-2531.2900390625,-400000.0625,-6730.75,-400000.0625,-16879.369140625,-400000.0625
350.319739818573,-400000.0625,-12769.509765625,-2525.330078125,-400000.0625,-6729.22021484375,-400000.0625,-16885.470703125,-400000.0625
350.35330033302307,-400000.0625,-12800.9296875,-2550.409912109375,-400000.0625,-6756.64013671875,-400000.0625,-16905.01953125,-400000.0625
350.37713146209717,-400000.0625,-12817.91015625,-2559.280029296875,-400000.0625,-6768.56005859375,-400000.0625,-16927.05078125,-400000.0625
350.4056248664856,-400000.0625,-12805.7001953125,-2552.080078125,-400000.0625,-6755.39990234375,-400000.0625,-16914.23046875,-400000.0625
350.42978167533875,-400000.0625,-12782.1904296875,-2537.580078125,-400000.0625,-6732.89013671875,-400000.0625,-16886.4296875,-400000.0625
350.4711332321167,-400000.0625,-12771.9404296875,-2528.949951171875,-400000.0625,-6726.7900390625,-400000.0625,-16876.3203125,-400000.0625
350.48826003074646,-400000.0625,-12793.58984375,-2544.97998046875,-400000.0625,-6745.47998046875,-400000.0625,-16896.919921875,-400000.0625
350.5169847011566,-400000.0625,-12811.7099609375,-2559.469970703125,-400000.0625,-6769.31982421875,-400000.0625,-16918.330078125,-400000.0625
350.5359568595886,-400000.0625,-12800.8896484375,-2556.179931640625,-400000.0625,-6762.60009765625,-400000.0625,-16913.4609375,-400000.0625
350.5745680332184,-400000.0625,-12780.1904296875,-2537.159912109375,-400000.0625,-6743.0498046875,-400000.0625,-16888.4296875,-400000.0625
350.59750962257385,-400000.0625,-12771.5595703125,-2533.389892578125,-400000.0625,-6737.47021484375,-400000.0625,-16877.83984375,-400000.0625
350.6194019317627,-400000.0625,-12794.7802734375,-2551.030029296875,-400000.0625,-6748.14990234375,-400000.0625,-16908.26953125,-400000.0625
350.65197110176086,-400000.0625,-12818.150390625,-2569.489990234375,-400000.0625,-6765.509765625,-400000.0625,-16931.009765625,-400000.0625
350.68586468696594,-400000.0625,-12813.5703125,-2564.239990234375,-400000.0625,-6761.1201171875,-400000.0625,-16916.560546875,-400000.0625
350.7117729187012,-400000.0625,-12784.4296875,-2537.580078125,-400000.0625,-6732.1298828125,-400000.0625,-16897.19921875,-400000.0625
350.73277258872986,-400000.0625,-12776.7099609375,-2533.2900390625,-400000.0625,-6725.740234375,-400000.0625,-16877.75,-400000.0625
350.75852632522583,-400000.0625,-12790.5400390625,-2544.639892578125,-400000.0625,-6742.43017578125,-400000.0625,-16897.19921875,-400000.0625
350.7917597293854,-400000.0625,-12815.3798828125,-2563.669921875,-400000.0625,-6770.7998046875,-400000.0625,-16925.529296875,-400000.0625
350.81691241264343,-400000.0625,-12813.4697265625,-2560.22998046875,-400000.0625,-6766.64990234375,-400000.0625,-16918.0390625,-400000.0625
350.83305859565735,-400000.0625,-12789.6298828125,-2542.31005859375,-400000.0625,-6740.08984375,-400000.0625,-16888.2890625,-400000.0625
350.85000109672546,-400000.0625,-12779.0498046875,-2537.679931640625,-400000.0625,-6735.60986328125,-400000.0625,-16879.849609375,-400000.0625
350.8845171928406,-400000.0625,-12797.1201171875,-2551.510009765625,-400000.0625,-6749.919921875,-400000.0625,-16898.400390625,-400000.0625
350.95626306533813,-400000.0625,-12814.6201171875,-2563.669921875,-400000.0625,-6768.419921875,-400000.0625,-16923.669921875,-400000.0625
350.9933841228485,-400000.0625,-12809.51953125,-2561.52001953125,-400000.0625,-6759.740234375,-400000.0625,-16913.990234375,-400000.0625
351.04037737846375,-400000.0625,-12781.1904296875,-2537.489990234375,-400000.0625,-6731.080078125,-400000.0625,-16888.759765625,-400000.0625
351.0713496208191,-400000.0625,-12778.0,-2539.35009765625,-400000.0625,-6724.64013671875,-400000.0625,-16883.1796875,-400000.0625
351.1083996295929,-400000.0625,-12802.3603515625,-2555.1298828125,-400000.0625,-6747.2900390625,-400000.0625,-16903.259765625,-400000.0625
351.18951630592346,-400000.0625,-12823.150390625,-2567.389892578125,-400000.0625,-6770.18017578125,-400000.0625,-16925.380859375,-400000.0625
351.2363004684448,-400000.0625,-12815.51953125,-2565.0,-400000.0625,-6766.93994140625,-400000.0625,-16913.849609375,-400000.0625
351.2935485839844,-400000.0625,-12787.8701171875,-2539.72998046875,-400000.0625,-6745.10009765625,-400000.0625,-16888.48046875,-400000.0625
351.32970452308655,-400000.0625,-12778.2802734375,-2526.0,-400000.0625,-6730.56005859375,-400000.0625,-16881.66015625,-400000.0625
351.3595721721649,-400000.0625,-12806.5595703125,-2552.320068359375,-400000.0625,-6747.2001953125,-400000.0625,-16900.640625,-400000.0625
351.4173140525818,-400000.0625,-12826.73046875,-2575.679931640625,-400000.0625,-6769.60986328125,-400000.0625,-16920.66015625,-400000.0625
351.47215819358826,-400000.0625,-12813.4697265625,-2568.77001953125,-400000.0625,-6768.18017578125,-400000.0625,-16911.560546875,-400000.0625
351.54206228256226,-400000.0625,-12792.7802734375,-2552.889892578125,-400000.0625,-6742.56982421875,-400000.0625,-16877.509765625,-400000.0625
351.58953619003296,-400000.0625,-12784.240234375,-2541.830078125,-400000.0625,-6727.509765625,-400000.0625,-16877.029296875,-400000.0625
351.65857005119324,-400000.0625,-12805.8896484375,-2560.0,-400000.0625,-6747.77001953125,-400000.0625,-16899.16015625,-400000.0625
351.6969985961914,-400000.0625,-12830.01953125,-2584.27001953125,-400000.0625,-6775.240234375,-400000.0625,-16920.279296875,-400000.0625
351.7678191661835,-400000.0625,-12818.0498046875,-2564.139892578125,-400000.0625,-6764.7001953125,-400000.0625,-16904.55078125,-400000.0625
351.80400037765503,-400000.0625,-12788.73046875,-2544.39990234375,-400000.0625,-6741.14013671875,-400000.0625,-16876.650390625,-400000.0625
351.8631775379181,-400000.0625,-12782.240234375,-2541.02001953125,-400000.0625,-6731.7998046875,-400000.0625,-16875.69921875,-400000.0625
351.903981924057,-400000.0625,-12803.650390625,-2555.179931640625,-400000.0625,-6750.6298828125,-400000.0625,-16889.2890625,-400000.0625
351.9292652606964,-400000.0625,-12830.7802734375,-2575.02001953125,-400000.0625,-6766.60986328125,-400000.0625,-16914.3203125,-400000.0625
351.98294496536255,-400000.0625,-12815.8095703125,-2569.8701171875,-400000.0625,-6757.58984375,-400000.0625,-16906.880859375,-400000.0625
351.9972724914551,-400000.0625,-12793.2998046875,-2551.510009765625,-400000.0625,-6734.47021484375,-400000.0625,-16889.099609375,-400000.0625
352.0173804759979,-400000.0625,-12788.580078125,-2547.840087890625,-400000.0625,-6727.64990234375,-400000.0625,-16877.029296875,-400000.0625
352.0373389720917,-400000.0625,-12805.3203125,-2564.719970703125,-400000.0625,-6748.77001953125,-400000.0625,-16897.630859375,-400000.0625
352.07887029647827,-400000.0625,-12827.16015625,-2575.02001953125,-400000.0625,-6773.22998046875,-400000.0625,-16917.990234375,-400000.0625
352.09343957901,-400000.0625,-12820.150390625,-2568.580078125,-400000.0625,-6765.31982421875,-400000.0625,-16909.3203125,-400000.0625
352.1099445819855,-400000.0625,-12792.2998046875,-2553.56005859375,-400000.0625,-6740.6201171875,-400000.0625,-16885.330078125,-400000.0625
352.1297731399536,-400000.0625,-12782.580078125,-2544.260009765625,-400000.0625,-6733.75,-400000.0625,-16875.080078125,-400000.0625
352.150995016098,-400000.0625,-12809.330078125,-2562.330078125,-400000.0625,-6753.490234375,-400000.0625,-16893.099609375,-400000.0625
352.20188307762146,-400000.0625,-12830.6396484375,-2578.31005859375,-400000.0625,-6771.990234375,-400000.0625,-16921.7109375,-400000.0625
352.2267482280731,-400000.0625,-12819.6298828125,-2574.489990234375,-400000.0625,-6766.7001953125,-400000.0625,-16909.98046875,-400000.0625
352.24516463279724,-400000.0625,-12793.830078125,-2545.169921875,-400000.0625,-6735.75,-400000.0625,-16884.419921875,-400000.0625
352.2729241847992,-400000.0625,-12786.6796875,-2542.110107421875,-400000.0625,-6728.7900390625,-400000.0625,-16877.369140625,-400000.0625
352.3262429237366,-400000.0625,-12802.169921875,-2559.139892578125,-400000.0625,-6750.490234375,-400000.0625,-16896.19921875,-400000.0625
352.3477849960327,-400000.0625,-12832.7900390625,-2580.260009765625,-400000.0625,-6772.419921875,-400000.0625,-16914.609375,-400000.0625
352.36671447753906,-400000.0625,-12828.7802734375,-2578.780029296875,-400000.0625,-6772.9501953125,-400000.0625,-16918.470703125,-400000.0625
352.38458347320557,-400000.0625,-12796.5498046875,-2552.840087890625,-400000.0625,-6746.2001953125,-400000.0625,-16886.900390625,-400000.0625
352.4271430969238,-400000.0625,-12792.400390625,-2554.510009765625,-400000.0625,-6742.240234375,-400000.0625,-16880.1796875,-400000.0625
352.45190382003784,-400000.0625,-12813.7099609375,-2566.389892578125,-400000.0625,-6759.35986328125,-400000.0625,-16894.91015625,-400000.0625
352.48429012298584,-400000.0625,-12831.7802734375,-2574.300048828125,-400000.0625,-6770.08984375,-400000.0625,-16920.08984375,-400000.0625
352.5133285522461,-400000.0625,-12823.76953125,-2577.31005859375,-400000.0625,-6762.5498046875,-400000.0625,-16906.44921875,-400000.0625
352.5885388851166,-400000.0625,-12797.169921875,-2556.0400390625,-400000.0625,-6746.25,-400000.0625,-16885.08984375,-400000.0625
352.6214349269867,-400000.0625,-12791.490234375,-2550.7900390625,-400000.0625,-6738.759765625,-400000.0625,-16880.470703125,-400000.0625
352.6724030971527,-400000.0625,-12807.080078125,-2563.18994140625,-400000.0625,-6757.39990234375,-400000.0625,-16896.19921875,-400000.0625
352.7096869945526,-400000.0625,-12827.1103515625,-2582.68994140625,-400000.0625,-6775.08984375,-400000.0625,-16919.0390625,-400000.0625
352.7512238025665,-400000.0625,-12819.8203125,-2573.110107421875,-400000.0625,-6764.97998046875,-400000.0625,-16914.560546875,-400000.0625
352.8216233253479,-400000.0625,-12800.2197265625,-2559.610107421875,-400000.0625,-6747.2900390625,-400000.0625,-16885.810546875,-400000.0625
352.87188625335693,-400000.0625,-12787.150390625,-2547.68994140625,-400000.0625,-6737.0400390625,-400000.0625,-16877.1796875,-400000.0625
352.93144965171814,-400000.0625,-12808.2802734375,-2562.239990234375,-400000.0625,-6747.10009765625,-400000.0625,-16896.349609375,-400000.0625
352.96997714042664,-400000.0625,-12832.2099609375,-2587.75,-400000.0625,-6774.0400390625,-400000.0625,-16919.900390625,-400000.0625
353.0103671550751,-400000.0625,-12824.490234375,-2575.679931640625,-400000.0625,-6768.419921875,-400000.0625,-16911.169921875,-400000.0625
353.0854158401489,-400000.0625,-12795.6904296875,-2552.60009765625,-400000.0625,-6748.009765625,-400000.0625,-16888.099609375,-400000.0625
353.1325421333313,-400000.0625,-12784.8603515625,-2545.1201171875,-400000.0625,-6740.6201171875,-400000.0625,-16888.2890625,-400000.0625
353.21395921707153,-400000.0625,-12813.1396484375,-2562.330078125,-400000.0625,-6759.169921875,-400000.0625,-16908.7890625,-400000.0625
353.256151676178,-400000.0625,-12839.509765625,-2587.840087890625,-400000.0625,-6777.0,-400000.0625,-16921.859375,-400000.0625
353.35025691986084,-400000.0625,-12824.73046875,-2572.820068359375,-400000.0625,-6764.7001953125,-400000.0625,-16912.369140625,-400000.0625
353.3911759853363,-400000.0625,-12800.3095703125,-2552.889892578125,-400000.0625,-6739.7099609375,-400000.0625,-16898.009765625,-400000.0625
353.46773314476013,-400000.0625,-12798.599609375,-2557.22998046875,-400000.0625,-6737.419921875,-400000.0625,-16879.080078125,-400000.0625
353.51319885253906,-400000.0625,-12815.8095703125,-2568.43994140625,-400000.0625,-6763.5498046875,-400000.0625,-16897.869140625,-400000.0625
353.6157672405243,-400000.0625,-12833.5,-2573.590087890625,-400000.0625,-6776.56982421875,-400000.0625,-16917.66015625,-400000.0625
353.6778771877289,-400000.0625,-12826.58984375,-2573.35009765625,-400000.0625,-6765.56005859375,-400000.0625,-16915.80078125,-400000.0625
353.71992444992065,-400000.0625,-12798.740234375,-2564.570068359375,-400000.0625,-6749.009765625,-400000.0625,-16889.810546875,-400000.0625
353.7928457260132,-400000.0625,-12788.9599609375,-2547.929931640625,-400000.0625,-6736.419921875,-400000.0625,-16879.0390625,-400000.0625
353.82222390174866,-400000.0625,-12810.7099609375,-2563.429931640625,-400000.0625,-6755.68994140625,-400000.0625,-16899.30078125,-400000.0625
353.91089630126953,-400000.0625,-12829.73046875,-2580.8798828125,-400000.0625,-6773.419921875,-400000.0625,-16921.380859375,-400000.0625
353.94467091560364,-400000.0625,-12817.7197265625,-2563.669921875,-400000.0625,-6761.89013671875,-400000.0625,-16918.279296875,-400000.0625
354.0154993534088,-400000.0625,-12792.830078125,-2547.97998046875,-400000.0625,-6737.56982421875,-400000.0625,-16884.619140625,-400000.0625
354.05251812934875,-400000.0625,-12783.6201171875,-2542.449951171875,-400000.0625,-6735.18017578125,-400000.0625,-16879.130859375,-400000.0625
354.1246147155762,-400000.0625,-12807.3701171875,-2558.760009765625,-400000.0625,-6762.83984375,-400000.0625,-16900.16015625,-400000.0625
354.15799474716187,-400000.0625,-12831.259765625,-2575.300048828125,-400000.0625,-6775.18994140625,-400000.0625,-16918.51953125,-400000.0625
354.2097222805023,-400000.0625,-12821.099609375,-2570.820068359375,-400000.0625,-6761.64990234375,-400000.0625,-16912.939453125,-400000.0625
354.24193477630615,-400000.0625,-12793.400390625,-2548.219970703125,-400000.0625,-6736.08984375,-400000.0625,-16889.380859375,-400000.0625
354.2751393318176,-400000.0625,-12786.490234375,-2538.780029296875,-400000.0625,-6732.1298828125,-400000.0625,-16879.75,-400000.0625
354.33828949928284,-400000.0625,-12805.650390625,-2554.22998046875,-400000.0625,-6753.5400390625,-400000.0625,-16898.8203125,-400000.0625
354.3777165412903,-400000.0625,-12828.1103515625,-2577.159912109375,-400000.0625,-6769.75,-400000.0625,-16924.669921875,-400000.0625
354.4431381225586,-400000.0625,-12813.3798828125,-2564.6201171875,-400000.0625,-6760.22021484375,-400000.0625,-16908.5,-400000.0625
354.46883487701416,-400000.0625,-12794.5,-2548.219970703125,-400000.0625,-6739.85986328125,-400000.0625,-16881.51953125,-400000.0625
354.5050549507141,-400000.0625,-12781.9599609375,-2535.06005859375,-400000.0625,-6733.27978515625,-400000.0625,-16876.890625,-400000.0625
354.55641078948975,-400000.0625,-12802.3203125,-2549.31005859375,-400000.0625,-6754.2099609375,-400000.0625,-16894.529296875,-400000.0625
354.58397912979126,-400000.0625,-12826.2998046875,-2571.6298828125,-400000.0625,-6770.990234375,-400000.0625,-16922.5703125,-400000.0625
354.61937165260315,-400000.0625,-12821.7197265625,-2564.6201171875,-400000.0625,-6761.97998046875,-400000.0625,-16910.130859375,-400000.0625
354.6746256351471,-400000.0625,-12797.6396484375,-2547.64990234375,-400000.0625,-6738.47021484375,-400000.0625,-16883.08984375,-400000.0625
354.6943118572235,-400000.0625,-12784.2001953125,-2541.35009765625,-400000.0625,-6729.169921875,-400000.0625,-16875.3203125,-400000.0625
354.73204731941223,-400000.0625,-12807.2802734375,-2561.659912109375,-400000.0625,-6751.5400390625,-400000.0625,-16894.2890625,-400000.0625
354.7916877269745,-400000.0625,-12831.1201171875,-2574.590087890625,-400000.0625,-6769.66015625,-400000.0625,-16917.1796875,-400000.0625
354.81548595428467,-400000.0625,-12824.16015625,-2575.02001953125,-400000.0625,-6759.83984375,-400000.0625,-16914.470703125,-400000.0625
354.83976197242737,-400000.0625,-12803.2197265625,-2558.419921875,-400000.0625,-6738.0400390625,-400000.0625,-16889.380859375,-400000.0625
354.88831615448,-400000.0625,-12795.16015625,-2545.2099609375,-400000.0625,-6738.9501953125,-400000.0625,-16876.26953125,-400000.0625
354.90725922584534,-400000.0625,-12806.0400390625,-2555.320068359375,-400000.0625,-6754.2099609375,-400000.0625,-16909.740234375,-400000.0625
354.93152809143066,-400000.0625,-12828.830078125,-2573.919921875,-400000.0625,-6773.47021484375,-400000.0625,-16918.279296875,-400000.0625
354.9614782333374,-400000.0625,-12823.2001953125,-2569.909912109375,-400000.0625,-6766.64990234375,-400000.0625,-16912.029296875,-400000.0625
355.01165747642517,-400000.0625,-12804.1298828125,-2556.179931640625,-400000.0625,-6743.33984375,-400000.0625,-16893.099609375,-400000.0625
355.0404646396637,-400000.0625,-12780.3798828125,-2538.780029296875,-400000.0625,-6733.47021484375,-400000.0625,-16882.849609375,-400000.0625
355.06409668922424,-400000.0625,-12804.7998046875,-2559.81005859375,-400000.0625,-6751.10986328125,-400000.0625,-16892.390625,-400000.0625
355.1227476596832,-400000.0625,-12834.6904296875,-2576.8798828125,-400000.0625,-6768.3701171875,-400000.0625,-16916.130859375,-400000.0625
355.14650893211365,-400000.0625,-12824.349609375,-2568.909912109375,-400000.0625,-6769.93994140625,-400000.0625,-16911.41015625,-400000.0625
355.17398476600647,-400000.0625,-12799.1201171875,-2555.419921875,-400000.0625,-6754.4501953125,-400000.0625,-16886.380859375,-400000.0625
355.22377467155457,-400000.0625,-12790.9697265625,-2545.5,-400000.0625,-6734.7099609375,-400000.0625,-16877.80078125,-400000.0625
355.24121594429016,-400000.0625,-12809.75,-2557.56005859375,-400000.0625,-6744.72021484375,-400000.0625,-16900.060546875,-400000.0625
355.2680356502533,-400000.0625,-12829.5,-2572.489990234375,-400000.0625,-6769.18017578125,-400000.0625,-16919.08984375,-400000.0625
355.29853320121765,-400000.0625,-12826.490234375,-2571.919921875,-400000.0625,-6770.56005859375,-400000.0625,-16915.849609375,-400000.0625
355.34300804138184,-400000.0625,-12801.3603515625,-2553.889892578125,-400000.0625,-6748.72021484375,-400000.0625,-16893.8203125,-400000.0625
355.37266874313354,-400000.0625,-12783.3896484375,-2539.5400390625,-400000.0625,-6729.4599609375,-400000.0625,-16881.0390625,-400000.0625
355.3920557498932,-400000.0625,-12798.01953125,-2554.93994140625,-400000.0625,-6746.0498046875,-400000.0625,-16910.41015625,-400000.0625
355.410950422287,-400000.0625,-12825.7802734375,-2577.31005859375,-400000.0625,-6777.0498046875,-400000.0625,-16926.91015625,-400000.0625
355.4533340930939,-400000.0625,-12814.8603515625,-2569.6298828125,-400000.0625,-6765.509765625,-400000.0625,-16923.759765625,-400000.0625
355.47594451904297,-400000.0625,-12786.5302734375,-2544.360107421875,-400000.0625,-6735.419921875,-400000.0625,-16899.6796875,-400000.0625
355.4938066005707,-400000.0625,-12777.0400390625,-2536.14990234375,-400000.0625,-6736.89990234375,-400000.0625,-16892.2890625,-400000.0625
355.5154402256012,-400000.0625,-12796.2099609375,-2549.7900390625,-400000.0625,-6758.5,-400000.0625,-16908.98046875,-400000.0625
355.567449092865,-400000.0625,-12810.0400390625,-2561.760009765625,-400000.0625,-6768.56005859375,-400000.0625,-16922.669921875,-400000.0625
355.5816924571991,-400000.0625,-12807.1796875,-2560.570068359375,-400000.0625,-6763.169921875,-400000.0625,-16923.619140625,-400000.0625
355.6111032962799,-400000.0625,-12784.580078125,-2543.159912109375,-400000.0625,-6739.6201171875,-400000.0625,-16896.6796875,-400000.0625
355.63309836387634,-400000.0625,-12769.8896484375,-2531.669921875,-400000.0625,-6732.89013671875,-400000.0625,-16886.810546875,-400000.0625
355.6756372451782,-400000.0625,-12792.9697265625,-2547.60009765625,-400000.0625,-6753.2099609375,-400000.0625,-16906.740234375,-400000.0625
355.7018041610718,-400000.0625,-12822.9599609375,-2570.9599609375,-400000.0625,-6772.14013671875,-400000.0625,-16934.30078125,-400000.0625
355.72450971603394,-400000.0625,-12816.2900390625,-2562.570068359375,-400000.0625,-6767.1298828125,-400000.0625,-16929.19921875,-400000.0625
355.7406656742096,-400000.0625,-12785.76953125,-2546.550048828125,-400000.0625,-6744.10009765625,-400000.0625,-16900.16015625,-400000.0625
355.7795555591583,-400000.0625,-12771.990234375,-2532.77001953125,-400000.0625,-6733.47021484375,-400000.0625,-16888.0,-400000.0625
355.7979965209961,-400000.0625,-12794.349609375,-2546.260009765625,-400000.0625,-6746.580078125,-400000.0625,-16904.640625,-400000.0625
355.8305022716522,-400000.0625,-12820.5302734375,-2565.719970703125,-400000.0625,-6766.080078125,-400000.0625,-16934.6796875,-400000.0625
355.8518421649933,-400000.0625,-12811.23046875,-2559.659912109375,-400000.0625,-6762.93017578125,-400000.0625,-16924.91015625,-400000.0625
355.9060809612274,-400000.0625,-12786.25,-2541.110107421875,-400000.0625,-6743.3798828125,-400000.0625,-16896.76953125,-400000.0625
355.93675780296326,-400000.0625,-12780.240234375,-2538.110107421875,-400000.0625,-6738.18994140625,-400000.0625,-16883.380859375,-400000.0625
355.9593811035156,-400000.0625,-12797.8798828125,-2552.699951171875,-400000.0625,-6754.16015625,-400000.0625,-16908.69921875,-400000.0625
356.00873494148254,-400000.0625,-12824.6298828125,-2569.25,-400000.0625,-6774.759765625,-400000.0625,-16936.490234375,-400000.0625
356.0255570411682,-400000.0625,-12815.669921875,-2566.429931640625,-400000.0625,-6764.1298828125,-400000.0625,-16918.380859375,-400000.0625
356.043954372406,-400000.0625,-12788.009765625,-2544.97998046875,-400000.0625,-6738.43017578125,-400000.0625,-16893.580078125,-400000.0625
356.06196641921997,-400000.0625,-12776.23046875,-2532.199951171875,-400000.0625,-6728.02978515625,-400000.0625,-16885.23046875,-400000.0625
356.11180210113525,-400000.0625,-12796.6904296875,-2547.169921875,-400000.0625,-6746.14990234375,-400000.0625,-16903.259765625,-400000.0625
356.13586235046387,-400000.0625,-12819.8203125,-2567.14990234375,-400000.0625,-6772.7099609375,-400000.0625,-16925.529296875,-400000.0625
356.1575813293457,-400000.0625,-12808.23046875,-2557.0400390625,-400000.0625,-6763.5498046875,-400000.0625,-16923.189453125,-400000.0625
356.18000864982605,-400000.0625,-12785.6298828125,-2535.199951171875,-400000.0625,-6735.85009765625,-400000.0625,-16895.630859375,-400000.0625
356.2262842655182,-400000.0625,-12782.91015625,-2537.06005859375,-400000.0625,-6728.7001953125,-400000.0625,-16884.810546875,-400000.0625
356.2513313293457,-400000.0625,-12801.2197265625,-2551.4599609375,-400000.0625,-6750.2001953125,-400000.0625,-16899.640625,-400000.0625
356.2733051776886,-400000.0625,-12825.349609375,-2564.139892578125,-400000.0625,-6772.22998046875,-400000.0625,-16927.76953125,-400000.0625
356.2882091999054,-400000.0625,-12816.9599609375,-2565.340087890625,-400000.0625,-6771.3701171875,-400000.0625,-16918.330078125,-400000.0625
356.34401392936707,-400000.0625,-12792.58984375,-2541.159912109375,-400000.0625,-6740.6201171875,-400000.0625,-16899.970703125,-400000.0625
356.3767514228821,-400000.0625,-12784.580078125,-2537.389892578125,-400000.0625,-6725.02978515625,-400000.0625,-16893.390625,-400000.0625
356.4057641029358,-400000.0625,-12800.2197265625,-2551.3701171875,-400000.0625,-6746.39013671875,-400000.0625,-16906.689453125,-400000.0625
356.4517831802368,-400000.0625,-12816.8603515625,-2561.139892578125,-400000.0625,-6765.75,-400000.0625,-16932.439453125,-400000.0625
356.47484946250916,-400000.0625,-12812.849609375,-2558.179931640625,-400000.0625,-6761.27001953125,-400000.0625,-16923.099609375,-400000.0625
356.5033085346222,-400000.0625,-12786.8203125,-2542.070068359375,-400000.0625,-6741.3798828125,-400000.0625,-16891.9609375,-400000.0625
356.52906918525696,-400000.0625,-12773.1298828125,-2530.18994140625,-400000.0625,-6737.0400390625,-400000.0625,-16879.509765625,-400000.0625
356.57054233551025,-400000.0625,-12796.830078125,-2545.97998046875,-400000.0625,-6751.58984375,-400000.0625,-16907.0703125,-400000.0625
356.6024262905121,-400000.0625,-12823.009765625,-2565.429931640625,-400000.0625,-6767.93994140625,-400000.0625,-16930.25,-400000.0625
356.627729177475,-400000.0625,-12812.1904296875,-2555.3701171875,-400000.0625,-6752.8701171875,-400000.0625,-16921.94921875,-400000.0625
356.6564495563507,-400000.0625,-12781.3798828125,-2531.10009765625,-400000.0625,-6727.1201171875,-400000.0625,-16884.470703125,-400000.0625
356.70564579963684,-400000.0625,-12769.75,-2529.909912109375,-400000.0625,-6732.27001953125,-400000.0625,-16881.75,-400000.0625
356.73781991004944,-400000.0625,-12795.7802734375,-2547.409912109375,-400000.0625,-6748.72021484375,-400000.0625,-16918.51953125,-400000.0625
356.7609910964966,-400000.0625,-12822.2998046875,-2567.340087890625,-400000.0625,-6767.080078125,-400000.0625,-16931.76953125,-400000.0625
356.8058617115021,-400000.0625,-12811.9501953125,-2560.469970703125,-400000.0625,-6758.93017578125,-400000.0625,-16923.859375,-400000.0625
356.835569858551,-400000.0625,-12786.580078125,-2542.68994140625,-400000.0625,-6739.18994140625,-400000.0625,-16898.439453125,-400000.0625
356.8655662536621,-400000.0625,-12778.1396484375,-2531.2900390625,-400000.0625,-6733.27978515625,-400000.0625,-16898.30078125,-400000.0625
356.9028980731964,-400000.0625,-12796.4501953125,-2546.929931640625,-400000.0625,-6748.10009765625,-400000.0625,-16911.83984375,-400000.0625
356.9232385158539,-400000.0625,-12819.3896484375,-2567.14990234375,-400000.0625,-6765.22021484375,-400000.0625,-16928.05078125,-400000.0625
356.93714022636414,-400000.0625,-12804.83984375,-2552.93994140625,-400000.0625,-6750.25,-400000.0625,-16919.0,-400000.0625
356.95570731163025,-400000.0625,-12776.849609375,-2536.489990234375,-400000.0625,-6735.18017578125,-400000.0625,-16894.529296875,-400000.0625
356.9788315296173,-400000.0625,-12769.7998046875,-2529.669921875,-400000.0625,-6737.22998046875,-400000.0625,-16884.380859375,-400000.0625
357.02311086654663,-400000.0625,-12791.9697265625,-2548.5,-400000.0625,-6753.830078125,-400000.0625,-16906.599609375,-400000.0625
357.04695224761963,-400000.0625,-12811.2802734375,-2564.760009765625,-400000.0625,-6770.7998046875,-400000.0625,-16930.150390625,-400000.0625
357.070876121521,-400000.0625,-12801.8896484375,-2559.469970703125,-400000.0625,-6767.080078125,-400000.0625,-16922.759765625,-400000.0625
357.0949320793152,-400000.0625,-12769.990234375,-2536.8701171875,-400000.0625,-6744.2900390625,-400000.0625,-16890.189453125,-400000.0625
357.1651563644409,-400000.0625,-12758.7802734375,-2517.75,-400000.0625,-6729.169921875,-400000.0625,-16885.470703125,-400000.0625
357.1943883895874,-400000.0625,-12782.4296875,-2543.449951171875,-400000.0625,-6750.77978515625,-400000.0625,-16902.44921875,-400000.0625
357.21602058410645,-400000.0625,-12795.740234375,-2554.179931640625,-400000.0625,-6763.75,-400000.0625,-16915.369140625,-400000.0625
357.26028537750244,-400000.0625,-12788.2998046875,-2543.780029296875,-400000.0625,-6763.5498046875,-400000.0625,-16911.599609375,-400000.0625
357.2880702018738,-400000.0625,-12762.2099609375,-2528.6201171875,-400000.0625,-6739.7099609375,-400000.0625,-16897.009765625,-400000.0625
357.3136043548584,-400000.0625,-12752.73046875,-2522.659912109375,-400000.0625,-6728.509765625,-400000.0625,-16876.560546875,-400000.0625
357.3318910598755,-400000.0625,-12780.7197265625,-2540.06005859375,-400000.0625,-6746.6298828125,-400000.0625,-16896.8203125,-400000.0625
357.3840308189392,-400000.0625,-12802.5498046875,-2554.56005859375,-400000.0625,-6768.18017578125,-400000.0625,-16925.189453125,-400000.0625
357.39849185943604,-400000.0625,-12793.8798828125,-2553.1298828125,-400000.0625,-6766.60986328125,-400000.0625,-16923.5703125,-400000.0625
357.4201374053955,-400000.0625,-12772.3701171875,-2535.820068359375,-400000.0625,-6743.6201171875,-400000.0625,-16889.240234375,-400000.0625
357.44727897644043,-400000.0625,-12758.2998046875,-2524.3798828125,-400000.0625,-6731.4599609375,-400000.0625,-16878.560546875,-400000.0625
357.48895740509033,-400000.0625,-12772.6103515625,-2536.72998046875,-400000.0625,-6748.2998046875,-400000.0625,-16897.630859375,-400000.0625
357.56820011138916,-400000.0625,-12797.6904296875,-2553.64990234375,-400000.0625,-6769.3701171875,-400000.0625,-16917.51953125,-400000.0625
357.65490102767944,-400000.0625,-12792.919921875,-2545.39990234375,-400000.0625,-6762.02978515625,-400000.0625,-16912.83984375,-400000.0625
357.71348905563354,-400000.0625,-12767.169921875,-2527.139892578125,-400000.0625,-6736.990234375,-400000.0625,-16876.75,-400000.0625
357.7798054218292,-400000.0625,-12754.6298828125,-2520.1298828125,-400000.0625,-6729.3701171875,-400000.0625,-16875.029296875,-400000.0625
357.80875158309937,-400000.0625,-12777.759765625,-2538.110107421875,-400000.0625,-6746.580078125,-400000.0625,-16903.349609375,-400000.0625
357.84055495262146,-400000.0625,-12793.1103515625,-2552.4599609375,-400000.0625,-6764.97998046875,-400000.0625,-16923.759765625,-400000.0625
357.9083502292633,-400000.0625,-12787.8701171875,-2547.7900390625,-400000.0625,-6761.31005859375,-400000.0625,-16910.55078125,-400000.0625
357.9421284198761,-400000.0625,-12763.599609375,-2522.52001953125,-400000.0625,-6739.0,-400000.0625,-16885.0,-400000.0625
358.0679225921631,-400000.0625,-12751.91015625,-2519.320068359375,-400000.0625,-6728.22021484375,-400000.0625,-16874.119140625,-400000.0625
358.1333067417145,-400000.0625,-12769.0302734375,-2527.949951171875,-400000.0625,-6744.669921875,-400000.0625,-16894.529296875,-400000.0625
358.16311717033386,-400000.0625,-12795.01953125,-2548.080078125,-400000.0625,-6763.64990234375,-400000.0625,-16915.0390625,-400000.0625
358.19493317604065,-400000.0625,-12788.8203125,-2545.5,-400000.0625,-6756.1201171875,-400000.0625,-16913.369140625,-400000.0625
358.27813720703125,-400000.0625,-12762.8798828125,-2521.7099609375,-400000.0625,-6732.56005859375,-400000.0625,-16892.630859375,-400000.0625
358.3122684955597,-400000.0625,-12754.580078125,-2511.409912109375,-400000.0625,-6724.5498046875,-400000.0625,-16881.560546875,-400000.0625
358.3636441230774,-400000.0625,-12774.2802734375,-2536.489990234375,-400000.0625,-6748.25,-400000.0625,-16899.830078125,-400000.0625
358.4055988788605,-400000.0625,-12798.8798828125,-2556.280029296875,-400000.0625,-6769.990234375,-400000.0625,-16918.849609375,-400000.0625
358.46605801582336,-400000.0625,-12791.25,-2546.840087890625,-400000.0625,-6764.7001953125,-400000.0625,-16921.470703125,-400000.0625
358.5305404663086,-400000.0625,-12758.919921875,-2523.610107421875,-400000.0625,-6738.89990234375,-400000.0625,-16894.150390625,-400000.0625
358.59705924987793,-400000.0625,-12751.490234375,-2515.75,-400000.0625,-6724.06982421875,-400000.0625,-16878.69921875,-400000.0625
358.67304587364197,-400000.0625,-12776.1396484375,-2533.2900390625,-400000.0625,-6747.52978515625,-400000.0625,-16894.6796875,-400000.0625
358.71199202537537,-400000.0625,-12801.4599609375,-2556.469970703125,-400000.0625,-6769.18017578125,-400000.0625,-16921.4296875,-400000.0625
358.7739028930664,-400000.0625,-12793.16015625,-2550.320068359375,-400000.0625,-6759.83984375,-400000.0625,-16911.69921875,-400000.0625
358.8680245876312,-400000.0625,-12766.169921875,-2525.659912109375,-400000.0625,-6733.89990234375,-400000.0625,-16885.5703125,-400000.0625
358.9536921977997,-400000.0625,-12761.1201171875,-2519.889892578125,-400000.0625,-6723.97998046875,-400000.0625,-16878.650390625,-400000.0625
359.0017092227936,-400000.0625,-12785.9599609375,-2536.5400390625,-400000.0625,-6746.8701171875,-400000.0625,-16905.01953125,-400000.0625
359.07455587387085,-400000.0625,-12809.849609375,-2553.320068359375,-400000.0625,-6773.0,-400000.0625,-16926.33984375,-400000.0625
359.13173246383667,-400000.0625,-12790.490234375,-2542.110107421875,-400000.0625,-6760.31005859375,-400000.0625,-16921.140625,-400000.0625
359.23245120048523,-400000.0625,-12759.400390625,-2528.860107421875,-400000.0625,-6735.56005859375,-400000.0625,-16888.859375,-400000.0625
359.3312621116638,-400000.0625,-12756.4404296875,-2521.75,-400000.0625,-6724.97998046875,-400000.0625,-16886.189453125,-400000.0625
359.3930649757385,-400000.0625,-12771.419921875,-2529.340087890625,-400000.0625,-6741.81005859375,-400000.0625,-16905.740234375,-400000.0625
359.48772382736206,-400000.0625,-12796.4501953125,-2552.510009765625,-400000.0625,-6763.89013671875,-400000.0625,-16926.48046875,-400000.0625
359.54279708862305,-400000.0625,-12789.6298828125,-2542.5,-400000.0625,-6754.72998046875,-400000.0625,-16925.619140625,-400000.0625
359.6344084739685,-400000.0625,-12761.169921875,-2523.800048828125,-400000.0625,-6725.83984375,-400000.0625,-16897.779296875,-400000.0625
359.6894392967224,-400000.0625,-12756.5400390625,-2519.27001953125,-400000.0625,-6721.58984375,-400000.0625,-16884.51953125,-400000.0625
359.77301597595215,-400000.0625,-12774.66015625,-2534.489990234375,-400000.0625,-6749.81982421875,-400000.0625,-16904.9296875,-400000.0625
359.7948820590973,-400000.0625,-12791.0595703125,-2545.449951171875,-400000.0625,-6767.22998046875,-400000.0625,-16922.330078125,-400000.0625
359.84261751174927,-400000.0625,-12783.5302734375,-2539.110107421875,-400000.0625,-6755.5400390625,-400000.0625,-16915.849609375,-400000.0625
359.87128353118896,-400000.0625,-12760.8798828125,-2522.85009765625,-400000.0625,-6735.66015625,-400000.0625,-16897.970703125,-400000.0625
359.89748454093933,-400000.0625,-12745.8095703125,-2509.260009765625,-400000.0625,-6721.4501953125,-400000.0625,-16885.279296875,-400000.0625
359.9395864009857,-400000.0625,-12769.509765625,-2526.239990234375,-400000.0625,-6735.7998046875,-400000.0625,-16897.630859375,-400000.0625
359.96962785720825,-400000.0625,-12795.9697265625,-2542.68994140625,-400000.0625,-6760.35986328125,-400000.0625,-16920.51953125,-400000.0625
359.99819016456604,-400000.0625,-12791.0595703125,-2537.679931640625,-400000.0625,-6763.1298828125,-400000.0625,-16915.66015625,-400000.0625
360.067809343338,-400000.0625,-12760.4501953125,-2516.93994140625,-400000.0625,-6736.14013671875,-400000.0625,-16888.189453125,-400000.0625
360.099196434021,-400000.0625,-12749.76953125,-2506.590087890625,-400000.0625,-6721.06982421875,-400000.0625,-16876.7890625,-400000.0625
360.1505904197693,-400000.0625,-12769.26953125,-2517.4599609375,-400000.0625,-6734.1298828125,-400000.0625,-16894.76953125,-400000.0625
360.1926500797272,-400000.0625,-12792.349609375,-2535.43994140625,-400000.0625,-6752.58984375,-400000.0625,-16915.470703125,-400000.0625
360.22724056243896,-400000.0625,-12788.8203125,-2534.9599609375,-400000.0625,-6754.97021484375,-400000.0625,-16912.029296875,-400000.0625
360.268506526947,-400000.0625,-12762.1201171875,-2513.080078125,-400000.0625,-6731.22021484375,-400000.0625,-16894.2890625,-400000.0625
360.3098781108856,-400000.0625,-12751.8203125,-2503.969970703125,-400000.0625,-6725.1201171875,-400000.0625,-16888.4296875,-400000.0625
360.33773398399353,-400000.0625,-12770.1298828125,-2524.330078125,-400000.0625,-6743.2900390625,-400000.0625,-16903.9296875,-400000.0625
360.4008409976959,-400000.0625,-12791.6396484375,-2536.679931640625,-400000.0625,-6756.02001953125,-400000.0625,-16929.9609375,-400000.0625
360.44006991386414,-400000.0625,-12790.25,-2537.580078125,-400000.0625,-6753.25,-400000.0625,-16919.66015625,-400000.0625
360.498806476593,-400000.0625,-12759.5400390625,-2514.550048828125,-400000.0625,-6736.7998046875,-400000.0625,-16891.619140625,-400000.0625
360.51999282836914,-400000.0625,-12746.7197265625,-2505.590087890625,-400000.0625,-6725.8798828125,-400000.0625,-16881.560546875,-400000.0625
360.5440390110016,-400000.0625,-12767.83984375,-2520.280029296875,-400000.0625,-6742.18994140625,-400000.0625,-16903.689453125,-400000.0625
360.5994737148285,-400000.0625,-12792.8701171875,-2539.300048828125,-400000.0625,-6755.8798828125,-400000.0625,-16925.859375,-400000.0625
360.6250727176666,-400000.0625,-12788.73046875,-2538.25,-400000.0625,-6752.8701171875,-400000.0625,-16914.75,-400000.0625
360.6463842391968,-400000.0625,-12759.400390625,-2510.5,-400000.0625,-6725.4599609375,-400000.0625,-16887.330078125,-400000.0625
360.70065903663635,-400000.0625,-12751.25,-2509.169921875,-400000.0625,-6719.06982421875,-400000.0625,-16882.279296875,-400000.0625
360.7286467552185,-400000.0625,-12769.0302734375,-2523.419921875,-400000.0625,-6747.8701171875,-400000.0625,-16904.310546875,-400000.0625
360.76072812080383,-400000.0625,-12792.16015625,-2537.489990234375,-400000.0625,-6766.60986328125,-400000.0625,-16927.05078125,-400000.0625
360.80461597442627,-400000.0625,-12791.16015625,-2538.110107421875,-400000.0625,-6758.169921875,-400000.0625,-16919.330078125,-400000.0625
360.83861660957336,-400000.0625,-12760.1201171875,-2519.659912109375,-400000.0625,-6731.4599609375,-400000.0625,-16893.580078125,-400000.0625
360.86215710639954,-400000.0625,-12747.8095703125,-2507.72998046875,-400000.0625,-6721.31005859375,-400000.0625,-16881.7109375,-400000.0625
360.90932869911194,-400000.0625,-12768.169921875,-2521.56005859375,-400000.0625,-6741.6201171875,-400000.0625,-16907.740234375,-400000.0625
360.9801239967346,-400000.0625,-12791.7802734375,-2537.72998046875,-400000.0625,-6756.8798828125,-400000.0625,-16925.91015625,-400000.0625
361.0723123550415,-400000.0625,-12795.5,-2537.389892578125,-400000.0625,-6749.14990234375,-400000.0625,-16922.2890625,-400000.0625
361.11723709106445,-400000.0625,-12780.51953125,-2522.280029296875,-400000.0625,-6736.22998046875,-400000.0625,-16903.119140625,-400000.0625
361.20556354522705,-400000.0625,-12759.6904296875,-2507.5,-400000.0625,-6726.5,-400000.0625,-16894.19921875,-400000.0625
361.2611267566681,-400000.0625,-12774.5595703125,-2530.18994140625,-400000.0625,-6745.580078125,-400000.0625,-16904.880859375,-400000.0625
361.37481451034546,-400000.0625,-12799.6904296875,-2551.64990234375,-400000.0625,-6765.22021484375,-400000.0625,-16928.529296875,-400000.0625
361.466032743454,-400000.0625,-12799.259765625,-2548.5,-400000.0625,-6755.4501953125,-400000.0625,-16923.380859375,-400000.0625
361.509806394577,-400000.0625,-12780.7197265625,-2529.719970703125,-400000.0625,-6733.419921875,-400000.0625,-16895.439453125,-400000.0625
361.59034538269043,-400000.0625,-12774.330078125,-2521.56005859375,-400000.0625,-6723.39990234375,-400000.0625,-16885.0,-400000.0625
361.6322100162506,-400000.0625,-12785.6298828125,-2534.25,-400000.0625,-6731.3701171875,-400000.0625,-16899.109375,-400000.0625
361.7183589935303,-400000.0625,-12809.6103515625,-2553.64990234375,-400000.0625,-6756.830078125,-400000.0625,-16921.94921875,-400000.0625
361.80551314353943,-400000.0625,-12811.419921875,-2553.510009765625,-400000.0625,-6761.169921875,-400000.0625,-16917.0390625,-400000.0625
361.9113383293152,-400000.0625,-12786.25,-2533.9599609375,-400000.0625,-6737.85009765625,-400000.0625,-16898.30078125,-400000.0625
362.00900387763977,-400000.0625,-12777.1904296875,-2526.760009765625,-400000.0625,-6725.35986328125,-400000.0625,-16888.94921875,-400000.0625
362.0615062713623,-400000.0625,-12796.0703125,-2545.7900390625,-400000.0625,-6741.0,-400000.0625,-16900.640625,-400000.0625
362.14769196510315,-400000.0625,-12817.7197265625,-2561.0400390625,-400000.0625,-6762.31005859375,-400000.0625,-16927.099609375,-400000.0625
362.2139310836792,-400000.0625,-12810.9501953125,-2555.800048828125,-400000.0625,-6753.72998046875,-400000.0625,-16919.5703125,-400000.0625
362.3114607334137,-400000.0625,-12785.580078125,-2537.110107421875,-400000.0625,-6729.7001953125,-400000.0625,-16890.150390625,-400000.0625
362.3612976074219,-400000.0625,-12769.7998046875,-2524.139892578125,-400000.0625,-6724.1201171875,-400000.0625,-16881.7109375,-400000.0625
362.4530565738678,-400000.0625,-12784.5302734375,-2534.2900390625,-400000.0625,-6742.10009765625,-400000.0625,-16899.919921875,-400000.0625
362.4976441860199,-400000.0625,-12812.1904296875,-2553.610107421875,-400000.0625,-6759.41015625,-400000.0625,-16925.720703125,-400000.0625
362.5665090084076,-400000.0625,-12810.900390625,-2555.280029296875,-400000.0625,-6757.5,-400000.0625,-16925.380859375,-400000.0625
362.58890318870544,-400000.0625,-12789.1103515625,-2535.300048828125,-400000.0625,-6737.89990234375,-400000.0625,-16896.390625,-400000.0625
362.6188645362854,-400000.0625,-12778.8095703125,-2525.89990234375,-400000.0625,-6724.68994140625,-400000.0625,-16882.7109375,-400000.0625
362.6633450984955,-400000.0625,-12791.8701171875,-2540.35009765625,-400000.0625,-6740.85986328125,-400000.0625,-16904.359375,-400000.0625
362.69433879852295,-400000.0625,-12820.580078125,-2558.760009765625,-400000.0625,-6759.02001953125,-400000.0625,-16924.4296875,-400000.0625
362.73302149772644,-400000.0625,-12810.990234375,-2553.27001953125,-400000.0625,-6754.06982421875,-400000.0625,-16924.240234375,-400000.0625
362.7764058113098,-400000.0625,-12782.33984375,-2534.489990234375,-400000.0625,-6736.990234375,-400000.0625,-16890.9609375,-400000.0625
362.7997326850891,-400000.0625,-12774.08984375,-2525.81005859375,-400000.0625,-6721.8798828125,-400000.0625,-16884.7109375,-400000.0625
362.82150173187256,-400000.0625,-12790.2998046875,-2539.25,-400000.0625,-6734.990234375,-400000.0625,-16905.44921875,-400000.0625
362.8369469642639,-400000.0625,-12818.8095703125,-2562.570068359375,-400000.0625,-6758.93017578125,-400000.0625,-16926.0,-400000.0625
362.8794205188751,-400000.0625,-12813.8095703125,-2552.800048828125,-400000.0625,-6757.2099609375,-400000.0625,-16912.41015625,-400000.0625
362.90247321128845,-400000.0625,-12787.3896484375,-2535.14990234375,-400000.0625,-6730.41015625,-400000.0625,-16887.810546875,-400000.0625
362.92904019355774,-400000.0625,-12769.83984375,-2524.659912109375,-400000.0625,-6712.8701171875,-400000.0625,-16879.369140625,-400000.0625
362.943665266037,-400000.0625,-12792.6796875,-2537.780029296875,-400000.0625,-6741.6201171875,-400000.0625,-16899.869140625,-400000.0625
362.979948759079,-400000.0625,-12819.33984375,-2562.89990234375,-400000.0625,-6766.02978515625,-400000.0625,-16918.609375,-400000.0625
363.0030653476715,-400000.0625,-12814.240234375,-2555.659912109375,-400000.0625,-6759.68994140625,-400000.0625,-16916.369140625,-400000.0625
363.0234868526459,-400000.0625,-12785.6298828125,-2536.679931640625,-400000.0625,-6740.85986328125,-400000.0625,-16889.619140625,-400000.0625
363.0435826778412,-400000.0625,-12776.1904296875,-2527.0,-400000.0625,-6728.4599609375,-400000.0625,-16879.130859375,-400000.0625
363.0718231201172,-400000.0625,-12796.400390625,-2540.25,-400000.0625,-6742.18994140625,-400000.0625,-16897.5390625,-400000.0625
363.1462757587433,-400000.0625,-12820.669921875,-2559.469970703125,-400000.0625,-6759.740234375,-400000.0625,-16920.619140625,-400000.0625
363.17484164237976,-400000.0625,-12813.08984375,-2551.989990234375,-400000.0625,-6753.8701171875,-400000.0625,-16912.69921875,-400000.0625
363.24413108825684,-400000.0625,-12783.0,-2529.0,-400000.0625,-6729.56005859375,-400000.0625,-16889.529296875,-400000.0625
363.2778537273407,-400000.0625,-12774.6103515625,-2523.280029296875,-400000.0625,-6723.169921875,-400000.0625,-16879.419921875,-400000.0625
363.3605635166168,-400000.0625,-12794.8798828125,-2539.43994140625,-400000.0625,-6739.89990234375,-400000.0625,-16898.970703125,-400000.0625
363.39663004875183,-400000.0625,-12818.5302734375,-2557.85009765625,-400000.0625,-6760.06982421875,-400000.0625,-16923.51953125,-400000.0625
363.46903944015503,-400000.0625,-12808.419921875,-2552.56005859375,-400000.0625,-6751.490234375,-400000.0625,-16914.939453125,-400000.0625
363.50986218452454,-400000.0625,-12780.5703125,-2531.580078125,-400000.0625,-6725.740234375,-400000.0625,-16890.240234375,-400000.0625
363.5760495662689,-400000.0625,-12772.9404296875,-2522.989990234375,-400000.0625,-6711.81982421875,-400000.0625,-16876.41015625,-400000.0625
363.61970043182373,-400000.0625,-12794.2099609375,-2540.159912109375,-400000.0625,-6734.7998046875,-400000.0625,-16899.2109375,-400000.0625
363.68279480934143,-400000.0625,-12816.91015625,-2559.85009765625,-400000.0625,-6763.169921875,-400000.0625,-16924.669921875,-400000.0625
363.72590732574463,-400000.0625,-12810.1796875,-2552.800048828125,-400000.0625,-6758.740234375,-400000.0625,-16917.66015625,-400000.0625
363.7752330303192,-400000.0625,-12783.099609375,-2528.570068359375,-400000.0625,-6733.0400390625,-400000.0625,-16888.240234375,-400000.0625
363.8051404953003,-400000.0625,-12771.0400390625,-2517.889892578125,-400000.0625,-6717.2998046875,-400000.0625,-16873.69921875,-400000.0625
363.8487765789032,-400000.0625,-12786.8203125,-2531.909912109375,-400000.0625,-6731.3701171875,-400000.0625,-16893.33984375,-400000.0625
363.9256229400635,-400000.0625,-12804.7001953125,-2546.739990234375,-400000.0625,-6744.0498046875,-400000.0625,-16916.369140625,-400000.0625
363.96185636520386,-400000.0625,-12804.1298828125,-2547.219970703125,-400000.0625,-6749.33984375,-400000.0625,-16909.890625,-400000.0625
364.03350710868835,-400000.0625,-12778.3798828125,-2525.7099609375,-400000.0625,-6739.08984375,-400000.0625,-16888.189453125,-400000.0625
364.07073855400085,-400000.0625,-12773.849609375,-2522.330078125,-400000.0625,-6725.60009765625,-400000.0625,-16877.990234375,-400000.0625
364.1681022644043,-400000.0625,-12791.8701171875,-2533.719970703125,-400000.0625,-6736.47021484375,-400000.0625,-16893.25,-400000.0625
364.2072913646698,-400000.0625,-12810.5703125,-2549.080078125,-400000.0625,-6755.8798828125,-400000.0625,-16920.810546875,-400000.0625
364.26854395866394,-400000.0625,-12807.3203125,-2548.27001953125,-400000.0625,-6747.91015625,-400000.0625,-16912.3203125,-400000.0625
