time,ch1,ch2,ch3,ch4,ch5
timestamp,ch7,ch2,ch3,ch5,is_pause
timestamp,ch7,ch2,ch3,ch5,is_pause
0.02132701873779297,-400000.0625,2890.590087890625,-400000.0625,-400000.0625,-5465.22021484375,-400000.0625,-2053.97998046875,-400000.0625
0.02143692970275879,-400000.0625,2877.860107421875,-400000.0625,-400000.0625,-5481.10009765625,-400000.0625,-2065.659912109375,-400000.0625
0.021453142166137695,-400000.0625,2856.159912109375,-400000.0625,-400000.0625,-5508.52001953125,-400000.0625,-2079.9599609375,-400000.0625
0.021460533142089844,-400000.0625,2852.77001953125,-400000.0625,-400000.0625,-5504.22998046875,-400000.0625,-2075.199951171875,-400000.0625
0.021467208862304688,-400000.0625,2875.949951171875,-400000.0625,-400000.0625,-5483.91015625,-400000.0625,-2069.429931640625,-400000.0625
0.021473169326782227,-400000.0625,2897.97998046875,-400000.0625,-400000.0625,-5471.66015625,-400000.0625,-2061.75,-400000.0625
0.021479129791259766,-400000.0625,2901.219970703125,-400000.0625,-400000.0625,-5473.66015625,-400000.0625,-2066.89990234375,-400000.0625
0.021485090255737305,-400000.0625,2861.260009765625,-400000.0625,-400000.0625,-5498.22021484375,-400000.0625,-2079.489990234375,-400000.0625
0.02149057388305664,-400000.0625,2861.929931640625,-400000.0625,-400000.0625,-5503.85009765625,-400000.0625,-2083.5400390625,-400000.0625
0.021496057510375977,-400000.0625,2868.699951171875,-400000.0625,-400000.0625,-5492.16015625,-400000.0625,-2066.800048828125,-400000.0625
0.02150130271911621,-400000.0625,2877.330078125,-400000.0625,-400000.0625,-5475.08984375,-400000.0625,-2060.989990234375,-400000.0625
0.02150726318359375,-400000.0625,2884.25,-400000.0625,-400000.0625,-5464.83984375,-400000.0625,-2055.5,-400000.0625
0.021512746810913086,-400000.0625,2876.89990234375,-400000.0625,-400000.0625,-5480.72021484375,-400000.0625,-2072.669921875,-400000.0625
0.021518468856811523,-400000.0625,2857.39990234375,-400000.0625,-400000.0625,-5495.41015625,-400000.0625,-2078.14990234375,-400000.0625
0.02152395248413086,-400000.0625,2854.5400390625,-400000.0625,-400000.0625,-5488.35009765625,-400000.0625,-2059.409912109375,-400000.0625
0.021529674530029297,-400000.0625,2856.590087890625,-400000.0625,-400000.0625,-5475.14013671875,-400000.0625,-2064.090087890625,-400000.0625
timestamp,ch7,ch2,ch3,ch5,is_pause
timestamp,ch7,ch2,ch3,ch5,is_pause
timestamp,ch7,ch2,ch3,ch5,is_pause
timestamp,ch7,ch2,ch3,ch5,is_pause
timestamp,ch7,ch2,ch3,ch5,is_pause
timestamp,ch7,ch2,ch3,ch5,is_pause
timestamp,ch7,ch2,ch3,ch5,is_pause
0.11949610710144043,-400000.0625,2875.0400390625,-400000.0625,-400000.0625,-5466.56005859375,-400000.0625,-2064.179931640625,-400000.0625
0.11971759796142578,-400000.0625,2865.64990234375,-400000.0625,-400000.0625,-5476.0498046875,-400000.0625,-2071.239990234375,-400000.0625
0.11973714828491211,-400000.0625,2855.35009765625,-400000.0625,-400000.0625,-5513.18994140625,-400000.0625,-2076.389892578125,-400000.0625
0.1197669506072998,-400000.0625,2853.489990234375,-400000.0625,-400000.0625,-5512.0,-400000.0625,-2086.739990234375,-400000.0625
0.1197805404663086,-400000.0625,2853.679931640625,-400000.0625,-400000.0625,-5484.9599609375,-400000.0625,-2074.3798828125,-400000.0625
timestamp,ch7,ch2,ch3,ch5,is_pause
0.1289212703704834,-400000.0625,2859.35009765625,-400000.0625,-400000.0625,-5474.52001953125,-400000.0625,-2058.7900390625,-400000.0625
0.12911534309387207,-400000.0625,2876.22998046875,-400000.0625,-400000.0625,-5479.85986328125,-400000.0625,-2079.14990234375,-400000.0625
0.1291520595550537,-400000.0625,2867.64990234375,-400000.0625,-400000.0625,-5489.919921875,-400000.0625,-2086.5400390625,-400000.0625
0.1291821002960205,-400000.0625,2840.81005859375,-400000.0625,-400000.0625,-5499.7900390625,-400000.0625,-2082.159912109375,-400000.0625
0.12923550605773926,-400000.0625,2838.52001953125,-400000.0625,-400000.0625,-5494.4501953125,-400000.0625,-2076.43994140625,-400000.0625
0.12926530838012695,-400000.0625,2866.030029296875,-400000.0625,-400000.0625,-5483.25,-400000.0625,-2062.27001953125,-400000.0625
0.12929463386535645,-400000.0625,2887.679931640625,-400000.0625,-400000.0625,-5478.759765625,-400000.0625,-2047.8299560546875,-400000.0625
0.12932324409484863,-400000.0625,2872.52001953125,-400000.0625,-400000.0625,-5487.25,-400000.0625,-2056.27001953125,-400000.0625
0.1293649673461914,-400000.0625,2843.7099609375,-400000.0625,-400000.0625,-5495.8798828125,-400000.0625,-2084.449951171875,-400000.0625
0.1293933391571045,-400000.0625,2844.3798828125,-400000.0625,-400000.0625,-5494.31005859375,-400000.0625,-2086.1201171875,-400000.0625
0.12942147254943848,-400000.0625,2856.06005859375,-400000.0625,-400000.0625,-5494.5498046875,-400000.0625,-2072.18994140625,-400000.0625
timestamp,ch7,ch2,ch3,ch5,is_pause
0.15120911598205566,-400000.0625,2858.929931640625,-400000.0625,-400000.0625,-5487.2998046875,-400000.0625,-2064.0400390625,-400000.0625
0.15156888961791992,-400000.0625,2871.179931640625,-400000.0625,-400000.0625,-5483.91015625,-400000.0625,-2067.179931640625,-400000.0625
0.15160536766052246,-400000.0625,2846.47998046875,-400000.0625,-400000.0625,-5491.4501953125,-400000.0625,-2083.2099609375,-400000.0625
0.1516270637512207,-400000.0625,2831.7900390625,-400000.0625,-400000.0625,-5498.83984375,-400000.0625,-2094.93994140625,-400000.0625
0.15164589881896973,-400000.0625,2851.199951171875,-400000.0625,-400000.0625,-5492.64013671875,-400000.0625,-2093.97998046875,-400000.0625
0.15166521072387695,-400000.0625,2876.090087890625,-400000.0625,-400000.0625,-5488.72998046875,-400000.0625,-2070.669921875,-400000.0625
0.15168404579162598,-400000.0625,2879.330078125,-400000.0625,-400000.0625,-5470.7998046875,-400000.0625,-2055.409912109375,-400000.0625
0.1517024040222168,-400000.0625,2860.449951171875,-400000.0625,-400000.0625,-5467.7001953125,-400000.0625,-2057.64990234375,-400000.0625
0.15172100067138672,-400000.0625,2839.139892578125,-400000.0625,-400000.0625,-5494.64013671875,-400000.0625,-2084.679931640625,-400000.0625
0.15173912048339844,-400000.0625,2842.469970703125,-400000.0625,-400000.0625,-5502.509765625,-400000.0625,-2089.5,-400000.0625
0.15175867080688477,-400000.0625,2860.68994140625,-400000.0625,-400000.0625,-5484.919921875,-400000.0625,-2080.35009765625,-400000.0625
0.1517941951751709,-400000.0625,2862.60009765625,-400000.0625,-400000.0625,-5465.64990234375,-400000.0625,-2063.419921875,-400000.0625
0.15181422233581543,-400000.0625,2869.320068359375,-400000.0625,-400000.0625,-5464.27001953125,-400000.0625,-2067.3798828125,-400000.0625
0.15183329582214355,-400000.0625,2851.489990234375,-400000.0625,-400000.0625,-5487.77978515625,-400000.0625,-2073.570068359375,-400000.0625
0.15185165405273438,-400000.0625,2832.320068359375,-400000.0625,-400000.0625,-5487.77978515625,-400000.0625,-2101.280029296875,-400000.0625
0.1518702507019043,-400000.0625,2843.0,-400000.0625,-400000.0625,-5480.52978515625,-400000.0625,-2086.2099609375,-400000.0625
timestamp,ch7,ch2,ch3,ch5,is_pause
timestamp,ch7,ch2,ch3,ch5,is_pause
timestamp,ch7,ch2,ch3,ch5,is_pause
timestamp,ch7,ch2,ch3,ch5,is_pause
0.20308732986450195,-400000.0625,2853.780029296875,-400000.0625,-400000.0625,-5485.009765625,-400000.0625,-2062.22998046875,-400000.0625
0.2033061981201172,-400000.0625,2867.64990234375,-400000.0625,-400000.0625,-5478.33984375,-400000.0625,-2060.510009765625,-400000.0625
0.20332646369934082,-400000.0625,2862.739990234375,-400000.0625,-400000.0625,-5470.60986328125,-400000.0625,-2073.10009765625,-400000.0625
0.20334124565124512,-400000.0625,2841.18994140625,-400000.0625,-400000.0625,-5483.2900390625,-400000.0625,-2089.360107421875,-400000.0625
0.2033548355102539,-400000.0625,2828.7900390625,-400000.0625,-400000.0625,-5485.6298828125,-400000.0625,-2096.219970703125,-400000.0625
0.2033686637878418,-400000.0625,2837.800048828125,-400000.0625,-400000.0625,-5470.22998046875,-400000.0625,-2082.300048828125,-400000.0625
0.20338225364685059,-400000.0625,2845.719970703125,-400000.0625,-400000.0625,-5460.93017578125,-400000.0625,-2064.0400390625,-400000.0625
0.20339655876159668,-400000.0625,2872.419921875,-400000.0625,-400000.0625,-5466.7998046875,-400000.0625,-2069.81005859375,-400000.0625
0.20341205596923828,-400000.0625,2862.169921875,-400000.0625,-400000.0625,-5481.240234375,-400000.0625,-2086.1201171875,-400000.0625
0.2034316062927246,-400000.0625,2839.85009765625,-400000.0625,-400000.0625,-5492.830078125,-400000.0625,-2083.590087890625,-400000.0625
0.2034461498260498,-400000.0625,2847.47998046875,-400000.0625,-400000.0625,-5479.72021484375,-400000.0625,-2062.889892578125,-400000.0625
0.2034597396850586,-400000.0625,2861.360107421875,-400000.0625,-400000.0625,-5469.60986328125,-400000.0625,-2067.419921875,-400000.0625
0.2034740447998047,-400000.0625,2862.97998046875,-400000.0625,-400000.0625,-5460.5498046875,-400000.0625,-2068.85009765625,-400000.0625
0.20348787307739258,-400000.0625,2852.6298828125,-400000.0625,-400000.0625,-5469.47021484375,-400000.0625,-2070.139892578125,-400000.0625
0.20350408554077148,-400000.0625,2834.93994140625,-400000.0625,-400000.0625,-5488.5400390625,-400000.0625,-2080.919921875,-400000.0625
0.20351767539978027,-400000.0625,2839.22998046875,-400000.0625,-400000.0625,-5481.669921875,-400000.0625,-2078.14990234375,-400000.0625
timestamp,ch7,ch2,ch3,ch5,is_pause
timestamp,ch7,ch2,ch3,ch5,is_pause
timestamp,ch7,ch2,ch3,ch5,is_pause
timestamp,ch7,ch2,ch3,ch5,is_pause
0.2505505084991455,-400000.0625,2844.47998046875,-400000.0625,-400000.0625,-5477.0,-400000.0625,-2063.93994140625,-400000.0625
timestamp,ch7,ch2,ch3,ch5,is_pause
0.2791712284088135,-400000.0625,2858.590087890625,-400000.0625,-400000.0625,-5457.740234375,-400000.0625,-2062.85009765625,-400000.0625
timestamp,ch7,ch2,ch3,ch5,is_pause
0.285442590713501,-400000.0625,2861.830078125,-400000.0625,-400000.0625,-5458.16015625,-400000.0625,-2053.8798828125,-400000.0625
0.29007649421691895,-400000.0625,2826.260009765625,-400000.0625,-400000.0625,-5474.0400390625,-400000.0625,-2079.340087890625,-400000.0625
0.2900846004486084,-400000.0625,2835.800048828125,-400000.0625,-400000.0625,-5479.43017578125,-400000.0625,-2087.590087890625,-400000.0625
0.29008913040161133,-400000.0625,2849.050048828125,-400000.0625,-400000.0625,-5472.3701171875,-400000.0625,-2083.830078125,-400000.0625
0.29009389877319336,-400000.0625,2839.610107421875,-400000.0625,-400000.0625,-5477.0498046875,-400000.0625,-2066.3701171875,-400000.0625
0.2900979518890381,-400000.0625,2864.409912109375,-400000.0625,-400000.0625,-5477.330078125,-400000.0625,-2057.5,-400000.0625
0.2901031970977783,-400000.0625,2848.10009765625,-400000.0625,-400000.0625,-5475.9501953125,-400000.0625,-2065.93994140625,-400000.0625
0.29011058807373047,-400000.0625,2817.389892578125,-400000.0625,-400000.0625,-5474.7099609375,-400000.0625,-2085.260009765625,-400000.0625
0.2901148796081543,-400000.0625,2813.2900390625,-400000.0625,-400000.0625,-5475.0,-400000.0625,-2086.35009765625,-400000.0625
0.290118932723999,-400000.0625,2804.280029296875,-400000.0625,-400000.0625,-5478.0,-400000.0625,-2058.550048828125,-400000.0625
0.29012298583984375,-400000.0625,2817.72998046875,-400000.0625,-400000.0625,-5465.22021484375,-400000.0625,-2064.56005859375,-400000.0625
0.2901279926300049,-400000.0625,2815.9599609375,-400000.0625,-400000.0625,-5460.5498046875,-400000.0625,-2072.669921875,-400000.0625
0.2901322841644287,-400000.0625,2796.60009765625,-400000.0625,-400000.0625,-5475.9501953125,-400000.0625,-2096.610107421875,-400000.0625
0.29013633728027344,-400000.0625,2786.300048828125,-400000.0625,-400000.0625,-5482.6298828125,-400000.0625,-2106.239990234375,-400000.0625
timestamp,ch7,ch2,ch3,ch5,is_pause
timestamp,ch7,ch2,ch3,ch5,is_pause
0.3094933032989502,-400000.0625,2790.5,-400000.0625,-400000.0625,-5478.56982421875,-400000.0625,-2106.2900390625,-400000.0625
0.3158714771270752,-400000.0625,2775.719970703125,-400000.0625,-400000.0625,-5471.56005859375,-400000.0625,-2107.050048828125,-400000.0625
0.32035350799560547,-400000.0625,2783.919921875,-400000.0625,-400000.0625,-5464.41015625,-400000.0625,-2099.56005859375,-400000.0625
0.320361852645874,-400000.0625,2775.81005859375,-400000.0625,-400000.0625,-5476.08984375,-400000.0625,-2115.06005859375,-400000.0625
0.32036685943603516,-400000.0625,2746.8701171875,-400000.0625,-400000.0625,-5481.43017578125,-400000.0625,-2125.5,-400000.0625
0.3203709125518799,-400000.0625,2750.679931640625,-400000.0625,-400000.0625,-5466.31982421875,-400000.0625,-2119.02001953125,-400000.0625
0.3203766345977783,-400000.0625,2760.7900390625,-400000.0625,-400000.0625,-5446.14990234375,-400000.0625,-2117.199951171875,-400000.0625
0.32038068771362305,-400000.0625,2760.4599609375,-400000.0625,-400000.0625,-5447.009765625,-400000.0625,-2122.969970703125,-400000.0625
0.3203847408294678,-400000.0625,2752.919921875,-400000.0625,-400000.0625,-5449.490234375,-400000.0625,-2130.699951171875,-400000.0625
0.3203887939453125,-400000.0625,2731.85009765625,-400000.0625,-400000.0625,-5467.990234375,-400000.0625,-2140.050048828125,-400000.0625
0.3203926086425781,-400000.0625,2724.64990234375,-400000.0625,-400000.0625,-5475.0,-400000.0625,-2157.260009765625,-400000.0625
0.3203999996185303,-400000.0625,2737.090087890625,-400000.0625,-400000.0625,-5463.93017578125,-400000.0625,-2147.719970703125,-400000.0625
0.3204042911529541,-400000.0625,2742.77001953125,-400000.0625,-400000.0625,-5451.580078125,-400000.0625,-2134.989990234375,-400000.0625
0.32040834426879883,-400000.0625,2751.780029296875,-400000.0625,-400000.0625,-5444.3798828125,-400000.0625,-2129.27001953125,-400000.0625
0.32041239738464355,-400000.0625,2731.85009765625,-400000.0625,-400000.0625,-5462.740234375,-400000.0625,-2142.949951171875,-400000.0625
0.3204162120819092,-400000.0625,2714.25,-400000.0625,-400000.0625,-5485.81982421875,-400000.0625,-2158.830078125,-400000.0625
timestamp,ch7,ch2,ch3,ch5,is_pause
timestamp,ch7,ch2,ch3,ch5,is_pause
timestamp,ch7,ch2,ch3,ch5,is_pause
timestamp,ch7,ch2,ch3,ch5,is_pause
timestamp,ch7,ch2,ch3,ch5,is_pause
0.38423919677734375,-400000.0625,2721.360107421875,-400000.0625,-400000.0625,-5481.2900390625,-400000.0625,-2160.840087890625,-400000.0625
timestamp,ch7,ch2,ch3,ch5,is_pause
timestamp,ch7,ch2,ch3,ch5,is_pause
0.40422797203063965,-400000.0625,2745.77001953125,-400000.0625,-400000.0625,-5476.08984375,-400000.0625,-2148.14990234375,-400000.0625
0.40850138664245605,-400000.0625,2756.31005859375,-400000.0625,-400000.0625,-5461.64990234375,-400000.0625,-2121.639892578125,-400000.0625
0.4085102081298828,-400000.0625,2747.010009765625,-400000.0625,-400000.0625,-5457.06982421875,-400000.0625,-2128.889892578125,-400000.0625
0.40851473808288574,-400000.0625,2717.300048828125,-400000.0625,-400000.0625,-5467.56005859375,-400000.0625,-2154.72998046875,-400000.0625
0.4085195064544678,-400000.0625,2720.639892578125,-400000.0625,-400000.0625,-5464.75,-400000.0625,-2152.35009765625,-400000.0625
0.4085237979888916,-400000.0625,2739.81005859375,-400000.0625,-400000.0625,-5459.68994140625,-400000.0625,-2144.3798828125,-400000.0625
0.4085276126861572,-400000.0625,2751.5400390625,-400000.0625,-400000.0625,-5451.16015625,-400000.0625,-2147.669921875,-400000.0625
0.40853166580200195,-400000.0625,2758.409912109375,-400000.0625,-400000.0625,-5449.6298828125,-400000.0625,-2121.110107421875,-400000.0625
0.4085357189178467,-400000.0625,2734.0400390625,-400000.0625,-400000.0625,-5472.7099609375,-400000.0625,-2133.419921875,-400000.0625
0.4085395336151123,-400000.0625,2715.159912109375,-400000.0625,-400000.0625,-5478.10009765625,-400000.0625,-2146.43994140625,-400000.0625
0.40854334831237793,-400000.0625,2727.080078125,-400000.0625,-400000.0625,-5468.66015625,-400000.0625,-2134.510009765625,-400000.0625
0.40854907035827637,-400000.0625,2751.489990234375,-400000.0625,-400000.0625,-5461.740234375,-400000.0625,-2127.4599609375,-400000.0625
0.4085531234741211,-400000.0625,2755.7900390625,-400000.0625,-400000.0625,-5451.2001953125,-400000.0625,-2118.159912109375,-400000.0625
0.4085571765899658,-400000.0625,2751.159912109375,-400000.0625,-400000.0625,-5463.080078125,-400000.0625,-2130.1298828125,-400000.0625
0.40856122970581055,-400000.0625,2723.64990234375,-400000.0625,-400000.0625,-5480.33984375,-400000.0625,-2150.679931640625,-400000.0625
timestamp,ch7,ch2,ch3,ch5,is_pause
timestamp,ch7,ch2,ch3,ch5,is_pause
timestamp,ch7,ch2,ch3,ch5,is_pause
timestamp,ch7,ch2,ch3,ch5,is_pause
timestamp,ch7,ch2,ch3,ch5,is_pause
0.46270036697387695,-400000.0625,2722.169921875,-400000.0625,-400000.0625,-5485.39013671875,-400000.0625,-2151.300048828125,-400000.0625
0.4714524745941162,-400000.0625,2730.080078125,-400000.0625,-400000.0625,-5466.02978515625,-400000.0625,-2142.239990234375,-400000.0625
timestamp,ch7,ch2,ch3,ch5,is_pause
0.476578950881958,-400000.0625,2738.860107421875,-400000.0625,-400000.0625,-5452.77978515625,-400000.0625,-2120.919921875,-400000.0625
0.48233985900878906,-400000.0625,2752.449951171875,-400000.0625,-400000.0625,-5452.43994140625,-400000.0625,-2113.679931640625,-400000.0625
0.4869248867034912,-400000.0625,2729.3701171875,-400000.0625,-400000.0625,-5458.16015625,-400000.0625,-2139.429931640625,-400000.0625
timestamp,ch7,ch2,ch3,ch5,is_pause
0.49720144271850586,-400000.0625,2723.409912109375,-400000.0625,-400000.0625,-5468.27001953125,-400000.0625,-2161.31005859375,-400000.0625
timestamp,ch7,ch2,ch3,ch5,is_pause
0.5033571720123291,-400000.0625,2735.090087890625,-400000.0625,-400000.0625,-5466.93994140625,-400000.0625,-2151.780029296875,-400000.0625
0.5083773136138916,-400000.0625,2729.800048828125,-400000.0625,-400000.0625,-5455.830078125,-400000.0625,-2125.219970703125,-400000.0625
timestamp,ch7,ch2,ch3,ch5,is_pause
0.5141513347625732,-400000.0625,2738.52001953125,-400000.0625,-400000.0625,-5441.240234375,-400000.0625,-2122.449951171875,-400000.0625
0.5191504955291748,-400000.0625,2741.3798828125,-400000.0625,-400000.0625,-5459.169921875,-400000.0625,-2133.889892578125,-400000.0625
0.5191574096679688,-400000.0625,2716.449951171875,-400000.0625,-400000.0625,-5481.0498046875,-400000.0625,-2156.2099609375,-400000.0625
0.5234477519989014,-400000.0625,2703.81005859375,-400000.0625,-400000.0625,-5481.6298828125,-400000.0625,-2139.760009765625,-400000.0625
0.5234541893005371,-400000.0625,2714.06005859375,-400000.0625,-400000.0625,-5472.56982421875,-400000.0625,-2119.590087890625,-400000.0625
0.52345871925354,-400000.0625,2736.52001953125,-400000.0625,-400000.0625,-5447.33984375,-400000.0625,-2112.9599609375,-400000.0625
0.5234665870666504,-400000.0625,2726.7900390625,-400000.0625,-400000.0625,-5437.85009765625,-400000.0625,-2109.77001953125,-400000.0625
0.5234708786010742,-400000.0625,2685.39990234375,-400000.0625,-400000.0625,-5459.06982421875,-400000.0625,-2115.199951171875,-400000.0625
0.525977373123169,-400000.0625,2670.10009765625,-400000.0625,-400000.0625,-5476.89990234375,-400000.0625,-2127.219970703125,-400000.0625
timestamp,ch7,ch2,ch3,ch5,is_pause
0.5325970649719238,-400000.0625,2687.5,-400000.0625,-400000.0625,-5475.7099609375,-400000.0625,-2107.429931640625,-400000.0625
0.5369889736175537,-400000.0625,2691.93994140625,-400000.0625,-400000.0625,-5465.75,-400000.0625,-2095.989990234375,-400000.0625
0.5369982719421387,-400000.0625,2698.280029296875,-400000.0625,-400000.0625,-5463.5498046875,-400000.0625,-2082.43994140625,-400000.0625
0.5370032787322998,-400000.0625,2675.820068359375,-400000.0625,-400000.0625,-5478.9501953125,-400000.0625,-2087.02001953125,-400000.0625
0.5370092391967773,-400000.0625,2651.739990234375,-400000.0625,-400000.0625,-5485.490234375,-400000.0625,-2105.760009765625,-400000.0625
0.5370135307312012,-400000.0625,2639.06005859375,-400000.0625,-400000.0625,-5475.47021484375,-400000.0625,-2102.949951171875,-400000.0625
0.5370173454284668,-400000.0625,2664.330078125,-400000.0625,-400000.0625,-5471.08984375,-400000.0625,-2097.179931640625,-400000.0625
0.5370252132415771,-400000.0625,2682.8798828125,-400000.0625,-400000.0625,-5466.509765625,-400000.0625,-2089.8798828125,-400000.0625
0.537029504776001,-400000.0625,2677.580078125,-400000.0625,-400000.0625,-5465.1298828125,-400000.0625,-2091.5,-400000.0625
0.5370335578918457,-400000.0625,2667.81005859375,-400000.0625,-400000.0625,-5491.58984375,-400000.0625,-2091.219970703125,-400000.0625
0.5370378494262695,-400000.0625,2655.27001953125,-400000.0625,-400000.0625,-5493.5498046875,-400000.0625,-2093.510009765625,-400000.0625
0.5370419025421143,-400000.0625,2663.0400390625,-400000.0625,-400000.0625,-5476.27978515625,-400000.0625,-2094.080078125,-400000.0625
0.537045955657959,-400000.0625,2665.949951171875,-400000.0625,-400000.0625,-5464.35986328125,-400000.0625,-2088.8798828125,-400000.0625
0.5370500087738037,-400000.0625,2674.8701171875,-400000.0625,-400000.0625,-5455.830078125,-400000.0625,-2089.8798828125,-400000.0625
0.5370538234710693,-400000.0625,2663.330078125,-400000.0625,-400000.0625,-5465.97998046875,-400000.0625,-2092.7900390625,-400000.0625
0.5370581150054932,-400000.0625,2645.300048828125,-400000.0625,-400000.0625,-5485.009765625,-400000.0625,-2107.0,-400000.0625
0.5370619297027588,-400000.0625,2657.27001953125,-400000.0625,-400000.0625,-5476.0,-400000.0625,-2099.090087890625,-400000.0625
0.5370657444000244,-400000.0625,2662.330078125,-400000.0625,-400000.0625,-5460.93017578125,-400000.0625,-2090.739990234375,-400000.0625
0.53706955909729,-400000.0625,2674.530029296875,-400000.0625,-400000.0625,-5448.39013671875,-400000.0625,-2072.570068359375,-400000.0625
0.5370733737945557,-400000.0625,2693.3701171875,-400000.0625,-400000.0625,-5451.68017578125,-400000.0625,-2073.239990234375,-400000.0625
0.5370771884918213,-400000.0625,2662.22998046875,-400000.0625,-400000.0625,-5467.93994140625,-400000.0625,-2092.699951171875,-400000.0625
0.5370826721191406,-400000.0625,2641.9599609375,-400000.0625,-400000.0625,-5481.77001953125,-400000.0625,-2098.610107421875,-400000.0625
0.5370867252349854,-400000.0625,2659.85009765625,-400000.0625,-400000.0625,-5472.3701171875,-400000.0625,-2088.639892578125,-400000.0625
0.5370903015136719,-400000.0625,2673.9599609375,-400000.0625,-400000.0625,-5459.64013671875,-400000.0625,-2082.820068359375,-400000.0625
0.5370943546295166,-400000.0625,2684.39990234375,-400000.0625,-400000.0625,-5441.330078125,-400000.0625,-2078.340087890625,-400000.0625
0.5370984077453613,-400000.0625,2666.949951171875,-400000.0625,-400000.0625,-5452.43994140625,-400000.0625,-2083.919921875,-400000.0625
0.537102460861206,-400000.0625,2637.860107421875,-400000.0625,-400000.0625,-5473.9501953125,-400000.0625,-2091.840087890625,-400000.0625
0.5371067523956299,-400000.0625,2644.159912109375,-400000.0625,-400000.0625,-5488.39990234375,-400000.0625,-2097.699951171875,-400000.0625
0.5371108055114746,-400000.0625,2671.81005859375,-400000.0625,-400000.0625,-5483.39013671875,-400000.0625,-2081.590087890625,-400000.0625
0.5371153354644775,-400000.0625,2675.010009765625,-400000.0625,-400000.0625,-5460.7900390625,-400000.0625,-2073.81005859375,-400000.0625
0.5371193885803223,-400000.0625,2674.9599609375,-400000.0625,-400000.0625,-5448.68017578125,-400000.0625,-2070.760009765625,-400000.0625
timestamp,ch7,ch2,ch3,ch5,is_pause
timestamp,ch7,ch2,ch3,ch5,is_pause
timestamp,ch7,ch2,ch3,ch5,is_pause
timestamp,ch7,ch2,ch3,ch5,is_pause
timestamp,ch7,ch2,ch3,ch5,is_pause
timestamp,ch7,ch2,ch3,ch5,is_pause
0.6044666767120361,-400000.0625,2665.570068359375,-400000.0625,-400000.0625,-5460.8798828125,-400000.0625,-2101.85009765625,-400000.0625
timestamp,ch7,ch2,ch3,ch5,is_pause
timestamp,ch7,ch2,ch3,ch5,is_pause
0.62982177734375,-400000.0625,2653.97998046875,-400000.0625,-400000.0625,-5465.22021484375,-400000.0625,-2095.889892578125,-400000.0625
0.6347625255584717,-400000.0625,2652.360107421875,-400000.0625,-400000.0625,-5463.7900390625,-400000.0625,-2087.02001953125,-400000.0625
0.6347711086273193,-400000.0625,2671.77001953125,-400000.0625,-400000.0625,-5467.02978515625,-400000.0625,-2076.199951171875,-400000.0625
0.6347765922546387,-400000.0625,2669.760009765625,-400000.0625,-400000.0625,-5459.2099609375,-400000.0625,-2063.56005859375,-400000.0625
0.6347837448120117,-400000.0625,2655.889892578125,-400000.0625,-400000.0625,-5468.3701171875,-400000.0625,-2076.010009765625,-400000.0625
0.6347877979278564,-400000.0625,2647.110107421875,-400000.0625,-400000.0625,-5470.1298828125,-400000.0625,-2099.280029296875,-400000.0625
0.6347916126251221,-400000.0625,2657.75,-400000.0625,-400000.0625,-5461.41015625,-400000.0625,-2097.080078125,-400000.0625
0.6347954273223877,-400000.0625,2668.2900390625,-400000.0625,-400000.0625,-5456.259765625,-400000.0625,-2088.5,-400000.0625
0.6347994804382324,-400000.0625,2680.449951171875,-400000.0625,-400000.0625,-5456.77978515625,-400000.0625,-2072.570068359375,-400000.0625
0.6348037719726562,-400000.0625,2678.919921875,-400000.0625,-400000.0625,-5458.31005859375,-400000.0625,-2072.47998046875,-400000.0625
0.634807825088501,-400000.0625,2660.56005859375,-400000.0625,-400000.0625,-5465.169921875,-400000.0625,-2090.8798828125,-400000.0625
0.6348116397857666,-400000.0625,2652.97998046875,-400000.0625,-400000.0625,-5465.3701171875,-400000.0625,-2089.830078125,-400000.0625
0.6348154544830322,-400000.0625,2662.52001953125,-400000.0625,-400000.0625,-5456.10986328125,-400000.0625,-2077.43994140625,-400000.0625
0.6348192691802979,-400000.0625,2665.18994140625,-400000.0625,-400000.0625,-5441.43017578125,-400000.0625,-2068.89990234375,-400000.0625
0.6348233222961426,-400000.0625,2660.320068359375,-400000.0625,-400000.0625,-5435.27978515625,-400000.0625,-2057.929931640625,-400000.0625
timestamp,ch7,ch2,ch3,ch5,is_pause
timestamp,ch7,ch2,ch3,ch5,is_pause
timestamp,ch7,ch2,ch3,ch5,is_pause
timestamp,ch7,ch2,ch3,ch5,is_pause
timestamp,ch7,ch2,ch3,ch5,is_pause
0.6918344497680664,-400000.0625,2663.090087890625,-400000.0625,-400000.0625,-5450.10986328125,-400000.0625,-2070.949951171875,-400000.0625
0.7006235122680664,-400000.0625,2644.06005859375,-400000.0625,-400000.0625,-5464.509765625,-400000.0625,-2078.14990234375,-400000.0625
timestamp,ch7,ch2,ch3,ch5,is_pause
0.705693244934082,-400000.0625,2642.820068359375,-400000.0625,-400000.0625,-5459.1201171875,-400000.0625,-2068.7099609375,-400000.0625
timestamp,ch7,ch2,ch3,ch5,is_pause
0.7200279235839844,-400000.0625,2645.780029296875,-400000.0625,-400000.0625,-5454.2099609375,-400000.0625,-2073.2900390625,-400000.0625
0.7244265079498291,-400000.0625,2654.4599609375,-400000.0625,-400000.0625,-5450.2001953125,-400000.0625,-2062.320068359375,-400000.0625
0.7244341373443604,-400000.0625,2656.75,-400000.0625,-400000.0625,-5461.7900390625,-400000.0625,-2045.489990234375,-400000.0625
0.7244386672973633,-400000.0625,2634.81005859375,-400000.0625,-400000.0625,-5472.85009765625,-400000.0625,-2061.510009765625,-400000.0625
0.7244431972503662,-400000.0625,2628.469970703125,-400000.0625,-400000.0625,-5470.27978515625,-400000.0625,-2067.419921875,-400000.0625
0.7244472503662109,-400000.0625,2638.14990234375,-400000.0625,-400000.0625,-5463.02978515625,-400000.0625,-2064.090087890625,-400000.0625
0.7244510650634766,-400000.0625,2644.969970703125,-400000.0625,-400000.0625,-5449.68017578125,-400000.0625,-2048.830078125,-400000.0625
0.7244548797607422,-400000.0625,2661.22998046875,-400000.0625,-400000.0625,-5439.81005859375,-400000.0625,-2040.2900390625,-400000.0625
0.7244586944580078,-400000.0625,2635.18994140625,-400000.0625,-400000.0625,-5456.06982421875,-400000.0625,-2059.97998046875,-400000.0625
0.7244627475738525,-400000.0625,2634.429931640625,-400000.0625,-400000.0625,-5468.56005859375,-400000.0625,-2080.06005859375,-400000.0625
0.7244665622711182,-400000.0625,2646.260009765625,-400000.0625,-400000.0625,-5458.5498046875,-400000.0625,-2059.510009765625,-400000.0625
0.7244706153869629,-400000.0625,2652.68994140625,-400000.0625,-400000.0625,-5448.43994140625,-400000.0625,-2045.1099853515625,-400000.0625
0.7244777679443359,-400000.0625,2669.050048828125,-400000.0625,-400000.0625,-5444.14990234375,-400000.0625,-2037.4300537109375,-400000.0625
0.7244818210601807,-400000.0625,2652.64990234375,-400000.0625,-400000.0625,-5449.43994140625,-400000.0625,-2054.639892578125,-400000.0625
0.7244858741760254,-400000.0625,2637.580078125,-400000.0625,-400000.0625,-5464.60009765625,-400000.0625,-2079.110107421875,-400000.0625
0.7244899272918701,-400000.0625,2639.820068359375,-400000.0625,-400000.0625,-5458.8798828125,-400000.0625,-2070.469970703125,-400000.0625
0.7244937419891357,-400000.0625,2661.510009765625,-400000.0625,-400000.0625,-5450.580078125,-400000.0625,-2056.7900390625,-400000.0625
0.7244975566864014,-400000.0625,2664.330078125,-400000.0625,-400000.0625,-5452.25,-400000.0625,-2043.6300048828125,-400000.0625
0.724501371383667,-400000.0625,2658.27001953125,-400000.0625,-400000.0625,-5435.89990234375,-400000.0625,-2046.5400390625,-400000.0625
0.7245054244995117,-400000.0625,2650.8798828125,-400000.0625,-400000.0625,-5446.6298828125,-400000.0625,-2060.989990234375,-400000.0625
0.7245092391967773,-400000.0625,2645.2099609375,-400000.0625,-400000.0625,-5451.919921875,-400000.0625,-2073.3798828125,-400000.0625
0.724513053894043,-400000.0625,2658.989990234375,-400000.0625,-400000.0625,-5445.91015625,-400000.0625,-2064.179931640625,-400000.0625
0.7245166301727295,-400000.0625,2661.280029296875,-400000.0625,-400000.0625,-5437.990234375,-400000.0625,-2052.02001953125,-400000.0625
0.7245206832885742,-400000.0625,2662.989990234375,-400000.0625,-400000.0625,-5427.7900390625,-400000.0625,-2043.25,-400000.0625
0.7245242595672607,-400000.0625,2653.27001953125,-400000.0625,-400000.0625,-5439.330078125,-400000.0625,-2049.780029296875,-400000.0625
0.7245280742645264,-400000.0625,2645.02001953125,-400000.0625,-400000.0625,-5462.27001953125,-400000.0625,-2069.0400390625,-400000.0625
0.7245321273803711,-400000.0625,2651.929931640625,-400000.0625,-400000.0625,-5452.919921875,-400000.0625,-2066.179931640625,-400000.0625
0.7245371341705322,-400000.0625,2661.989990234375,-400000.0625,-400000.0625,-5438.419921875,-400000.0625,-2062.699951171875,-400000.0625
0.724541187286377,-400000.0625,2670.429931640625,-400000.0625,-400000.0625,-5435.31982421875,-400000.0625,-2049.780029296875,-400000.0625
timestamp,ch7,ch2,ch3,ch5,is_pause
timestamp,ch7,ch2,ch3,ch5,is_pause
timestamp,ch7,ch2,ch3,ch5,is_pause
timestamp,ch7,ch2,ch3,ch5,is_pause
timestamp,ch7,ch2,ch3,ch5,is_pause
timestamp,ch7,ch2,ch3,ch5,is_pause
timestamp,ch7,ch2,ch3,ch5,is_pause
0.8163492679595947,-400000.0625,2672.77001953125,-400000.0625,-400000.0625,-5427.31005859375,-400000.0625,-2034.239990234375,-400000.0625
timestamp,ch7,ch2,ch3,ch5,is_pause
timestamp,ch7,ch2,ch3,ch5,is_pause
0.8373897075653076,-400000.0625,2655.320068359375,-400000.0625,-400000.0625,-5439.330078125,-400000.0625,-2056.840087890625,-400000.0625
0.8419797420501709,-400000.0625,2640.010009765625,-400000.0625,-400000.0625,-5461.02978515625,-400000.0625,-2068.22998046875,-400000.0625
0.8419880867004395,-400000.0625,2652.409912109375,-400000.0625,-400000.0625,-5464.97998046875,-400000.0625,-2062.030029296875,-400000.0625
0.8419923782348633,-400000.0625,2655.030029296875,-400000.0625,-400000.0625,-5454.2099609375,-400000.0625,-2048.919921875,-400000.0625
0.8419966697692871,-400000.0625,2671.77001953125,-400000.0625,-400000.0625,-5439.7099609375,-400000.0625,-2028.510009765625,-400000.0625
0.8420009613037109,-400000.0625,2671.389892578125,-400000.0625,-400000.0625,-5441.56982421875,-400000.0625,-2037.760009765625,-400000.0625
0.8420047760009766,-400000.0625,2664.570068359375,-400000.0625,-400000.0625,-5452.35009765625,-400000.0625,-2061.3701171875,-400000.0625
0.8420085906982422,-400000.0625,2657.409912109375,-400000.0625,-400000.0625,-5451.43994140625,-400000.0625,-2056.60009765625,-400000.0625
0.8420126438140869,-400000.0625,2646.260009765625,-400000.0625,-400000.0625,-5441.3798828125,-400000.0625,-2049.969970703125,-400000.0625
0.8420164585113525,-400000.0625,2664.280029296875,-400000.0625,-400000.0625,-5435.08984375,-400000.0625,-2042.47998046875,-400000.0625
0.842034101486206,-400000.0625,2671.14990234375,-400000.0625,-400000.0625,-5440.759765625,-400000.0625,-2038.9100341796875,-400000.0625
0.8420379161834717,-400000.0625,2651.68994140625,-400000.0625,-400000.0625,-5451.06005859375,-400000.0625,-2056.409912109375,-400000.0625
0.8420422077178955,-400000.0625,2644.780029296875,-400000.0625,-400000.0625,-5457.06982421875,-400000.0625,-2065.0400390625,-400000.0625
0.8420462608337402,-400000.0625,2649.929931640625,-400000.0625,-400000.0625,-5452.16015625,-400000.0625,-2051.5400390625,-400000.0625
0.842050313949585,-400000.0625,2658.889892578125,-400000.0625,-400000.0625,-5441.0498046875,-400000.0625,-2045.25,-400000.0625
timestamp,ch7,ch2,ch3,ch5,is_pause
timestamp,ch7,ch2,ch3,ch5,is_pause
0.872596263885498,-400000.0625,2660.989990234375,-400000.0625,-400000.0625,-5426.06982421875,-400000.0625,-2034.0,-400000.0625
timestamp,ch7,ch2,ch3,ch5,is_pause
0.8835511207580566,-400000.0625,2663.659912109375,-400000.0625,-400000.0625,-5441.27978515625,-400000.0625,-2053.169921875,-400000.0625
0.8880150318145752,-400000.0625,2643.780029296875,-400000.0625,-400000.0625,-5470.85009765625,-400000.0625,-2069.89990234375,-400000.0625
0.8880228996276855,-400000.0625,2650.39990234375,-400000.0625,-400000.0625,-5460.93017578125,-400000.0625,-2051.35009765625,-400000.0625
0.8880290985107422,-400000.0625,2668.050048828125,-400000.0625,-400000.0625,-5440.81005859375,-400000.0625,-2043.530029296875,-400000.0625
0.8880336284637451,-400000.0625,2646.830078125,-400000.0625,-400000.0625,-5431.75,-400000.0625,-2023.7900390625,-400000.0625
0.8880376815795898,-400000.0625,2651.830078125,-400000.0625,-400000.0625,-5432.22021484375,-400000.0625,-2028.6600341796875,-400000.0625
0.8880417346954346,-400000.0625,2641.9599609375,-400000.0625,-400000.0625,-5447.9599609375,-400000.0625,-2060.27001953125,-400000.0625
0.8880457878112793,-400000.0625,2641.110107421875,-400000.0625,-400000.0625,-5459.39990234375,-400000.0625,-2058.840087890625,-400000.0625
0.8880503177642822,-400000.0625,2644.25,-400000.0625,-400000.0625,-5454.10986328125,-400000.0625,-2042.3399658203125,-400000.0625
0.888054609298706,-400000.0625,2644.969970703125,-400000.0625,-400000.0625,-5440.18994140625,-400000.0625,-2038.9599609375,-400000.0625
0.8880586624145508,-400000.0625,2672.239990234375,-400000.0625,-400000.0625,-5433.22998046875,-400000.0625,-2040.5799560546875,-400000.0625
0.8880624771118164,-400000.0625,2659.75,-400000.0625,-400000.0625,-5444.9599609375,-400000.0625,-2046.43994140625,-400000.0625
0.888066291809082,-400000.0625,2639.25,-400000.0625,-400000.0625,-5460.06982421875,-400000.0625,-2057.27001953125,-400000.0625
0.8880701065063477,-400000.0625,2635.429931640625,-400000.0625,-400000.0625,-5456.5400390625,-400000.0625,-2051.929931640625,-400000.0625
0.8880741596221924,-400000.0625,2657.4599609375,-400000.0625,-400000.0625,-5449.39013671875,-400000.0625,-2050.830078125,-400000.0625
0.888077974319458,-400000.0625,2658.889892578125,-400000.0625,-400000.0625,-5431.60986328125,-400000.0625,-2048.43994140625,-400000.0625
0.8880825042724609,-400000.0625,2655.4599609375,-400000.0625,-400000.0625,-5425.93017578125,-400000.0625,-2029.989990234375,-400000.0625
0.8880891799926758,-400000.0625,2634.0,-400000.0625,-400000.0625,-5440.27978515625,-400000.0625,-2047.780029296875,-400000.0625
0.8880932331085205,-400000.0625,2619.1201171875,-400000.0625,-400000.0625,-5441.08984375,-400000.0625,-2070.239990234375,-400000.0625
0.8880970478057861,-400000.0625,2641.820068359375,-400000.0625,-400000.0625,-5439.3798828125,-400000.0625,-2063.56005859375,-400000.0625
0.8881008625030518,-400000.0625,2665.090087890625,-400000.0625,-400000.0625,-5431.3701171875,-400000.0625,-2037.3800048828125,-400000.0625
0.8881046772003174,-400000.0625,2655.219970703125,-400000.0625,-400000.0625,-5421.16015625,-400000.0625,-2038.4300537109375,-400000.0625
0.8881094455718994,-400000.0625,2658.64990234375,-400000.0625,-400000.0625,-5444.47998046875,-400000.0625,-2050.300048828125,-400000.0625
0.8881151676177979,-400000.0625,2656.699951171875,-400000.0625,-400000.0625,-5466.7001953125,-400000.0625,-2061.27001953125,-400000.0625
0.8881192207336426,-400000.0625,2652.360107421875,-400000.0625,-400000.0625,-5462.60009765625,-400000.0625,-2059.320068359375,-400000.0625
0.8881232738494873,-400000.0625,2661.85009765625,-400000.0625,-400000.0625,-5454.16015625,-400000.0625,-2042.3399658203125,-400000.0625
0.8881278038024902,-400000.0625,2669.760009765625,-400000.0625,-400000.0625,-5435.419921875,-400000.0625,-2033.280029296875,-400000.0625
0.8881316184997559,-400000.0625,2666.280029296875,-400000.0625,-400000.0625,-5415.919921875,-400000.0625,-2039.6199951171875,-400000.0625
0.8881354331970215,-400000.0625,2648.5,-400000.0625,-400000.0625,-5428.7900390625,-400000.0625,-2055.449951171875,-400000.0625
0.8881394863128662,-400000.0625,2648.02001953125,-400000.0625,-400000.0625,-5439.81005859375,-400000.0625,-2068.85009765625,-400000.0625
0.8881430625915527,-400000.0625,2662.610107421875,-400000.0625,-400000.0625,-5439.14013671875,-400000.0625,-2056.030029296875,-400000.0625
timestamp,ch7,ch2,ch3,ch5,is_pause
timestamp,ch7,ch2,ch3,ch5,is_pause
timestamp,ch7,ch2,ch3,ch5,is_pause
timestamp,ch7,ch2,ch3,ch5,is_pause
timestamp,ch7,ch2,ch3,ch5,is_pause
0.955333948135376,-400000.0625,2668.2900390625,-400000.0625,-400000.0625,-5433.0400390625,-400000.0625,-2052.39990234375,-400000.0625
timestamp,ch7,ch2,ch3,ch5,is_pause
timestamp,ch7,ch2,ch3,ch5,is_pause
0.9793553352355957,-400000.0625,2672.820068359375,-400000.0625,-400000.0625,-5413.72021484375,-400000.0625,-2038.3399658203125,-400000.0625
timestamp,ch7,ch2,ch3,ch5,is_pause
0.9864189624786377,-400000.0625,2661.89990234375,-400000.0625,-400000.0625,-5423.02001953125,-400000.0625,-2042.0999755859375,-400000.0625
0.9916431903839111,-400000.0625,2635.2900390625,-400000.0625,-400000.0625,-5444.2900390625,-400000.0625,-2059.27001953125,-400000.0625
0.9963986873626709,-400000.0625,2647.300048828125,-400000.0625,-400000.0625,-5448.009765625,-400000.0625,-2050.300048828125,-400000.0625
0.9964084625244141,-400000.0625,2668.139892578125,-400000.0625,-400000.0625,-5440.66015625,-400000.0625,-2037.6700439453125,-400000.0625
0.9964137077331543,-400000.0625,2676.580078125,-400000.0625,-400000.0625,-5434.93994140625,-400000.0625,-2036.6199951171875,-400000.0625
0.996417760848999,-400000.0625,2664.139892578125,-400000.0625,-400000.0625,-5436.52001953125,-400000.0625,-2035.239990234375,-400000.0625
0.9964220523834229,-400000.0625,2658.64990234375,-400000.0625,-400000.0625,-5446.2900390625,-400000.0625,-2051.449951171875,-400000.0625
0.9964261054992676,-400000.0625,2661.1298828125,-400000.0625,-400000.0625,-5450.06005859375,-400000.0625,-2059.219970703125,-400000.0625
0.9964303970336914,-400000.0625,2665.3798828125,-400000.0625,-400000.0625,-5434.1298828125,-400000.0625,-2063.610107421875,-400000.0625
0.9964344501495361,-400000.0625,2666.0400390625,-400000.0625,-400000.0625,-5419.919921875,-400000.0625,-2028.93994140625,-400000.0625
0.9964380264282227,-400000.0625,2685.2099609375,-400000.0625,-400000.0625,-5409.669921875,-400000.0625,-2019.68994140625,-400000.0625
0.9964420795440674,-400000.0625,2643.389892578125,-400000.0625,-400000.0625,-5435.75,-400000.0625,-2038.239990234375,-400000.0625
0.9964456558227539,-400000.0625,2646.110107421875,-400000.0625,-400000.0625,-5455.77978515625,-400000.0625,-2058.080078125,-400000.0625
0.9964497089385986,-400000.0625,2667.090087890625,-400000.0625,-400000.0625,-5445.91015625,-400000.0625,-2047.780029296875,-400000.0625
timestamp,ch7,ch2,ch3,ch5,is_pause
timestamp,ch7,ch2,ch3,ch5,is_pause
1.0112018585205078,-400000.0625,2675.25,-400000.0625,-400000.0625,-5431.60986328125,-400000.0625,-2031.1800537109375,-400000.0625
1.017195463180542,-400000.0625,2675.10009765625,-400000.0625,-400000.0625,-5422.02001953125,-400000.0625,-2026.75,-400000.0625
1.0215141773223877,-400000.0625,2654.219970703125,-400000.0625,-400000.0625,-5432.75,-400000.0625,-2030.469970703125,-400000.0625
1.0215225219726562,-400000.0625,2661.85009765625,-400000.0625,-400000.0625,-5445.91015625,-400000.0625,-2062.179931640625,-400000.0625
1.021528720855713,-400000.0625,2678.820068359375,-400000.0625,-400000.0625,-5452.25,-400000.0625,-2067.22998046875,-400000.0625
1.0215330123901367,-400000.0625,2665.18994140625,-400000.0625,-400000.0625,-5445.77001953125,-400000.0625,-2037.1400146484375,-400000.0625
1.0215370655059814,-400000.0625,2656.409912109375,-400000.0625,-400000.0625,-5426.4599609375,-400000.0625,-2023.6500244140625,-400000.0625
1.02154541015625,-400000.0625,2672.860107421875,-400000.0625,-400000.0625,-5412.14990234375,-400000.0625,-2016.8800048828125,-400000.0625
1.0215492248535156,-400000.0625,2659.1298828125,-400000.0625,-400000.0625,-5430.60009765625,-400000.0625,-2033.3800048828125,-400000.0625
1.0215532779693604,-400000.0625,2647.68994140625,-400000.0625,-400000.0625,-5438.0400390625,-400000.0625,-2050.969970703125,-400000.0625
1.0215575695037842,-400000.0625,2655.739990234375,-400000.0625,-400000.0625,-5427.5498046875,-400000.0625,-2051.2099609375,-400000.0625
1.021561622619629,-400000.0625,2666.3798828125,-400000.0625,-400000.0625,-5426.1201171875,-400000.0625,-2045.1099853515625,-400000.0625
1.0215654373168945,-400000.0625,2677.580078125,-400000.0625,-400000.0625,-5418.39990234375,-400000.0625,-2031.280029296875,-400000.0625
1.0215692520141602,-400000.0625,2671.14990234375,-400000.0625,-400000.0625,-5420.259765625,-400000.0625,-2025.6500244140625,-400000.0625
1.0215740203857422,-400000.0625,2645.5400390625,-400000.0625,-400000.0625,-5438.08984375,-400000.0625,-2030.6099853515625,-400000.0625
1.021578311920166,-400000.0625,2648.780029296875,-400000.0625,-400000.0625,-5440.0,-400000.0625,-2050.72998046875,-400000.0625
timestamp,ch7,ch2,ch3,ch5,is_pause
timestamp,ch7,ch2,ch3,ch5,is_pause
timestamp,ch7,ch2,ch3,ch5,is_pause
timestamp,ch7,ch2,ch3,ch5,is_pause
1.066967248916626,-400000.0625,2689.169921875,-400000.0625,-400000.0625,-5421.35009765625,-400000.0625,-2061.030029296875,-400000.0625
timestamp,ch7,ch2,ch3,ch5,is_pause
timestamp,ch7,ch2,ch3,ch5,is_pause
1.087982416152954,-400000.0625,2695.75,-400000.0625,-400000.0625,-5406.08984375,-400000.0625,-2061.64990234375,-400000.0625
1.0931284427642822,-400000.0625,2677.679931640625,-400000.0625,-400000.0625,-5409.52978515625,-400000.0625,-2039.18994140625,-400000.0625
1.0980503559112549,-400000.0625,2674.25,-400000.0625,-400000.0625,-5430.31982421875,-400000.0625,-2058.550048828125,-400000.0625
1.0980591773986816,-400000.0625,2662.3701171875,-400000.0625,-400000.0625,-5429.60009765625,-400000.0625,-2076.340087890625,-400000.0625
1.0980639457702637,-400000.0625,2673.530029296875,-400000.0625,-400000.0625,-5413.33984375,-400000.0625,-2083.8701171875,-400000.0625
1.0980682373046875,-400000.0625,2686.639892578125,-400000.0625,-400000.0625,-5406.08984375,-400000.0625,-2079.25,-400000.0625
1.0980720520019531,-400000.0625,2699.89990234375,-400000.0625,-400000.0625,-5404.56982421875,-400000.0625,-2069.52001953125,-400000.0625
1.0980761051177979,-400000.0625,2696.090087890625,-400000.0625,-400000.0625,-5421.77978515625,-400000.0625,-2068.469970703125,-400000.0625
1.0980801582336426,-400000.0625,2675.679931640625,-400000.0625,-400000.0625,-5425.60009765625,-400000.0625,-2089.1201171875,-400000.0625
1.0980839729309082,-400000.0625,2674.9599609375,-400000.0625,-400000.0625,-5413.77001953125,-400000.0625,-2094.840087890625,-400000.0625
1.098088264465332,-400000.0625,2676.6298828125,-400000.0625,-400000.0625,-5403.7099609375,-400000.0625,-2082.39990234375,-400000.0625
1.0980920791625977,-400000.0625,2699.280029296875,-400000.0625,-400000.0625,-5399.7998046875,-400000.0625,-2084.02001953125,-400000.0625
1.0980958938598633,-400000.0625,2714.110107421875,-400000.0625,-400000.0625,-5399.27978515625,-400000.0625,-2081.72998046875,-400000.0625
1.09810471534729,-400000.0625,2672.9599609375,-400000.0625,-400000.0625,-5415.77001953125,-400000.0625,-2082.590087890625,-400000.0625
1.098109245300293,-400000.0625,2663.179931640625,-400000.0625,-400000.0625,-5426.259765625,-400000.0625,-2084.8798828125,-400000.0625
timestamp,ch7,ch2,ch3,ch5,is_pause
timestamp,ch7,ch2,ch3,ch5,is_pause
timestamp,ch7,ch2,ch3,ch5,is_pause
1.12709379196167,-400000.0625,2700.85009765625,-400000.0625,-400000.0625,-5419.72998046875,-400000.0625,-2083.8701171875,-400000.0625
1.1337075233459473,-400000.0625,2705.3798828125,-400000.0625,-400000.0625,-5418.490234375,-400000.0625,-2073.719970703125,-400000.0625
timestamp,ch7,ch2,ch3,ch5,is_pause
1.1396863460540771,-400000.0625,2712.8701171875,-400000.0625,-400000.0625,-5397.60986328125,-400000.0625,-2073.429931640625,-400000.0625
1.1446812152862549,-400000.0625,2698.419921875,-400000.0625,-400000.0625,-5394.75,-400000.0625,-2081.35009765625,-400000.0625
1.144690990447998,-400000.0625,2671.669921875,-400000.0625,-400000.0625,-5418.8701171875,-400000.0625,-2096.3701171875,-400000.0625
timestamp,ch7,ch2,ch3,ch5,is_pause
1.1506907939910889,-400000.0625,2675.010009765625,-400000.0625,-400000.0625,-5415.919921875,-400000.0625,-2087.2099609375,-400000.0625
1.155367374420166,-400000.0625,2681.639892578125,-400000.0625,-400000.0625,-5408.240234375,-400000.0625,-2066.800048828125,-400000.0625
1.155376672744751,-400000.0625,2686.550048828125,-400000.0625,-400000.0625,-5392.41015625,-400000.0625,-2062.85009765625,-400000.0625
1.155381441116333,-400000.0625,2691.320068359375,-400000.0625,-400000.0625,-5382.6298828125,-400000.0625,-2074.909912109375,-400000.0625
1.1554045677185059,-400000.0625,2665.659912109375,-400000.0625,-400000.0625,-5401.27978515625,-400000.0625,-2094.840087890625,-400000.0625
1.1554083824157715,-400000.0625,2676.679931640625,-400000.0625,-400000.0625,-5414.52978515625,-400000.0625,-2087.780029296875,-400000.0625
1.155412197113037,-400000.0625,2709.47998046875,-400000.0625,-400000.0625,-5404.47021484375,-400000.0625,-2083.159912109375,-400000.0625
1.1554226875305176,-400000.0625,2698.469970703125,-400000.0625,-400000.0625,-5387.97021484375,-400000.0625,-2079.580078125,-400000.0625
1.1554267406463623,-400000.0625,2708.909912109375,-400000.0625,-400000.0625,-5374.0498046875,-400000.0625,-2067.610107421875,-400000.0625
1.155430793762207,-400000.0625,2697.7099609375,-400000.0625,-400000.0625,-5397.75,-400000.0625,-2082.159912109375,-400000.0625
1.1554350852966309,-400000.0625,2679.300048828125,-400000.0625,-400000.0625,-5418.97021484375,-400000.0625,-2094.219970703125,-400000.0625
timestamp,ch7,ch2,ch3,ch5,is_pause
timestamp,ch7,ch2,ch3,ch5,is_pause
timestamp,ch7,ch2,ch3,ch5,is_pause
timestamp,ch7,ch2,ch3,ch5,is_pause
timestamp,ch7,ch2,ch3,ch5,is_pause
1.2222645282745361,-400000.0625,2683.31005859375,-400000.0625,-400000.0625,-5416.580078125,-400000.0625,-2090.550048828125,-400000.0625
timestamp,ch7,ch2,ch3,ch5,is_pause
timestamp,ch7,ch2,ch3,ch5,is_pause
1.2443461418151855,-400000.0625,2691.7900390625,-400000.0625,-400000.0625,-5409.0498046875,-400000.0625,-2075.77001953125,-400000.0625
1.2495660781860352,-400000.0625,2703.239990234375,-400000.0625,-400000.0625,-5393.83984375,-400000.0625,-2068.570068359375,-400000.0625
timestamp,ch7,ch2,ch3,ch5,is_pause
1.2548513412475586,-400000.0625,2696.85009765625,-400000.0625,-400000.0625,-5390.02001953125,-400000.0625,-2073.3798828125,-400000.0625
1.2592086791992188,-400000.0625,2679.25,-400000.0625,-400000.0625,-5405.330078125,-400000.0625,-2096.1298828125,-400000.0625
1.2592167854309082,-400000.0625,2682.39990234375,-400000.0625,-400000.0625,-5409.10009765625,-400000.0625,-2100.56005859375,-400000.0625
1.2592217922210693,-400000.0625,2667.949951171875,-400000.0625,-400000.0625,-5398.7998046875,-400000.0625,-2082.43994140625,-400000.0625
1.2592260837554932,-400000.0625,2691.93994140625,-400000.0625,-400000.0625,-5393.169921875,-400000.0625,-2084.02001953125,-400000.0625
1.2592298984527588,-400000.0625,2703.429931640625,-400000.0625,-400000.0625,-5389.06982421875,-400000.0625,-2069.18994140625,-400000.0625
1.2592411041259766,-400000.0625,2690.739990234375,-400000.0625,-400000.0625,-5397.7001953125,-400000.0625,-2085.260009765625,-400000.0625
1.2592463493347168,-400000.0625,2688.219970703125,-400000.0625,-400000.0625,-5412.0498046875,-400000.0625,-2089.2099609375,-400000.0625
1.2592501640319824,-400000.0625,2691.080078125,-400000.0625,-400000.0625,-5411.43017578125,-400000.0625,-2084.830078125,-400000.0625
1.2592544555664062,-400000.0625,2688.030029296875,-400000.0625,-400000.0625,-5407.72021484375,-400000.0625,-2081.6298828125,-400000.0625
1.25925874710083,-400000.0625,2705.77001953125,-400000.0625,-400000.0625,-5393.89013671875,-400000.0625,-2074.0,-400000.0625
1.259263277053833,-400000.0625,2703.47998046875,-400000.0625,-400000.0625,-5382.81982421875,-400000.0625,-2077.530029296875,-400000.0625
1.2592673301696777,-400000.0625,2678.199951171875,-400000.0625,-400000.0625,-5401.66015625,-400000.0625,-2088.31005859375,-400000.0625
1.2592713832855225,-400000.0625,2687.64990234375,-400000.0625,-400000.0625,-5405.0,-400000.0625,-2096.080078125,-400000.0625
1.2592754364013672,-400000.0625,2687.409912109375,-400000.0625,-400000.0625,-5395.41015625,-400000.0625,-2086.590087890625,-400000.0625
1.2592792510986328,-400000.0625,2706.3798828125,-400000.0625,-400000.0625,-5385.72998046875,-400000.0625,-2073.6201171875,-400000.0625
1.2592835426330566,-400000.0625,2712.43994140625,-400000.0625,-400000.0625,-5376.240234375,-400000.0625,-2059.97998046875,-400000.0625
1.2592873573303223,-400000.0625,2694.889892578125,-400000.0625,-400000.0625,-5392.5498046875,-400000.0625,-2077.389892578125,-400000.0625
1.259291648864746,-400000.0625,2677.6298828125,-400000.0625,-400000.0625,-5407.14013671875,-400000.0625,-2088.31005859375,-400000.0625
1.2592954635620117,-400000.0625,2693.419921875,-400000.0625,-400000.0625,-5400.52001953125,-400000.0625,-2086.5,-400000.0625
1.2593071460723877,-400000.0625,2704.2900390625,-400000.0625,-400000.0625,-5393.7001953125,-400000.0625,-2086.39990234375,-400000.0625
1.2593121528625488,-400000.0625,2729.27001953125,-400000.0625,-400000.0625,-5394.080078125,-400000.0625,-2082.5400390625,-400000.0625
1.2593164443969727,-400000.0625,2710.010009765625,-400000.0625,-400000.0625,-5386.68994140625,-400000.0625,-2081.8701171875,-400000.0625
1.2593204975128174,-400000.0625,2690.889892578125,-400000.0625,-400000.0625,-5400.08984375,-400000.0625,-2085.5400390625,-400000.0625
1.259324312210083,-400000.0625,2692.889892578125,-400000.0625,-400000.0625,-5415.33984375,-400000.0625,-2080.8701171875,-400000.0625
1.2593297958374023,-400000.0625,2701.3798828125,-400000.0625,-400000.0625,-5403.7099609375,-400000.0625,-2071.570068359375,-400000.0625
1.2593343257904053,-400000.0625,2705.0,-400000.0625,-400000.0625,-5386.5,-400000.0625,-2069.89990234375,-400000.0625
1.259350061416626,-400000.0625,2705.10009765625,-400000.0625,-400000.0625,-5387.35009765625,-400000.0625,-2070.050048828125,-400000.0625
1.2593541145324707,-400000.0625,2690.840087890625,-400000.0625,-400000.0625,-5400.22998046875,-400000.0625,-2078.909912109375,-400000.0625
timestamp,ch7,ch2,ch3,ch5,is_pause
timestamp,ch7,ch2,ch3,ch5,is_pause
timestamp,ch7,ch2,ch3,ch5,is_pause
timestamp,ch7,ch2,ch3,ch5,is_pause
1.3040556907653809,-400000.0625,2673.340087890625,-400000.0625,-400000.0625,-5405.43017578125,-400000.0625,-2092.550048828125,-400000.0625
1.3141014575958252,-400000.0625,2696.56005859375,-400000.0625,-400000.0625,-5401.52001953125,-400000.0625,-2097.510009765625,-400000.0625
timestamp,ch7,ch2,ch3,ch5,is_pause
1.32002592086792,-400000.0625,2717.68994140625,-400000.0625,-400000.0625,-5392.64990234375,-400000.0625,-2079.110107421875,-400000.0625
1.3249609470367432,-400000.0625,2716.489990234375,-400000.0625,-400000.0625,-5386.5400390625,-400000.0625,-2060.030029296875,-400000.0625
timestamp,ch7,ch2,ch3,ch5,is_pause
1.3351421356201172,-400000.0625,2712.010009765625,-400000.0625,-400000.0625,-5390.1201171875,-400000.0625,-2071.429931640625,-400000.0625
1.3394477367401123,-400000.0625,2691.409912109375,-400000.0625,-400000.0625,-5402.330078125,-400000.0625,-2090.260009765625,-400000.0625
1.3394560813903809,-400000.0625,2696.1298828125,-400000.0625,-400000.0625,-5403.759765625,-400000.0625,-2090.739990234375,-400000.0625
1.3394606113433838,-400000.0625,2717.5400390625,-400000.0625,-400000.0625,-5399.990234375,-400000.0625,-2082.300048828125,-400000.0625
1.3394649028778076,-400000.0625,2711.6298828125,-400000.0625,-400000.0625,-5387.06982421875,-400000.0625,-2075.6201171875,-400000.0625
1.3394687175750732,-400000.0625,2706.0,-400000.0625,-400000.0625,-5382.009765625,-400000.0625,-2069.85009765625,-400000.0625
1.3394725322723389,-400000.0625,2688.97998046875,-400000.0625,-400000.0625,-5399.0400390625,-400000.0625,-2093.169921875,-400000.0625
1.3394768238067627,-400000.0625,2689.840087890625,-400000.0625,-400000.0625,-5401.08984375,-400000.0625,-2108.18994140625,-400000.0625
1.3394806385040283,-400000.0625,2691.510009765625,-400000.0625,-400000.0625,-5396.93994140625,-400000.0625,-2088.02001953125,-400000.0625
1.339484453201294,-400000.0625,2703.669921875,-400000.0625,-400000.0625,-5385.72998046875,-400000.0625,-2078.389892578125,-400000.0625
1.3394882678985596,-400000.0625,2719.159912109375,-400000.0625,-400000.0625,-5381.8701171875,-400000.0625,-2079.340087890625,-400000.0625
1.339491844177246,-400000.0625,2696.800048828125,-400000.0625,-400000.0625,-5381.919921875,-400000.0625,-2084.5400390625,-400000.0625
timestamp,ch7,ch2,ch3,ch5,is_pause
timestamp,ch7,ch2,ch3,ch5,is_pause
1.3587069511413574,-400000.0625,2687.97998046875,-400000.0625,-400000.0625,-5392.41015625,-400000.0625,-2097.64990234375,-400000.0625
1.3644030094146729,-400000.0625,2692.889892578125,-400000.0625,-400000.0625,-5400.31982421875,-400000.0625,-2093.360107421875,-400000.0625
timestamp,ch7,ch2,ch3,ch5,is_pause
1.371018886566162,-400000.0625,2700.469970703125,-400000.0625,-400000.0625,-5397.60986328125,-400000.0625,-2079.489990234375,-400000.0625
1.3761096000671387,-400000.0625,2716.35009765625,-400000.0625,-400000.0625,-5384.259765625,-400000.0625,-2078.300048828125,-400000.0625
timestamp,ch7,ch2,ch3,ch5,is_pause
1.3821468353271484,-400000.0625,2714.35009765625,-400000.0625,-400000.0625,-5380.009765625,-400000.0625,-2064.419921875,-400000.0625
1.3864667415618896,-400000.0625,2691.080078125,-400000.0625,-400000.0625,-5387.39990234375,-400000.0625,-2087.39990234375,-400000.0625
1.3864750862121582,-400000.0625,2683.5400390625,-400000.0625,-400000.0625,-5402.330078125,-400000.0625,-2109.530029296875,-400000.0625
1.3864798545837402,-400000.0625,2682.72998046875,-400000.0625,-400000.0625,-5387.8798828125,-400000.0625,-2093.080078125,-400000.0625
1.386484146118164,-400000.0625,2699.330078125,-400000.0625,-400000.0625,-5377.669921875,-400000.0625,-2087.1201171875,-400000.0625
1.3864881992340088,-400000.0625,2705.719970703125,-400000.0625,-400000.0625,-5377.14990234375,-400000.0625,-2075.050048828125,-400000.0625
1.3864924907684326,-400000.0625,2698.469970703125,-400000.0625,-400000.0625,-5391.259765625,-400000.0625,-2084.02001953125,-400000.0625
1.3864963054656982,-400000.0625,2694.030029296875,-400000.0625,-400000.0625,-5409.0,-400000.0625,-2101.949951171875,-400000.0625
1.3865001201629639,-400000.0625,2674.14990234375,-400000.0625,-400000.0625,-5392.22021484375,-400000.0625,-2098.85009765625,-400000.0625
1.3865041732788086,-400000.0625,2689.5,-400000.0625,-400000.0625,-5385.4501953125,-400000.0625,-2090.169921875,-400000.0625
1.3865087032318115,-400000.0625,2714.39990234375,-400000.0625,-400000.0625,-5379.8701171875,-400000.0625,-2080.35009765625,-400000.0625
1.3865127563476562,-400000.0625,2712.199951171875,-400000.0625,-400000.0625,-5380.6298828125,-400000.0625,-2083.830078125,-400000.0625
timestamp,ch7,ch2,ch3,ch5,is_pause
timestamp,ch7,ch2,ch3,ch5,is_pause
timestamp,ch7,ch2,ch3,ch5,is_pause
1.4244415760040283,-400000.0625,2696.800048828125,-400000.0625,-400000.0625,-5409.14990234375,-400000.0625,-2094.93994140625,-400000.0625
timestamp,ch7,ch2,ch3,ch5,is_pause
1.4350895881652832,-400000.0625,2678.969970703125,-400000.0625,-400000.0625,-5411.2001953125,-400000.0625,-2101.52001953125,-400000.0625
timestamp,ch7,ch2,ch3,ch5,is_pause
1.4512252807617188,-400000.0625,2691.56005859375,-400000.0625,-400000.0625,-5386.77978515625,-400000.0625,-2100.989990234375,-400000.0625
timestamp,ch7,ch2,ch3,ch5,is_pause
1.4565412998199463,-400000.0625,2696.22998046875,-400000.0625,-400000.0625,-5375.33984375,-400000.0625,-2089.169921875,-400000.0625
1.461536169052124,-400000.0625,2701.7099609375,-400000.0625,-400000.0625,-5375.33984375,-400000.0625,-2083.159912109375,-400000.0625
1.4615447521209717,-400000.0625,2687.409912109375,-400000.0625,-400000.0625,-5386.35009765625,-400000.0625,-2094.1298828125,-400000.0625
1.4615490436553955,-400000.0625,2693.93994140625,-400000.0625,-400000.0625,-5407.18994140625,-400000.0625,-2101.52001953125,-400000.0625
1.4662368297576904,-400000.0625,2690.699951171875,-400000.0625,-400000.0625,-5406.81005859375,-400000.0625,-2092.699951171875,-400000.0625
1.4662456512451172,-400000.0625,2704.18994140625,-400000.0625,-400000.0625,-5399.990234375,-400000.0625,-2086.070068359375,-400000.0625
1.4662501811981201,-400000.0625,2719.8798828125,-400000.0625,-400000.0625,-5381.919921875,-400000.0625,-2083.159912109375,-400000.0625
1.4662539958953857,-400000.0625,2710.14990234375,-400000.0625,-400000.0625,-5369.43017578125,-400000.0625,-2088.070068359375,-400000.0625
1.4662578105926514,-400000.0625,2690.219970703125,-400000.0625,-400000.0625,-5384.68017578125,-400000.0625,-2105.760009765625,-400000.0625
1.466261625289917,-400000.0625,2684.739990234375,-400000.0625,-400000.0625,-5391.06982421875,-400000.0625,-2106.570068359375,-400000.0625
1.4662656784057617,-400000.0625,2686.2099609375,-400000.0625,-400000.0625,-5391.97998046875,-400000.0625,-2082.43994140625,-400000.0625
1.4662694931030273,-400000.0625,2696.179931640625,-400000.0625,-400000.0625,-5387.68994140625,-400000.0625,-2074.530029296875,-400000.0625
1.466273307800293,-400000.0625,2709.9599609375,-400000.0625,-400000.0625,-5375.43017578125,-400000.0625,-2074.530029296875,-400000.0625
timestamp,ch7,ch2,ch3,ch5,is_pause
timestamp,ch7,ch2,ch3,ch5,is_pause
timestamp,ch7,ch2,ch3,ch5,is_pause
1.4941363334655762,-400000.0625,2691.169921875,-400000.0625,-400000.0625,-5384.2998046875,-400000.0625,-2083.02001953125,-400000.0625
1.500446081161499,-400000.0625,2678.919921875,-400000.0625,-400000.0625,-5398.85009765625,-400000.0625,-2095.93994140625,-400000.0625
timestamp,ch7,ch2,ch3,ch5,is_pause
1.5065629482269287,-400000.0625,2682.5,-400000.0625,-400000.0625,-5397.60986328125,-400000.0625,-2092.27001953125,-400000.0625
1.5119833946228027,-400000.0625,2692.1298828125,-400000.0625,-400000.0625,-5396.27001953125,-400000.0625,-2073.719970703125,-400000.0625
timestamp,ch7,ch2,ch3,ch5,is_pause
1.5194768905639648,-400000.0625,2701.89990234375,-400000.0625,-400000.0625,-5382.10986328125,-400000.0625,-2067.52001953125,-400000.0625
1.5239462852478027,-400000.0625,2702.860107421875,-400000.0625,-400000.0625,-5377.14990234375,-400000.0625,-2067.570068359375,-400000.0625
1.523953914642334,-400000.0625,2682.260009765625,-400000.0625,-400000.0625,-5394.4599609375,-400000.0625,-2089.550048828125,-400000.0625
1.523958444595337,-400000.0625,2678.199951171875,-400000.0625,-400000.0625,-5398.31982421875,-400000.0625,-2095.75,-400000.0625
1.5239624977111816,-400000.0625,2696.469970703125,-400000.0625,-400000.0625,-5395.22021484375,-400000.0625,-2095.7900390625,-400000.0625
1.5239667892456055,-400000.0625,2705.9599609375,-400000.0625,-400000.0625,-5383.58984375,-400000.0625,-2070.949951171875,-400000.0625
1.523970603942871,-400000.0625,2697.989990234375,-400000.0625,-400000.0625,-5367.47021484375,-400000.0625,-2059.75,-400000.0625
1.5239746570587158,-400000.0625,2688.68994140625,-400000.0625,-400000.0625,-5377.669921875,-400000.0625,-2082.35009765625,-400000.0625
1.5239787101745605,-400000.0625,2682.5,-400000.0625,-400000.0625,-5390.8798828125,-400000.0625,-2090.409912109375,-400000.0625
1.5239825248718262,-400000.0625,2679.830078125,-400000.0625,-400000.0625,-5390.31005859375,-400000.0625,-2093.030029296875,-400000.0625
1.5239872932434082,-400000.0625,2699.3798828125,-400000.0625,-400000.0625,-5388.64013671875,-400000.0625,-2085.260009765625,-400000.0625
1.523991346359253,-400000.0625,2704.81005859375,-400000.0625,-400000.0625,-5375.6201171875,-400000.0625,-2060.3701171875,-400000.0625
timestamp,ch7,ch2,ch3,ch5,is_pause
timestamp,ch7,ch2,ch3,ch5,is_pause
timestamp,ch7,ch2,ch3,ch5,is_pause
timestamp,ch7,ch2,ch3,ch5,is_pause
timestamp,ch7,ch2,ch3,ch5,is_pause
1.5893330574035645,-400000.0625,2698.760009765625,-400000.0625,-400000.0625,-5374.18994140625,-400000.0625,-2071.330078125,-400000.0625
timestamp,ch7,ch2,ch3,ch5,is_pause
timestamp,ch7,ch2,ch3,ch5,is_pause
1.611626386642456,-400000.0625,2684.739990234375,-400000.0625,-400000.0625,-5388.97998046875,-400000.0625,-2097.64990234375,-400000.0625
1.6160590648651123,-400000.0625,2681.830078125,-400000.0625,-400000.0625,-5393.22021484375,-400000.0625,-2099.0400390625,-400000.0625
1.6160681247711182,-400000.0625,2691.320068359375,-400000.0625,-400000.0625,-5393.83984375,-400000.0625,-2090.31005859375,-400000.0625
1.616072654724121,-400000.0625,2689.889892578125,-400000.0625,-400000.0625,-5391.7900390625,-400000.0625,-2076.199951171875,-400000.0625
1.616076946258545,-400000.0625,2702.3798828125,-400000.0625,-400000.0625,-5374.14990234375,-400000.0625,-2063.469970703125,-400000.0625
1.6160807609558105,-400000.0625,2694.1298828125,-400000.0625,-400000.0625,-5383.919921875,-400000.0625,-2079.679931640625,-400000.0625
1.6160850524902344,-400000.0625,2678.110107421875,-400000.0625,-400000.0625,-5393.169921875,-400000.0625,-2092.409912109375,-400000.0625
1.6160888671875,-400000.0625,2689.409912109375,-400000.0625,-400000.0625,-5393.22021484375,-400000.0625,-2093.739990234375,-400000.0625
1.6160926818847656,-400000.0625,2694.75,-400000.0625,-400000.0625,-5389.35986328125,-400000.0625,-2071.81005859375,-400000.0625
1.616103172302246,-400000.0625,2705.860107421875,-400000.0625,-400000.0625,-5367.56982421875,-400000.0625,-2060.840087890625,-400000.0625
1.6161072254180908,-400000.0625,2700.949951171875,-400000.0625,-400000.0625,-5373.240234375,-400000.0625,-2078.77001953125,-400000.0625
1.6161112785339355,-400000.0625,2680.8701171875,-400000.0625,-400000.0625,-5387.77978515625,-400000.0625,-2097.179931640625,-400000.0625
1.6161150932312012,-400000.0625,2685.590087890625,-400000.0625,-400000.0625,-5378.68017578125,-400000.0625,-2098.889892578125,-400000.0625
1.6161189079284668,-400000.0625,2703.669921875,-400000.0625,-400000.0625,-5374.0498046875,-400000.0625,-2077.389892578125,-400000.0625
1.6161224842071533,-400000.0625,2706.9599609375,-400000.0625,-400000.0625,-5359.7001953125,-400000.0625,-2066.800048828125,-400000.0625
timestamp,ch7,ch2,ch3,ch5,is_pause
timestamp,ch7,ch2,ch3,ch5,is_pause
timestamp,ch7,ch2,ch3,ch5,is_pause
1.6426665782928467,-400000.0625,2702.3798828125,-400000.0625,-400000.0625,-5359.83984375,-400000.0625,-2056.169921875,-400000.0625
1.6499474048614502,-400000.0625,2686.2099609375,-400000.0625,-400000.0625,-5372.85986328125,-400000.0625,-2079.820068359375,-400000.0625
1.6543622016906738,-400000.0625,2684.39990234375,-400000.0625,-400000.0625,-5377.0498046875,-400000.0625,-2091.8798828125,-400000.0625
1.6543700695037842,-400000.0625,2696.280029296875,-400000.0625,-400000.0625,-5369.66015625,-400000.0625,-2077.719970703125,-400000.0625
1.6543748378753662,-400000.0625,2700.22998046875,-400000.0625,-400000.0625,-5367.89990234375,-400000.0625,-2077.199951171875,-400000.0625
1.654378890991211,-400000.0625,2705.719970703125,-400000.0625,-400000.0625,-5362.56005859375,-400000.0625,-2068.139892578125,-400000.0625
1.6543831825256348,-400000.0625,2718.8798828125,-400000.0625,-400000.0625,-5374.2900390625,-400000.0625,-2070.81005859375,-400000.0625
1.654392957687378,-400000.0625,2692.409912109375,-400000.0625,-400000.0625,-5389.7900390625,-400000.0625,-2081.590087890625,-400000.0625
1.6543972492218018,-400000.0625,2688.360107421875,-400000.0625,-400000.0625,-5372.14013671875,-400000.0625,-2083.639892578125,-400000.0625
1.6544010639190674,-400000.0625,2679.6298828125,-400000.0625,-400000.0625,-5363.89013671875,-400000.0625,-2085.260009765625,-400000.0625
1.654404878616333,-400000.0625,2682.639892578125,-400000.0625,-400000.0625,-5353.97998046875,-400000.0625,-2075.47998046875,-400000.0625
1.6544086933135986,-400000.0625,2708.050048828125,-400000.0625,-400000.0625,-5350.68994140625,-400000.0625,-2067.760009765625,-400000.0625
1.6544127464294434,-400000.0625,2707.239990234375,-400000.0625,-400000.0625,-5375.2900390625,-400000.0625,-2088.31005859375,-400000.0625
1.654416561126709,-400000.0625,2685.929931640625,-400000.0625,-400000.0625,-5395.509765625,-400000.0625,-2097.85009765625,-400000.0625
1.6544203758239746,-400000.0625,2699.280029296875,-400000.0625,-400000.0625,-5383.5400390625,-400000.0625,-2088.31005859375,-400000.0625
1.6544241905212402,-400000.0625,2710.389892578125,-400000.0625,-400000.0625,-5357.7900390625,-400000.0625,-2071.18994140625,-400000.0625
1.654428243637085,-400000.0625,2712.010009765625,-400000.0625,-400000.0625,-5347.2998046875,-400000.0625,-2060.510009765625,-400000.0625
1.6544320583343506,-400000.0625,2709.14990234375,-400000.0625,-400000.0625,-5358.5498046875,-400000.0625,-2064.659912109375,-400000.0625
1.6544358730316162,-400000.0625,2694.22998046875,-400000.0625,-400000.0625,-5383.77978515625,-400000.0625,-2076.43994140625,-400000.0625
1.654439926147461,-400000.0625,2687.840087890625,-400000.0625,-400000.0625,-5386.5400390625,-400000.0625,-2072.139892578125,-400000.0625
1.6544435024261475,-400000.0625,2696.659912109375,-400000.0625,-400000.0625,-5369.22998046875,-400000.0625,-2072.909912109375,-400000.0625
1.6544475555419922,-400000.0625,2708.199951171875,-400000.0625,-400000.0625,-5349.39990234375,-400000.0625,-2070.6201171875,-400000.0625
1.6544525623321533,-400000.0625,2701.81005859375,-400000.0625,-400000.0625,-5346.16015625,-400000.0625,-2069.52001953125,-400000.0625
1.654456377029419,-400000.0625,2674.010009765625,-400000.0625,-400000.0625,-5364.419921875,-400000.0625,-2084.300048828125,-400000.0625
1.6544604301452637,-400000.0625,2679.300048828125,-400000.0625,-400000.0625,-5367.3798828125,-400000.0625,-2099.280029296875,-400000.0625
1.6544642448425293,-400000.0625,2709.820068359375,-400000.0625,-400000.0625,-5351.39990234375,-400000.0625,-2101.7099609375,-400000.0625
1.654468059539795,-400000.0625,2729.320068359375,-400000.0625,-400000.0625,-5332.22998046875,-400000.0625,-2096.889892578125,-400000.0625
1.6544721126556396,-400000.0625,2732.320068359375,-400000.0625,-400000.0625,-5327.3701171875,-400000.0625,-2087.5,-400000.0625
1.6544773578643799,-400000.0625,2709.530029296875,-400000.0625,-400000.0625,-5337.91015625,-400000.0625,-2111.530029296875,-400000.0625
1.6544830799102783,-400000.0625,2712.199951171875,-400000.0625,-400000.0625,-5354.35986328125,-400000.0625,-2128.739990234375,-400000.0625
1.6544885635375977,-400000.0625,2710.489990234375,-400000.0625,-400000.0625,-5355.02001953125,-400000.0625,-2130.510009765625,-400000.0625
1.6544945240020752,-400000.0625,2720.169921875,-400000.0625,-400000.0625,-5344.77001953125,-400000.0625,-2137.090087890625,-400000.0625
timestamp,ch7,ch2,ch3,ch5,is_pause
timestamp,ch7,ch2,ch3,ch5,is_pause
timestamp,ch7,ch2,ch3,ch5,is_pause
timestamp,ch7,ch2,ch3,ch5,is_pause
1.706512451171875,-400000.0625,2735.330078125,-400000.0625,-400000.0625,-5331.47021484375,-400000.0625,-2140.330078125,-400000.0625
timestamp,ch7,ch2,ch3,ch5,is_pause
timestamp,ch7,ch2,ch3,ch5,is_pause
1.725343942642212,-400000.0625,2757.60009765625,-400000.0625,-400000.0625,-5329.47021484375,-400000.0625,-2138.0,-400000.0625
1.7301537990570068,-400000.0625,2739.330078125,-400000.0625,-400000.0625,-5337.330078125,-400000.0625,-2147.909912109375,-400000.0625
1.7301628589630127,-400000.0625,2721.2099609375,-400000.0625,-400000.0625,-5344.43994140625,-400000.0625,-2158.830078125,-400000.0625
1.7301676273345947,-400000.0625,2714.159912109375,-400000.0625,-400000.0625,-5333.60986328125,-400000.0625,-2154.2099609375,-400000.0625
1.7301719188690186,-400000.0625,2728.030029296875,-400000.0625,-400000.0625,-5330.7998046875,-400000.0625,-2146.860107421875,-400000.0625
1.7301757335662842,-400000.0625,2753.68994140625,-400000.0625,-400000.0625,-5326.56005859375,-400000.0625,-2131.510009765625,-400000.0625
1.7301795482635498,-400000.0625,2728.75,-400000.0625,-400000.0625,-5327.7998046875,-400000.0625,-2136.179931640625,-400000.0625
1.7301833629608154,-400000.0625,2715.8701171875,-400000.0625,-400000.0625,-5345.43994140625,-400000.0625,-2148.10009765625,-400000.0625
1.730187177658081,-400000.0625,2732.320068359375,-400000.0625,-400000.0625,-5350.4501953125,-400000.0625,-2145.820068359375,-400000.0625
1.7301909923553467,-400000.0625,2740.530029296875,-400000.0625,-400000.0625,-5337.14013671875,-400000.0625,-2146.77001953125,-400000.0625
1.7301952838897705,-400000.0625,2741.81005859375,-400000.0625,-400000.0625,-5322.4599609375,-400000.0625,-2143.530029296875,-400000.0625
1.7301993370056152,-400000.0625,2740.760009765625,-400000.0625,-400000.0625,-5318.740234375,-400000.0625,-2135.85009765625,-400000.0625
1.7302031517028809,-400000.0625,2721.68994140625,-400000.0625,-400000.0625,-5336.6201171875,-400000.0625,-2154.159912109375,-400000.0625
1.7302074432373047,-400000.0625,2715.110107421875,-400000.0625,-400000.0625,-5349.259765625,-400000.0625,-2162.409912109375,-400000.0625
1.7302114963531494,-400000.0625,2725.7900390625,-400000.0625,-400000.0625,-5338.6201171875,-400000.0625,-2151.110107421875,-400000.0625
timestamp,ch7,ch2,ch3,ch5,is_pause
timestamp,ch7,ch2,ch3,ch5,is_pause
timestamp,ch7,ch2,ch3,ch5,is_pause
1.7687530517578125,-400000.0625,2728.409912109375,-400000.0625,-400000.0625,-5337.330078125,-400000.0625,-2151.8701171875,-400000.0625
timestamp,ch7,ch2,ch3,ch5,is_pause
1.779815435409546,-400000.0625,2738.3798828125,-400000.0625,-400000.0625,-5335.0498046875,-400000.0625,-2140.52001953125,-400000.0625
1.7844221591949463,-400000.0625,2736.3798828125,-400000.0625,-400000.0625,-5337.330078125,-400000.0625,-2145.389892578125,-400000.0625
1.7844300270080566,-400000.0625,2716.2099609375,-400000.0625,-400000.0625,-5359.22021484375,-400000.0625,-2163.699951171875,-400000.0625
1.7844345569610596,-400000.0625,2730.699951171875,-400000.0625,-400000.0625,-5356.83984375,-400000.0625,-2151.5400390625,-400000.0625
1.7844390869140625,-400000.0625,2736.18994140625,-400000.0625,-400000.0625,-5335.669921875,-400000.0625,-2142.6201171875,-400000.0625
1.7844429016113281,-400000.0625,2729.080078125,-400000.0625,-400000.0625,-5319.60009765625,-400000.0625,-2131.699951171875,-400000.0625
1.7844467163085938,-400000.0625,2736.280029296875,-400000.0625,-400000.0625,-5321.02978515625,-400000.0625,-2137.3798828125,-400000.0625
1.7844505310058594,-400000.0625,2714.110107421875,-400000.0625,-400000.0625,-5347.68017578125,-400000.0625,-2156.929931640625,-400000.0625
1.784454345703125,-400000.0625,2707.429931640625,-400000.0625,-400000.0625,-5354.2099609375,-400000.0625,-2150.110107421875,-400000.0625
1.7844581604003906,-400000.0625,2735.139892578125,-400000.0625,-400000.0625,-5343.77001953125,-400000.0625,-2141.909912109375,-400000.0625
1.7844622135162354,-400000.0625,2749.300048828125,-400000.0625,-400000.0625,-5346.06005859375,-400000.0625,-2129.27001953125,-400000.0625
1.7844672203063965,-400000.0625,2757.68994140625,-400000.0625,-400000.0625,-5329.89990234375,-400000.0625,-2121.72998046875,-400000.0625
1.7844829559326172,-400000.0625,2735.6201171875,-400000.0625,-400000.0625,-5334.330078125,-400000.0625,-2137.3798828125,-400000.0625
1.7844874858856201,-400000.0625,2715.39990234375,-400000.0625,-400000.0625,-5346.25,-400000.0625,-2151.389892578125,-400000.0625
1.784496784210205,-400000.0625,2726.409912109375,-400000.0625,-400000.0625,-5336.6201171875,-400000.0625,-2151.110107421875,-400000.0625
timestamp,ch7,ch2,ch3,ch5,is_pause
timestamp,ch7,ch2,ch3,ch5,is_pause
timestamp,ch7,ch2,ch3,ch5,is_pause
timestamp,ch7,ch2,ch3,ch5,is_pause
1.82440185546875,-400000.0625,2731.510009765625,-400000.0625,-400000.0625,-5331.7099609375,-400000.0625,-2137.7099609375,-400000.0625
timestamp,ch7,ch2,ch3,ch5,is_pause
1.8432068824768066,-400000.0625,2755.590087890625,-400000.0625,-400000.0625,-5326.3701171875,-400000.0625,-2127.169921875,-400000.0625
1.8477578163146973,-400000.0625,2760.93994140625,-400000.0625,-400000.0625,-5320.83984375,-400000.0625,-2130.64990234375,-400000.0625
1.8477675914764404,-400000.0625,2708.820068359375,-400000.0625,-400000.0625,-5352.830078125,-400000.0625,-2150.6298828125,-400000.0625
1.8477721214294434,-400000.0625,2719.2099609375,-400000.0625,-400000.0625,-5357.27001953125,-400000.0625,-2145.389892578125,-400000.0625
1.8477764129638672,-400000.0625,2734.330078125,-400000.0625,-400000.0625,-5337.10009765625,-400000.0625,-2132.4599609375,-400000.0625
1.847780704498291,-400000.0625,2739.10009765625,-400000.0625,-400000.0625,-5321.93017578125,-400000.0625,-2122.68994140625,-400000.0625
1.8477847576141357,-400000.0625,2745.679931640625,-400000.0625,-400000.0625,-5310.39013671875,-400000.0625,-2119.489990234375,-400000.0625
1.8477888107299805,-400000.0625,2741.2900390625,-400000.0625,-400000.0625,-5329.22998046875,-400000.0625,-2139.659912109375,-400000.0625
1.847792625427246,-400000.0625,2734.570068359375,-400000.0625,-400000.0625,-5348.8701171875,-400000.0625,-2146.010009765625,-400000.0625
1.8477964401245117,-400000.0625,2743.199951171875,-400000.0625,-400000.0625,-5347.009765625,-400000.0625,-2139.280029296875,-400000.0625
1.8478002548217773,-400000.0625,2755.590087890625,-400000.0625,-400000.0625,-5335.27978515625,-400000.0625,-2127.739990234375,-400000.0625
1.847804307937622,-400000.0625,2746.14990234375,-400000.0625,-400000.0625,-5310.580078125,-400000.0625,-2126.5,-400000.0625
1.8478169441223145,-400000.0625,2734.0400390625,-400000.0625,-400000.0625,-5314.4501953125,-400000.0625,-2134.989990234375,-400000.0625
1.84782075881958,-400000.0625,2718.639892578125,-400000.0625,-400000.0625,-5339.6201171875,-400000.0625,-2149.8701171875,-400000.0625
1.8478245735168457,-400000.0625,2732.419921875,-400000.0625,-400000.0625,-5349.919921875,-400000.0625,-2140.81005859375,-400000.0625
timestamp,ch7,ch2,ch3,ch5,is_pause
timestamp,ch7,ch2,ch3,ch5,is_pause
timestamp,ch7,ch2,ch3,ch5,is_pause
timestamp,ch7,ch2,ch3,ch5,is_pause
1.8873848915100098,-400000.0625,2745.8701171875,-400000.0625,-400000.0625,-5338.47998046875,-400000.0625,-2124.60009765625,-400000.0625
1.8975002765655518,-400000.0625,2753.31005859375,-400000.0625,-400000.0625,-5322.7900390625,-400000.0625,-2120.72998046875,-400000.0625
timestamp,ch7,ch2,ch3,ch5,is_pause
1.9034655094146729,-400000.0625,2747.919921875,-400000.0625,-400000.0625,-5326.93994140625,-400000.0625,-2125.7900390625,-400000.0625
1.9080581665039062,-400000.0625,2731.93994140625,-400000.0625,-400000.0625,-5341.240234375,-400000.0625,-2137.659912109375,-400000.0625
1.9080686569213867,-400000.0625,2721.97998046875,-400000.0625,-400000.0625,-5344.2998046875,-400000.0625,-2141.570068359375,-400000.0625
1.9080731868743896,-400000.0625,2730.080078125,-400000.0625,-400000.0625,-5342.39013671875,-400000.0625,-2139.280029296875,-400000.0625
1.9080774784088135,-400000.0625,2734.949951171875,-400000.0625,-400000.0625,-5333.60986328125,-400000.0625,-2129.93994140625,-400000.0625
1.908081293106079,-400000.0625,2749.199951171875,-400000.0625,-400000.0625,-5315.02001953125,-400000.0625,-2123.070068359375,-400000.0625
1.908085584640503,-400000.0625,2747.679931640625,-400000.0625,-400000.0625,-5318.35986328125,-400000.0625,-2135.52001953125,-400000.0625
1.9080898761749268,-400000.0625,2711.110107421875,-400000.0625,-400000.0625,-5336.669921875,-400000.0625,-2142.239990234375,-400000.0625
1.9080936908721924,-400000.0625,2708.9599609375,-400000.0625,-400000.0625,-5344.9599609375,-400000.0625,-2141.090087890625,-400000.0625
1.9081063270568848,-400000.0625,2740.340087890625,-400000.0625,-400000.0625,-5333.56982421875,-400000.0625,-2131.320068359375,-400000.0625
1.9081103801727295,-400000.0625,2744.719970703125,-400000.0625,-400000.0625,-5319.60009765625,-400000.0625,-2122.590087890625,-400000.0625
1.9081141948699951,-400000.0625,2744.6298828125,-400000.0625,-400000.0625,-5321.22021484375,-400000.0625,-2127.030029296875,-400000.0625
1.90812087059021,-400000.0625,2735.949951171875,-400000.0625,-400000.0625,-5347.58984375,-400000.0625,-2130.4599609375,-400000.0625
1.9081251621246338,-400000.0625,2735.760009765625,-400000.0625,-400000.0625,-5343.009765625,-400000.0625,-2134.989990234375,-400000.0625
timestamp,ch7,ch2,ch3,ch5,is_pause
timestamp,ch7,ch2,ch3,ch5,is_pause
timestamp,ch7,ch2,ch3,ch5,is_pause
timestamp,ch7,ch2,ch3,ch5,is_pause
timestamp,ch7,ch2,ch3,ch5,is_pause
timestamp,ch7,ch2,ch3,ch5,is_pause
timestamp,ch7,ch2,ch3,ch5,is_pause
1.9902684688568115,-400000.0625,2747.14990234375,-400000.0625,-400000.0625,-5333.08984375,-400000.0625,-2142.52001953125,-400000.0625
timestamp,ch7,ch2,ch3,ch5,is_pause
2.0057029724121094,-400000.0625,2733.330078125,-400000.0625,-400000.0625,-5325.75,-400000.0625,-2132.419921875,-400000.0625
2.0100526809692383,-400000.0625,2744.47998046875,-400000.0625,-400000.0625,-5324.169921875,-400000.0625,-2109.0,-400000.0625
2.0100607872009277,-400000.0625,2748.8701171875,-400000.0625,-400000.0625,-5332.9501953125,-400000.0625,-2120.590087890625,-400000.0625
2.0100653171539307,-400000.0625,2722.550048828125,-400000.0625,-400000.0625,-5342.43994140625,-400000.0625,-2147.2900390625,-400000.0625
2.0100693702697754,-400000.0625,2733.659912109375,-400000.0625,-400000.0625,-5328.31982421875,-400000.0625,-2149.77001953125,-400000.0625
2.010073661804199,-400000.0625,2721.68994140625,-400000.0625,-400000.0625,-5326.89013671875,-400000.0625,-2130.56005859375,-400000.0625
2.010077714920044,-400000.0625,2749.5400390625,-400000.0625,-400000.0625,-5320.35986328125,-400000.0625,-2118.06005859375,-400000.0625
2.0100865364074707,-400000.0625,2760.320068359375,-400000.0625,-400000.0625,-5319.8798828125,-400000.0625,-2120.070068359375,-400000.0625
2.0100910663604736,-400000.0625,2730.510009765625,-400000.0625,-400000.0625,-5332.18017578125,-400000.0625,-2138.3798828125,-400000.0625
2.0100953578948975,-400000.0625,2733.989990234375,-400000.0625,-400000.0625,-5336.9501953125,-400000.0625,-2141.7099609375,-400000.0625
2.010099172592163,-400000.0625,2743.719970703125,-400000.0625,-400000.0625,-5332.27978515625,-400000.0625,-2126.5,-400000.0625
2.010103464126587,-400000.0625,2749.6298828125,-400000.0625,-400000.0625,-5328.27001953125,-400000.0625,-2120.830078125,-400000.0625
2.0101075172424316,-400000.0625,2744.43994140625,-400000.0625,-400000.0625,-5315.64013671875,-400000.0625,-2110.580078125,-400000.0625
2.0101122856140137,-400000.0625,2733.89990234375,-400000.0625,-400000.0625,-5319.2099609375,-400000.0625,-2115.489990234375,-400000.0625
2.0101163387298584,-400000.0625,2712.110107421875,-400000.0625,-400000.0625,-5335.89990234375,-400000.0625,-2126.5,-400000.0625
2.0101208686828613,-400000.0625,2721.360107421875,-400000.0625,-400000.0625,-5336.240234375,-400000.0625,-2124.60009765625,-400000.0625
2.010126829147339,-400000.0625,2731.510009765625,-400000.0625,-400000.0625,-5329.47021484375,-400000.0625,-2118.43994140625,-400000.0625
2.0101308822631836,-400000.0625,2737.570068359375,-400000.0625,-400000.0625,-5315.77978515625,-400000.0625,-2106.0,-400000.0625
2.0101349353790283,-400000.0625,2735.89990234375,-400000.0625,-400000.0625,-5312.58984375,-400000.0625,-2102.469970703125,-400000.0625
2.010138750076294,-400000.0625,2731.280029296875,-400000.0625,-400000.0625,-5337.72021484375,-400000.0625,-2120.72998046875,-400000.0625
2.0101430416107178,-400000.0625,2726.27001953125,-400000.0625,-400000.0625,-5343.68017578125,-400000.0625,-2123.070068359375,-400000.0625
2.010148048400879,-400000.0625,2715.919921875,-400000.0625,-400000.0625,-5335.3798828125,-400000.0625,-2109.10009765625,-400000.0625
2.010152578353882,-400000.0625,2731.75,-400000.0625,-400000.0625,-5320.259765625,-400000.0625,-2098.419921875,-400000.0625
2.0101571083068848,-400000.0625,2751.780029296875,-400000.0625,-400000.0625,-5315.5,-400000.0625,-2093.64990234375,-400000.0625
2.0101609230041504,-400000.0625,2737.89990234375,-400000.0625,-400000.0625,-5332.89990234375,-400000.0625,-2109.050048828125,-400000.0625
2.010164737701416,-400000.0625,2717.72998046875,-400000.0625,-400000.0625,-5340.43017578125,-400000.0625,-2131.75,-400000.0625
2.0101687908172607,-400000.0625,2709.340087890625,-400000.0625,-400000.0625,-5331.85009765625,-400000.0625,-2120.72998046875,-400000.0625
2.0101728439331055,-400000.0625,2735.090087890625,-400000.0625,-400000.0625,-5326.509765625,-400000.0625,-2107.239990234375,-400000.0625
2.010176658630371,-400000.0625,2751.780029296875,-400000.0625,-400000.0625,-5324.89013671875,-400000.0625,-2099.0400390625,-400000.0625
2.0101804733276367,-400000.0625,2739.330078125,-400000.0625,-400000.0625,-5322.7900390625,-400000.0625,-2100.090087890625,-400000.0625
2.0101847648620605,-400000.0625,2718.5400390625,-400000.0625,-400000.0625,-5341.10009765625,-400000.0625,-2121.780029296875,-400000.0625
timestamp,ch7,ch2,ch3,ch5,is_pause
timestamp,ch7,ch2,ch3,ch5,is_pause
timestamp,ch7,ch2,ch3,ch5,is_pause
timestamp,ch7,ch2,ch3,ch5,is_pause
2.0628316402435303,-400000.0625,2709.909912109375,-400000.0625,-400000.0625,-5342.52978515625,-400000.0625,-2130.840087890625,-400000.0625
timestamp,ch7,ch2,ch3,ch5,is_pause
2.072603464126587,-400000.0625,2716.969970703125,-400000.0625,-400000.0625,-5335.0,-400000.0625,-2122.830078125,-400000.0625
2.077117681503296,-400000.0625,2730.179931640625,-400000.0625,-400000.0625,-5330.3701171875,-400000.0625,-2111.9599609375,-400000.0625
2.07712721824646,-400000.0625,2736.949951171875,-400000.0625,-400000.0625,-5317.259765625,-400000.0625,-2093.739990234375,-400000.0625
2.077131748199463,-400000.0625,2728.27001953125,-400000.0625,-400000.0625,-5328.509765625,-400000.0625,-2109.10009765625,-400000.0625
2.0771360397338867,-400000.0625,2716.5400390625,-400000.0625,-400000.0625,-5347.6298828125,-400000.0625,-2127.60009765625,-400000.0625
2.0771408081054688,-400000.0625,2723.64990234375,-400000.0625,-400000.0625,-5348.2998046875,-400000.0625,-2119.72998046875,-400000.0625
2.0771450996398926,-400000.0625,2738.429931640625,-400000.0625,-400000.0625,-5339.43017578125,-400000.0625,-2106.18994140625,-400000.0625
2.0771491527557373,-400000.0625,2737.239990234375,-400000.0625,-400000.0625,-5313.919921875,-400000.0625,-2106.860107421875,-400000.0625
2.077153205871582,-400000.0625,2723.4599609375,-400000.0625,-400000.0625,-5314.72998046875,-400000.0625,-2103.659912109375,-400000.0625
2.0771591663360596,-400000.0625,2713.35009765625,-400000.0625,-400000.0625,-5345.490234375,-400000.0625,-2125.030029296875,-400000.0625
2.0771656036376953,-400000.0625,2721.2099609375,-400000.0625,-400000.0625,-5349.35009765625,-400000.0625,-2126.739990234375,-400000.0625
2.077172040939331,-400000.0625,2735.330078125,-400000.0625,-400000.0625,-5333.3798828125,-400000.0625,-2113.909912109375,-400000.0625
2.077178716659546,-400000.0625,2733.469970703125,-400000.0625,-400000.0625,-5318.8798828125,-400000.0625,-2096.75,-400000.0625
2.0771851539611816,-400000.0625,2731.179931640625,-400000.0625,-400000.0625,-5311.16015625,-400000.0625,-2097.56005859375,-400000.0625
2.0771892070770264,-400000.0625,2727.080078125,-400000.0625,-400000.0625,-5317.740234375,-400000.0625,-2126.739990234375,-400000.0625
timestamp,ch7,ch2,ch3,ch5,is_pause
timestamp,ch7,ch2,ch3,ch5,is_pause
timestamp,ch7,ch2,ch3,ch5,is_pause
timestamp,ch7,ch2,ch3,ch5,is_pause
2.1178793907165527,-400000.0625,2714.830078125,-400000.0625,-400000.0625,-5333.0,-400000.0625,-2129.840087890625,-400000.0625
timestamp,ch7,ch2,ch3,ch5,is_pause
2.140026092529297,-400000.0625,2725.1201171875,-400000.0625,-400000.0625,-5331.14013671875,-400000.0625,-2118.159912109375,-400000.0625
timestamp,ch7,ch2,ch3,ch5,is_pause
2.145657777786255,-400000.0625,2735.090087890625,-400000.0625,-400000.0625,-5318.5498046875,-400000.0625,-2121.830078125,-400000.0625
2.151127815246582,-400000.0625,2731.510009765625,-400000.0625,-400000.0625,-5305.240234375,-400000.0625,-2106.570068359375,-400000.0625
timestamp,ch7,ch2,ch3,ch5,is_pause
2.1570422649383545,-400000.0625,2725.97998046875,-400000.0625,-400000.0625,-5318.2099609375,-400000.0625,-2103.18994140625,-400000.0625
2.162862539291382,-400000.0625,2716.830078125,-400000.0625,-400000.0625,-5344.2998046875,-400000.0625,-2114.110107421875,-400000.0625
2.167449951171875,-400000.0625,2717.5400390625,-400000.0625,-400000.0625,-5329.85009765625,-400000.0625,-2116.43994140625,-400000.0625
2.1674582958221436,-400000.0625,2719.8798828125,-400000.0625,-400000.0625,-5306.669921875,-400000.0625,-2111.389892578125,-400000.0625
2.1674628257751465,-400000.0625,2743.14990234375,-400000.0625,-400000.0625,-5307.06005859375,-400000.0625,-2111.389892578125,-400000.0625
2.167466878890991,-400000.0625,2749.969970703125,-400000.0625,-400000.0625,-5303.91015625,-400000.0625,-2103.330078125,-400000.0625
2.167478561401367,-400000.0625,2720.739990234375,-400000.0625,-400000.0625,-5318.68994140625,-400000.0625,-2118.02001953125,-400000.0625
2.167482614517212,-400000.0625,2706.340087890625,-400000.0625,-400000.0625,-5337.240234375,-400000.0625,-2128.60009765625,-400000.0625
2.1674866676330566,-400000.0625,2720.639892578125,-400000.0625,-400000.0625,-5332.419921875,-400000.0625,-2120.8798828125,-400000.0625
2.1674907207489014,-400000.0625,2731.93994140625,-400000.0625,-400000.0625,-5318.4501953125,-400000.0625,-2106.760009765625,-400000.0625
2.167494297027588,-400000.0625,2745.06005859375,-400000.0625,-400000.0625,-5306.0498046875,-400000.0625,-2101.090087890625,-400000.0625
2.167499542236328,-400000.0625,2739.18994140625,-400000.0625,-400000.0625,-5313.2099609375,-400000.0625,-2111.050048828125,-400000.0625
timestamp,ch7,ch2,ch3,ch5,is_pause
timestamp,ch7,ch2,ch3,ch5,is_pause
timestamp,ch7,ch2,ch3,ch5,is_pause
2.1990773677825928,-400000.0625,2715.25,-400000.0625,-400000.0625,-5337.91015625,-400000.0625,-2124.8798828125,-400000.0625
2.205165147781372,-400000.0625,2713.6298828125,-400000.0625,-400000.0625,-5339.81005859375,-400000.0625,-2124.1201171875,-400000.0625
timestamp,ch7,ch2,ch3,ch5,is_pause
2.2115488052368164,-400000.0625,2728.989990234375,-400000.0625,-400000.0625,-5335.85986328125,-400000.0625,-2115.919921875,-400000.0625
2.2163803577423096,-400000.0625,2733.139892578125,-400000.0625,-400000.0625,-5318.35986328125,-400000.0625,-2112.340087890625,-400000.0625
2.2163889408111572,-400000.0625,2741.429931640625,-400000.0625,-400000.0625,-5313.35009765625,-400000.0625,-2103.949951171875,-400000.0625
2.216393232345581,-400000.0625,2719.449951171875,-400000.0625,-400000.0625,-5322.4599609375,-400000.0625,-2112.669921875,-400000.0625
2.216397285461426,-400000.0625,2720.39990234375,-400000.0625,-400000.0625,-5333.52001953125,-400000.0625,-2119.590087890625,-400000.0625
2.2164013385772705,-400000.0625,2716.969970703125,-400000.0625,-400000.0625,-5329.7998046875,-400000.0625,-2114.389892578125,-400000.0625
2.216404914855957,-400000.0625,2718.739990234375,-400000.0625,-400000.0625,-5323.740234375,-400000.0625,-2119.35009765625,-400000.0625
2.2164089679718018,-400000.0625,2735.090087890625,-400000.0625,-400000.0625,-5311.16015625,-400000.0625,-2113.909912109375,-400000.0625
2.2164130210876465,-400000.0625,2734.419921875,-400000.0625,-400000.0625,-5322.4599609375,-400000.0625,-2121.260009765625,-400000.0625
2.216416597366333,-400000.0625,2725.97998046875,-400000.0625,-400000.0625,-5338.43017578125,-400000.0625,-2123.929931640625,-400000.0625
2.2164201736450195,-400000.0625,2714.110107421875,-400000.0625,-400000.0625,-5335.85986328125,-400000.0625,-2130.56005859375,-400000.0625
2.2164306640625,-400000.0625,2718.739990234375,-400000.0625,-400000.0625,-5327.4599609375,-400000.0625,-2115.77001953125,-400000.0625
2.216435432434082,-400000.0625,2723.169921875,-400000.0625,-400000.0625,-5322.41015625,-400000.0625,-2097.3701171875,-400000.0625
2.2164392471313477,-400000.0625,2726.27001953125,-400000.0625,-400000.0625,-5317.16015625,-400000.0625,-2103.949951171875,-400000.0625
timestamp,ch7,ch2,ch3,ch5,is_pause
timestamp,ch7,ch2,ch3,ch5,is_pause
timestamp,ch7,ch2,ch3,ch5,is_pause
2.254502773284912,-400000.0625,2711.580078125,-400000.0625,-400000.0625,-5323.4599609375,-400000.0625,-2135.179931640625,-400000.0625
timestamp,ch7,ch2,ch3,ch5,is_pause
timestamp,ch7,ch2,ch3,ch5,is_pause
2.2754359245300293,-400000.0625,2702.6201171875,-400000.0625,-400000.0625,-5327.27001953125,-400000.0625,-2145.860107421875,-400000.0625
2.28088116645813,-400000.0625,2710.719970703125,-400000.0625,-400000.0625,-5322.5498046875,-400000.0625,-2147.820068359375,-400000.0625
timestamp,ch7,ch2,ch3,ch5,is_pause
2.2868809700012207,-400000.0625,2732.179931640625,-400000.0625,-400000.0625,-5311.10986328125,-400000.0625,-2146.580078125,-400000.0625
2.2913548946380615,-400000.0625,2764.419921875,-400000.0625,-400000.0625,-5302.330078125,-400000.0625,-2140.090087890625,-400000.0625
2.2913637161254883,-400000.0625,2748.389892578125,-400000.0625,-400000.0625,-5310.580078125,-400000.0625,-2142.47998046875,-400000.0625
2.291368246078491,-400000.0625,2726.360107421875,-400000.0625,-400000.0625,-5330.75,-400000.0625,-2158.830078125,-400000.0625
2.291372537612915,-400000.0625,2728.080078125,-400000.0625,-400000.0625,-5314.77978515625,-400000.0625,-2165.75,-400000.0625
2.2913765907287598,-400000.0625,2738.330078125,-400000.0625,-400000.0625,-5310.8701171875,-400000.0625,-2165.64990234375,-400000.0625
2.2913804054260254,-400000.0625,2748.5400390625,-400000.0625,-400000.0625,-5305.33984375,-400000.0625,-2155.489990234375,-400000.0625
2.29138445854187,-400000.0625,2752.639892578125,-400000.0625,-400000.0625,-5303.10009765625,-400000.0625,-2154.5400390625,-400000.0625
2.2913925647735596,-400000.0625,2725.7900390625,-400000.0625,-400000.0625,-5318.4501953125,-400000.0625,-2167.889892578125,-400000.0625
2.2913966178894043,-400000.0625,2724.64990234375,-400000.0625,-400000.0625,-5327.7001953125,-400000.0625,-2167.419921875,-400000.0625
2.29140043258667,-400000.0625,2746.300048828125,-400000.0625,-400000.0625,-5317.1201171875,-400000.0625,-2165.699951171875,-400000.0625
2.2914042472839355,-400000.0625,2746.340087890625,-400000.0625,-400000.0625,-5308.9599609375,-400000.0625,-2160.360107421875,-400000.0625
2.291408061981201,-400000.0625,2750.2099609375,-400000.0625,-400000.0625,-5295.7099609375,-400000.0625,-2145.14990234375,-400000.0625
timestamp,ch7,ch2,ch3,ch5,is_pause
timestamp,ch7,ch2,ch3,ch5,is_pause
2.3130273818969727,-400000.0625,2730.080078125,-400000.0625,-400000.0625,-5304.580078125,-400000.0625,-2157.780029296875,-400000.0625
2.3181700706481934,-400000.0625,2723.4599609375,-400000.0625,-400000.0625,-5324.56005859375,-400000.0625,-2176.139892578125,-400000.0625
timestamp,ch7,ch2,ch3,ch5,is_pause
2.3243374824523926,-400000.0625,2733.89990234375,-400000.0625,-400000.0625,-5332.56982421875,-400000.0625,-2173.760009765625,-400000.0625
2.328979969024658,-400000.0625,2727.989990234375,-400000.0625,-400000.0625,-5325.41015625,-400000.0625,-2157.550048828125,-400000.0625
2.328991174697876,-400000.0625,2753.639892578125,-400000.0625,-400000.0625,-5303.85986328125,-400000.0625,-2148.010009765625,-400000.0625
2.3289968967437744,-400000.0625,2752.590087890625,-400000.0625,-400000.0625,-5298.7099609375,-400000.0625,-2153.780029296875,-400000.0625
2.3290021419525146,-400000.0625,2728.409912109375,-400000.0625,-400000.0625,-5317.259765625,-400000.0625,-2174.22998046875,-400000.0625
2.329007387161255,-400000.0625,2716.919921875,-400000.0625,-400000.0625,-5327.509765625,-400000.0625,-2174.330078125,-400000.0625
2.329012155532837,-400000.0625,2714.43994140625,-400000.0625,-400000.0625,-5325.31982421875,-400000.0625,-2159.7900390625,-400000.0625
2.3290247917175293,-400000.0625,2732.7099609375,-400000.0625,-400000.0625,-5312.10986328125,-400000.0625,-2150.14990234375,-400000.0625
2.329115152359009,-400000.0625,2753.929931640625,-400000.0625,-400000.0625,-5297.9501953125,-400000.0625,-2143.239990234375,-400000.0625
2.3291192054748535,-400000.0625,2733.949951171875,-400000.0625,-400000.0625,-5312.5400390625,-400000.0625,-2149.340087890625,-400000.0625
2.329124927520752,-400000.0625,2730.419921875,-400000.0625,-400000.0625,-5319.97998046875,-400000.0625,-2166.3701171875,-400000.0625
2.3291287422180176,-400000.0625,2727.93994140625,-400000.0625,-400000.0625,-5316.64013671875,-400000.0625,-2159.2099609375,-400000.0625
2.3291327953338623,-400000.0625,2732.56005859375,-400000.0625,-400000.0625,-5318.39990234375,-400000.0625,-2149.72998046875,-400000.0625
2.329136848449707,-400000.0625,2753.02001953125,-400000.0625,-400000.0625,-5300.330078125,-400000.0625,-2142.2900390625,-400000.0625
timestamp,ch7,ch2,ch3,ch5,is_pause
timestamp,ch7,ch2,ch3,ch5,is_pause
2.350494384765625,-400000.0625,2754.590087890625,-400000.0625,-400000.0625,-5292.1298828125,-400000.0625,-2149.010009765625,-400000.0625
timestamp,ch7,ch2,ch3,ch5,is_pause
2.3582663536071777,-400000.0625,2731.090087890625,-400000.0625,-400000.0625,-5313.35009765625,-400000.0625,-2168.85009765625,-400000.0625
timestamp,ch7,ch2,ch3,ch5,is_pause
2.3727476596832275,-400000.0625,2714.5400390625,-400000.0625,-400000.0625,-5328.0400390625,-400000.0625,-2170.659912109375,-400000.0625
2.377300262451172,-400000.0625,2720.360107421875,-400000.0625,-400000.0625,-5318.5,-400000.0625,-2160.02001953125,-400000.0625
2.3773107528686523,-400000.0625,2736.22998046875,-400000.0625,-400000.0625,-5308.25,-400000.0625,-2133.3701171875,-400000.0625
2.3773155212402344,-400000.0625,2741.860107421875,-400000.0625,-400000.0625,-5302.3798828125,-400000.0625,-2130.169921875,-400000.0625
2.377319574356079,-400000.0625,2722.449951171875,-400000.0625,-400000.0625,-5315.5400390625,-400000.0625,-2152.8701171875,-400000.0625
2.377333402633667,-400000.0625,2723.7900390625,-400000.0625,-400000.0625,-5326.990234375,-400000.0625,-2169.610107421875,-400000.0625
2.3773372173309326,-400000.0625,2722.449951171875,-400000.0625,-400000.0625,-5324.64990234375,-400000.0625,-2173.18994140625,-400000.0625
2.3773415088653564,-400000.0625,2723.169921875,-400000.0625,-400000.0625,-5316.2099609375,-400000.0625,-2164.219970703125,-400000.0625
2.377345323562622,-400000.0625,2734.800048828125,-400000.0625,-400000.0625,-5304.72021484375,-400000.0625,-2156.110107421875,-400000.0625
2.3773488998413086,-400000.0625,2728.510009765625,-400000.0625,-400000.0625,-5307.2900390625,-400000.0625,-2146.77001953125,-400000.0625
2.377352714538574,-400000.0625,2712.35009765625,-400000.0625,-400000.0625,-5328.89013671875,-400000.0625,-2158.360107421875,-400000.0625
2.3773562908172607,-400000.0625,2710.300048828125,-400000.0625,-400000.0625,-5331.3701171875,-400000.0625,-2163.4599609375,-400000.0625
2.3773601055145264,-400000.0625,2717.919921875,-400000.0625,-400000.0625,-5322.7001953125,-400000.0625,-2155.35009765625,-400000.0625
2.377364158630371,-400000.0625,2735.949951171875,-400000.0625,-400000.0625,-5307.580078125,-400000.0625,-2147.199951171875,-400000.0625
timestamp,ch7,ch2,ch3,ch5,is_pause
timestamp,ch7,ch2,ch3,ch5,is_pause
timestamp,ch7,ch2,ch3,ch5,is_pause
2.4171054363250732,-400000.0625,2741.77001953125,-400000.0625,-400000.0625,-5299.7099609375,-400000.0625,-2149.8701171875,-400000.0625
timestamp,ch7,ch2,ch3,ch5,is_pause
2.4282593727111816,-400000.0625,2728.64990234375,-400000.0625,-400000.0625,-5321.68994140625,-400000.0625,-2164.409912109375,-400000.0625
timestamp,ch7,ch2,ch3,ch5,is_pause
2.4340784549713135,-400000.0625,2725.97998046875,-400000.0625,-400000.0625,-5342.009765625,-400000.0625,-2168.27001953125,-400000.0625
2.43892240524292,-400000.0625,2733.419921875,-400000.0625,-400000.0625,-5326.93994140625,-400000.0625,-2158.2099609375,-400000.0625
2.4389312267303467,-400000.0625,2729.93994140625,-400000.0625,-400000.0625,-5311.06005859375,-400000.0625,-2156.449951171875,-400000.0625
2.4389357566833496,-400000.0625,2719.780029296875,-400000.0625,-400000.0625,-5300.47021484375,-400000.0625,-2153.300048828125,-400000.0625
2.4389400482177734,-400000.0625,2736.7099609375,-400000.0625,-400000.0625,-5311.06005859375,-400000.0625,-2161.169921875,-400000.0625
2.438943862915039,-400000.0625,2725.550048828125,-400000.0625,-400000.0625,-5327.1298828125,-400000.0625,-2176.429931640625,-400000.0625
2.438947916030884,-400000.0625,2708.580078125,-400000.0625,-400000.0625,-5322.4599609375,-400000.0625,-2177.909912109375,-400000.0625
2.4389519691467285,-400000.0625,2722.929931640625,-400000.0625,-400000.0625,-5323.22021484375,-400000.0625,-2157.2099609375,-400000.0625
2.4389560222625732,-400000.0625,2735.280029296875,-400000.0625,-400000.0625,-5315.64013671875,-400000.0625,-2143.340087890625,-400000.0625
2.438959836959839,-400000.0625,2738.239990234375,-400000.0625,-400000.0625,-5304.2900390625,-400000.0625,-2145.340087890625,-400000.0625
2.4389634132385254,-400000.0625,2728.610107421875,-400000.0625,-400000.0625,-5316.35009765625,-400000.0625,-2167.64990234375,-400000.0625
2.43896746635437,-400000.0625,2708.010009765625,-400000.0625,-400000.0625,-5324.080078125,-400000.0625,-2175.429931640625,-400000.0625
2.438971996307373,-400000.0625,2716.110107421875,-400000.0625,-400000.0625,-5327.990234375,-400000.0625,-2167.93994140625,-400000.0625
2.4389758110046387,-400000.0625,2723.360107421875,-400000.0625,-400000.0625,-5325.31982421875,-400000.0625,-2167.989990234375,-400000.0625
timestamp,ch7,ch2,ch3,ch5,is_pause
timestamp,ch7,ch2,ch3,ch5,is_pause
timestamp,ch7,ch2,ch3,ch5,is_pause
2.4816699028015137,-400000.0625,2737.18994140625,-400000.0625,-400000.0625,-5309.81982421875,-400000.0625,-2159.409912109375,-400000.0625
timestamp,ch7,ch2,ch3,ch5,is_pause
timestamp,ch7,ch2,ch3,ch5,is_pause
2.5015041828155518,-400000.0625,2724.360107421875,-400000.0625,-400000.0625,-5313.97021484375,-400000.0625,-2160.219970703125,-400000.0625
2.5061891078948975,-400000.0625,2714.159912109375,-400000.0625,-400000.0625,-5327.89013671875,-400000.0625,-2178.3798828125,-400000.0625
2.506197929382324,-400000.0625,2712.820068359375,-400000.0625,-400000.0625,-5323.4599609375,-400000.0625,-2174.0,-400000.0625
2.506202459335327,-400000.0625,2708.719970703125,-400000.0625,-400000.0625,-5319.93017578125,-400000.0625,-2167.030029296875,-400000.0625
2.506206750869751,-400000.0625,2711.77001953125,-400000.0625,-400000.0625,-5314.259765625,-400000.0625,-2159.449951171875,-400000.0625
2.5062105655670166,-400000.0625,2740.530029296875,-400000.0625,-400000.0625,-5303.33984375,-400000.0625,-2158.830078125,-400000.0625
2.5062143802642822,-400000.0625,2723.7900390625,-400000.0625,-400000.0625,-5311.58984375,-400000.0625,-2170.93994140625,-400000.0625
2.506218433380127,-400000.0625,2710.580078125,-400000.0625,-400000.0625,-5331.7998046875,-400000.0625,-2179.18994140625,-400000.0625
2.5062222480773926,-400000.0625,2721.2099609375,-400000.0625,-400000.0625,-5327.7998046875,-400000.0625,-2165.219970703125,-400000.0625
2.506225824356079,-400000.0625,2719.1201171875,-400000.0625,-400000.0625,-5316.4501953125,-400000.0625,-2152.780029296875,-400000.0625
2.5062296390533447,-400000.0625,2732.469970703125,-400000.0625,-400000.0625,-5306.77001953125,-400000.0625,-2149.77001953125,-400000.0625
2.5062336921691895,-400000.0625,2728.889892578125,-400000.0625,-400000.0625,-5310.009765625,-400000.0625,-2171.610107421875,-400000.0625
2.506237506866455,-400000.0625,2693.699951171875,-400000.0625,-400000.0625,-5328.93994140625,-400000.0625,-2179.239990234375,-400000.0625
2.5062410831451416,-400000.0625,2708.199951171875,-400000.0625,-400000.0625,-5334.08984375,-400000.0625,-2177.570068359375,-400000.0625
2.506249189376831,-400000.0625,2715.39990234375,-400000.0625,-400000.0625,-5320.02978515625,-400000.0625,-2161.8798828125,-400000.0625
timestamp,ch7,ch2,ch3,ch5,is_pause
timestamp,ch7,ch2,ch3,ch5,is_pause
timestamp,ch7,ch2,ch3,ch5,is_pause
2.5366873741149902,-400000.0625,2739.570068359375,-400000.0625,-400000.0625,-5299.759765625,-400000.0625,-2144.429931640625,-400000.0625
2.542506456375122,-400000.0625,2739.3798828125,-400000.0625,-400000.0625,-5297.47021484375,-400000.0625,-2146.389892578125,-400000.0625
timestamp,ch7,ch2,ch3,ch5,is_pause
2.549426555633545,-400000.0625,2709.2900390625,-400000.0625,-400000.0625,-5313.02001953125,-400000.0625,-2167.56005859375,-400000.0625
2.5539987087249756,-400000.0625,2702.860107421875,-400000.0625,-400000.0625,-5318.06982421875,-400000.0625,-2169.610107421875,-400000.0625
2.554007053375244,-400000.0625,2726.4599609375,-400000.0625,-400000.0625,-5314.39990234375,-400000.0625,-2159.449951171875,-400000.0625
2.554011583328247,-400000.0625,2732.989990234375,-400000.0625,-400000.0625,-5313.25,-400000.0625,-2155.8798828125,-400000.0625
2.5540153980255127,-400000.0625,2736.280029296875,-400000.0625,-400000.0625,-5304.3798828125,-400000.0625,-2150.199951171875,-400000.0625
2.5540192127227783,-400000.0625,2724.27001953125,-400000.0625,-400000.0625,-5308.06005859375,-400000.0625,-2165.7900390625,-400000.0625
2.554023027420044,-400000.0625,2701.52001953125,-400000.0625,-400000.0625,-5320.169921875,-400000.0625,-2180.6201171875,-400000.0625
2.5540270805358887,-400000.0625,2698.56005859375,-400000.0625,-400000.0625,-5315.77978515625,-400000.0625,-2181.199951171875,-400000.0625
2.5540308952331543,-400000.0625,2710.530029296875,-400000.0625,-400000.0625,-5319.31005859375,-400000.0625,-2167.64990234375,-400000.0625
2.55403470993042,-400000.0625,2729.64990234375,-400000.0625,-400000.0625,-5319.5498046875,-400000.0625,-2151.25,-400000.0625
2.5540385246276855,-400000.0625,2728.56005859375,-400000.0625,-400000.0625,-5307.6298828125,-400000.0625,-2156.31005859375,-400000.0625
2.554042339324951,-400000.0625,2714.110107421875,-400000.0625,-400000.0625,-5312.06005859375,-400000.0625,-2170.75,-400000.0625
2.554046154022217,-400000.0625,2701.090087890625,-400000.0625,-400000.0625,-5318.740234375,-400000.0625,-2157.39990234375,-400000.0625
2.5540499687194824,-400000.0625,2711.110107421875,-400000.0625,-400000.0625,-5312.009765625,-400000.0625,-2159.8798828125,-400000.0625
timestamp,ch7,ch2,ch3,ch5,is_pause
timestamp,ch7,ch2,ch3,ch5,is_pause
timestamp,ch7,ch2,ch3,ch5,is_pause
2.586548089981079,-400000.0625,2734.179931640625,-400000.0625,-400000.0625,-5291.990234375,-400000.0625,-2160.60009765625,-400000.0625
timestamp,ch7,ch2,ch3,ch5,is_pause
2.6057145595550537,-400000.0625,2750.06005859375,-400000.0625,-400000.0625,-5287.4599609375,-400000.0625,-2151.72998046875,-400000.0625
timestamp,ch7,ch2,ch3,ch5,is_pause
2.612821340560913,-400000.0625,2720.5,-400000.0625,-400000.0625,-5295.3701171875,-400000.0625,-2155.260009765625,-400000.0625
2.6177268028259277,-400000.0625,2715.25,-400000.0625,-400000.0625,-5317.5,-400000.0625,-2167.3701171875,-400000.0625
2.6177351474761963,-400000.0625,2702.050048828125,-400000.0625,-400000.0625,-5313.5400390625,-400000.0625,-2167.610107421875,-400000.0625
2.6177399158477783,-400000.0625,2719.639892578125,-400000.0625,-400000.0625,-5310.919921875,-400000.0625,-2161.030029296875,-400000.0625
2.617745876312256,-400000.0625,2728.989990234375,-400000.0625,-400000.0625,-5294.3701171875,-400000.0625,-2143.18994140625,-400000.0625
2.6177499294281006,-400000.0625,2730.320068359375,-400000.0625,-400000.0625,-5288.080078125,-400000.0625,-2144.860107421875,-400000.0625
2.6177539825439453,-400000.0625,2720.550048828125,-400000.0625,-400000.0625,-5311.43994140625,-400000.0625,-2164.4599609375,-400000.0625
2.61775803565979,-400000.0625,2711.25,-400000.0625,-400000.0625,-5312.39990234375,-400000.0625,-2172.22998046875,-400000.0625
2.6177618503570557,-400000.0625,2717.449951171875,-400000.0625,-400000.0625,-5305.0498046875,-400000.0625,-2161.030029296875,-400000.0625
2.6177656650543213,-400000.0625,2724.080078125,-400000.0625,-400000.0625,-5300.9501953125,-400000.0625,-2148.489990234375,-400000.0625
2.6177775859832764,-400000.0625,2718.449951171875,-400000.0625,-400000.0625,-5290.93994140625,-400000.0625,-2145.6201171875,-400000.0625
2.617781400680542,-400000.0625,2706.47998046875,-400000.0625,-400000.0625,-5300.52001953125,-400000.0625,-2157.8798828125,-400000.0625
2.617785692214966,-400000.0625,2705.530029296875,-400000.0625,-400000.0625,-5310.25,-400000.0625,-2179.9599609375,-400000.0625
2.6177897453308105,-400000.0625,2713.010009765625,-400000.0625,-400000.0625,-5301.91015625,-400000.0625,-2190.919921875,-400000.0625
timestamp,ch7,ch2,ch3,ch5,is_pause
timestamp,ch7,ch2,ch3,ch5,is_pause
timestamp,ch7,ch2,ch3,ch5,is_pause
timestamp,ch7,ch2,ch3,ch5,is_pause
timestamp,ch7,ch2,ch3,ch5,is_pause
timestamp,ch7,ch2,ch3,ch5,is_pause
timestamp,ch7,ch2,ch3,ch5,is_pause
timestamp,ch7,ch2,ch3,ch5,is_pause
timestamp,ch7,ch2,ch3,ch5,is_pause
2.7249839305877686,-400000.0625,2714.919921875,-400000.0625,-400000.0625,-5294.60986328125,-400000.0625,-2164.409912109375,-400000.0625
timestamp,ch7,ch2,ch3,ch5,is_pause
2.7468514442443848,-400000.0625,2739.3798828125,-400000.0625,-400000.0625,-5291.4599609375,-400000.0625,-2144.429931640625,-400000.0625
timestamp,ch7,ch2,ch3,ch5,is_pause
2.752377986907959,-400000.0625,2735.330078125,-400000.0625,-400000.0625,-5298.22998046875,-400000.0625,-2155.590087890625,-400000.0625
2.756767511367798,-400000.0625,2727.93994140625,-400000.0625,-400000.0625,-5309.33984375,-400000.0625,-2190.39990234375,-400000.0625
2.756775379180908,-400000.0625,2723.64990234375,-400000.0625,-400000.0625,-5306.0498046875,-400000.0625,-2197.840087890625,-400000.0625
2.7567801475524902,-400000.0625,2732.280029296875,-400000.0625,-400000.0625,-5291.89013671875,-400000.0625,-2178.860107421875,-400000.0625
2.756784677505493,-400000.0625,2726.840087890625,-400000.0625,-400000.0625,-5289.64990234375,-400000.0625,-2173.7099609375,-400000.0625
2.756788492202759,-400000.0625,2726.7900390625,-400000.0625,-400000.0625,-5286.60009765625,-400000.0625,-2168.4599609375,-400000.0625
2.7567923069000244,-400000.0625,2727.320068359375,-400000.0625,-400000.0625,-5290.080078125,-400000.0625,-2178.719970703125,-400000.0625
2.756802797317505,-400000.0625,2713.43994140625,-400000.0625,-400000.0625,-5300.330078125,-400000.0625,-2191.35009765625,-400000.0625
2.7568066120147705,-400000.0625,2720.5,-400000.0625,-400000.0625,-5298.759765625,-400000.0625,-2186.25,-400000.0625
2.756810426712036,-400000.0625,2727.030029296875,-400000.0625,-400000.0625,-5284.41015625,-400000.0625,-2176.81005859375,-400000.0625
2.7568142414093018,-400000.0625,2735.570068359375,-400000.0625,-400000.0625,-5270.91015625,-400000.0625,-2158.639892578125,-400000.0625
2.7568182945251465,-400000.0625,2730.659912109375,-400000.0625,-400000.0625,-5274.009765625,-400000.0625,-2159.68994140625,-400000.0625
2.7568230628967285,-400000.0625,2718.02001953125,-400000.0625,-400000.0625,-5294.509765625,-400000.0625,-2183.8701171875,-400000.0625
2.7568271160125732,-400000.0625,2726.360107421875,-400000.0625,-400000.0625,-5300.240234375,-400000.0625,-2178.6201171875,-400000.0625
2.7568306922912598,-400000.0625,2738.050048828125,-400000.0625,-400000.0625,-5289.35986328125,-400000.0625,-2168.85009765625,-400000.0625
2.75683856010437,-400000.0625,2729.419921875,-400000.0625,-400000.0625,-5286.97998046875,-400000.0625,-2163.97998046875,-400000.0625
2.7568438053131104,-400000.0625,2732.52001953125,-400000.0625,-400000.0625,-5286.7900390625,-400000.0625,-2158.31005859375,-400000.0625
2.756847620010376,-400000.0625,2730.56005859375,-400000.0625,-400000.0625,-5301.81005859375,-400000.0625,-2173.81005859375,-400000.0625
2.7568516731262207,-400000.0625,2717.68994140625,-400000.0625,-400000.0625,-5315.2998046875,-400000.0625,-2188.300048828125,-400000.0625
2.7568554878234863,-400000.0625,2725.360107421875,-400000.0625,-400000.0625,-5295.08984375,-400000.0625,-2185.679931640625,-400000.0625
2.756859302520752,-400000.0625,2732.320068359375,-400000.0625,-400000.0625,-5287.27001953125,-400000.0625,-2172.989990234375,-400000.0625
2.756863832473755,-400000.0625,2749.06005859375,-400000.0625,-400000.0625,-5275.77001953125,-400000.0625,-2164.889892578125,-400000.0625
2.7568678855895996,-400000.0625,2744.719970703125,-400000.0625,-400000.0625,-5285.02978515625,-400000.0625,-2162.840087890625,-400000.0625
2.756871461868286,-400000.0625,2713.25,-400000.0625,-400000.0625,-5296.0400390625,-400000.0625,-2176.0,-400000.0625
2.7568752765655518,-400000.0625,2710.10009765625,-400000.0625,-400000.0625,-5288.83984375,-400000.0625,-2181.719970703125,-400000.0625
2.7568788528442383,-400000.0625,2733.989990234375,-400000.0625,-400000.0625,-5284.5,-400000.0625,-2170.610107421875,-400000.0625
2.756882667541504,-400000.0625,2737.239990234375,-400000.0625,-400000.0625,-5280.2099609375,-400000.0625,-2162.030029296875,-400000.0625
2.7568862438201904,-400000.0625,2744.47998046875,-400000.0625,-400000.0625,-5277.919921875,-400000.0625,-2167.610107421875,-400000.0625
2.756890058517456,-400000.0625,2734.280029296875,-400000.0625,-400000.0625,-5287.35986328125,-400000.0625,-2176.47998046875,-400000.0625
2.7568936347961426,-400000.0625,2715.06005859375,-400000.0625,-400000.0625,-5289.56005859375,-400000.0625,-2188.35009765625,-400000.0625
timestamp,ch7,ch2,ch3,ch5,is_pause
2.762937545776367,-400000.0625,2728.3701171875,-400000.0625,-400000.0625,-5293.93994140625,-400000.0625,-2178.860107421875,-400000.0625
2.7686405181884766,-400000.0625,2736.52001953125,-400000.0625,-400000.0625,-5297.89990234375,-400000.0625,-2176.18994140625,-400000.0625
timestamp,ch7,ch2,ch3,ch5,is_pause
2.7744858264923096,-400000.0625,2735.469970703125,-400000.0625,-400000.0625,-5278.2099609375,-400000.0625,-2156.929931640625,-400000.0625
2.7797420024871826,-400000.0625,2727.179931640625,-400000.0625,-400000.0625,-5273.14990234375,-400000.0625,-2167.889892578125,-400000.0625
2.784195899963379,-400000.0625,2718.639892578125,-400000.0625,-400000.0625,-5289.7001953125,-400000.0625,-2193.5,-400000.0625
2.7842061519622803,-400000.0625,2722.840087890625,-400000.0625,-400000.0625,-5298.3798828125,-400000.0625,-2184.580078125,-400000.0625
2.784210681915283,-400000.0625,2722.550048828125,-400000.0625,-400000.0625,-5292.7001953125,-400000.0625,-2171.0400390625,-400000.0625
2.784215211868286,-400000.0625,2738.570068359375,-400000.0625,-400000.0625,-5276.919921875,-400000.0625,-2165.510009765625,-400000.0625
2.784219264984131,-400000.0625,2741.429931640625,-400000.0625,-400000.0625,-5267.9501953125,-400000.0625,-2158.260009765625,-400000.0625
2.7842235565185547,-400000.0625,2723.169921875,-400000.0625,-400000.0625,-5279.10986328125,-400000.0625,-2173.22998046875,-400000.0625
2.7842273712158203,-400000.0625,2714.5400390625,-400000.0625,-400000.0625,-5285.60009765625,-400000.0625,-2191.35009765625,-400000.0625
2.784231424331665,-400000.0625,2719.929931640625,-400000.0625,-400000.0625,-5277.2998046875,-400000.0625,-2195.550048828125,-400000.0625
2.7842352390289307,-400000.0625,2722.219970703125,-400000.0625,-400000.0625,-5274.72998046875,-400000.0625,-2187.8701171875,-400000.0625
2.7842392921447754,-400000.0625,2743.199951171875,-400000.0625,-400000.0625,-5267.85986328125,-400000.0625,-2167.56005859375,-400000.0625
2.784242868423462,-400000.0625,2746.820068359375,-400000.0625,-400000.0625,-5276.2998046875,-400000.0625,-2168.080078125,-400000.0625
2.7842469215393066,-400000.0625,2709.8701171875,-400000.0625,-400000.0625,-5296.330078125,-400000.0625,-2185.6298828125,-400000.0625
timestamp,ch7,ch2,ch3,ch5,is_pause
timestamp,ch7,ch2,ch3,ch5,is_pause
timestamp,ch7,ch2,ch3,ch5,is_pause
timestamp,ch7,ch2,ch3,ch5,is_pause
timestamp,ch7,ch2,ch3,ch5,is_pause
2.840391159057617,-400000.0625,2708.010009765625,-400000.0625,-400000.0625,-5306.81982421875,-400000.0625,-2187.110107421875,-400000.0625
timestamp,ch7,ch2,ch3,ch5,is_pause
timestamp,ch7,ch2,ch3,ch5,is_pause
2.8620119094848633,-400000.0625,2718.159912109375,-400000.0625,-400000.0625,-5297.18017578125,-400000.0625,-2183.77001953125,-400000.0625
2.8677313327789307,-400000.0625,2738.909912109375,-400000.0625,-400000.0625,-5287.35986328125,-400000.0625,-2171.800048828125,-400000.0625
2.872406482696533,-400000.0625,2746.580078125,-400000.0625,-400000.0625,-5281.5,-400000.0625,-2163.510009765625,-400000.0625
2.8724141120910645,-400000.0625,2725.409912109375,-400000.0625,-400000.0625,-5307.580078125,-400000.0625,-2179.14990234375,-400000.0625
2.8724191188812256,-400000.0625,2706.340087890625,-400000.0625,-400000.0625,-5312.72998046875,-400000.0625,-2185.06005859375,-400000.0625
2.8724231719970703,-400000.0625,2710.909912109375,-400000.0625,-400000.0625,-5285.35986328125,-400000.0625,-2185.389892578125,-400000.0625
2.872427225112915,-400000.0625,2717.159912109375,-400000.0625,-400000.0625,-5273.72021484375,-400000.0625,-2192.159912109375,-400000.0625
2.8724310398101807,-400000.0625,2739.570068359375,-400000.0625,-400000.0625,-5264.7099609375,-400000.0625,-2177.10009765625,-400000.0625
2.8724348545074463,-400000.0625,2730.320068359375,-400000.0625,-400000.0625,-5274.25,-400000.0625,-2182.909912109375,-400000.0625
2.872438669204712,-400000.0625,2728.64990234375,-400000.0625,-400000.0625,-5295.31982421875,-400000.0625,-2192.31005859375,-400000.0625
2.8724424839019775,-400000.0625,2739.2900390625,-400000.0625,-400000.0625,-5295.3701171875,-400000.0625,-2180.860107421875,-400000.0625
2.872446298599243,-400000.0625,2724.4599609375,-400000.0625,-400000.0625,-5285.68994140625,-400000.0625,-2170.419921875,-400000.0625
2.872450113296509,-400000.0625,2728.030029296875,-400000.0625,-400000.0625,-5273.52978515625,-400000.0625,-2151.489990234375,-400000.0625
2.8724539279937744,-400000.0625,2739.050048828125,-400000.0625,-400000.0625,-5285.83984375,-400000.0625,-2152.969970703125,-400000.0625
2.872457981109619,-400000.0625,2728.610107421875,-400000.0625,-400000.0625,-5300.330078125,-400000.0625,-2173.469970703125,-400000.0625
timestamp,ch7,ch2,ch3,ch5,is_pause
timestamp,ch7,ch2,ch3,ch5,is_pause
2.8944387435913086,-400000.0625,2722.1201171875,-400000.0625,-400000.0625,-5301.91015625,-400000.0625,-2187.590087890625,-400000.0625
timestamp,ch7,ch2,ch3,ch5,is_pause
2.9029018878936768,-400000.0625,2732.090087890625,-400000.0625,-400000.0625,-5289.509765625,-400000.0625,-2185.6298828125,-400000.0625
2.9078850746154785,-400000.0625,2735.89990234375,-400000.0625,-400000.0625,-5276.39013671875,-400000.0625,-2171.0400390625,-400000.0625
2.907892942428589,-400000.0625,2736.81005859375,-400000.0625,-400000.0625,-5262.9501953125,-400000.0625,-2159.7900390625,-400000.0625
2.907897472381592,-400000.0625,2728.1298828125,-400000.0625,-400000.0625,-5278.25,-400000.0625,-2174.89990234375,-400000.0625
2.907902240753174,-400000.0625,2716.2099609375,-400000.0625,-400000.0625,-5292.990234375,-400000.0625,-2174.0,-400000.0625
2.907909631729126,-400000.0625,2716.300048828125,-400000.0625,-400000.0625,-5285.22021484375,-400000.0625,-2169.080078125,-400000.0625
timestamp,ch7,ch2,ch3,ch5,is_pause
2.9153316020965576,-400000.0625,2725.510009765625,-400000.0625,-400000.0625,-5277.35009765625,-400000.0625,-2165.219970703125,-400000.0625
2.92047119140625,-400000.0625,2733.3701171875,-400000.0625,-400000.0625,-5271.72021484375,-400000.0625,-2155.590087890625,-400000.0625
2.925076961517334,-400000.0625,2737.239990234375,-400000.0625,-400000.0625,-5273.91015625,-400000.0625,-2169.699951171875,-400000.0625
2.9250848293304443,-400000.0625,2719.68994140625,-400000.0625,-400000.0625,-5288.27001953125,-400000.0625,-2192.449951171875,-400000.0625
2.9250898361206055,-400000.0625,2714.590087890625,-400000.0625,-400000.0625,-5289.4599609375,-400000.0625,-2201.030029296875,-400000.0625
2.9250941276550293,-400000.0625,2718.159912109375,-400000.0625,-400000.0625,-5284.35986328125,-400000.0625,-2189.969970703125,-400000.0625
2.925098180770874,-400000.0625,2729.080078125,-400000.0625,-400000.0625,-5281.68994140625,-400000.0625,-2154.02001953125,-400000.0625
2.9251091480255127,-400000.0625,2717.2099609375,-400000.0625,-400000.0625,-5279.97021484375,-400000.0625,-2139.89990234375,-400000.0625
2.9251134395599365,-400000.0625,2706.580078125,-400000.0625,-400000.0625,-5287.60009765625,-400000.0625,-2158.929931640625,-400000.0625
timestamp,ch7,ch2,ch3,ch5,is_pause
timestamp,ch7,ch2,ch3,ch5,is_pause
2.9492971897125244,-400000.0625,2720.260009765625,-400000.0625,-400000.0625,-5301.85986328125,-400000.0625,-2176.81005859375,-400000.0625
timestamp,ch7,ch2,ch3,ch5,is_pause
timestamp,ch7,ch2,ch3,ch5,is_pause
2.9665510654449463,-400000.0625,2710.25,-400000.0625,-400000.0625,-5296.759765625,-400000.0625,-2170.659912109375,-400000.0625
2.971547842025757,-400000.0625,2705.050048828125,-400000.0625,-400000.0625,-5288.740234375,-400000.0625,-2172.280029296875,-400000.0625
2.971557378768921,-400000.0625,2717.300048828125,-400000.0625,-400000.0625,-5278.06005859375,-400000.0625,-2160.260009765625,-400000.0625
2.976191997528076,-400000.0625,2714.43994140625,-400000.0625,-400000.0625,-5278.35009765625,-400000.0625,-2159.639892578125,-400000.0625
2.976201057434082,-400000.0625,2700.949951171875,-400000.0625,-400000.0625,-5291.1298828125,-400000.0625,-2175.760009765625,-400000.0625
2.976205587387085,-400000.0625,2705.14990234375,-400000.0625,-400000.0625,-5292.1298828125,-400000.0625,-2183.8701171875,-400000.0625
2.9762096405029297,-400000.0625,2704.429931640625,-400000.0625,-400000.0625,-5287.5498046875,-400000.0625,-2173.760009765625,-400000.0625
2.9762134552001953,-400000.0625,2712.300048828125,-400000.0625,-400000.0625,-5286.5,-400000.0625,-2167.800048828125,-400000.0625
2.97621750831604,-400000.0625,2726.080078125,-400000.0625,-400000.0625,-5267.2900390625,-400000.0625,-2158.1201171875,-400000.0625
2.9762210845947266,-400000.0625,2712.77001953125,-400000.0625,-400000.0625,-5273.8701171875,-400000.0625,-2164.7900390625,-400000.0625
2.976224899291992,-400000.0625,2716.830078125,-400000.0625,-400000.0625,-5288.22021484375,-400000.0625,-2171.280029296875,-400000.0625
2.9762351512908936,-400000.0625,2722.97998046875,-400000.0625,-400000.0625,-5288.7001953125,-400000.0625,-2165.3701171875,-400000.0625
2.976238965988159,-400000.0625,2725.27001953125,-400000.0625,-400000.0625,-5279.39990234375,-400000.0625,-2158.7900390625,-400000.0625
2.976243019104004,-400000.0625,2737.860107421875,-400000.0625,-400000.0625,-5260.7998046875,-400000.0625,-2151.43994140625,-400000.0625
2.9762470722198486,-400000.0625,2733.760009765625,-400000.0625,-400000.0625,-5261.3701171875,-400000.0625,-2164.320068359375,-400000.0625
timestamp,ch7,ch2,ch3,ch5,is_pause
timestamp,ch7,ch2,ch3,ch5,is_pause
3.000105142593384,-400000.0625,2718.929931640625,-400000.0625,-400000.0625,-5285.93017578125,-400000.0625,-2178.0,-400000.0625
timestamp,ch7,ch2,ch3,ch5,is_pause
3.0077199935913086,-400000.0625,2702.89990234375,-400000.0625,-400000.0625,-5281.5,-400000.0625,-2179.18994140625,-400000.0625
3.012627601623535,-400000.0625,2720.070068359375,-400000.0625,-400000.0625,-5269.9599609375,-400000.0625,-2174.090087890625,-400000.0625
3.0126373767852783,-400000.0625,2726.030029296875,-400000.0625,-400000.0625,-5266.91015625,-400000.0625,-2159.550048828125,-400000.0625
3.0126421451568604,-400000.0625,2734.3798828125,-400000.0625,-400000.0625,-5269.72021484375,-400000.0625,-2147.47998046875,-400000.0625
3.012646198272705,-400000.0625,2719.639892578125,-400000.0625,-400000.0625,-5286.4599609375,-400000.0625,-2165.409912109375,-400000.0625
3.01265025138855,-400000.0625,2701.89990234375,-400000.0625,-400000.0625,-5296.330078125,-400000.0625,-2176.429931640625,-400000.0625
3.0126543045043945,-400000.0625,2704.239990234375,-400000.0625,-400000.0625,-5292.080078125,-400000.0625,-2165.1298828125,-400000.0625
3.01265811920166,-400000.0625,2719.39990234375,-400000.0625,-400000.0625,-5278.06005859375,-400000.0625,-2159.409912109375,-400000.0625
3.012661933898926,-400000.0625,2728.179931640625,-400000.0625,-400000.0625,-5254.83984375,-400000.0625,-2153.2099609375,-400000.0625
3.012669563293457,-400000.0625,2728.989990234375,-400000.0625,-400000.0625,-5260.60986328125,-400000.0625,-2159.449951171875,-400000.0625
