time,ch1,ch2,ch3,ch4,ch5,ch6,ch7,ch8
152.711030960083,-400000.0625,2990.6298828125,-400000.0625,-400000.0625,1652.530029296875,-400000.0625,-2249.77001953125,-400000.0625
152.7390432357788,-400000.0625,3004.7900390625,-400000.0625,-400000.0625,1660.010009765625,-400000.0625,-2233.889892578125,-400000.0625
152.7491216659546,-400000.0625,3022.580078125,-400000.0625,-400000.0625,1676.75,-400000.0625,-2227.39990234375,-400000.0625
152.76097106933594,-400000.0625,3035.449951171875,-400000.0625,-400000.0625,1696.06005859375,-400000.0625,-2212.3798828125,-400000.0625
152.77104091644287,-400000.0625,3023.669921875,-400000.0625,-400000.0625,1685.2900390625,-400000.0625,-2227.159912109375,-400000.0625
152.781893491745,-400000.0625,3004.4599609375,-400000.0625,-400000.0625,1657.1500244140625,-400000.0625,-2253.10009765625,-400000.0625
152.79172492027283,-400000.0625,2998.5400390625,-400000.0625,-400000.0625,1651.1400146484375,-400000.0625,-2251.909912109375,-400000.0625
152.80231285095215,-400000.0625,2995.25,-400000.0625,-400000.0625,1660.5400390625,-400000.0625,-2233.60009765625,-400000.0625
152.81265425682068,-400000.0625,3016.330078125,-400000.0625,-400000.0625,1685.2900390625,-400000.0625,-2215.6201171875,-400000.0625
152.84184050559998,-400000.0625,3029.6298828125,-400000.0625,-400000.0625,1696.72998046875,-400000.0625,-2212.139892578125,-400000.0625
152.851975440979,-400000.0625,3012.93994140625,-400000.0625,-400000.0625,1671.97998046875,-400000.0625,-2240.989990234375,-400000.0625
152.86161971092224,-400000.0625,2991.919921875,-400000.0625,-400000.0625,1657.6800537109375,-400000.0625,-2256.35009765625,-400000.0625
152.87067794799805,-400000.0625,2994.8701171875,-400000.0625,-400000.0625,1660.06005859375,-400000.0625,-2248.10009765625,-400000.0625
152.8812096118927,-400000.0625,3005.550048828125,-400000.0625,-400000.0625,1670.8399658203125,-400000.0625,-2233.739990234375,-400000.0625
152.89175033569336,-400000.0625,3019.760009765625,-400000.0625,-400000.0625,1688.2900390625,-400000.0625,-2211.18994140625,-400000.0625
152.90318775177002,-400000.0625,3002.31005859375,-400000.0625,-400000.0625,1674.0799560546875,-400000.0625,-2233.60009765625,-400000.0625
152.91329407691956,-400000.0625,2988.050048828125,-400000.0625,-400000.0625,1656.6800537109375,-400000.0625,-2260.02001953125,-400000.0625
152.94567227363586,-400000.0625,2987.340087890625,-400000.0625,-400000.0625,1660.3499755859375,-400000.0625,-2255.679931640625,-400000.0625
152.95456671714783,-400000.0625,3011.93994140625,-400000.0625,-400000.0625,1673.3599853515625,-400000.0625,-2241.610107421875,-400000.0625
152.9654552936554,-400000.0625,3032.639892578125,-400000.0625,-400000.0625,1691.6800537109375,-400000.0625,-2220.679931640625,-400000.0625
152.97644066810608,-400000.0625,3027.580078125,-400000.0625,-400000.0625,1692.77001953125,-400000.0625,-2221.919921875,-400000.0625
152.98618149757385,-400000.0625,2998.300048828125,-400000.0625,-400000.0625,1663.8299560546875,-400000.0625,-2248.860107421875,-400000.0625
152.99647545814514,-400000.0625,2989.719970703125,-400000.0625,-400000.0625,1652.18994140625,-400000.0625,-2254.820068359375,-400000.0625
153.00986576080322,-400000.0625,2993.5400390625,-400000.0625,-400000.0625,1659.9200439453125,-400000.0625,-2244.18994140625,-400000.0625
153.0209105014801,-400000.0625,3010.699951171875,-400000.0625,-400000.0625,1677.4200439453125,-400000.0625,-2226.639892578125,-400000.0625
153.04673671722412,-400000.0625,3035.260009765625,-400000.0625,-400000.0625,1698.449951171875,-400000.0625,-2213.570068359375,-400000.0625
153.05701112747192,-400000.0625,3016.659912109375,-400000.0625,-400000.0625,1684.8599853515625,-400000.0625,-2228.590087890625,-400000.0625
153.06646156311035,-400000.0625,2979.090087890625,-400000.0625,-400000.0625,1659.1099853515625,-400000.0625,-2249.340087890625,-400000.0625
153.0778453350067,-400000.0625,2992.530029296875,-400000.0625,-400000.0625,1661.4000244140625,-400000.0625,-2254.919921875,-400000.0625
153.08758163452148,-400000.0625,3007.1298828125,-400000.0625,-400000.0625,1673.510009765625,-400000.0625,-2232.97998046875,-400000.0625
153.09664249420166,-400000.0625,3027.820068359375,-400000.0625,-400000.0625,1691.47998046875,-400000.0625,-2213.669921875,-400000.0625
153.10620498657227,-400000.0625,3028.580078125,-400000.0625,-400000.0625,1696.489990234375,-400000.0625,-2223.2099609375,-400000.0625
153.11595678329468,-400000.0625,3002.97998046875,-400000.0625,-400000.0625,1675.3199462890625,-400000.0625,-2243.0400390625,-400000.0625
153.12581586837769,-400000.0625,2991.580078125,-400000.0625,-400000.0625,1662.6400146484375,-400000.0625,-2256.300048828125,-400000.0625
153.15661692619324,-400000.0625,2997.830078125,-400000.0625,-400000.0625,1663.1099853515625,-400000.0625,-2263.360107421875,-400000.0625
153.165860414505,-400000.0625,3016.760009765625,-400000.0625,-400000.0625,1686.719970703125,-400000.0625,-2248.050048828125,-400000.0625
153.17536425590515,-400000.0625,3040.219970703125,-400000.0625,-400000.0625,1710.0799560546875,-400000.0625,-2237.510009765625,-400000.0625
153.18340063095093,-400000.0625,3022.18994140625,-400000.0625,-400000.0625,1693.8699951171875,-400000.0625,-2260.780029296875,-400000.0625
153.19392251968384,-400000.0625,2995.06005859375,-400000.0625,-400000.0625,1670.550048828125,-400000.0625,-2280.760009765625,-400000.0625
153.20207381248474,-400000.0625,2986.6201171875,-400000.0625,-400000.0625,1670.5999755859375,-400000.0625,-2277.139892578125,-400000.0625
153.21153354644775,-400000.0625,2999.969970703125,-400000.0625,-400000.0625,1680.5699462890625,-400000.0625,-2264.830078125,-400000.0625
153.22921347618103,-400000.0625,3033.39990234375,-400000.0625,-400000.0625,1694.969970703125,-400000.0625,-2240.659912109375,-400000.0625
153.25719022750854,-400000.0625,3036.02001953125,-400000.0625,-400000.0625,1692.489990234375,-400000.0625,-2253.010009765625,-400000.0625
153.26760005950928,-400000.0625,3007.93994140625,-400000.0625,-400000.0625,1670.4100341796875,-400000.0625,-2284.10009765625,-400000.0625
153.27661395072937,-400000.0625,3001.590087890625,-400000.0625,-400000.0625,1662.780029296875,-400000.0625,-2293.780029296875,-400000.0625
153.28731656074524,-400000.0625,3017.89990234375,-400000.0625,-400000.0625,1673.030029296875,-400000.0625,-2273.419921875,-400000.0625
153.29727911949158,-400000.0625,3032.260009765625,-400000.0625,-400000.0625,1688.77001953125,-400000.0625,-2253.340087890625,-400000.0625
153.3073627948761,-400000.0625,3046.419921875,-400000.0625,-400000.0625,1704.1700439453125,-400000.0625,-2251.14990234375,-400000.0625
153.3166172504425,-400000.0625,3016.6201171875,-400000.0625,-400000.0625,1685.6700439453125,-400000.0625,-2270.93994140625,-400000.0625
153.3282070159912,-400000.0625,2984.7099609375,-400000.0625,-400000.0625,1659.9200439453125,-400000.0625,-2279.760009765625,-400000.0625
153.3379111289978,-400000.0625,2993.06005859375,-400000.0625,-400000.0625,1669.68994140625,-400000.0625,-2280.949951171875,-400000.0625
153.36330437660217,-400000.0625,3015.0400390625,-400000.0625,-400000.0625,1682.6199951171875,-400000.0625,-2277.949951171875,-400000.0625
153.3730742931366,-400000.0625,3033.35009765625,-400000.0625,-400000.0625,1701.550048828125,-400000.0625,-2252.530029296875,-400000.0625
153.38442158699036,-400000.0625,3022.580078125,-400000.0625,-400000.0625,1694.010009765625,-400000.0625,-2255.9599609375,-400000.0625
153.39270997047424,-400000.0625,3003.070068359375,-400000.0625,-400000.0625,1666.6400146484375,-400000.0625,-2287.580078125,-400000.0625
153.4040105342865,-400000.0625,2996.969970703125,-400000.0625,-400000.0625,1666.260009765625,-400000.0625,-2286.389892578125,-400000.0625
153.4137852191925,-400000.0625,3008.030029296875,-400000.0625,-400000.0625,1682.3299560546875,-400000.0625,-2278.18994140625,-400000.0625
153.42382907867432,-400000.0625,3030.25,-400000.0625,-400000.0625,1695.5899658203125,-400000.0625,-2263.159912109375,-400000.0625
153.43214774131775,-400000.0625,3032.639892578125,-400000.0625,-400000.0625,1703.68994140625,-400000.0625,-2240.3701171875,-400000.0625
153.44307351112366,-400000.0625,3009.219970703125,-400000.0625,-400000.0625,1680.6099853515625,-400000.0625,-2256.969970703125,-400000.0625
153.46689081192017,-400000.0625,2991.43994140625,-400000.0625,-400000.0625,1658.5799560546875,-400000.0625,-2279.949951171875,-400000.0625
153.47649455070496,-400000.0625,2995.679931640625,-400000.0625,-400000.0625,1667.1199951171875,-400000.0625,-2277.330078125,-400000.0625
153.48558688163757,-400000.0625,3009.989990234375,-400000.0625,-400000.0625,1685.81005859375,-400000.0625,-2262.590087890625,-400000.0625
153.49476027488708,-400000.0625,3028.969970703125,-400000.0625,-400000.0625,1707.030029296875,-400000.0625,-2251.389892578125,-400000.0625
153.50395035743713,-400000.0625,3027.6298828125,-400000.0625,-400000.0625,1702.2099609375,-400000.0625,-2256.969970703125,-400000.0625
153.51313662528992,-400000.0625,3007.7900390625,-400000.0625,-400000.0625,1667.739990234375,-400000.0625,-2271.27001953125,-400000.0625
153.52303218841553,-400000.0625,3002.5,-400000.0625,-400000.0625,1668.8800048828125,-400000.0625,-2276.179931640625,-400000.0625
153.53269004821777,-400000.0625,3010.610107421875,-400000.0625,-400000.0625,1680.760009765625,-400000.0625,-2270.510009765625,-400000.0625
153.5427122116089,-400000.0625,3038.070068359375,-400000.0625,-400000.0625,1699.0699462890625,-400000.0625,-2256.43994140625,-400000.0625
153.55170130729675,-400000.0625,3037.639892578125,-400000.0625,-400000.0625,1704.739990234375,-400000.0625,-2249.2900390625,-400000.0625
153.57623028755188,-400000.0625,3008.080078125,-400000.0625,-400000.0625,1681.1400146484375,-400000.0625,-2265.929931640625,-400000.0625
153.58624053001404,-400000.0625,2990.580078125,-400000.0625,-400000.0625,1666.1199951171875,-400000.0625,-2280.330078125,-400000.0625
153.59750175476074,-400000.0625,3003.31005859375,-400000.0625,-400000.0625,1678.8499755859375,-400000.0625,-2276.280029296875,-400000.0625
153.60591912269592,-400000.0625,3012.989990234375,-400000.0625,-400000.0625,1692.1500244140625,-400000.0625,-2255.06005859375,-400000.0625
153.61497831344604,-400000.0625,3026.77001953125,-400000.0625,-400000.0625,1710.699951171875,-400000.0625,-2240.989990234375,-400000.0625
153.62499117851257,-400000.0625,3014.22998046875,-400000.0625,-400000.0625,1696.4000244140625,-400000.0625,-2262.639892578125,-400000.0625
153.63417744636536,-400000.0625,2992.530029296875,-400000.0625,-400000.0625,1670.1700439453125,-400000.0625,-2294.780029296875,-400000.0625
153.64304184913635,-400000.0625,2983.52001953125,-400000.0625,-400000.0625,1666.739990234375,-400000.0625,-2277.280029296875,-400000.0625
153.65154552459717,-400000.0625,2987.10009765625,-400000.0625,-400000.0625,1672.8900146484375,-400000.0625,-2246.6201171875,-400000.0625
153.6775140762329,-400000.0625,3013.330078125,-400000.0625,-400000.0625,1695.5899658203125,-400000.0625,-2237.64990234375,-400000.0625
153.73242855072021,-400000.0625,3021.18994140625,-400000.0625,-400000.0625,1705.4599609375,-400000.0625,-2231.31005859375,-400000.0625
153.74356532096863,-400000.0625,3004.030029296875,-400000.0625,-400000.0625,1677.27001953125,-400000.0625,-2252.530029296875,-400000.0625
153.75380611419678,-400000.0625,2971.360107421875,-400000.0625,-400000.0625,1665.5400390625,-400000.0625,-2254.820068359375,-400000.0625
153.76417303085327,-400000.0625,2979.85009765625,-400000.0625,-400000.0625,1672.1300048828125,-400000.0625,-2251.9599609375,-400000.0625
153.77508878707886,-400000.0625,2982.659912109375,-400000.0625,-400000.0625,1687.9599609375,-400000.0625,-2234.93994140625,-400000.0625
153.78491353988647,-400000.0625,2990.719970703125,-400000.0625,-400000.0625,1710.27001953125,-400000.0625,-2218.340087890625,-400000.0625
153.81083178520203,-400000.0625,2997.02001953125,-400000.0625,-400000.0625,1693.3900146484375,-400000.0625,-2224.8701171875,-400000.0625
153.82030582427979,-400000.0625,2988.239990234375,-400000.0625,-400000.0625,1664.5899658203125,-400000.0625,-2243.81005859375,-400000.0625
153.83047437667847,-400000.0625,2983.860107421875,-400000.0625,-400000.0625,1663.8299560546875,-400000.0625,-2231.5,-400000.0625
153.84255194664001,-400000.0625,2994.010009765625,-400000.0625,-400000.0625,1679.6600341796875,-400000.0625,-2226.110107421875,-400000.0625
153.85071444511414,-400000.0625,3010.889892578125,-400000.0625,-400000.0625,1697.6800537109375,-400000.0625,-2217.050048828125,-400000.0625
153.8613464832306,-400000.0625,3005.4599609375,-400000.0625,-400000.0625,1702.8800048828125,-400000.0625,-2222.780029296875,-400000.0625
153.87111854553223,-400000.0625,2988.429931640625,-400000.0625,-400000.0625,1673.27001953125,-400000.0625,-2246.949951171875,-400000.0625
153.88036727905273,-400000.0625,2977.75,-400000.0625,-400000.0625,1661.969970703125,-400000.0625,-2248.0,-400000.0625
153.8907322883606,-400000.0625,2984.0,-400000.0625,-400000.0625,1669.31005859375,-400000.0625,-2238.659912109375,-400000.0625
153.91603183746338,-400000.0625,2993.820068359375,-400000.0625,-400000.0625,1681.6099853515625,-400000.0625,-2218.77001953125,-400000.0625
153.92719912528992,-400000.0625,3010.4599609375,-400000.0625,-400000.0625,1700.5899658203125,-400000.0625,-2202.219970703125,-400000.0625
153.93605852127075,-400000.0625,2996.679931640625,-400000.0625,-400000.0625,1685.81005859375,-400000.0625,-2222.72998046875,-400000.0625
153.94626331329346,-400000.0625,2973.3701171875,-400000.0625,-400000.0625,1661.25,-400000.0625,-2244.570068359375,-400000.0625
153.95656085014343,-400000.0625,2980.330078125,-400000.0625,-400000.0625,1667.4000244140625,-400000.0625,-2247.429931640625,-400000.0625
153.96645593643188,-400000.0625,2992.820068359375,-400000.0625,-400000.0625,1682.6199951171875,-400000.0625,-2234.93994140625,-400000.0625
153.97680616378784,-400000.0625,3006.840087890625,-400000.0625,-400000.0625,1700.260009765625,-400000.0625,-2214.530029296875,-400000.0625
153.98599910736084,-400000.0625,3008.320068359375,-400000.0625,-400000.0625,1702.68994140625,-400000.0625,-2215.18994140625,-400000.0625
153.99514293670654,-400000.0625,2981.280029296875,-400000.0625,-400000.0625,1677.3199462890625,-400000.0625,-2245.469970703125,-400000.0625
154.0209698677063,-400000.0625,2963.449951171875,-400000.0625,-400000.0625,1667.7900390625,-400000.0625,-2257.969970703125,-400000.0625
154.03029084205627,-400000.0625,2965.260009765625,-400000.0625,-400000.0625,1674.510009765625,-400000.0625,-2240.52001953125,-400000.0625
154.04055905342102,-400000.0625,2990.909912109375,-400000.0625,-400000.0625,1688.3900146484375,-400000.0625,-2228.360107421875,-400000.0625
154.05113530158997,-400000.0625,3009.510009765625,-400000.0625,-400000.0625,1705.5999755859375,-400000.0625,-2208.469970703125,-400000.0625
154.0593922138214,-400000.0625,3002.360107421875,-400000.0625,-400000.0625,1692.010009765625,-400000.0625,-2232.550048828125,-400000.0625
154.06863641738892,-400000.0625,2976.93994140625,-400000.0625,-400000.0625,1671.510009765625,-400000.0625,-2256.5400390625,-400000.0625
154.0786030292511,-400000.0625,2967.5,-400000.0625,-400000.0625,1672.3199462890625,-400000.0625,-2243.89990234375,-400000.0625
154.08772444725037,-400000.0625,2963.260009765625,-400000.0625,-400000.0625,1686.3299560546875,-400000.0625,-2238.1298828125,-400000.0625
154.0972249507904,-400000.0625,2990.679931640625,-400000.0625,-400000.0625,1701.449951171875,-400000.0625,-2208.89990234375,-400000.0625
154.12305617332458,-400000.0625,3006.030029296875,-400000.0625,-400000.0625,1701.260009765625,-400000.0625,-2208.090087890625,-400000.0625
154.1324863433838,-400000.0625,2979.330078125,-400000.0625,-400000.0625,1675.93994140625,-400000.0625,-2241.179931640625,-400000.0625
154.14205193519592,-400000.0625,2966.830078125,-400000.0625,-400000.0625,1668.3599853515625,-400000.0625,-2252.340087890625,-400000.0625
154.15239095687866,-400000.0625,2976.3701171875,-400000.0625,-400000.0625,1678.989990234375,-400000.0625,-2235.889892578125,-400000.0625
154.16284728050232,-400000.0625,2995.489990234375,-400000.0625,-400000.0625,1694.5799560546875,-400000.0625,-2223.830078125,-400000.0625
154.17384576797485,-400000.0625,3010.56005859375,-400000.0625,-400000.0625,1707.1199951171875,-400000.0625,-2210.52001953125,-400000.0625
154.18295550346375,-400000.0625,2983.949951171875,-400000.0625,-400000.0625,1688.8599853515625,-400000.0625,-2234.320068359375,-400000.0625
154.19272303581238,-400000.0625,2966.070068359375,-400000.0625,-400000.0625,1666.1600341796875,-400000.0625,-2254.530029296875,-400000.0625
154.2019808292389,-400000.0625,2970.360107421875,-400000.0625,-400000.0625,1669.68994140625,-400000.0625,-2246.239990234375,-400000.0625
154.22908973693848,-400000.0625,2987.239990234375,-400000.0625,-400000.0625,1687.47998046875,-400000.0625,-2228.070068359375,-400000.0625
154.23928475379944,-400000.0625,3003.030029296875,-400000.0625,-400000.0625,1707.699951171875,-400000.0625,-2214.580078125,-400000.0625
154.24889993667603,-400000.0625,2994.919921875,-400000.0625,-400000.0625,1702.02001953125,-400000.0625,-2224.159912109375,-400000.0625
154.25978541374207,-400000.0625,2971.7900390625,-400000.0625,-400000.0625,1678.75,-400000.0625,-2251.77001953125,-400000.0625
154.27227425575256,-400000.0625,2962.8798828125,-400000.0625,-400000.0625,1666.1199951171875,-400000.0625,-2238.93994140625,-400000.0625
154.2820746898651,-400000.0625,2971.409912109375,-400000.0625,-400000.0625,1670.31005859375,-400000.0625,-2235.1298828125,-400000.0625
154.2919557094574,-400000.0625,2985.719970703125,-400000.0625,-400000.0625,1688.6199951171875,-400000.0625,-2224.780029296875,-400000.0625
154.30262398719788,-400000.0625,3004.5,-400000.0625,-400000.0625,1707.219970703125,-400000.0625,-2213.10009765625,-400000.0625
154.3287227153778,-400000.0625,2984.3798828125,-400000.0625,-400000.0625,1689.77001953125,-400000.0625,-2224.72998046875,-400000.0625
154.3396439552307,-400000.0625,2960.35009765625,-400000.0625,-400000.0625,1670.97998046875,-400000.0625,-2250.860107421875,-400000.0625
154.34965229034424,-400000.0625,2962.8798828125,-400000.0625,-400000.0625,1676.8499755859375,-400000.0625,-2242.989990234375,-400000.0625
154.359290599823,-400000.0625,2978.1298828125,-400000.0625,-400000.0625,1685.2900390625,-400000.0625,-2226.780029296875,-400000.0625
154.37153100967407,-400000.0625,3000.39990234375,-400000.0625,-400000.0625,1702.739990234375,-400000.0625,-2215.0,-400000.0625
154.3815848827362,-400000.0625,2986.860107421875,-400000.0625,-400000.0625,1698.6400146484375,-400000.0625,-2232.4599609375,-400000.0625
154.3919484615326,-400000.0625,2959.590087890625,-400000.0625,-400000.0625,1674.56005859375,-400000.0625,-2249.050048828125,-400000.0625
154.40136861801147,-400000.0625,2952.860107421875,-400000.0625,-400000.0625,1667.449951171875,-400000.0625,-2246.280029296875,-400000.0625
154.4111132621765,-400000.0625,2969.4599609375,-400000.0625,-400000.0625,1677.0799560546875,-400000.0625,-2236.4599609375,-400000.0625
154.4350287914276,-400000.0625,3001.739990234375,-400000.0625,-400000.0625,1694.43994140625,-400000.0625,-2219.820068359375,-400000.0625
154.44527339935303,-400000.0625,3014.3701171875,-400000.0625,-400000.0625,1703.739990234375,-400000.0625,-2209.139892578125,-400000.0625
154.4549961090088,-400000.0625,2985.6201171875,-400000.0625,-400000.0625,1682.949951171875,-400000.0625,-2226.070068359375,-400000.0625
154.46467113494873,-400000.0625,2969.889892578125,-400000.0625,-400000.0625,1670.6500244140625,-400000.0625,-2245.330078125,-400000.0625
154.475524187088,-400000.0625,2976.3701171875,-400000.0625,-400000.0625,1672.699951171875,-400000.0625,-2239.989990234375,-400000.0625
154.48390769958496,-400000.0625,2985.860107421875,-400000.0625,-400000.0625,1690.8199462890625,-400000.0625,-2228.070068359375,-400000.0625
154.49332928657532,-400000.0625,3003.8798828125,-400000.0625,-400000.0625,1708.93994140625,-400000.0625,-2206.330078125,-400000.0625
154.50336050987244,-400000.0625,2990.8701171875,-400000.0625,-400000.0625,1697.3499755859375,-400000.0625,-2217.820068359375,-400000.0625
154.51347613334656,-400000.0625,2966.070068359375,-400000.0625,-400000.0625,1672.1700439453125,-400000.0625,-2246.0,-400000.0625
154.5382616519928,-400000.0625,2960.010009765625,-400000.0625,-400000.0625,1676.989990234375,-400000.0625,-2241.330078125,-400000.0625
154.54602003097534,-400000.0625,2977.280029296875,-400000.0625,-400000.0625,1685.5699462890625,-400000.0625,-2230.219970703125,-400000.0625
154.55551099777222,-400000.0625,3008.75,-400000.0625,-400000.0625,1699.5899658203125,-400000.0625,-2215.14990234375,-400000.0625
154.56443119049072,-400000.0625,3020.330078125,-400000.0625,-400000.0625,1707.699951171875,-400000.0625,-2211.52001953125,-400000.0625
154.57573890686035,-400000.0625,2972.7900390625,-400000.0625,-400000.0625,1678.1300048828125,-400000.0625,-2236.179931640625,-400000.0625
154.58525562286377,-400000.0625,2961.489990234375,-400000.0625,-400000.0625,1665.02001953125,-400000.0625,-2235.93994140625,-400000.0625
154.59433579444885,-400000.0625,2985.570068359375,-400000.0625,-400000.0625,1680.4200439453125,-400000.0625,-2228.260009765625,-400000.0625
154.60249423980713,-400000.0625,2997.5400390625,-400000.0625,-400000.0625,1693.6300048828125,-400000.0625,-2216.860107421875,-400000.0625
154.61127853393555,-400000.0625,3015.330078125,-400000.0625,-400000.0625,1710.030029296875,-400000.0625,-2212.6201171875,-400000.0625
154.6208827495575,-400000.0625,2998.590087890625,-400000.0625,-400000.0625,1698.1099853515625,-400000.0625,-2224.72998046875,-400000.0625
154.6463532447815,-400000.0625,2976.610107421875,-400000.0625,-400000.0625,1675.800048828125,-400000.0625,-2250.669921875,-400000.0625
154.65652227401733,-400000.0625,2978.75,-400000.0625,-400000.0625,1667.7900390625,-400000.0625,-2243.139892578125,-400000.0625
154.66518807411194,-400000.0625,2992.8701171875,-400000.0625,-400000.0625,1675.699951171875,-400000.0625,-2224.72998046875,-400000.0625
154.67443537712097,-400000.0625,3011.27001953125,-400000.0625,-400000.0625,1700.449951171875,-400000.0625,-2213.530029296875,-400000.0625
154.6843137741089,-400000.0625,3008.4599609375,-400000.0625,-400000.0625,1707.1199951171875,-400000.0625,-2214.530029296875,-400000.0625
154.6938271522522,-400000.0625,2982.570068359375,-400000.0625,-400000.0625,1679.1300048828125,-400000.0625,-2247.429931640625,-400000.0625
154.7043697834015,-400000.0625,2965.590087890625,-400000.0625,-400000.0625,1661.25,-400000.0625,-2248.239990234375,-400000.0625
154.7135043144226,-400000.0625,2977.419921875,-400000.0625,-400000.0625,1674.1300048828125,-400000.0625,-2231.929931640625,-400000.0625
154.72321486473083,-400000.0625,2994.820068359375,-400000.0625,-400000.0625,1695.8199462890625,-400000.0625,-2223.590087890625,-400000.0625
154.7488842010498,-400000.0625,3004.4599609375,-400000.0625,-400000.0625,1710.030029296875,-400000.0625,-2211.52001953125,-400000.0625
154.75840020179749,-400000.0625,2994.010009765625,-400000.0625,-400000.0625,1694.1500244140625,-400000.0625,-2228.159912109375,-400000.0625
154.76751399040222,-400000.0625,2976.179931640625,-400000.0625,-400000.0625,1668.1700439453125,-400000.0625,-2250.2900390625,-400000.0625
154.7764184474945,-400000.0625,2982.0,-400000.0625,-400000.0625,1669.4100341796875,-400000.0625,-2257.8701171875,-400000.0625
154.7857267856598,-400000.0625,2989.909912109375,-400000.0625,-400000.0625,1674.4599609375,-400000.0625,-2242.85009765625,-400000.0625
154.7950918674469,-400000.0625,3001.360107421875,-400000.0625,-400000.0625,1687.81005859375,-400000.0625,-2212.52001953125,-400000.0625
154.8033447265625,-400000.0625,3007.4599609375,-400000.0625,-400000.0625,1699.8299560546875,-400000.0625,-2197.5,-400000.0625
154.81249475479126,-400000.0625,2980.179931640625,-400000.0625,-400000.0625,1678.1800537109375,-400000.0625,-2239.080078125,-400000.0625
154.82165932655334,-400000.0625,2963.159912109375,-400000.0625,-400000.0625,1667.1700439453125,-400000.0625,-2248.860107421875,-400000.0625
154.83199310302734,-400000.0625,2966.739990234375,-400000.0625,-400000.0625,1674.8399658203125,-400000.0625,-2231.219970703125,-400000.0625
154.85952854156494,-400000.0625,2984.860107421875,-400000.0625,-400000.0625,1681.3299560546875,-400000.0625,-2220.010009765625,-400000.0625
154.86918783187866,-400000.0625,3004.070068359375,-400000.0625,-400000.0625,1695.199951171875,-400000.0625,-2209.6201171875,-400000.0625
154.87862181663513,-400000.0625,2988.719970703125,-400000.0625,-400000.0625,1684.5699462890625,-400000.0625,-2227.590087890625,-400000.0625
154.8887438774109,-400000.0625,2962.780029296875,-400000.0625,-400000.0625,1662.02001953125,-400000.0625,-2246.7099609375,-400000.0625
154.89872574806213,-400000.0625,2977.659912109375,-400000.0625,-400000.0625,1665.4000244140625,-400000.0625,-2243.3798828125,-400000.0625
154.91115379333496,-400000.0625,2992.010009765625,-400000.0625,-400000.0625,1678.280029296875,-400000.0625,-2237.75,-400000.0625
154.92219424247742,-400000.0625,2991.6298828125,-400000.0625,-400000.0625,1690.010009765625,-400000.0625,-2206.610107421875,-400000.0625
154.93185997009277,-400000.0625,2989.010009765625,-400000.0625,-400000.0625,1694.3499755859375,-400000.0625,-2205.320068359375,-400000.0625
154.94331455230713,-400000.0625,2968.449951171875,-400000.0625,-400000.0625,1674.56005859375,-400000.0625,-2235.75,-400000.0625
154.9731924533844,-400000.0625,2965.31005859375,-400000.0625,-400000.0625,1664.2099609375,-400000.0625,-2242.610107421875,-400000.0625
154.9844331741333,-400000.0625,2964.02001953125,-400000.0625,-400000.0625,1668.5,-400000.0625,-2228.550048828125,-400000.0625
154.99530482292175,-400000.0625,2972.409912109375,-400000.0625,-400000.0625,1682.7099609375,-400000.0625,-2228.97998046875,-400000.0625
155.00664949417114,-400000.0625,3002.739990234375,-400000.0625,-400000.0625,1701.780029296875,-400000.0625,-2224.449951171875,-400000.0625
155.01601123809814,-400000.0625,2998.639892578125,-400000.0625,-400000.0625,1683.0400390625,-400000.0625,-2241.800048828125,-400000.0625
155.02749252319336,-400000.0625,2984.429931640625,-400000.0625,-400000.0625,1661.43994140625,-400000.0625,-2276.0400390625,-400000.0625
155.03851747512817,-400000.0625,2972.169921875,-400000.0625,-400000.0625,1666.5899658203125,-400000.0625,-2268.97998046875,-400000.0625
155.04959917068481,-400000.0625,2975.75,-400000.0625,-400000.0625,1684.280029296875,-400000.0625,-2251.530029296875,-400000.0625
155.07923412322998,-400000.0625,3002.639892578125,-400000.0625,-400000.0625,1703.4100341796875,-400000.0625,-2241.56005859375,-400000.0625
155.09210586547852,-400000.0625,2999.35009765625,-400000.0625,-400000.0625,1700.3499755859375,-400000.0625,-2243.330078125,-400000.0625
155.10422039031982,-400000.0625,2971.320068359375,-400000.0625,-400000.0625,1675.1300048828125,-400000.0625,-2276.0400390625,-400000.0625
155.11684656143188,-400000.0625,2970.60009765625,-400000.0625,-400000.0625,1670.550048828125,-400000.0625,-2284.9599609375,-400000.0625
155.12712121009827,-400000.0625,2969.169921875,-400000.0625,-400000.0625,1682.0,-400000.0625,-2271.510009765625,-400000.0625
155.13747000694275,-400000.0625,2989.909912109375,-400000.0625,-400000.0625,1689.010009765625,-400000.0625,-2262.159912109375,-400000.0625
155.14703392982483,-400000.0625,3007.320068359375,-400000.0625,-400000.0625,1701.1600341796875,-400000.0625,-2249.909912109375,-400000.0625
155.15819311141968,-400000.0625,2979.330078125,-400000.0625,-400000.0625,1688.5799560546875,-400000.0625,-2279.570068359375,-400000.0625
155.18550419807434,-400000.0625,2963.72998046875,-400000.0625,-400000.0625,1667.2099609375,-400000.0625,-2290.340087890625,-400000.0625
155.1956663131714,-400000.0625,2961.969970703125,-400000.0625,-400000.0625,1671.3599853515625,-400000.0625,-2282.81005859375,-400000.0625
155.20544457435608,-400000.0625,2978.22998046875,-400000.0625,-400000.0625,1673.97998046875,-400000.0625,-2272.4599609375,-400000.0625
155.21509766578674,-400000.0625,3003.8798828125,-400000.0625,-400000.0625,1694.6300048828125,-400000.0625,-2256.919921875,-400000.0625
155.23071670532227,-400000.0625,2998.919921875,-400000.0625,-400000.0625,1694.3900146484375,-400000.0625,-2263.1201171875,-400000.0625
155.24316930770874,-400000.0625,2967.639892578125,-400000.0625,-400000.0625,1666.5899658203125,-400000.0625,-2287.050048828125,-400000.0625
155.25409722328186,-400000.0625,2949.429931640625,-400000.0625,-400000.0625,1660.969970703125,-400000.0625,-2296.780029296875,-400000.0625
155.2631721496582,-400000.0625,2959.300048828125,-400000.0625,-400000.0625,1666.02001953125,-400000.0625,-2291.489990234375,-400000.0625
155.29187607765198,-400000.0625,2980.52001953125,-400000.0625,-400000.0625,1682.0899658203125,-400000.0625,-2274.080078125,-400000.0625
155.30140233039856,-400000.0625,2988.9599609375,-400000.0625,-400000.0625,1695.9200439453125,-400000.0625,-2254.919921875,-400000.0625
155.31127095222473,-400000.0625,2968.739990234375,-400000.0625,-400000.0625,1680.989990234375,-400000.0625,-2266.68994140625,-400000.0625
155.32114243507385,-400000.0625,2956.820068359375,-400000.0625,-400000.0625,1660.1600341796875,-400000.0625,-2283.429931640625,-400000.0625
155.33040857315063,-400000.0625,2965.02001953125,-400000.0625,-400000.0625,1661.9200439453125,-400000.0625,-2275.610107421875,-400000.0625
155.3389115333557,-400000.0625,2983.89990234375,-400000.0625,-400000.0625,1676.4599609375,-400000.0625,-2269.7900390625,-400000.0625
155.34862160682678,-400000.0625,3003.260009765625,-400000.0625,-400000.0625,1699.1099853515625,-400000.0625,-2257.300048828125,-400000.0625
155.35828733444214,-400000.0625,2988.239990234375,-400000.0625,-400000.0625,1695.5400390625,-400000.0625,-2259.679931640625,-400000.0625
155.36737656593323,-400000.0625,2956.06005859375,-400000.0625,-400000.0625,1669.030029296875,-400000.0625,-2282.6201171875,-400000.0625
155.3946921825409,-400000.0625,2958.8701171875,-400000.0625,-400000.0625,1665.68994140625,-400000.0625,-2291.489990234375,-400000.0625
155.40504384040833,-400000.0625,2972.97998046875,-400000.0625,-400000.0625,1676.6099853515625,-400000.0625,-2276.7099609375,-400000.0625
155.41485261917114,-400000.0625,2995.43994140625,-400000.0625,-400000.0625,1695.43994140625,-400000.0625,-2262.070068359375,-400000.0625
155.42401313781738,-400000.0625,3007.7900390625,-400000.0625,-400000.0625,1705.4599609375,-400000.0625,-2258.25,-400000.0625
155.43168950080872,-400000.0625,2971.320068359375,-400000.0625,-400000.0625,1680.0899658203125,-400000.0625,-2283.719970703125,-400000.0625
155.4414095878601,-400000.0625,2941.659912109375,-400000.0625,-400000.0625,1662.9200439453125,-400000.0625,-2292.110107421875,-400000.0625
155.45256805419922,-400000.0625,2955.8701171875,-400000.0625,-400000.0625,1672.030029296875,-400000.0625,-2278.52001953125,-400000.0625
155.4624946117401,-400000.0625,2962.969970703125,-400000.0625,-400000.0625,1693.199951171875,-400000.0625,-2266.169921875,-400000.0625
155.4716761112213,-400000.0625,2977.419921875,-400000.0625,-400000.0625,1705.4599609375,-400000.0625,-2257.159912109375,-400000.0625
155.49810338020325,-400000.0625,2981.330078125,-400000.0625,-400000.0625,1693.199951171875,-400000.0625,-2269.4599609375,-400000.0625
155.50884532928467,-400000.0625,2961.02001953125,-400000.0625,-400000.0625,1670.6500244140625,-400000.0625,-2295.260009765625,-400000.0625
155.5194640159607,-400000.0625,2974.64990234375,-400000.0625,-400000.0625,1672.030029296875,-400000.0625,-2286.77001953125,-400000.0625
155.52945947647095,-400000.0625,2984.949951171875,-400000.0625,-400000.0625,1685.3299560546875,-400000.0625,-2277.570068359375,-400000.0625
155.54047322273254,-400000.0625,2996.39990234375,-400000.0625,-400000.0625,1697.02001953125,-400000.0625,-2270.75,-400000.0625
155.55107069015503,-400000.0625,2992.43994140625,-400000.0625,-400000.0625,1707.7900390625,-400000.0625,-2251.719970703125,-400000.0625
155.56119632720947,-400000.0625,2946.0400390625,-400000.0625,-400000.0625,1688.18994140625,-400000.0625,-2273.85009765625,-400000.0625
155.5717580318451,-400000.0625,2931.260009765625,-400000.0625,-400000.0625,1680.6099853515625,-400000.0625,-2287.9599609375,-400000.0625
155.5967137813568,-400000.0625,2924.43994140625,-400000.0625,-400000.0625,1707.8399658203125,-400000.0625,-2271.56005859375,-400000.0625
155.60627579689026,-400000.0625,2953.429931640625,-400000.0625,-400000.0625,1717.6199951171875,-400000.0625,-2275.419921875,-400000.0625
155.6158425807953,-400000.0625,2947.139892578125,-400000.0625,-400000.0625,1713.800048828125,-400000.0625,-2289.679931640625,-400000.0625
155.62640810012817,-400000.0625,2977.469970703125,-400000.0625,-400000.0625,1732.72998046875,-400000.0625,-2297.969970703125,-400000.0625
155.6368465423584,-400000.0625,3050.52001953125,-400000.0625,-400000.0625,1729.43994140625,-400000.0625,-2371.219970703125,-400000.0625
155.6445803642273,-400000.0625,3055.3798828125,-400000.0625,-400000.0625,1744.93994140625,-400000.0625,-2400.72998046875,-400000.0625
155.6557343006134,-400000.0625,2994.679931640625,-400000.0625,-400000.0625,1800.199951171875,-400000.0625,-2416.659912109375,-400000.0625
155.6644868850708,-400000.0625,3019.0,-400000.0625,-400000.0625,1790.0,-400000.0625,-2439.169921875,-400000.0625
155.6744408607483,-400000.0625,2994.590087890625,-400000.0625,-400000.0625,1792.719970703125,-400000.0625,-2478.64990234375,-400000.0625
155.69984936714172,-400000.0625,2855.06005859375,-400000.0625,-400000.0625,1793.719970703125,-400000.0625,-2532.14990234375,-400000.0625
155.7088394165039,-400000.0625,2759.840087890625,-400000.0625,-400000.0625,1814.6500244140625,-400000.0625,-2570.919921875,-400000.0625
155.71685910224915,-400000.0625,2649.02001953125,-400000.0625,-400000.0625,1853.510009765625,-400000.0625,-2595.419921875,-400000.0625
155.72733640670776,-400000.0625,2598.47998046875,-400000.0625,-400000.0625,1856.8499755859375,-400000.0625,-2641.25,-400000.0625
155.7374291419983,-400000.0625,2555.3701171875,-400000.0625,-400000.0625,1923.93994140625,-400000.0625,-2633.6201171875,-400000.0625
155.7492334842682,-400000.0625,2468.590087890625,-400000.0625,-400000.0625,1938.6800537109375,-400000.0625,-2702.280029296875,-400000.0625
155.7596731185913,-400000.0625,2500.43994140625,-400000.0625,-400000.0625,1850.030029296875,-400000.0625,-2759.219970703125,-400000.0625
155.76785826683044,-400000.0625,2478.080078125,-400000.0625,-400000.0625,1843.8800048828125,-400000.0625,-2756.97998046875,-400000.0625
155.7777497768402,-400000.0625,2475.360107421875,-400000.0625,-400000.0625,1866.3399658203125,-400000.0625,-2741.719970703125,-400000.0625
155.8056857585907,-400000.0625,2528.0,-400000.0625,-400000.0625,1895.47998046875,-400000.0625,-2730.1298828125,-400000.0625
155.8157958984375,-400000.0625,2584.7900390625,-400000.0625,-400000.0625,1892.6099853515625,-400000.0625,-2744.06005859375,-400000.0625
155.82503366470337,-400000.0625,2569.9599609375,-400000.0625,-400000.0625,1870.5400390625,-400000.0625,-2775.429931640625,-400000.0625
155.83452677726746,-400000.0625,2574.590087890625,-400000.0625,-400000.0625,1867.9100341796875,-400000.0625,-2785.39990234375,-400000.0625
155.84381866455078,-400000.0625,2633.760009765625,-400000.0625,-400000.0625,1878.4000244140625,-400000.0625,-2780.25,-400000.0625
155.85388326644897,-400000.0625,2650.97998046875,-400000.0625,-400000.0625,1895.47998046875,-400000.0625,-2766.469970703125,-400000.0625
155.8629927635193,-400000.0625,2697.75,-400000.0625,-400000.0625,1904.3900146484375,-400000.0625,-2775.139892578125,-400000.0625
155.87332820892334,-400000.0625,2750.35009765625,-400000.0625,-400000.0625,1881.739990234375,-400000.0625,-2796.97998046875,-400000.0625
155.88245582580566,-400000.0625,2741.719970703125,-400000.0625,-400000.0625,1855.3699951171875,-400000.0625,-2821.06005859375,-400000.0625
155.9146761894226,-400000.0625,2761.320068359375,-400000.0625,-400000.0625,1855.760009765625,-400000.0625,-2818.780029296875,-400000.0625
155.92487812042236,-400000.0625,2787.070068359375,-400000.0625,-400000.0625,1862.8599853515625,-400000.0625,-2806.760009765625,-400000.0625
155.93468499183655,-400000.0625,2801.22998046875,-400000.0625,-400000.0625,1899.3399658203125,-400000.0625,-2796.97998046875,-400000.0625
155.94499349594116,-400000.0625,2801.469970703125,-400000.0625,-400000.0625,1902.8199462890625,-400000.0625,-2795.60009765625,-400000.0625
155.95584774017334,-400000.0625,2763.510009765625,-400000.0625,-400000.0625,1871.489990234375,-400000.0625,-2818.300048828125,-400000.0625
155.9667456150055,-400000.0625,2756.60009765625,-400000.0625,-400000.0625,1857.52001953125,-400000.0625,-2817.110107421875,-400000.0625
155.97769451141357,-400000.0625,2774.909912109375,-400000.0625,-400000.0625,1865.0999755859375,-400000.0625,-2789.780029296875,-400000.0625
155.98868417739868,-400000.0625,2792.360107421875,-400000.0625,-400000.0625,1877.68994140625,-400000.0625,-2772.570068359375,-400000.0625
156.01458072662354,-400000.0625,2818.820068359375,-400000.0625,-400000.0625,1891.0400390625,-400000.0625,-2751.159912109375,-400000.0625
156.0243899822235,-400000.0625,2808.949951171875,-400000.0625,-400000.0625,1875.6400146484375,-400000.0625,-2761.4599609375,-400000.0625
156.03475689888,-400000.0625,2774.18994140625,-400000.0625,-400000.0625,1847.739990234375,-400000.0625,-2775.3798828125,-400000.0625
156.04490208625793,-400000.0625,2780.14990234375,-400000.0625,-400000.0625,1851.3199462890625,-400000.0625,-2767.85009765625,-400000.0625
156.05481481552124,-400000.0625,2777.199951171875,-400000.0625,-400000.0625,1872.6800537109375,-400000.0625,-2743.2900390625,-400000.0625
156.06462860107422,-400000.0625,2790.590087890625,-400000.0625,-400000.0625,1886.030029296875,-400000.0625,-2714.489990234375,-400000.0625
156.0742437839508,-400000.0625,2781.580078125,-400000.0625,-400000.0625,1875.68994140625,-400000.0625,-2714.43994140625,-400000.0625
156.0858552455902,-400000.0625,2762.409912109375,-400000.0625,-400000.0625,1846.0799560546875,-400000.0625,-2728.93994140625,-400000.0625
156.09566831588745,-400000.0625,2774.81005859375,-400000.0625,-400000.0625,1833.530029296875,-400000.0625,-2727.56005859375,-400000.0625
156.1232430934906,-400000.0625,2790.39990234375,-400000.0625,-400000.0625,1850.6500244140625,-400000.0625,-2705.2900390625,-400000.0625
156.1326253414154,-400000.0625,2829.360107421875,-400000.0625,-400000.0625,1868.43994140625,-400000.0625,-2675.77001953125,-400000.0625
156.14186000823975,-400000.0625,2882.47998046875,-400000.0625,-400000.0625,1878.0699462890625,-400000.0625,-2655.27001953125,-400000.0625
156.15000104904175,-400000.0625,2896.8798828125,-400000.0625,-400000.0625,1860.6700439453125,-400000.0625,-2656.030029296875,-400000.0625
156.15952038764954,-400000.0625,2905.320068359375,-400000.0625,-400000.0625,1818.56005859375,-400000.0625,-2659.510009765625,-400000.0625
156.17073273658752,-400000.0625,2933.219970703125,-400000.0625,-400000.0625,1812.510009765625,-400000.0625,-2635.10009765625,-400000.0625
156.17999172210693,-400000.0625,2959.389892578125,-400000.0625,-400000.0625,1836.3499755859375,-400000.0625,-2618.360107421875,-400000.0625
156.1904947757721,-400000.0625,2994.300048828125,-400000.0625,-400000.0625,1843.8299560546875,-400000.0625,-2592.56005859375,-400000.0625
156.20009422302246,-400000.0625,3017.7099609375,-400000.0625,-400000.0625,1836.1600341796875,-400000.0625,-2589.93994140625,-400000.0625
156.2392954826355,-400000.0625,3023.389892578125,-400000.0625,-400000.0625,1809.5,-400000.0625,-2600.050048828125,-400000.0625
156.24975872039795,-400000.0625,3036.31005859375,-400000.0625,-400000.0625,1792.47998046875,-400000.0625,-2584.409912109375,-400000.0625
156.2602937221527,-400000.0625,3049.090087890625,-400000.0625,-400000.0625,1792.9599609375,-400000.0625,-2562.239990234375,-400000.0625
156.2699007987976,-400000.0625,3072.68994140625,-400000.0625,-400000.0625,1804.300048828125,-400000.0625,-2538.010009765625,-400000.0625
156.278706073761,-400000.0625,3100.919921875,-400000.0625,-400000.0625,1808.68994140625,-400000.0625,-2518.22998046875,-400000.0625
156.2886290550232,-400000.0625,3087.0,-400000.0625,-400000.0625,1796.3399658203125,-400000.0625,-2532.389892578125,-400000.0625
156.29706406593323,-400000.0625,3077.169921875,-400000.0625,-400000.0625,1757.4300537109375,-400000.0625,-2541.489990234375,-400000.0625
156.30734872817993,-400000.0625,3083.1298828125,-400000.0625,-400000.0625,1759.8199462890625,-400000.0625,-2528.52001953125,-400000.0625
156.33392357826233,-400000.0625,3088.6201171875,-400000.0625,-400000.0625,1781.4599609375,-400000.0625,-2504.8701171875,-400000.0625
156.343199968338,-400000.0625,3130.25,-400000.0625,-400000.0625,1788.280029296875,-400000.0625,-2476.070068359375,-400000.0625
156.35281610488892,-400000.0625,3141.590087890625,-400000.0625,-400000.0625,1761.1500244140625,-400000.0625,-2462.2900390625,-400000.0625
156.36190152168274,-400000.0625,3135.39990234375,-400000.0625,-400000.0625,1733.969970703125,-400000.0625,-2474.68994140625,-400000.0625
156.37112545967102,-400000.0625,3154.7099609375,-400000.0625,-400000.0625,1733.489990234375,-400000.0625,-2458.669921875,-400000.0625
156.38044691085815,-400000.0625,3185.699951171875,-400000.0625,-400000.0625,1742.550048828125,-400000.0625,-2446.93994140625,-400000.0625
156.39022612571716,-400000.0625,3212.639892578125,-400000.0625,-400000.0625,1752.0899658203125,-400000.0625,-2427.2900390625,-400000.0625
156.39798259735107,-400000.0625,3235.8701171875,-400000.0625,-400000.0625,1763.77001953125,-400000.0625,-2410.27001953125,-400000.0625
156.4100308418274,-400000.0625,3244.590087890625,-400000.0625,-400000.0625,1733.8299560546875,-400000.0625,-2417.800048828125,-400000.0625
156.4375925064087,-400000.0625,3239.780029296875,-400000.0625,-400000.0625,1709.1300048828125,-400000.0625,-2421.949951171875,-400000.0625
156.44585990905762,-400000.0625,3258.179931640625,-400000.0625,-400000.0625,1720.6700439453125,-400000.0625,-2401.159912109375,-400000.0625
156.45663809776306,-400000.0625,3290.56005859375,-400000.0625,-400000.0625,1738.7900390625,-400000.0625,-2377.320068359375,-400000.0625
156.46569085121155,-400000.0625,3330.989990234375,-400000.0625,-400000.0625,1755.9100341796875,-400000.0625,-2358.14990234375,-400000.0625
156.47502088546753,-400000.0625,3347.110107421875,-400000.0625,-400000.0625,1745.6099853515625,-400000.0625,-2365.02001953125,-400000.0625
156.48432803153992,-400000.0625,3288.4599609375,-400000.0625,-400000.0625,1732.6400146484375,-400000.0625,-2392.239990234375,-400000.0625
156.493745803833,-400000.0625,3317.070068359375,-400000.0625,-400000.0625,1727.3399658203125,-400000.0625,-2363.489990234375,-400000.0625
156.50300216674805,-400000.0625,3335.81005859375,-400000.0625,-400000.0625,1732.300048828125,-400000.0625,-2350.6201171875,-400000.0625
156.51253581047058,-400000.0625,3367.6201171875,-400000.0625,-400000.0625,1758.3800048828125,-400000.0625,-2338.7900390625,-400000.0625
156.53852939605713,-400000.0625,3388.409912109375,-400000.0625,-400000.0625,1786.1800537109375,-400000.0625,-2311.85009765625,-400000.0625
156.54806900024414,-400000.0625,3331.090087890625,-400000.0625,-400000.0625,1733.260009765625,-400000.0625,-2357.530029296875,-400000.0625
156.55791330337524,-400000.0625,3321.840087890625,-400000.0625,-400000.0625,1726.43994140625,-400000.0625,-2363.39990234375,-400000.0625
156.56892251968384,-400000.0625,3292.610107421875,-400000.0625,-400000.0625,1795.530029296875,-400000.0625,-2411.219970703125,-400000.0625
156.57863593101501,-400000.0625,3290.64990234375,-400000.0625,-400000.0625,1784.280029296875,-400000.0625,-2428.6298828125,-400000.0625
156.58794522285461,-400000.0625,3294.7099609375,-400000.0625,-400000.0625,1785.4200439453125,-400000.0625,-2397.110107421875,-400000.0625
156.59654784202576,-400000.0625,3211.639892578125,-400000.0625,-400000.0625,1786.4200439453125,-400000.0625,-2463.340087890625,-400000.0625
156.6070945262909,-400000.0625,3141.2099609375,-400000.0625,-400000.0625,1749.3299560546875,-400000.0625,-2523.89990234375,-400000.0625
156.61699652671814,-400000.0625,3078.3701171875,-400000.0625,-400000.0625,1773.550048828125,-400000.0625,-2529.10009765625,-400000.0625
156.64205932617188,-400000.0625,2997.679931640625,-400000.0625,-400000.0625,1802.3499755859375,-400000.0625,-2586.699951171875,-400000.0625
156.65249156951904,-400000.0625,2940.4599609375,-400000.0625,-400000.0625,1853.9000244140625,-400000.0625,-2591.1298828125,-400000.0625
156.6621367931366,-400000.0625,2988.47998046875,-400000.0625,-400000.0625,1899.6199951171875,-400000.0625,-2584.840087890625,-400000.0625
156.67257356643677,-400000.0625,3003.31005859375,-400000.0625,-400000.0625,1884.8900146484375,-400000.0625,-2647.5400390625,-400000.0625
156.6820046901703,-400000.0625,2991.6298828125,-400000.0625,-400000.0625,1884.1300048828125,-400000.0625,-2686.2099609375,-400000.0625
156.69248294830322,-400000.0625,3054.239990234375,-400000.0625,-400000.0625,1901.199951171875,-400000.0625,-2704.81005859375,-400000.0625
156.70227766036987,-400000.0625,3126.909912109375,-400000.0625,-400000.0625,1855.6600341796875,-400000.0625,-2633.47998046875,-400000.0625
156.71129274368286,-400000.0625,3245.68994140625,-400000.0625,-400000.0625,1849.1300048828125,-400000.0625,-2591.56005859375,-400000.0625
156.72091722488403,-400000.0625,3299.81005859375,-400000.0625,-400000.0625,1869.72998046875,-400000.0625,-2580.260009765625,-400000.0625
156.75065517425537,-400000.0625,3433.989990234375,-400000.0625,-400000.0625,1844.97998046875,-400000.0625,-2625.0400390625,-400000.0625
156.76039600372314,-400000.0625,3510.090087890625,-400000.0625,-400000.0625,1808.5999755859375,-400000.0625,-2582.030029296875,-400000.0625
156.77058744430542,-400000.0625,3710.56005859375,-400000.0625,-400000.0625,1832.06005859375,-400000.0625,-2523.3701171875,-400000.0625
156.77988600730896,-400000.0625,3746.320068359375,-400000.0625,-400000.0625,1871.5400390625,-400000.0625,-2463.530029296875,-400000.0625
156.79416704177856,-400000.0625,3697.06005859375,-400000.0625,-400000.0625,1893.4300537109375,-400000.0625,-2455.89990234375,-400000.0625
156.8078589439392,-400000.0625,3620.820068359375,-400000.0625,-400000.0625,1901.010009765625,-400000.0625,-2435.8798828125,-400000.0625
156.8190381526947,-400000.0625,3737.02001953125,-400000.0625,-400000.0625,1850.3199462890625,-400000.0625,-2351.0,-400000.0625
156.82948088645935,-400000.0625,3722.47998046875,-400000.0625,-400000.0625,1840.68994140625,-400000.0625,-2296.590087890625,-400000.0625
156.85719084739685,-400000.0625,3787.89990234375,-400000.0625,-400000.0625,1855.760009765625,-400000.0625,-2222.820068359375,-400000.0625
156.8667504787445,-400000.0625,3867.6298828125,-400000.0625,-400000.0625,1872.969970703125,-400000.0625,-2149.199951171875,-400000.0625
156.87512803077698,-400000.0625,3899.429931640625,-400000.0625,-400000.0625,1854.4200439453125,-400000.0625,-2108.429931640625,-400000.0625
156.8847141265869,-400000.0625,3917.68994140625,-400000.0625,-400000.0625,1833.5799560546875,-400000.0625,-2040.199951171875,-400000.0625
156.89394426345825,-400000.0625,3990.030029296875,-400000.0625,-400000.0625,1828.530029296875,-400000.0625,-1999.18994140625,-400000.0625
156.9040551185608,-400000.0625,4068.949951171875,-400000.0625,-400000.0625,1858.0899658203125,-400000.0625,-1933.530029296875,-400000.0625
156.91506791114807,-400000.0625,4088.39990234375,-400000.0625,-400000.0625,1872.02001953125,-400000.0625,-1889.4200439453125,-400000.0625
156.93045353889465,-400000.0625,4112.47998046875,-400000.0625,-400000.0625,1854.9000244140625,-400000.0625,-1856.4200439453125,-400000.0625
156.97450518608093,-400000.0625,4197.97998046875,-400000.0625,-400000.0625,1827.6199951171875,-400000.0625,-1881.0799560546875,-400000.0625
156.9915657043457,-400000.0625,4169.89013671875,-400000.0625,-400000.0625,1826.9100341796875,-400000.0625,-1847.3599853515625,-400000.0625
157.0021903514862,-400000.0625,4185.2001953125,-400000.0625,-400000.0625,1828.3800048828125,-400000.0625,-1825.239990234375,-400000.0625
157.01526975631714,-400000.0625,4186.39013671875,-400000.0625,-400000.0625,1840.969970703125,-400000.0625,-1804.8299560546875,-400000.0625
157.0270893573761,-400000.0625,4257.919921875,-400000.0625,-400000.0625,1846.4599609375,-400000.0625,-1782.989990234375,-400000.0625
157.03768968582153,-400000.0625,4281.89990234375,-400000.0625,-400000.0625,1824.469970703125,-400000.0625,-1786.6600341796875,-400000.0625
157.06445264816284,-400000.0625,4278.7998046875,-400000.0625,-400000.0625,1801.300048828125,-400000.0625,-1795.3900146484375,-400000.0625
157.07349586486816,-400000.0625,4301.830078125,-400000.0625,-400000.0625,1799.300048828125,-400000.0625,-1785.52001953125,-400000.0625
157.08307194709778,-400000.0625,4309.60986328125,-400000.0625,-400000.0625,1817.1300048828125,-400000.0625,-1772.9300537109375,-400000.0625
157.09278178215027,-400000.0625,4347.990234375,-400000.0625,-400000.0625,1833.06005859375,-400000.0625,-1754.5699462890625,-400000.0625
157.10368251800537,-400000.0625,4338.68994140625,-400000.0625,-400000.0625,1831.050048828125,-400000.0625,-1774.1700439453125,-400000.0625
157.11333966255188,-400000.0625,4319.240234375,-400000.0625,-400000.0625,1815.3199462890625,-400000.0625,-1813.3599853515625,-400000.0625
157.12379813194275,-400000.0625,4303.02978515625,-400000.0625,-400000.0625,1820.949951171875,-400000.0625,-1834.43994140625,-400000.0625
157.13341164588928,-400000.0625,4273.75,-400000.0625,-400000.0625,1832.2900390625,-400000.0625,-1836.25,-400000.0625
157.14301443099976,-400000.0625,4263.93017578125,-400000.0625,-400000.0625,1841.969970703125,-400000.0625,-1822.3299560546875,-400000.0625
157.1695556640625,-400000.0625,4269.89013671875,-400000.0625,-400000.0625,1837.5400390625,-400000.0625,-1831.8699951171875,-400000.0625
157.17895007133484,-400000.0625,4231.93017578125,-400000.0625,-400000.0625,1827.6700439453125,-400000.0625,-1857.8499755859375,-400000.0625
157.19152450561523,-400000.0625,4177.7099609375,-400000.0625,-400000.0625,1797.8199462890625,-400000.0625,-1884.93994140625,-400000.0625
157.19971084594727,-400000.0625,4154.10986328125,-400000.0625,-400000.0625,1786.800048828125,-400000.0625,-1890.1800537109375,-400000.0625
157.2123897075653,-400000.0625,4161.31005859375,-400000.0625,-400000.0625,1814.510009765625,-400000.0625,-1883.0799560546875,-400000.0625
157.23102617263794,-400000.0625,4190.4501953125,-400000.0625,-400000.0625,1825.6199951171875,-400000.0625,-1858.280029296875,-400000.0625
157.24049067497253,-400000.0625,4190.02001953125,-400000.0625,-400000.0625,1825.47998046875,-400000.0625,-1861.3800048828125,-400000.0625
157.25315809249878,-400000.0625,4172.7099609375,-400000.0625,-400000.0625,1803.780029296875,-400000.0625,-1883.550048828125,-400000.0625
157.27785634994507,-400000.0625,4185.52978515625,-400000.0625,-400000.0625,1810.9300537109375,-400000.0625,-1883.1300048828125,-400000.0625
157.2858531475067,-400000.0625,4215.2900390625,-400000.0625,-400000.0625,1808.0699462890625,-400000.0625,-1873.6800537109375,-400000.0625
157.29456853866577,-400000.0625,4240.66015625,-400000.0625,-400000.0625,1827.6199951171875,-400000.0625,-1867.77001953125,-400000.0625
157.30228233337402,-400000.0625,4261.16015625,-400000.0625,-400000.0625,1836.6800537109375,-400000.0625,-1859.050048828125,-400000.0625
157.31256866455078,-400000.0625,4285.3798828125,-400000.0625,-400000.0625,1790.0,-400000.0625,-1866.2900390625,-400000.0625
157.3230209350586,-400000.0625,4304.7001953125,-400000.0625,-400000.0625,1767.780029296875,-400000.0625,-1875.02001953125,-400000.0625
157.33149576187134,-400000.0625,4321.669921875,-400000.0625,-400000.0625,1770.969970703125,-400000.0625,-1866.530029296875,-400000.0625
157.340096950531,-400000.0625,4348.85009765625,-400000.0625,-400000.0625,1784.469970703125,-400000.0625,-1856.3699951171875,-400000.0625
157.34872007369995,-400000.0625,4377.41015625,-400000.0625,-400000.0625,1797.3399658203125,-400000.0625,-1837.25,-400000.0625
157.35822463035583,-400000.0625,4387.669921875,-400000.0625,-400000.0625,1782.0799560546875,-400000.0625,-1843.550048828125,-400000.0625
157.38323044776917,-400000.0625,4381.47021484375,-400000.0625,-400000.0625,1762.6800537109375,-400000.0625,-1866.199951171875,-400000.0625
157.39246273040771,-400000.0625,4385.419921875,-400000.0625,-400000.0625,1758.3800048828125,-400000.0625,-1869.1500244140625,-400000.0625
157.39989304542542,-400000.0625,4404.68994140625,-400000.0625,-400000.0625,1755.760009765625,-400000.0625,-1850.989990234375,-400000.0625
157.4093599319458,-400000.0625,4448.7998046875,-400000.0625,-400000.0625,1773.4100341796875,-400000.0625,-1835.780029296875,-400000.0625
157.4183144569397,-400000.0625,4475.2099609375,-400000.0625,-400000.0625,1775.8399658203125,-400000.0625,-1835.780029296875,-400000.0625
157.4285295009613,-400000.0625,4439.31005859375,-400000.0625,-400000.0625,1753.7099609375,-400000.0625,-1838.06005859375,-400000.0625
157.438494682312,-400000.0625,4442.259765625,-400000.0625,-400000.0625,1746.0799560546875,-400000.0625,-1846.5,-400000.0625
157.44637870788574,-400000.0625,4457.52001953125,-400000.0625,-400000.0625,1746.8900146484375,-400000.0625,-1842.449951171875,-400000.0625
157.45539259910583,-400000.0625,4475.64013671875,-400000.0625,-400000.0625,1731.3499755859375,-400000.0625,-1813.219970703125,-400000.0625
157.46410465240479,-400000.0625,4496.18994140625,-400000.0625,-400000.0625,1747.0400390625,-400000.0625,-1791.050048828125,-400000.0625
157.49306416511536,-400000.0625,4479.60009765625,-400000.0625,-400000.0625,1748.4200439453125,-400000.0625,-1807.260009765625,-400000.0625
157.51982283592224,-400000.0625,4465.8701171875,-400000.0625,-400000.0625,1722.47998046875,-400000.0625,-1830.2900390625,-400000.0625
157.52981162071228,-400000.0625,4469.2998046875,-400000.0625,-400000.0625,1711.1800537109375,-400000.0625,-1813.8399658203125,-400000.0625
157.5393922328949,-400000.0625,4497.9599609375,-400000.0625,-400000.0625,1707.1700439453125,-400000.0625,-1805.8800048828125,-400000.0625
157.54999327659607,-400000.0625,4534.009765625,-400000.0625,-400000.0625,1724.050048828125,-400000.0625,-1780.56005859375,-400000.0625
157.55965375900269,-400000.0625,4544.64013671875,-400000.0625,-400000.0625,1736.5899658203125,-400000.0625,-1768.1600341796875,-400000.0625
157.5693485736847,-400000.0625,4529.52001953125,-400000.0625,-400000.0625,1704.1700439453125,-400000.0625,-1784.9000244140625,-400000.0625
157.59687209129333,-400000.0625,4526.759765625,-400000.0625,-400000.0625,1682.81005859375,-400000.0625,-1799.5799560546875,-400000.0625
157.60803937911987,-400000.0625,4550.7001953125,-400000.0625,-400000.0625,1692.0999755859375,-400000.0625,-1787.52001953125,-400000.0625
157.61829257011414,-400000.0625,4571.14990234375,-400000.0625,-400000.0625,1703.9300537109375,-400000.0625,-1765.010009765625,-400000.0625
157.62829303741455,-400000.0625,4592.990234375,-400000.0625,-400000.0625,1721.0999755859375,-400000.0625,-1740.6500244140625,-400000.0625
157.63764929771423,-400000.0625,4575.39990234375,-400000.0625,-400000.0625,1711.1300048828125,-400000.0625,-1754.5699462890625,-400000.0625
157.64713644981384,-400000.0625,4549.5,-400000.0625,-400000.0625,1681.280029296875,-400000.0625,-1775.8399658203125,-400000.0625
157.65693712234497,-400000.0625,4561.9501953125,-400000.0625,-400000.0625,1678.1300048828125,-400000.0625,-1776.7900390625,-400000.0625
157.66512751579285,-400000.0625,4578.2099609375,-400000.0625,-400000.0625,1689.8599853515625,-400000.0625,-1772.5899658203125,-400000.0625
157.6782898902893,-400000.0625,4591.22998046875,-400000.0625,-400000.0625,1704.6500244140625,-400000.0625,-1754.9000244140625,-400000.0625
157.70865058898926,-400000.0625,4591.7001953125,-400000.0625,-400000.0625,1707.97998046875,-400000.0625,-1752.3800048828125,-400000.0625
157.72781610488892,-400000.0625,4563.52001953125,-400000.0625,-400000.0625,1682.22998046875,-400000.0625,-1769.1099853515625,-400000.0625
157.77006459236145,-400000.0625,4543.97021484375,-400000.0625,-400000.0625,1669.449951171875,-400000.0625,-1776.31005859375,-400000.0625
157.78842043876648,-400000.0625,4543.10986328125,-400000.0625,-400000.0625,1676.93994140625,-400000.0625,-1772.2099609375,-400000.0625
157.82000732421875,-400000.0625,4553.990234375,-400000.0625,-400000.0625,1689.8199462890625,-400000.0625,-1762.0999755859375,-400000.0625
157.83266019821167,-400000.0625,4574.72998046875,-400000.0625,-400000.0625,1705.68994140625,-400000.0625,-1741.7900390625,-400000.0625
157.86111783981323,-400000.0625,4550.35986328125,-400000.0625,-400000.0625,1690.2900390625,-400000.0625,-1760.239990234375,-400000.0625
157.87664008140564,-400000.0625,4519.990234375,-400000.0625,-400000.0625,1669.1199951171875,-400000.0625,-1787.5699462890625,-400000.0625
157.88832998275757,-400000.0625,4505.68017578125,-400000.0625,-400000.0625,1678.0400390625,-400000.0625,-1781.56005859375,-400000.0625
157.91482162475586,-400000.0625,4520.56005859375,-400000.0625,-400000.0625,1687.18994140625,-400000.0625,-1767.6400146484375,-400000.0625
157.94130778312683,-400000.0625,4537.10986328125,-400000.0625,-400000.0625,1698.8800048828125,-400000.0625,-1750.760009765625,-400000.0625
157.9613013267517,-400000.0625,4532.0498046875,-400000.0625,-400000.0625,1705.9300537109375,-400000.0625,-1764.010009765625,-400000.0625
157.97182631492615,-400000.0625,4498.6298828125,-400000.0625,-400000.0625,1688.530029296875,-400000.0625,-1791.18994140625,-400000.0625
157.9936535358429,-400000.0625,4491.14013671875,-400000.0625,-400000.0625,1676.4599609375,-400000.0625,-1795.6300048828125,-400000.0625
158.01196002960205,-400000.0625,4494.10009765625,-400000.0625,-400000.0625,1689.530029296875,-400000.0625,-1789.52001953125,-400000.0625
158.0474088191986,-400000.0625,4498.240234375,-400000.0625,-400000.0625,1702.31005859375,-400000.0625,-1773.6400146484375,-400000.0625
158.0996663570404,-400000.0625,4512.06982421875,-400000.0625,-400000.0625,1715.949951171875,-400000.0625,-1755.6700439453125,-400000.0625
158.1241147518158,-400000.0625,4490.08984375,-400000.0625,-400000.0625,1694.6300048828125,-400000.0625,-1777.550048828125,-400000.0625
158.14398384094238,-400000.0625,4460.47998046875,-400000.0625,-400000.0625,1668.97998046875,-400000.0625,-1802.5400390625,-400000.0625
158.1646444797516,-400000.0625,4462.72021484375,-400000.0625,-400000.0625,1661.1099853515625,-400000.0625,-1799.3499755859375,-400000.0625
158.19433689117432,-400000.0625,4465.8701171875,-400000.0625,-400000.0625,1681.469970703125,-400000.0625,-1795.5799560546875,-400000.0625
158.2015917301178,-400000.0625,4486.990234375,-400000.0625,-400000.0625,1709.0799560546875,-400000.0625,-1786.22998046875,-400000.0625
158.2089204788208,-400000.0625,4477.97998046875,-400000.0625,-400000.0625,1709.699951171875,-400000.0625,-1780.030029296875,-400000.0625
158.21599340438843,-400000.0625,4445.02978515625,-400000.0625,-400000.0625,1683.0,-400000.0625,-1799.25,-400000.0625
158.2240207195282,-400000.0625,4430.25,-400000.0625,-400000.0625,1672.8900146484375,-400000.0625,-1812.4599609375,-400000.0625
158.2319929599762,-400000.0625,4439.16015625,-400000.0625,-400000.0625,1676.3699951171875,-400000.0625,-1811.4599609375,-400000.0625
158.23910117149353,-400000.0625,4446.080078125,-400000.0625,-400000.0625,1690.5799560546875,-400000.0625,-1798.1099853515625,-400000.0625
158.2461154460907,-400000.0625,4461.10009765625,-400000.0625,-400000.0625,1702.2099609375,-400000.0625,-1782.3699951171875,-400000.0625
158.25318050384521,-400000.0625,4438.06982421875,-400000.0625,-400000.0625,1683.6199951171875,-400000.0625,-1814.4599609375,-400000.0625
158.26010847091675,-400000.0625,4415.18017578125,-400000.0625,-400000.0625,1671.27001953125,-400000.0625,-1826.2900390625,-400000.0625
158.2671229839325,-400000.0625,4414.27001953125,-400000.0625,-400000.0625,1677.8900146484375,-400000.0625,-1814.1700439453125,-400000.0625
158.28626823425293,-400000.0625,4419.7099609375,-400000.0625,-400000.0625,1692.010009765625,-400000.0625,-1808.9300537109375,-400000.0625
158.29339742660522,-400000.0625,4431.919921875,-400000.0625,-400000.0625,1706.9300537109375,-400000.0625,-1792.18994140625,-400000.0625
158.30077242851257,-400000.0625,4419.52001953125,-400000.0625,-400000.0625,1698.5899658203125,-400000.0625,-1797.77001953125,-400000.0625
158.3080940246582,-400000.0625,4376.7001953125,-400000.0625,-400000.0625,1672.0799560546875,-400000.0625,-1821.949951171875,-400000.0625
158.31517839431763,-400000.0625,4383.990234375,-400000.0625,-400000.0625,1671.699951171875,-400000.0625,-1833.300048828125,-400000.0625
158.3222599029541,-400000.0625,4384.7099609375,-400000.0625,-400000.0625,1681.3800048828125,-400000.0625,-1825.949951171875,-400000.0625
158.3301556110382,-400000.0625,4406.259765625,-400000.0625,-400000.0625,1688.81005859375,-400000.0625,-1811.1199951171875,-400000.0625
158.3373157978058,-400000.0625,4409.1201171875,-400000.0625,-400000.0625,1686.8599853515625,-400000.0625,-1795.6300048828125,-400000.0625
158.3444173336029,-400000.0625,4378.02978515625,-400000.0625,-400000.0625,1667.68994140625,-400000.0625,-1817.75,-400000.0625
158.35193538665771,-400000.0625,4352.0498046875,-400000.0625,-400000.0625,1680.4200439453125,-400000.0625,-1848.8399658203125,-400000.0625
158.35950922966003,-400000.0625,4370.58984375,-400000.0625,-400000.0625,1685.4300537109375,-400000.0625,-1841.5,-400000.0625
158.3667335510254,-400000.0625,4379.18017578125,-400000.0625,-400000.0625,1695.06005859375,-400000.0625,-1840.780029296875,-400000.0625
158.3742163181305,-400000.0625,4384.66015625,-400000.0625,-400000.0625,1711.8900146484375,-400000.0625,-1822.18994140625,-400000.0625
158.3942608833313,-400000.0625,4371.8798828125,-400000.0625,-400000.0625,1703.6400146484375,-400000.0625,-1826.5699462890625,-400000.0625
158.4015429019928,-400000.0625,4343.56005859375,-400000.0625,-400000.0625,1675.6500244140625,-400000.0625,-1856.6099853515625,-400000.0625
158.40857601165771,-400000.0625,4341.7001953125,-400000.0625,-400000.0625,1673.56005859375,-400000.0625,-1858.52001953125,-400000.0625
158.41567134857178,-400000.0625,4345.47021484375,-400000.0625,-400000.0625,1685.3800048828125,-400000.0625,-1853.280029296875,-400000.0625
158.4227159023285,-400000.0625,4359.2001953125,-400000.0625,-400000.0625,1696.25,-400000.0625,-1845.550048828125,-400000.0625
158.4303925037384,-400000.0625,4354.85986328125,-400000.0625,-400000.0625,1701.8299560546875,-400000.0625,-1843.02001953125,-400000.0625
158.43770790100098,-400000.0625,4326.72998046875,-400000.0625,-400000.0625,1682.0899658203125,-400000.0625,-1871.6300048828125,-400000.0625
158.44510197639465,-400000.0625,4310.3701171875,-400000.0625,-400000.0625,1666.260009765625,-400000.0625,-1881.739990234375,-400000.0625
158.4529411792755,-400000.0625,4312.3701171875,-400000.0625,-400000.0625,1669.5,-400000.0625,-1872.1099853515625,-400000.0625
158.46016383171082,-400000.0625,4320.2900390625,-400000.0625,-400000.0625,1678.56005859375,-400000.0625,-1864.5799560546875,-400000.0625
158.46733260154724,-400000.0625,4325.06005859375,-400000.0625,-400000.0625,1700.8299560546875,-400000.0625,-1857.3800048828125,-400000.0625
158.474711894989,-400000.0625,4317.0498046875,-400000.0625,-400000.0625,1680.0400390625,-400000.0625,-1872.2099609375,-400000.0625
158.49450063705444,-400000.0625,4282.6201171875,-400000.0625,-400000.0625,1670.030029296875,-400000.0625,-1892.6099853515625,-400000.0625
158.50164461135864,-400000.0625,4274.27001953125,-400000.0625,-400000.0625,1673.030029296875,-400000.0625,-1892.81005859375,-400000.0625
158.50872826576233,-400000.0625,4286.10009765625,-400000.0625,-400000.0625,1687.050048828125,-400000.0625,-1881.97998046875,-400000.0625
158.51580023765564,-400000.0625,4293.6298828125,-400000.0625,-400000.0625,1708.699951171875,-400000.0625,-1875.3499755859375,-400000.0625
158.5229823589325,-400000.0625,4283.85986328125,-400000.0625,-400000.0625,1712.699951171875,-400000.0625,-1874.3499755859375,-400000.0625
158.52976298332214,-400000.0625,4271.89013671875,-400000.0625,-400000.0625,1677.0400390625,-400000.0625,-1892.7099609375,-400000.0625
158.5366816520691,-400000.0625,4270.93994140625,-400000.0625,-400000.0625,1666.5899658203125,-400000.0625,-1902.530029296875,-400000.0625
158.54347848892212,-400000.0625,4271.27001953125,-400000.0625,-400000.0625,1677.989990234375,-400000.0625,-1906.489990234375,-400000.0625
158.55032205581665,-400000.0625,4264.58984375,-400000.0625,-400000.0625,1688.2900390625,-400000.0625,-1883.550048828125,-400000.0625
158.55714893341064,-400000.0625,4280.52001953125,-400000.0625,-400000.0625,1705.030029296875,-400000.0625,-1869.9200439453125,-400000.0625
158.5638782978058,-400000.0625,4275.60986328125,-400000.0625,-400000.0625,1697.1600341796875,-400000.0625,-1883.3599853515625,-400000.0625
158.57070589065552,-400000.0625,4245.85009765625,-400000.0625,-400000.0625,1671.4599609375,-400000.0625,-1913.3599853515625,-400000.0625
158.58706855773926,-400000.0625,4236.89013671875,-400000.0625,-400000.0625,1667.6400146484375,-400000.0625,-1915.219970703125,-400000.0625
158.61285424232483,-400000.0625,4239.60986328125,-400000.0625,-400000.0625,1679.6099853515625,-400000.0625,-1895.760009765625,-400000.0625
158.62468075752258,-400000.0625,4254.33984375,-400000.0625,-400000.0625,1697.1099853515625,-400000.0625,-1882.27001953125,-400000.0625
158.63870120048523,-400000.0625,4259.490234375,-400000.0625,-400000.0625,1709.0799560546875,-400000.0625,-1876.2099609375,-400000.0625
158.65132021903992,-400000.0625,4230.97998046875,-400000.0625,-400000.0625,1690.719970703125,-400000.0625,-1899.6199951171875,-400000.0625
158.65956735610962,-400000.0625,4224.72998046875,-400000.0625,-400000.0625,1670.97998046875,-400000.0625,-1915.219970703125,-400000.0625
158.66832733154297,-400000.0625,4219.33984375,-400000.0625,-400000.0625,1675.1800537109375,-400000.0625,-1910.5,-400000.0625
158.67673134803772,-400000.0625,4222.919921875,-400000.0625,-400000.0625,1698.780029296875,-400000.0625,-1901.530029296875,-400000.0625
158.6904261112213,-400000.0625,4237.1298828125,-400000.0625,-400000.0625,1717.1400146484375,-400000.0625,-1893.1400146484375,-400000.0625
158.7187147140503,-400000.0625,4206.7998046875,-400000.0625,-400000.0625,1699.2099609375,-400000.0625,-1904.010009765625,-400000.0625
158.7335696220398,-400000.0625,4192.8798828125,-400000.0625,-400000.0625,1676.1800537109375,-400000.0625,-1924.9000244140625,-400000.0625
158.7443606853485,-400000.0625,4188.009765625,-400000.0625,-400000.0625,1682.1400146484375,-400000.0625,-1919.699951171875,-400000.0625
158.75560998916626,-400000.0625,4199.41015625,-400000.0625,-400000.0625,1694.72998046875,-400000.0625,-1909.300048828125,-400000.0625
158.76346492767334,-400000.0625,4214.56982421875,-400000.0625,-400000.0625,1709.989990234375,-400000.0625,-1896.1400146484375,-400000.0625
158.77462482452393,-400000.0625,4210.419921875,-400000.0625,-400000.0625,1715.56005859375,-400000.0625,-1900.050048828125,-400000.0625
158.78490471839905,-400000.0625,4182.91015625,-400000.0625,-400000.0625,1684.52001953125,-400000.0625,-1928.6199951171875,-400000.0625
158.79700326919556,-400000.0625,4164.169921875,-400000.0625,-400000.0625,1665.1199951171875,-400000.0625,-1935.199951171875,-400000.0625
158.81580209732056,-400000.0625,4167.1298828125,-400000.0625,-400000.0625,1689.2900390625,-400000.0625,-1929.6199951171875,-400000.0625
158.82233953475952,-400000.0625,4177.47998046875,-400000.0625,-400000.0625,1698.9200439453125,-400000.0625,-1914.9300537109375,-400000.0625
158.82869672775269,-400000.0625,4186.2998046875,-400000.0625,-400000.0625,1715.3299560546875,-400000.0625,-1904.300048828125,-400000.0625
158.8354296684265,-400000.0625,4157.68994140625,-400000.0625,-400000.0625,1698.1600341796875,-400000.0625,-1928.4300537109375,-400000.0625
158.84219551086426,-400000.0625,4132.02978515625,-400000.0625,-400000.0625,1673.5999755859375,-400000.0625,-1953.7900390625,-400000.0625
158.84863758087158,-400000.0625,4135.419921875,-400000.0625,-400000.0625,1679.800048828125,-400000.0625,-1950.31005859375,-400000.0625
158.85514044761658,-400000.0625,4144.52978515625,-400000.0625,-400000.0625,1688.81005859375,-400000.0625,-1946.739990234375,-400000.0625
158.86156034469604,-400000.0625,4159.39990234375,-400000.0625,-400000.0625,1709.27001953125,-400000.0625,-1926.949951171875,-400000.0625
158.86805033683777,-400000.0625,4144.85986328125,-400000.0625,-400000.0625,1709.6500244140625,-400000.0625,-1922.1800537109375,-400000.0625
158.8745596408844,-400000.0625,4114.91015625,-400000.0625,-400000.0625,1682.81005859375,-400000.0625,-1953.97998046875,-400000.0625
158.88105988502502,-400000.0625,4109.3798828125,-400000.0625,-400000.0625,1676.1800537109375,-400000.0625,-1964.0899658203125,-400000.0625
158.8874809741974,-400000.0625,4100.18017578125,-400000.0625,-400000.0625,1685.2900390625,-400000.0625,-1955.3699951171875,-400000.0625
158.89380145072937,-400000.0625,4115.77001953125,-400000.0625,-400000.0625,1699.5,-400000.0625,-1940.5400390625,-400000.0625
158.90015840530396,-400000.0625,4137.330078125,-400000.0625,-400000.0625,1713.6099853515625,-400000.0625,-1931.5699462890625,-400000.0625
158.9229199886322,-400000.0625,4114.33984375,-400000.0625,-400000.0625,1693.25,-400000.0625,-1951.27001953125,-400000.0625
158.93171072006226,-400000.0625,4084.25,-400000.0625,-400000.0625,1670.6500244140625,-400000.0625,-1966.4300537109375,-400000.0625
158.93963432312012,-400000.0625,4072.139892578125,-400000.0625,-400000.0625,1673.699951171875,-400000.0625,-1955.5999755859375,-400000.0625
158.94621682167053,-400000.0625,4089.070068359375,-400000.0625,-400000.0625,1684.0899658203125,-400000.0625,-1948.550048828125,-400000.0625
158.95252895355225,-400000.0625,4092.1201171875,-400000.0625,-400000.0625,1704.449951171875,-400000.0625,-1936.43994140625,-400000.0625
158.95874214172363,-400000.0625,4094.409912109375,-400000.0625,-400000.0625,1703.4100341796875,-400000.0625,-1936.5799560546875,-400000.0625
158.96497750282288,-400000.0625,4070.0,-400000.0625,-400000.0625,1684.6700439453125,-400000.0625,-1957.510009765625,-400000.0625
158.97138714790344,-400000.0625,4061.889892578125,-400000.0625,-400000.0625,1674.3699951171875,-400000.0625,-1965.239990234375,-400000.0625
158.97775101661682,-400000.0625,4070.330078125,-400000.0625,-400000.0625,1681.3800048828125,-400000.0625,-1962.0400390625,-400000.0625
158.98403096199036,-400000.0625,4071.3798828125,-400000.0625,-400000.0625,1696.780029296875,-400000.0625,-1951.8900146484375,-400000.0625
158.99029755592346,-400000.0625,4079.199951171875,-400000.0625,-400000.0625,1706.31005859375,-400000.0625,-1933.1500244140625,-400000.0625
158.99655866622925,-400000.0625,4056.739990234375,-400000.0625,-400000.0625,1688.239990234375,-400000.0625,-1953.6500244140625,-400000.0625
159.0027666091919,-400000.0625,4037.949951171875,-400000.0625,-400000.0625,1670.3599853515625,-400000.0625,-1978.489990234375,-400000.0625
159.02031183242798,-400000.0625,4037.050048828125,-400000.0625,-400000.0625,1670.4100341796875,-400000.0625,-1973.3900146484375,-400000.0625
159.02669620513916,-400000.0625,4041.719970703125,-400000.0625,-400000.0625,1686.6199951171875,-400000.0625,-1960.0400390625,-400000.0625
159.03304505348206,-400000.0625,4064.85009765625,-400000.0625,-400000.0625,1708.1700439453125,-400000.0625,-1943.5899658203125,-400000.0625
159.0392735004425,-400000.0625,4045.06005859375,-400000.0625,-400000.0625,1702.449951171875,-400000.0625,-1956.27001953125,-400000.0625
159.04561519622803,-400000.0625,4020.1201171875,-400000.0625,-400000.0625,1679.7099609375,-400000.0625,-1985.260009765625,-400000.0625
159.05165314674377,-400000.0625,4018.550048828125,-400000.0625,-400000.0625,1679.1300048828125,-400000.0625,-1987.4100341796875,-400000.0625
159.0577256679535,-400000.0625,4026.56005859375,-400000.0625,-400000.0625,1689.3399658203125,-400000.0625,-1980.5899658203125,-400000.0625
159.06400775909424,-400000.0625,4032.989990234375,-400000.0625,-400000.0625,1700.68994140625,-400000.0625,-1974.6800537109375,-400000.0625
159.07030153274536,-400000.0625,4032.760009765625,-400000.0625,-400000.0625,1711.6099853515625,-400000.0625,-1960.469970703125,-400000.0625
159.0764172077179,-400000.0625,4011.06005859375,-400000.0625,-400000.0625,1691.6800537109375,-400000.0625,-1974.6300048828125,-400000.0625
159.08248209953308,-400000.0625,3989.409912109375,-400000.0625,-400000.0625,1672.0799560546875,-400000.0625,-1985.1700439453125,-400000.0625
159.08854818344116,-400000.0625,3997.090087890625,-400000.0625,-400000.0625,1677.56005859375,-400000.0625,-1980.4000244140625,-400000.0625
159.0946068763733,-400000.0625,4007.199951171875,-400000.0625,-400000.0625,1690.9599609375,-400000.0625,-1976.06005859375,-400000.0625
159.10067462921143,-400000.0625,4015.639892578125,-400000.0625,-400000.0625,1709.030029296875,-400000.0625,-1956.3199462890625,-400000.0625
159.1067292690277,-400000.0625,4000.659912109375,-400000.0625,-400000.0625,1700.31005859375,-400000.0625,-1968.5699462890625,-400000.0625
159.12362599372864,-400000.0625,3983.780029296875,-400000.0625,-400000.0625,1673.510009765625,-400000.0625,-2001.8599853515625,-400000.0625
159.12979888916016,-400000.0625,3981.159912109375,-400000.0625,-400000.0625,1667.550048828125,-400000.0625,-1997.6099853515625,-400000.0625
159.1356861591339,-400000.0625,3982.8798828125,-400000.0625,-400000.0625,1681.5699462890625,-400000.0625,-1981.02001953125,-400000.0625
159.14149236679077,-400000.0625,3996.56005859375,-400000.0625,-400000.0625,1706.7900390625,-400000.0625,-1967.47998046875,-400000.0625
159.14734721183777,-400000.0625,3999.469970703125,-400000.0625,-400000.0625,1714.6600341796875,-400000.0625,-1967.050048828125,-400000.0625
159.15319156646729,-400000.0625,3971.580078125,-400000.0625,-400000.0625,1685.4300537109375,-400000.0625,-1996.949951171875,-400000.0625
159.15901803970337,-400000.0625,3951.169921875,-400000.0625,-400000.0625,1669.6500244140625,-400000.0625,-2008.719970703125,-400000.0625
159.16490411758423,-400000.0625,3950.409912109375,-400000.0625,-400000.0625,1672.4100341796875,-400000.0625,-1997.6600341796875,-400000.0625
159.1710135936737,-400000.0625,3966.0,-400000.0625,-400000.0625,1689.010009765625,-400000.0625,-1988.8399658203125,-400000.0625
159.1772539615631,-400000.0625,3989.169921875,-400000.0625,-400000.0625,1714.9000244140625,-400000.0625,-1980.72998046875,-400000.0625
159.18337655067444,-400000.0625,3978.6298828125,-400000.0625,-400000.0625,1703.31005859375,-400000.0625,-1984.0699462890625,-400000.0625
159.18922424316406,-400000.0625,3949.5,-400000.0625,-400000.0625,1676.989990234375,-400000.0625,-2007.2900390625,-400000.0625
159.19518971443176,-400000.0625,3945.489990234375,-400000.0625,-400000.0625,1672.3599853515625,-400000.0625,-2017.68994140625,-400000.0625
159.20102214813232,-400000.0625,3957.93994140625,-400000.0625,-400000.0625,1681.760009765625,-400000.0625,-2004.3900146484375,-400000.0625
159.20695066452026,-400000.0625,3959.93994140625,-400000.0625,-400000.0625,1703.0699462890625,-400000.0625,-1985.5999755859375,-400000.0625
159.22336387634277,-400000.0625,3962.659912109375,-400000.0625,-400000.0625,1711.75,-400000.0625,-1971.9100341796875,-400000.0625
159.2295641899109,-400000.0625,3941.110107421875,-400000.0625,-400000.0625,1678.280029296875,-400000.0625,-2000.8599853515625,-400000.0625
159.2357816696167,-400000.0625,3925.469970703125,-400000.0625,-400000.0625,1663.68994140625,-400000.0625,-2023.27001953125,-400000.0625
159.2420072555542,-400000.0625,3920.219970703125,-400000.0625,-400000.0625,1675.800048828125,-400000.0625,-2006.77001953125,-400000.0625
159.24823355674744,-400000.0625,3929.760009765625,-400000.0625,-400000.0625,1698.0699462890625,-400000.0625,-1995.4200439453125,-400000.0625
159.2544138431549,-400000.0625,3945.260009765625,-400000.0625,-400000.0625,1716.949951171875,-400000.0625,-1985.3599853515625,-400000.0625
159.26070952415466,-400000.0625,3934.77001953125,-400000.0625,-400000.0625,1700.6400146484375,-400000.0625,-2006.0999755859375,-400000.0625
159.26724576950073,-400000.0625,3909.72998046875,-400000.0625,-400000.0625,1667.3599853515625,-400000.0625,-2030.800048828125,-400000.0625
159.27359223365784,-400000.0625,3896.949951171875,-400000.0625,-400000.0625,1680.9000244140625,-400000.0625,-2034.469970703125,-400000.0625
159.2796595096588,-400000.0625,3895.860107421875,-400000.0625,-400000.0625,1690.2900390625,-400000.0625,-2015.4000244140625,-400000.0625
159.2858498096466,-400000.0625,3915.929931640625,-400000.0625,-400000.0625,1702.0699462890625,-400000.0625,-1988.699951171875,-400000.0625
159.29211950302124,-400000.0625,3930.760009765625,-400000.0625,-400000.0625,1705.1199951171875,-400000.0625,-1991.510009765625,-400000.0625
159.29958200454712,-400000.0625,3907.6298828125,-400000.0625,-400000.0625,1682.6600341796875,-400000.0625,-2013.6400146484375,-400000.0625
159.3095498085022,-400000.0625,3893.52001953125,-400000.0625,-400000.0625,1668.5999755859375,-400000.0625,-2016.5899658203125,-400000.0625
159.33672285079956,-400000.0625,3904.9599609375,-400000.0625,-400000.0625,1675.800048828125,-400000.0625,-2016.4000244140625,-400000.0625
159.35019087791443,-400000.0625,3912.590087890625,-400000.0625,-400000.0625,1690.9100341796875,-400000.0625,-2006.3900146484375,-400000.0625
159.36193919181824,-400000.0625,3918.699951171875,-400000.0625,-400000.0625,1717.0400390625,-400000.0625,-1995.989990234375,-400000.0625
159.37469506263733,-400000.0625,3880.31005859375,-400000.0625,-400000.0625,1698.8800048828125,-400000.0625,-2013.1600341796875,-400000.0625
159.38496351242065,-400000.0625,3853.699951171875,-400000.0625,-400000.0625,1665.5,-400000.0625,-2032.3299560546875,-400000.0625
159.39359641075134,-400000.0625,3854.659912109375,-400000.0625,-400000.0625,1664.9200439453125,-400000.0625,-2026.4599609375,-400000.0625
159.40350127220154,-400000.0625,3878.31005859375,-400000.0625,-400000.0625,1681.8499755859375,-400000.0625,-2011.25,-400000.0625
159.41252255439758,-400000.0625,3885.4599609375,-400000.0625,-400000.0625,1701.31005859375,-400000.0625,-1994.3699951171875,-400000.0625
159.43667078018188,-400000.0625,3879.5,-400000.0625,-400000.0625,1701.4000244140625,-400000.0625,-1985.8800048828125,-400000.0625
159.4460165500641,-400000.0625,3843.449951171875,-400000.0625,-400000.0625,1680.0899658203125,-400000.0625,-2015.449951171875,-400000.0625
159.4563286304474,-400000.0625,3829.3798828125,-400000.0625,-400000.0625,1667.9300537109375,-400000.0625,-2021.1199951171875,-400000.0625
159.46578192710876,-400000.0625,3839.919921875,-400000.0625,-400000.0625,1673.1300048828125,-400000.0625,-2012.8299560546875,-400000.0625
159.47520661354065,-400000.0625,3865.909912109375,-400000.0625,-400000.0625,1684.280029296875,-400000.0625,-2006.9599609375,-400000.0625
159.48561263084412,-400000.0625,3877.830078125,-400000.0625,-400000.0625,1704.260009765625,-400000.0625,-1991.989990234375,-400000.0625
159.4966413974762,-400000.0625,3852.800048828125,-400000.0625,-400000.0625,1691.3900146484375,-400000.0625,-2006.3399658203125,-400000.0625
159.50789785385132,-400000.0625,3826.330078125,-400000.0625,-400000.0625,1669.9300537109375,-400000.0625,-2028.1300048828125,-400000.0625
159.5178623199463,-400000.0625,3830.580078125,-400000.0625,-400000.0625,1675.1300048828125,-400000.0625,-2031.8499755859375,-400000.0625
159.54611730575562,-400000.0625,3833.43994140625,-400000.0625,-400000.0625,1684.52001953125,-400000.0625,-2013.449951171875,-400000.0625
159.55645060539246,-400000.0625,3842.8798828125,-400000.0625,-400000.0625,1706.31005859375,-400000.0625,-2004.0999755859375,-400000.0625
159.5662612915039,-400000.0625,3841.31005859375,-400000.0625,-400000.0625,1703.7900390625,-400000.0625,-1998.81005859375,-400000.0625
159.575608253479,-400000.0625,3809.360107421875,-400000.0625,-400000.0625,1673.699951171875,-400000.0625,-2027.27001953125,-400000.0625
159.5857961177826,-400000.0625,3802.820068359375,-400000.0625,-400000.0625,1666.0699462890625,-400000.0625,-2037.81005859375,-400000.0625
159.59535956382751,-400000.0625,3807.2099609375,-400000.0625,-400000.0625,1676.510009765625,-400000.0625,-2026.0799560546875,-400000.0625
159.6055154800415,-400000.0625,3839.300048828125,-400000.0625,-400000.0625,1694.5799560546875,-400000.0625,-2010.199951171875,-400000.0625
159.61459684371948,-400000.0625,3844.169921875,-400000.0625,-400000.0625,1706.5999755859375,-400000.0625,-1998.3800048828125,-400000.0625
159.62449622154236,-400000.0625,3807.1201171875,-400000.0625,-400000.0625,1684.239990234375,-400000.0625,-2019.6400146484375,-400000.0625
159.65578293800354,-400000.0625,3783.889892578125,-400000.0625,-400000.0625,1663.260009765625,-400000.0625,-2044.5799560546875,-400000.0625
159.66509246826172,-400000.0625,3781.989990234375,-400000.0625,-400000.0625,1670.97998046875,-400000.0625,-2041.2900390625,-400000.0625
159.67481112480164,-400000.0625,3812.840087890625,-400000.0625,-400000.0625,1686.949951171875,-400000.0625,-2040.77001953125,-400000.0625
159.68309354782104,-400000.0625,3820.469970703125,-400000.0625,-400000.0625,1703.1199951171875,-400000.0625,-2018.9300537109375,-400000.0625
159.69274067878723,-400000.0625,3813.31005859375,-400000.0625,-400000.0625,1698.2099609375,-400000.0625,-2003.3800048828125,-400000.0625
159.7025547027588,-400000.0625,3790.050048828125,-400000.0625,-400000.0625,1673.4100341796875,-400000.0625,-2032.6099853515625,-400000.0625
159.7122950553894,-400000.0625,3776.550048828125,-400000.0625,-400000.0625,1667.5,-400000.0625,-2042.3900146484375,-400000.0625
159.72170281410217,-400000.0625,3791.090087890625,-400000.0625,-400000.0625,1678.22998046875,-400000.0625,-2022.5999755859375,-400000.0625
159.73117303848267,-400000.0625,3801.010009765625,-400000.0625,-400000.0625,1691.9599609375,-400000.0625,-2008.6300048828125,-400000.0625
159.75703597068787,-400000.0625,3813.219970703125,-400000.0625,-400000.0625,1699.1099853515625,-400000.0625,-2007.5799560546875,-400000.0625
159.76482796669006,-400000.0625,3784.0400390625,-400000.0625,-400000.0625,1680.9000244140625,-400000.0625,-2027.989990234375,-400000.0625
159.7749969959259,-400000.0625,3760.199951171875,-400000.0625,-400000.0625,1667.2099609375,-400000.0625,-2047.5400390625,-400000.0625
159.78530979156494,-400000.0625,3761.239990234375,-400000.0625,-400000.0625,1671.4100341796875,-400000.0625,-2042.3399658203125,-400000.0625
159.79357385635376,-400000.0625,3772.2099609375,-400000.0625,-400000.0625,1681.3800048828125,-400000.0625,-2024.030029296875,-400000.0625
159.80414867401123,-400000.0625,3792.719970703125,-400000.0625,-400000.0625,1700.31005859375,-400000.0625,-2006.9100341796875,-400000.0625
159.81335759162903,-400000.0625,3787.330078125,-400000.0625,-400000.0625,1691.2900390625,-400000.0625,-2018.5,-400000.0625
159.82331252098083,-400000.0625,3756.860107421875,-400000.0625,-400000.0625,1671.219970703125,-400000.0625,-2048.39990234375,-400000.0625
159.8328607082367,-400000.0625,3749.0400390625,-400000.0625,-400000.0625,1674.5999755859375,-400000.0625,-2059.169921875,-400000.0625
159.85878109931946,-400000.0625,3754.090087890625,-400000.0625,-400000.0625,1688.0,-400000.0625,-2039.6199951171875,-400000.0625
159.86858749389648,-400000.0625,3761.909912109375,-400000.0625,-400000.0625,1702.449951171875,-400000.0625,-2020.0699462890625,-400000.0625
159.8774378299713,-400000.0625,3777.31005859375,-400000.0625,-400000.0625,1709.3199462890625,-400000.0625,-2014.3499755859375,-400000.0625
159.8881335258484,-400000.0625,3751.949951171875,-400000.0625,-400000.0625,1681.6099853515625,-400000.0625,-2032.800048828125,-400000.0625
159.89681839942932,-400000.0625,3729.43994140625,-400000.0625,-400000.0625,1667.8800048828125,-400000.0625,-2052.639892578125,-400000.0625
159.9078884124756,-400000.0625,3734.780029296875,-400000.0625,-400000.0625,1679.3299560546875,-400000.0625,-2043.77001953125,-400000.0625
159.91815328598022,-400000.0625,3748.800048828125,-400000.0625,-400000.0625,1689.239990234375,-400000.0625,-2029.280029296875,-400000.0625
159.9274935722351,-400000.0625,3778.510009765625,-400000.0625,-400000.0625,1706.8900146484375,-400000.0625,-2013.3499755859375,-400000.0625
159.93686819076538,-400000.0625,3761.389892578125,-400000.0625,-400000.0625,1697.9200439453125,-400000.0625,-2024.030029296875,-400000.0625
159.9609899520874,-400000.0625,3725.820068359375,-400000.0625,-400000.0625,1671.97998046875,-400000.0625,-2052.639892578125,-400000.0625
159.96968507766724,-400000.0625,3719.85009765625,-400000.0625,-400000.0625,1678.4200439453125,-400000.0625,-2056.550048828125,-400000.0625
159.9778037071228,-400000.0625,3718.280029296875,-400000.0625,-400000.0625,1685.3299560546875,-400000.0625,-2049.830078125,-400000.0625
159.9871859550476,-400000.0625,3733.35009765625,-400000.0625,-400000.0625,1694.8199462890625,-400000.0625,-2032.8499755859375,-400000.0625
159.99720072746277,-400000.0625,3749.280029296875,-400000.0625,-400000.0625,1698.8800048828125,-400000.0625,-2025.219970703125,-400000.0625
160.00705456733704,-400000.0625,3727.25,-400000.0625,-400000.0625,1672.93994140625,-400000.0625,-2045.8199462890625,-400000.0625
160.01772618293762,-400000.0625,3708.27001953125,-400000.0625,-400000.0625,1664.1099853515625,-400000.0625,-2061.3701171875,-400000.0625
160.02954626083374,-400000.0625,3714.179931640625,-400000.0625,-400000.0625,1673.8900146484375,-400000.0625,-2054.739990234375,-400000.0625
160.03796291351318,-400000.0625,3711.989990234375,-400000.0625,-400000.0625,1683.3800048828125,-400000.0625,-2047.1600341796875,-400000.0625
160.06372117996216,-400000.0625,3728.6298828125,-400000.0625,-400000.0625,1704.1199951171875,-400000.0625,-2034.7099609375,-400000.0625
160.07552552223206,-400000.0625,3721.050048828125,-400000.0625,-400000.0625,1699.1099853515625,-400000.0625,-2042.8199462890625,-400000.0625
160.08379983901978,-400000.0625,3692.77001953125,-400000.0625,-400000.0625,1667.1700439453125,-400000.0625,-2063.75,-400000.0625
160.09273958206177,-400000.0625,3697.5400390625,-400000.0625,-400000.0625,1668.739990234375,-400000.0625,-2067.330078125,-400000.0625
160.10166239738464,-400000.0625,3692.389892578125,-400000.0625,-400000.0625,1691.6300048828125,-400000.0625,-2060.320068359375,-400000.0625
160.1093819141388,-400000.0625,3694.06005859375,-400000.0625,-400000.0625,1710.8399658203125,-400000.0625,-2051.5,-400000.0625
160.11852359771729,-400000.0625,3706.030029296875,-400000.0625,-400000.0625,1707.699951171875,-400000.0625,-2034.3800048828125,-400000.0625
160.1277675628662,-400000.0625,3680.3701171875,-400000.0625,-400000.0625,1685.239990234375,-400000.0625,-2064.89990234375,-400000.0625
160.1378471851349,-400000.0625,3641.320068359375,-400000.0625,-400000.0625,1678.75,-400000.0625,-2076.6298828125,-400000.0625
160.14658641815186,-400000.0625,3644.0400390625,-400000.0625,-400000.0625,1692.9200439453125,-400000.0625,-2076.199951171875,-400000.0625
160.17212557792664,-400000.0625,3656.199951171875,-400000.0625,-400000.0625,1708.3199462890625,-400000.0625,-2071.0,-400000.0625
160.18157768249512,-400000.0625,3679.56005859375,-400000.0625,-400000.0625,1724.2900390625,-400000.0625,-2064.75,-400000.0625
160.19086813926697,-400000.0625,3623.43994140625,-400000.0625,-400000.0625,1728.300048828125,-400000.0625,-2081.389892578125,-400000.0625
160.19977641105652,-400000.0625,3578.18994140625,-400000.0625,-400000.0625,1712.510009765625,-400000.0625,-2115.820068359375,-400000.0625
160.2094337940216,-400000.0625,3603.27001953125,-400000.0625,-400000.0625,1711.800048828125,-400000.0625,-2140.570068359375,-400000.0625
160.22057223320007,-400000.0625,3617.330078125,-400000.0625,-400000.0625,1736.3599853515625,-400000.0625,-2144.909912109375,-400000.0625
160.23186945915222,-400000.0625,3601.030029296875,-400000.0625,-400000.0625,1773.3599853515625,-400000.0625,-2143.47998046875,-400000.0625
160.24120450019836,-400000.0625,3585.9599609375,-400000.0625,-400000.0625,1779.56005859375,-400000.0625,-2150.6298828125,-400000.0625
160.24996995925903,-400000.0625,3560.070068359375,-400000.0625,-400000.0625,1759.6199951171875,-400000.0625,-2200.889892578125,-400000.0625
160.27677488327026,-400000.0625,3515.239990234375,-400000.0625,-400000.0625,1763.3900146484375,-400000.0625,-2249.909912109375,-400000.0625
160.2857460975647,-400000.0625,3435.419921875,-400000.0625,-400000.0625,1788.3299560546875,-400000.0625,-2250.860107421875,-400000.0625
160.2937834262848,-400000.0625,3390.68994140625,-400000.0625,-400000.0625,1809.7900390625,-400000.0625,-2260.300048828125,-400000.0625
160.30258440971375,-400000.0625,3376.909912109375,-400000.0625,-400000.0625,1835.9200439453125,-400000.0625,-2278.3798828125,-400000.0625
160.3115782737732,-400000.0625,3315.68994140625,-400000.0625,-400000.0625,1825.4300537109375,-400000.0625,-2313.090087890625,-400000.0625
160.32091689109802,-400000.0625,3211.8798828125,-400000.0625,-400000.0625,1811.9300537109375,-400000.0625,-2342.080078125,-400000.0625
160.32979559898376,-400000.0625,3140.550048828125,-400000.0625,-400000.0625,1816.800048828125,-400000.0625,-2360.300048828125,-400000.0625
160.33950901031494,-400000.0625,3103.449951171875,-400000.0625,-400000.0625,1845.260009765625,-400000.0625,-2353.47998046875,-400000.0625
160.34899878501892,-400000.0625,3090.909912109375,-400000.0625,-400000.0625,1879.5999755859375,-400000.0625,-2353.860107421875,-400000.0625
160.3584201335907,-400000.0625,3045.179931640625,-400000.0625,-400000.0625,1878.02001953125,-400000.0625,-2359.679931640625,-400000.0625
160.38311553001404,-400000.0625,3024.389892578125,-400000.0625,-400000.0625,1837.06005859375,-400000.0625,-2363.489990234375,-400000.0625
160.39258360862732,-400000.0625,3038.550048828125,-400000.0625,-400000.0625,1832.06005859375,-400000.0625,-2368.159912109375,-400000.0625
160.40191864967346,-400000.0625,3045.800048828125,-400000.0625,-400000.0625,1840.31005859375,-400000.0625,-2355.6201171875,-400000.0625
160.41127467155457,-400000.0625,3079.56005859375,-400000.0625,-400000.0625,1848.1700439453125,-400000.0625,-2333.31005859375,-400000.0625
160.42064499855042,-400000.0625,3098.35009765625,-400000.0625,-400000.0625,1850.1800537109375,-400000.0625,-2304.080078125,-400000.0625
160.4283163547516,-400000.0625,3103.639892578125,-400000.0625,-400000.0625,1814.56005859375,-400000.0625,-2315.090087890625,-400000.0625
160.43812012672424,-400000.0625,3106.68994140625,-400000.0625,-400000.0625,1803.489990234375,-400000.0625,-2334.929931640625,-400000.0625
160.44703888893127,-400000.0625,3125.3798828125,-400000.0625,-400000.0625,1801.5899658203125,-400000.0625,-2317.47998046875,-400000.0625
160.45585775375366,-400000.0625,3158.860107421875,-400000.0625,-400000.0625,1811.0799560546875,-400000.0625,-2294.25,-400000.0625
160.46504759788513,-400000.0625,3204.679931640625,-400000.0625,-400000.0625,1823.949951171875,-400000.0625,-2274.469970703125,-400000.0625
160.49499464035034,-400000.0625,3219.64990234375,-400000.0625,-400000.0625,1812.219970703125,-400000.0625,-2275.469970703125,-400000.0625
160.50619983673096,-400000.0625,3201.679931640625,-400000.0625,-400000.0625,1769.4000244140625,-400000.0625,-2292.919921875,-400000.0625
160.51687264442444,-400000.0625,3202.389892578125,-400000.0625,-400000.0625,1763.43994140625,-400000.0625,-2286.669921875,-400000.0625
160.52684879302979,-400000.0625,3234.580078125,-400000.0625,-400000.0625,1774.260009765625,-400000.0625,-2275.22998046875,-400000.0625
160.5393829345703,-400000.0625,3254.4599609375,-400000.0625,-400000.0625,1775.550048828125,-400000.0625,-2235.989990234375,-400000.0625
160.55013704299927,-400000.0625,3283.02001953125,-400000.0625,-400000.0625,1783.989990234375,-400000.0625,-2223.02001953125,-400000.0625
160.56046724319458,-400000.0625,3290.93994140625,-400000.0625,-400000.0625,1762.9100341796875,-400000.0625,-2237.510009765625,-400000.0625
160.56960463523865,-400000.0625,3280.68994140625,-400000.0625,-400000.0625,1739.9300537109375,-400000.0625,-2253.820068359375,-400000.0625
160.59753680229187,-400000.0625,3308.340087890625,-400000.0625,-400000.0625,1742.1199951171875,-400000.0625,-2247.760009765625,-400000.0625
160.60755014419556,-400000.0625,3314.300048828125,-400000.0625,-400000.0625,1749.800048828125,-400000.0625,-2226.31005859375,-400000.0625
160.6185290813446,-400000.0625,3332.52001953125,-400000.0625,-400000.0625,1766.1099853515625,-400000.0625,-2198.169921875,-400000.0625
160.62799525260925,-400000.0625,3347.06005859375,-400000.0625,-400000.0625,1758.2900390625,-400000.0625,-2196.4599609375,-400000.0625
160.6388030052185,-400000.0625,3339.429931640625,-400000.0625,-400000.0625,1727.25,-400000.0625,-2210.429931640625,-400000.0625
160.64819812774658,-400000.0625,3351.1201171875,-400000.0625,-400000.0625,1720.3299560546875,-400000.0625,-2207.52001953125,-400000.0625
160.6605851650238,-400000.0625,3363.89990234375,-400000.0625,-400000.0625,1725.6300048828125,-400000.0625,-2197.5,-400000.0625
160.67030262947083,-400000.0625,3386.639892578125,-400000.0625,-400000.0625,1731.300048828125,-400000.0625,-2189.110107421875,-400000.0625
160.69697427749634,-400000.0625,3399.1298828125,-400000.0625,-400000.0625,1744.219970703125,-400000.0625,-2178.239990234375,-400000.0625
160.70676231384277,-400000.0625,3388.5,-400000.0625,-400000.0625,1729.8199462890625,-400000.0625,-2192.31005859375,-400000.0625
160.71651029586792,-400000.0625,3385.02001953125,-400000.0625,-400000.0625,1707.510009765625,-400000.0625,-2206.610107421875,-400000.0625
160.7257137298584,-400000.0625,3388.739990234375,-400000.0625,-400000.0625,1708.0799560546875,-400000.0625,-2198.030029296875,-400000.0625
160.7363109588623,-400000.0625,3396.989990234375,-400000.0625,-400000.0625,1718.6199951171875,-400000.0625,-2173.139892578125,-400000.0625
160.74483633041382,-400000.0625,3421.739990234375,-400000.0625,-400000.0625,1732.6800537109375,-400000.0625,-2161.360107421875,-400000.0625
160.75448966026306,-400000.0625,3431.179931640625,-400000.0625,-400000.0625,1728.1099853515625,-400000.0625,-2165.56005859375,-400000.0625
160.7636857032776,-400000.0625,3408.860107421875,-400000.0625,-400000.0625,1706.4100341796875,-400000.0625,-2180.860107421875,-400000.0625
160.77485156059265,-400000.0625,3399.89990234375,-400000.0625,-400000.0625,1703.9300537109375,-400000.0625,-2178.0,-400000.0625
160.7987802028656,-400000.0625,3419.260009765625,-400000.0625,-400000.0625,1714.9000244140625,-400000.0625,-2163.97998046875,-400000.0625
160.80702447891235,-400000.0625,3440.090087890625,-400000.0625,-400000.0625,1727.199951171875,-400000.0625,-2148.10009765625,-400000.0625
160.81727004051208,-400000.0625,3444.719970703125,-400000.0625,-400000.0625,1736.550048828125,-400000.0625,-2146.14990234375,-400000.0625
160.8266408443451,-400000.0625,3428.409912109375,-400000.0625,-400000.0625,1711.3199462890625,-400000.0625,-2174.52001953125,-400000.0625
160.83556938171387,-400000.0625,3412.2900390625,-400000.0625,-400000.0625,1693.1500244140625,-400000.0625,-2185.25,-400000.0625
160.84423518180847,-400000.0625,3424.31005859375,-400000.0625,-400000.0625,1700.780029296875,-400000.0625,-2175.090087890625,-400000.0625
160.85272192955017,-400000.0625,3442.719970703125,-400000.0625,-400000.0625,1710.75,-400000.0625,-2159.02001953125,-400000.0625
160.86158418655396,-400000.0625,3455.070068359375,-400000.0625,-400000.0625,1727.489990234375,-400000.0625,-2141.429931640625,-400000.0625
160.87107038497925,-400000.0625,3439.090087890625,-400000.0625,-400000.0625,1717.6199951171875,-400000.0625,-2149.300048828125,-400000.0625
160.8794858455658,-400000.0625,3424.070068359375,-400000.0625,-400000.0625,1691.3900146484375,-400000.0625,-2177.429931640625,-400000.0625
160.90247082710266,-400000.0625,3414.5400390625,-400000.0625,-400000.0625,1689.3900146484375,-400000.0625,-2188.72998046875,-400000.0625
160.9116129875183,-400000.0625,3424.840087890625,-400000.0625,-400000.0625,1696.1600341796875,-400000.0625,-2168.1298828125,-400000.0625
160.92175269126892,-400000.0625,3466.27001953125,-400000.0625,-400000.0625,1713.7099609375,-400000.0625,-2150.820068359375,-400000.0625
160.930894613266,-400000.0625,3475.330078125,-400000.0625,-400000.0625,1721.239990234375,-400000.0625,-2144.81005859375,-400000.0625
160.94006991386414,-400000.0625,3437.659912109375,-400000.0625,-400000.0625,1697.3499755859375,-400000.0625,-2155.72998046875,-400000.0625
160.94919753074646,-400000.0625,3429.699951171875,-400000.0625,-400000.0625,1682.8499755859375,-400000.0625,-2170.280029296875,-400000.0625
160.95890927314758,-400000.0625,3456.969970703125,-400000.0625,-400000.0625,1695.199951171875,-400000.0625,-2158.1201171875,-400000.0625
160.9702970981598,-400000.0625,3462.360107421875,-400000.0625,-400000.0625,1705.4100341796875,-400000.0625,-2147.25,-400000.0625
160.9795060157776,-400000.0625,3468.800048828125,-400000.0625,-400000.0625,1724.4300537109375,-400000.0625,-2134.93994140625,-400000.0625
161.00618696212769,-400000.0625,3462.840087890625,-400000.0625,-400000.0625,1709.1300048828125,-400000.0625,-2147.050048828125,-400000.0625
161.01415729522705,-400000.0625,3435.090087890625,-400000.0625,-400000.0625,1688.0,-400000.0625,-2170.85009765625,-400000.0625
161.0235686302185,-400000.0625,3428.97998046875,-400000.0625,-400000.0625,1693.1500244140625,-400000.0625,-2168.610107421875,-400000.0625
161.03774237632751,-400000.0625,3443.909912109375,-400000.0625,-400000.0625,1702.550048828125,-400000.0625,-2153.969970703125,-400000.0625
161.0467574596405,-400000.0625,3468.3701171875,-400000.0625,-400000.0625,1718.0400390625,-400000.0625,-2136.469970703125,-400000.0625
161.0571689605713,-400000.0625,3473.090087890625,-400000.0625,-400000.0625,1726.9599609375,-400000.0625,-2129.169921875,-400000.0625
161.06620335578918,-400000.0625,3448.530029296875,-400000.0625,-400000.0625,1705.219970703125,-400000.0625,-2153.43994140625,-400000.0625
161.07461547851562,-400000.0625,3437.419921875,-400000.0625,-400000.0625,1688.530029296875,-400000.0625,-2167.22998046875,-400000.0625
161.08413696289062,-400000.0625,3445.719970703125,-400000.0625,-400000.0625,1692.43994140625,-400000.0625,-2157.02001953125,-400000.0625
161.10891938209534,-400000.0625,3461.169921875,-400000.0625,-400000.0625,1710.699951171875,-400000.0625,-2139.0,-400000.0625
161.11784887313843,-400000.0625,3487.06005859375,-400000.0625,-400000.0625,1729.72998046875,-400000.0625,-2133.320068359375,-400000.0625
161.12771797180176,-400000.0625,3454.300048828125,-400000.0625,-400000.0625,1715.800048828125,-400000.0625,-2149.9599609375,-400000.0625
161.13702416419983,-400000.0625,3435.52001953125,-400000.0625,-400000.0625,1688.18994140625,-400000.0625,-2160.97998046875,-400000.0625
161.145605802536,-400000.0625,3442.0,-400000.0625,-400000.0625,1693.3900146484375,-400000.0625,-2158.68994140625,-400000.0625
161.15664505958557,-400000.0625,3453.780029296875,-400000.0625,-400000.0625,1704.260009765625,-400000.0625,-2144.3798828125,-400000.0625
161.16614365577698,-400000.0625,3474.139892578125,-400000.0625,-400000.0625,1723.0999755859375,-400000.0625,-2131.179931640625,-400000.0625
161.1755175590515,-400000.0625,3475.669921875,-400000.0625,-400000.0625,1726.199951171875,-400000.0625,-2132.1298828125,-400000.0625
161.18717288970947,-400000.0625,3452.489990234375,-400000.0625,-400000.0625,1700.02001953125,-400000.0625,-2157.550048828125,-400000.0625
161.21206164360046,-400000.0625,3439.469970703125,-400000.0625,-400000.0625,1687.9599609375,-400000.0625,-2168.320068359375,-400000.0625
161.22896099090576,-400000.0625,3442.81005859375,-400000.0625,-400000.0625,1697.6400146484375,-400000.0625,-2160.5,-400000.0625
161.23837995529175,-400000.0625,3449.43994140625,-400000.0625,-400000.0625,1711.3199462890625,-400000.0625,-2147.530029296875,-400000.0625
161.24784684181213,-400000.0625,3473.7099609375,-400000.0625,-400000.0625,1727.300048828125,-400000.0625,-2124.830078125,-400000.0625
161.25715017318726,-400000.0625,3455.780029296875,-400000.0625,-400000.0625,1707.8900146484375,-400000.0625,-2137.469970703125,-400000.0625
161.26550030708313,-400000.0625,3429.1298828125,-400000.0625,-400000.0625,1681.7099609375,-400000.0625,-2152.25,-400000.0625
161.27460980415344,-400000.0625,3436.85009765625,-400000.0625,-400000.0625,1683.8599853515625,-400000.0625,-2155.8798828125,-400000.0625
161.28457260131836,-400000.0625,3455.110107421875,-400000.0625,-400000.0625,1700.3499755859375,-400000.0625,-2131.889892578125,-400000.0625
161.29368257522583,-400000.0625,3462.169921875,-400000.0625,-400000.0625,1720.6199951171875,-400000.0625,-2113.43994140625,-400000.0625
161.3191556930542,-400000.0625,3453.72998046875,-400000.0625,-400000.0625,1717.8499755859375,-400000.0625,-2115.010009765625,-400000.0625
161.3283190727234,-400000.0625,3444.9599609375,-400000.0625,-400000.0625,1691.0999755859375,-400000.0625,-2144.10009765625,-400000.0625
161.34194898605347,-400000.0625,3429.889892578125,-400000.0625,-400000.0625,1684.3299560546875,-400000.0625,-2149.72998046875,-400000.0625
161.35182547569275,-400000.0625,3438.760009765625,-400000.0625,-400000.0625,1689.3399658203125,-400000.0625,-2131.989990234375,-400000.0625
161.36089515686035,-400000.0625,3454.590087890625,-400000.0625,-400000.0625,1704.260009765625,-400000.0625,-2118.300048828125,-400000.0625
161.37089037895203,-400000.0625,3471.3701171875,-400000.0625,-400000.0625,1724.1500244140625,-400000.0625,-2114.389892578125,-400000.0625
161.3791332244873,-400000.0625,3451.5400390625,-400000.0625,-400000.0625,1711.510009765625,-400000.0625,-2123.929931640625,-400000.0625
161.38953757286072,-400000.0625,3430.27001953125,-400000.0625,-400000.0625,1690.6700439453125,-400000.0625,-2145.14990234375,-400000.0625
161.3977119922638,-400000.0625,3439.469970703125,-400000.0625,-400000.0625,1691.3399658203125,-400000.0625,-2143.9599609375,-400000.0625
161.42369079589844,-400000.0625,3441.10009765625,-400000.0625,-400000.0625,1704.219970703125,-400000.0625,-2137.659912109375,-400000.0625
161.4362313747406,-400000.0625,3466.320068359375,-400000.0625,-400000.0625,1724.0,-400000.0625,-2128.699951171875,-400000.0625
161.4459593296051,-400000.0625,3467.989990234375,-400000.0625,-400000.0625,1723.0999755859375,-400000.0625,-2123.8798828125,-400000.0625
161.4561538696289,-400000.0625,3437.7099609375,-400000.0625,-400000.0625,1695.06005859375,-400000.0625,-2136.949951171875,-400000.0625
161.46488690376282,-400000.0625,3420.5,-400000.0625,-400000.0625,1691.010009765625,-400000.0625,-2143.570068359375,-400000.0625
161.47418689727783,-400000.0625,3430.27001953125,-400000.0625,-400000.0625,1698.969970703125,-400000.0625,-2127.699951171875,-400000.0625
161.4837532043457,-400000.0625,3468.699951171875,-400000.0625,-400000.0625,1711.75,-400000.0625,-2114.919921875,-400000.0625
161.4931676387787,-400000.0625,3490.639892578125,-400000.0625,-400000.0625,1728.1500244140625,-400000.0625,-2118.35009765625,-400000.0625
161.50240635871887,-400000.0625,3455.110107421875,-400000.0625,-400000.0625,1711.4200439453125,-400000.0625,-2128.550048828125,-400000.0625
161.5297315120697,-400000.0625,3431.4599609375,-400000.0625,-400000.0625,1695.199951171875,-400000.0625,-2140.330078125,-400000.0625
161.54162907600403,-400000.0625,3439.139892578125,-400000.0625,-400000.0625,1696.010009765625,-400000.0625,-2127.739990234375,-400000.0625
161.55213522911072,-400000.0625,3450.679931640625,-400000.0625,-400000.0625,1707.550048828125,-400000.0625,-2114.199951171875,-400000.0625
161.5615074634552,-400000.0625,3469.56005859375,-400000.0625,-400000.0625,1722.719970703125,-400000.0625,-2099.469970703125,-400000.0625
161.57154870033264,-400000.0625,3475.330078125,-400000.0625,-400000.0625,1720.6199951171875,-400000.0625,-2108.14990234375,-400000.0625
161.5811631679535,-400000.0625,3445.010009765625,-400000.0625,-400000.0625,1695.489990234375,-400000.0625,-2140.760009765625,-400000.0625
161.5908362865448,-400000.0625,3433.280029296875,-400000.0625,-400000.0625,1689.2900390625,-400000.0625,-2137.22998046875,-400000.0625
161.60149025917053,-400000.0625,3439.239990234375,-400000.0625,-400000.0625,1706.4100341796875,-400000.0625,-2121.39990234375,-400000.0625
161.61048769950867,-400000.0625,3472.0400390625,-400000.0625,-400000.0625,1726.25,-400000.0625,-2109.050048828125,-400000.0625
161.6365716457367,-400000.0625,3480.820068359375,-400000.0625,-400000.0625,1733.6400146484375,-400000.0625,-2095.179931640625,-400000.0625
161.64538407325745,-400000.0625,3444.199951171875,-400000.0625,-400000.0625,1705.1199951171875,-400000.0625,-2119.260009765625,-400000.0625
161.65413665771484,-400000.0625,3436.090087890625,-400000.0625,-400000.0625,1687.2900390625,-400000.0625,-2141.860107421875,-400000.0625
161.66332125663757,-400000.0625,3441.719970703125,-400000.0625,-400000.0625,1697.5899658203125,-400000.0625,-2135.419921875,-400000.0625
161.67263054847717,-400000.0625,3454.590087890625,-400000.0625,-400000.0625,1710.0799560546875,-400000.0625,-2125.60009765625,-400000.0625
161.68211150169373,-400000.0625,3488.06005859375,-400000.0625,-400000.0625,1729.1500244140625,-400000.0625,-2096.840087890625,-400000.0625
161.69077014923096,-400000.0625,3470.090087890625,-400000.0625,-400000.0625,1721.1400146484375,-400000.0625,-2101.0400390625,-400000.0625
161.69969701766968,-400000.0625,3436.949951171875,-400000.0625,-400000.0625,1698.1600341796875,-400000.0625,-2129.889892578125,-400000.0625
161.70867085456848,-400000.0625,3437.469970703125,-400000.0625,-400000.0625,1695.6300048828125,-400000.0625,-2128.550048828125,-400000.0625
161.71789479255676,-400000.0625,3451.969970703125,-400000.0625,-400000.0625,1702.5899658203125,-400000.0625,-2123.8798828125,-400000.0625
161.74450087547302,-400000.0625,3462.360107421875,-400000.0625,-400000.0625,1720.4300537109375,-400000.0625,-2111.530029296875,-400000.0625
161.7548544406891,-400000.0625,3462.550048828125,-400000.0625,-400000.0625,1729.3900146484375,-400000.0625,-2101.52001953125,-400000.0625
161.763249874115,-400000.0625,3446.47998046875,-400000.0625,-400000.0625,1707.030029296875,-400000.0625,-2120.969970703125,-400000.0625
161.77316999435425,-400000.0625,3436.7099609375,-400000.0625,-400000.0625,1693.6800537109375,-400000.0625,-2137.949951171875,-400000.0625
161.78208684921265,-400000.0625,3440.2900390625,-400000.0625,-400000.0625,1704.1199951171875,-400000.0625,-2135.320068359375,-400000.0625
161.79221963882446,-400000.0625,3456.550048828125,-400000.0625,-400000.0625,1718.18994140625,-400000.0625,-2124.639892578125,-400000.0625
161.8013174533844,-400000.0625,3467.1298828125,-400000.0625,-400000.0625,1739.0699462890625,-400000.0625,-2104.52001953125,-400000.0625
161.80930709838867,-400000.0625,3457.070068359375,-400000.0625,-400000.0625,1724.6700439453125,-400000.0625,-2121.110107421875,-400000.0625
161.81858038902283,-400000.0625,3421.5,-400000.0625,-400000.0625,1695.3900146484375,-400000.0625,-2137.179931640625,-400000.0625
161.84463143348694,-400000.0625,3422.8798828125,-400000.0625,-400000.0625,1686.530029296875,-400000.0625,-2139.18994140625,-400000.0625
161.85287427902222,-400000.0625,3451.72998046875,-400000.0625,-400000.0625,1693.9200439453125,-400000.0625,-2133.3701171875,-400000.0625
161.86156916618347,-400000.0625,3461.219970703125,-400000.0625,-400000.0625,1716.7099609375,-400000.0625,-2117.110107421875,-400000.0625
161.871160030365,-400000.0625,3466.179931640625,-400000.0625,-400000.0625,1728.25,-400000.0625,-2112.199951171875,-400000.0625
161.8798189163208,-400000.0625,3449.110107421875,-400000.0625,-400000.0625,1705.5999755859375,-400000.0625,-2143.18994140625,-400000.0625
161.89097952842712,-400000.0625,3422.639892578125,-400000.0625,-400000.0625,1691.25,-400000.0625,-2139.89990234375,-400000.0625
161.90099048614502,-400000.0625,3416.590087890625,-400000.0625,-400000.0625,1696.25,-400000.0625,-2133.93994140625,-400000.0625
161.9104073047638,-400000.0625,3433.469970703125,-400000.0625,-400000.0625,1707.5999755859375,-400000.0625,-2135.280029296875,-400000.0625
161.91950821876526,-400000.0625,3457.260009765625,-400000.0625,-400000.0625,1725.3900146484375,-400000.0625,-2123.929931640625,-400000.0625
161.95286798477173,-400000.0625,3459.260009765625,-400000.0625,-400000.0625,1712.22998046875,-400000.0625,-2126.409912109375,-400000.0625
161.96647095680237,-400000.0625,3437.81005859375,-400000.0625,-400000.0625,1687.239990234375,-400000.0625,-2140.7099609375,-400000.0625
161.98038935661316,-400000.0625,3431.320068359375,-400000.0625,-400000.0625,1685.9100341796875,-400000.0625,-2142.570068359375,-400000.0625
161.9937686920166,-400000.0625,3432.179931640625,-400000.0625,-400000.0625,1696.4000244140625,-400000.0625,-2135.090087890625,-400000.0625
162.0039246082306,-400000.0625,3448.300048828125,-400000.0625,-400000.0625,1716.3299560546875,-400000.0625,-2119.2099609375,-400000.0625
162.01331782341003,-400000.0625,3454.260009765625,-400000.0625,-400000.0625,1723.3900146484375,-400000.0625,-2114.389892578125,-400000.0625
162.02297568321228,-400000.0625,3431.22998046875,-400000.0625,-400000.0625,1701.97998046875,-400000.0625,-2144.909912109375,-400000.0625
162.05425000190735,-400000.0625,3416.679931640625,-400000.0625,-400000.0625,1691.06005859375,-400000.0625,-2155.590087890625,-400000.0625
162.06384253501892,-400000.0625,3423.639892578125,-400000.0625,-400000.0625,1693.72998046875,-400000.0625,-2148.580078125,-400000.0625
162.0736129283905,-400000.0625,3438.3798828125,-400000.0625,-400000.0625,1704.7900390625,-400000.0625,-2136.659912109375,-400000.0625
162.0833878517151,-400000.0625,3469.1298828125,-400000.0625,-400000.0625,1722.3800048828125,-400000.0625,-2115.489990234375,-400000.0625
162.09264039993286,-400000.0625,3445.909912109375,-400000.0625,-400000.0625,1716.280029296875,-400000.0625,-2126.169921875,-400000.0625
162.10260653495789,-400000.0625,3419.5400390625,-400000.0625,-400000.0625,1694.1099853515625,-400000.0625,-2144.81005859375,-400000.0625
162.11172080039978,-400000.0625,3424.169921875,-400000.0625,-400000.0625,1695.8199462890625,-400000.0625,-2147.389892578125,-400000.0625
162.12025237083435,-400000.0625,3411.2900390625,-400000.0625,-400000.0625,1708.97998046875,-400000.0625,-2139.330078125,-400000.0625
162.13036346435547,-400000.0625,3428.64990234375,-400000.0625,-400000.0625,1722.77001953125,-400000.0625,-2121.5400390625,-400000.0625
162.15602087974548,-400000.0625,3464.64990234375,-400000.0625,-400000.0625,1723.6700439453125,-400000.0625,-2111.14990234375,-400000.0625
162.16592144966125,-400000.0625,3443.77001953125,-400000.0625,-400000.0625,1694.9200439453125,-400000.0625,-2142.0,-400000.0625
162.17433071136475,-400000.0625,3425.68994140625,-400000.0625,-400000.0625,1685.0999755859375,-400000.0625,-2147.14990234375,-400000.0625
162.18358707427979,-400000.0625,3447.43994140625,-400000.0625,-400000.0625,1701.02001953125,-400000.0625,-2146.580078125,-400000.0625
162.19293856620789,-400000.0625,3453.06005859375,-400000.0625,-400000.0625,1720.7099609375,-400000.0625,-2143.050048828125,-400000.0625
162.20287466049194,-400000.0625,3460.840087890625,-400000.0625,-400000.0625,1732.4000244140625,-400000.0625,-2133.56005859375,-400000.0625
162.21208810806274,-400000.0625,3443.050048828125,-400000.0625,-400000.0625,1715.3299560546875,-400000.0625,-2139.0400390625,-400000.0625
162.2302598953247,-400000.0625,3415.25,-400000.0625,-400000.0625,1694.010009765625,-400000.0625,-2137.139892578125,-400000.0625
162.23926305770874,-400000.0625,3410.9599609375,-400000.0625,-400000.0625,1690.199951171875,-400000.0625,-2138.469970703125,-400000.0625
162.2642695903778,-400000.0625,3417.06005859375,-400000.0625,-400000.0625,1699.260009765625,-400000.0625,-2131.1298828125,-400000.0625
162.27329921722412,-400000.0625,3440.2900390625,-400000.0625,-400000.0625,1720.949951171875,-400000.0625,-2115.679931640625,-400000.0625
162.2818877696991,-400000.0625,3442.18994140625,-400000.0625,-400000.0625,1719.280029296875,-400000.0625,-2120.110107421875,-400000.0625
162.29097056388855,-400000.0625,3412.6298828125,-400000.0625,-400000.0625,1689.3399658203125,-400000.0625,-2140.81005859375,-400000.0625
162.30036306381226,-400000.0625,3406.909912109375,-400000.0625,-400000.0625,1683.5699462890625,-400000.0625,-2142.949951171875,-400000.0625
162.30988097190857,-400000.0625,3420.969970703125,-400000.0625,-400000.0625,1693.5799560546875,-400000.0625,-2147.6298828125,-400000.0625
162.32059144973755,-400000.0625,3438.659912109375,-400000.0625,-400000.0625,1710.93994140625,-400000.0625,-2132.699951171875,-400000.0625
162.33101058006287,-400000.0625,3446.6298828125,-400000.0625,-400000.0625,1725.0999755859375,-400000.0625,-2104.6201171875,-400000.0625
162.34354281425476,-400000.0625,3420.31005859375,-400000.0625,-400000.0625,1706.8900146484375,-400000.0625,-2120.780029296875,-400000.0625
162.3727777004242,-400000.0625,3408.0,-400000.0625,-400000.0625,1682.5699462890625,-400000.0625,-2147.389892578125,-400000.0625
162.38240122795105,-400000.0625,3415.6298828125,-400000.0625,-400000.0625,1688.6700439453125,-400000.0625,-2145.14990234375,-400000.0625
162.39301919937134,-400000.0625,3414.300048828125,-400000.0625,-400000.0625,1699.449951171875,-400000.0625,-2128.219970703125,-400000.0625
162.4029896259308,-400000.0625,3439.6201171875,-400000.0625,-400000.0625,1723.2900390625,-400000.0625,-2112.8701171875,-400000.0625
162.4114797115326,-400000.0625,3451.6298828125,-400000.0625,-400000.0625,1724.2900390625,-400000.0625,-2119.110107421875,-400000.0625
162.4197347164154,-400000.0625,3401.610107421875,-400000.0625,-400000.0625,1698.449951171875,-400000.0625,-2146.77001953125,-400000.0625
162.4282102584839,-400000.0625,3409.47998046875,-400000.0625,-400000.0625,1685.3800048828125,-400000.0625,-2143.429931640625,-400000.0625
162.43721103668213,-400000.0625,3434.75,-400000.0625,-400000.0625,1696.5400390625,-400000.0625,-2134.280029296875,-400000.0625
162.44508004188538,-400000.0625,3441.6201171875,-400000.0625,-400000.0625,1713.93994140625,-400000.0625,-2119.489990234375,-400000.0625
162.47215628623962,-400000.0625,3444.909912109375,-400000.0625,-400000.0625,1731.5400390625,-400000.0625,-2106.760009765625,-400000.0625
162.48087406158447,-400000.0625,3430.219970703125,-400000.0625,-400000.0625,1707.699951171875,-400000.0625,-2122.739990234375,-400000.0625
162.49119305610657,-400000.0625,3404.239990234375,-400000.0625,-400000.0625,1688.530029296875,-400000.0625,-2139.659912109375,-400000.0625
162.5008020401001,-400000.0625,3419.5,-400000.0625,-400000.0625,1690.77001953125,-400000.0625,-2136.760009765625,-400000.0625
162.51042103767395,-400000.0625,3435.7099609375,-400000.0625,-400000.0625,1705.4100341796875,-400000.0625,-2127.31005859375,-400000.0625
162.51978635787964,-400000.0625,3452.679931640625,-400000.0625,-400000.0625,1724.1500244140625,-400000.0625,-2119.969970703125,-400000.0625
162.52833032608032,-400000.0625,3440.18994140625,-400000.0625,-400000.0625,1716.3800048828125,-400000.0625,-2134.1298828125,-400000.0625
162.5379729270935,-400000.0625,3416.820068359375,-400000.0625,-400000.0625,1683.0400390625,-400000.0625,-2144.050048828125,-400000.0625
162.54736423492432,-400000.0625,3414.110107421875,-400000.0625,-400000.0625,1681.5699462890625,-400000.0625,-2139.6201171875,-400000.0625
162.5748155117035,-400000.0625,3420.39990234375,-400000.0625,-400000.0625,1694.25,-400000.0625,-2132.27001953125,-400000.0625
162.58488249778748,-400000.0625,3429.409912109375,-400000.0625,-400000.0625,1709.27001953125,-400000.0625,-2116.72998046875,-400000.0625
162.5968644618988,-400000.0625,3438.760009765625,-400000.0625,-400000.0625,1722.9100341796875,-400000.0625,-2109.77001953125,-400000.0625
162.6074812412262,-400000.0625,3410.820068359375,-400000.0625,-400000.0625,1705.4599609375,-400000.0625,-2129.75,-400000.0625
162.6191086769104,-400000.0625,3381.2099609375,-400000.0625,-400000.0625,1690.050048828125,-400000.0625,-2156.780029296875,-400000.0625
162.63007521629333,-400000.0625,3387.830078125,-400000.0625,-400000.0625,1699.5400390625,-400000.0625,-2148.580078125,-400000.0625
162.6398787498474,-400000.0625,3431.030029296875,-400000.0625,-400000.0625,1706.97998046875,-400000.0625,-2123.68994140625,-400000.0625
162.65144419670105,-400000.0625,3461.169921875,-400000.0625,-400000.0625,1725.239990234375,-400000.0625,-2100.090087890625,-400000.0625
162.67870378494263,-400000.0625,3449.35009765625,-400000.0625,-400000.0625,1718.7099609375,-400000.0625,-2112.77001953125,-400000.0625
162.6895353794098,-400000.0625,3412.389892578125,-400000.0625,-400000.0625,1694.1099853515625,-400000.0625,-2147.10009765625,-400000.0625
162.7007896900177,-400000.0625,3411.25,-400000.0625,-400000.0625,1689.9599609375,-400000.0625,-2145.860107421875,-400000.0625
162.70986366271973,-400000.0625,3416.919921875,-400000.0625,-400000.0625,1701.8800048828125,-400000.0625,-2132.64990234375,-400000.0625
162.72120904922485,-400000.0625,3431.030029296875,-400000.0625,-400000.0625,1720.81005859375,-400000.0625,-2109.239990234375,-400000.0625
162.73284459114075,-400000.0625,3442.669921875,-400000.0625,-400000.0625,1729.06005859375,-400000.0625,-2108.239990234375,-400000.0625
162.7430613040924,-400000.0625,3423.739990234375,-400000.0625,-400000.0625,1705.7900390625,-400000.0625,-2127.219970703125,-400000.0625
162.7529854774475,-400000.0625,3407.6201171875,-400000.0625,-400000.0625,1690.1500244140625,-400000.0625,-2136.419921875,-400000.0625
162.7785930633545,-400000.0625,3413.389892578125,-400000.0625,-400000.0625,1693.6300048828125,-400000.0625,-2134.56005859375,-400000.0625
162.7900791168213,-400000.0625,3437.419921875,-400000.0625,-400000.0625,1707.97998046875,-400000.0625,-2116.6298828125,-400000.0625
162.80027294158936,-400000.0625,3453.679931640625,-400000.0625,-400000.0625,1725.8199462890625,-400000.0625,-2111.530029296875,-400000.0625
162.81137228012085,-400000.0625,3445.010009765625,-400000.0625,-400000.0625,1719.239990234375,-400000.0625,-2117.43994140625,-400000.0625
162.8240830898285,-400000.0625,3411.9599609375,-400000.0625,-400000.0625,1695.3499755859375,-400000.0625,-2130.3701171875,-400000.0625
162.8347511291504,-400000.0625,3406.050048828125,-400000.0625,-400000.0625,1693.6300048828125,-400000.0625,-2129.64990234375,-400000.0625
162.84512734413147,-400000.0625,3425.4599609375,-400000.0625,-400000.0625,1704.8399658203125,-400000.0625,-2125.219970703125,-400000.0625
162.85606050491333,-400000.0625,3434.3701171875,-400000.0625,-400000.0625,1722.719970703125,-400000.0625,-2099.56005859375,-400000.0625
162.88463640213013,-400000.0625,3440.760009765625,-400000.0625,-400000.0625,1726.3399658203125,-400000.0625,-2103.18994140625,-400000.0625
162.89547967910767,-400000.0625,3418.8798828125,-400000.0625,-400000.0625,1701.4000244140625,-400000.0625,-2129.080078125,-400000.0625
162.90691256523132,-400000.0625,3403.949951171875,-400000.0625,-400000.0625,1691.8699951171875,-400000.0625,-2140.949951171875,-400000.0625
162.91766691207886,-400000.0625,3424.169921875,-400000.0625,-400000.0625,1696.72998046875,-400000.0625,-2139.22998046875,-400000.0625
162.92781829833984,-400000.0625,3437.419921875,-400000.0625,-400000.0625,1709.699951171875,-400000.0625,-2123.5,-400000.0625
162.93852758407593,-400000.0625,3446.14990234375,-400000.0625,-400000.0625,1735.5899658203125,-400000.0625,-2100.179931640625,-400000.0625
162.94848108291626,-400000.0625,3426.739990234375,-400000.0625,-400000.0625,1725.719970703125,-400000.0625,-2108.669921875,-400000.0625
162.9594886302948,-400000.0625,3414.820068359375,-400000.0625,-400000.0625,1702.2099609375,-400000.0625,-2134.989990234375,-400000.0625
162.98874950408936,-400000.0625,3421.780029296875,-400000.0625,-400000.0625,1701.5,-400000.0625,-2146.43994140625,-400000.0625
163.000470161438,-400000.0625,3421.590087890625,-400000.0625,-400000.0625,1707.699951171875,-400000.0625,-2129.889892578125,-400000.0625
163.01056933403015,-400000.0625,3437.18994140625,-400000.0625,-400000.0625,1719.4300537109375,-400000.0625,-2105.89990234375,-400000.0625
163.02120113372803,-400000.0625,3444.9599609375,-400000.0625,-400000.0625,1725.530029296875,-400000.0625,-2104.85009765625,-400000.0625
163.03062796592712,-400000.0625,3410.860107421875,-400000.0625,-400000.0625,1697.489990234375,-400000.0625,-2133.659912109375,-400000.0625
