time,ch1,ch2,ch3,ch4,ch5,ch6,ch7,ch8
135.62082767486572,-400000.0625,-3755.949951171875,-8736.66015625,-400000.0625,-8364.2998046875,-400000.0625,-13710.01953125,-400000.0625
135.64063787460327,-400000.0625,-3735.260009765625,-8714.7197265625,-400000.0625,-8339.98046875,-400000.0625,-13690.08984375,-400000.0625
135.65617299079895,-400000.0625,-3701.159912109375,-8687.5400390625,-400000.0625,-8311.1796875,-400000.0625,-13668.73046875,-400000.0625
135.67091178894043,-400000.0625,-3707.60009765625,-8690.83984375,-400000.0625,-8313.7001953125,-400000.0625,-13670.73046875,-400000.0625
135.68913912773132,-400000.0625,-3737.39990234375,-8725.259765625,-400000.0625,-8351.3701171875,-400000.0625,-13695.099609375,-400000.0625
135.73157835006714,-400000.0625,-3746.610107421875,-8740.66015625,-400000.0625,-8376.0703125,-400000.0625,-13713.7900390625,-400000.0625
135.7478744983673,-400000.0625,-3714.89990234375,-8703.9501953125,-400000.0625,-8334.5400390625,-400000.0625,-13682.8896484375,-400000.0625
135.76061034202576,-400000.0625,-3666.159912109375,-8671.1396484375,-400000.0625,-8305.41015625,-400000.0625,-13645.83984375,-400000.0625
135.77560901641846,-400000.0625,-3672.840087890625,-8678.3896484375,-400000.0625,-8313.6103515625,-400000.0625,-13653.23046875,-400000.0625
135.787588596344,-400000.0625,-3702.260009765625,-8712.150390625,-400000.0625,-8353.1396484375,-400000.0625,-13688.900390625,-400000.0625
135.807058095932,-400000.0625,-3708.7900390625,-8719.6396484375,-400000.0625,-8371.6396484375,-400000.0625,-13697.8203125,-400000.0625
135.84400510787964,-400000.0625,-3674.4599609375,-8679.099609375,-400000.0625,-8332.4404296875,-400000.0625,-13668.25,-400000.0625
135.85620737075806,-400000.0625,-3645.22998046875,-8652.6396484375,-400000.0625,-8297.01953125,-400000.0625,-13653.3798828125,-400000.0625
135.8690984249115,-400000.0625,-3650.0,-8667.3701171875,-400000.0625,-8318.0400390625,-400000.0625,-13665.2001953125,-400000.0625
135.8826241493225,-400000.0625,-3677.320068359375,-8700.7998046875,-400000.0625,-8360.4296875,-400000.0625,-13692.6201171875,-400000.0625
135.89839100837708,-400000.0625,-3689.530029296875,-8710.3896484375,-400000.0625,-8365.1103515625,-400000.0625,-13692.5703125,-400000.0625
135.91334795951843,-400000.0625,-3666.780029296875,-8687.740234375,-400000.0625,-8347.509765625,-400000.0625,-13674.1201171875,-400000.0625
135.94856119155884,-400000.0625,-3633.68994140625,-8660.3203125,-400000.0625,-8314.2802734375,-400000.0625,-13649.0400390625,-400000.0625
135.9583568572998,-400000.0625,-3643.800048828125,-8667.51953125,-400000.0625,-8312.5595703125,-400000.0625,-13647.509765625,-400000.0625
135.96944999694824,-400000.0625,-3669.02001953125,-8690.4501953125,-400000.0625,-8347.3203125,-400000.0625,-13667.2001953125,-400000.0625
135.98377966880798,-400000.0625,-3675.56005859375,-8694.3203125,-400000.0625,-8353.8095703125,-400000.0625,-13680.7900390625,-400000.0625
135.99381923675537,-400000.0625,-3653.340087890625,-8671.8603515625,-400000.0625,-8328.76953125,-400000.0625,-13664.2001953125,-400000.0625
136.00545930862427,-400000.0625,-3626.35009765625,-8648.349609375,-400000.0625,-8294.6796875,-400000.0625,-13642.8798828125,-400000.0625
136.02111053466797,-400000.0625,-3637.1201171875,-8658.7001953125,-400000.0625,-8303.830078125,-400000.0625,-13648.9404296875,-400000.0625
136.06025767326355,-400000.0625,-3668.590087890625,-8686.9697265625,-400000.0625,-8347.990234375,-400000.0625,-13684.7001953125,-400000.0625
136.07482862472534,-400000.0625,-3678.419921875,-8697.4599609375,-400000.0625,-8353.66015625,-400000.0625,-13692.08984375,-400000.0625
136.0864896774292,-400000.0625,-3667.39990234375,-8686.58984375,-400000.0625,-8329.4404296875,-400000.0625,-13679.26953125,-400000.0625
136.10128211975098,-400000.0625,-3642.080078125,-8660.3203125,-400000.0625,-8308.83984375,-400000.0625,-13653.849609375,-400000.0625
136.11835932731628,-400000.0625,-3646.090087890625,-8664.900390625,-400000.0625,-8322.5703125,-400000.0625,-13658.099609375,-400000.0625
136.12874674797058,-400000.0625,-3678.27001953125,-8696.650390625,-400000.0625,-8345.1796875,-400000.0625,-13682.3203125,-400000.0625
136.18779850006104,-400000.0625,-3689.719970703125,-8705.2802734375,-400000.0625,-8348.1298828125,-400000.0625,-13691.8095703125,-400000.0625
136.20276308059692,-400000.0625,-3665.5400390625,-8678.76953125,-400000.0625,-8330.8701171875,-400000.0625,-13675.7900390625,-400000.0625
136.2209711074829,-400000.0625,-3630.35009765625,-8648.73046875,-400000.0625,-8301.3095703125,-400000.0625,-13655.4697265625,-400000.0625
136.23644924163818,-400000.0625,-3636.4599609375,-8656.2197265625,-400000.0625,-8308.2197265625,-400000.0625,-13660.33984375,-400000.0625
136.29099988937378,-400000.0625,-3670.219970703125,-8686.73046875,-400000.0625,-8337.1201171875,-400000.0625,-13683.1796875,-400000.0625
136.3159692287445,-400000.0625,-3680.469970703125,-8698.26953125,-400000.0625,-8359.2900390625,-400000.0625,-13690.330078125,-400000.0625
136.33260440826416,-400000.0625,-3652.050048828125,-8673.5703125,-400000.0625,-8332.58984375,-400000.0625,-13674.169921875,-400000.0625
136.35724449157715,-400000.0625,-3622.199951171875,-8645.33984375,-400000.0625,-8288.240234375,-400000.0625,-13646.650390625,-400000.0625
136.41734170913696,-400000.0625,-3626.72998046875,-8645.8203125,-400000.0625,-8293.5302734375,-400000.0625,-13640.5,-400000.0625
136.44573092460632,-400000.0625,-3674.56005859375,-8690.0703125,-400000.0625,-8355.8095703125,-400000.0625,-13673.1201171875,-400000.0625
136.457505941391,-400000.0625,-3686.239990234375,-8702.9501953125,-400000.0625,-8357.759765625,-400000.0625,-13688.4697265625,-400000.0625
136.51441955566406,-400000.0625,-3662.06005859375,-8679.3896484375,-400000.0625,-8318.51953125,-400000.0625,-13671.8798828125,-400000.0625
136.5257089138031,-400000.0625,-3638.360107421875,-8657.26953125,-400000.0625,-8294.73046875,-400000.0625,-13648.3701171875,-400000.0625
136.55120635032654,-400000.0625,-3644.93994140625,-8663.1298828125,-400000.0625,-8308.98046875,-400000.0625,-13657.759765625,-400000.0625
136.56389379501343,-400000.0625,-3675.889892578125,-8689.7900390625,-400000.0625,-8335.400390625,-400000.0625,-13685.08984375,-400000.0625
136.62194800376892,-400000.0625,-3685.7099609375,-8699.3701171875,-400000.0625,-8342.3095703125,-400000.0625,-13693.759765625,-400000.0625
136.63610768318176,-400000.0625,-3653.570068359375,-8670.0,-400000.0625,-8328.2998046875,-400000.0625,-13666.73046875,-400000.0625
136.6642210483551,-400000.0625,-3626.300048828125,-8645.009765625,-400000.0625,-8299.490234375,-400000.0625,-13634.73046875,-400000.0625
136.75191807746887,-400000.0625,-3634.739990234375,-8656.1201171875,-400000.0625,-8304.4501953125,-400000.0625,-13646.2197265625,-400000.0625
136.77020740509033,-400000.0625,-3682.139892578125,-8706.2802734375,-400000.0625,-8348.3203125,-400000.0625,-13685.5595703125,-400000.0625
136.82177877426147,-400000.0625,-3699.72998046875,-8717.009765625,-400000.0625,-8360.099609375,-400000.0625,-13700.76953125,-400000.0625
136.83981442451477,-400000.0625,-3662.43994140625,-8679.0595703125,-400000.0625,-8323.3798828125,-400000.0625,-13668.349609375,-400000.0625
136.86453318595886,-400000.0625,-3618.2900390625,-8649.5400390625,-400000.0625,-8291.2001953125,-400000.0625,-13635.01953125,-400000.0625
136.8855004310608,-400000.0625,-3621.389892578125,-8659.7900390625,-400000.0625,-8312.26953125,-400000.0625,-13644.3603515625,-400000.0625
136.9278280735016,-400000.0625,-3649.429931640625,-8685.8798828125,-400000.0625,-8340.7900390625,-400000.0625,-13670.2099609375,-400000.0625
136.95433020591736,-400000.0625,-3664.489990234375,-8695.8896484375,-400000.0625,-8354.5703125,-400000.0625,-13683.8896484375,-400000.0625
136.97481775283813,-400000.0625,-3620.669921875,-8663.080078125,-400000.0625,-8331.349609375,-400000.0625,-13649.0400390625,-400000.0625
136.99788689613342,-400000.0625,-3582.669921875,-8631.1796875,-400000.0625,-8294.76953125,-400000.0625,-13619.7099609375,-400000.0625
137.06022882461548,-400000.0625,-3590.300048828125,-8640.580078125,-400000.0625,-8299.919921875,-400000.0625,-13625.48046875,-400000.0625
137.0838327407837,-400000.0625,-3621.050048828125,-8670.8603515625,-400000.0625,-8332.58984375,-400000.0625,-13655.849609375,-400000.0625
137.10106110572815,-400000.0625,-3635.169921875,-8682.009765625,-400000.0625,-8353.9501953125,-400000.0625,-13665.3896484375,-400000.0625
137.1486041545868,-400000.0625,-3608.889892578125,-8654.5498046875,-400000.0625,-8326.2001953125,-400000.0625,-13641.3095703125,-400000.0625
137.16100239753723,-400000.0625,-3564.550048828125,-8614.1103515625,-400000.0625,-8284.240234375,-400000.0625,-13602.259765625,-400000.0625
137.17803764343262,-400000.0625,-3578.6201171875,-8633.1396484375,-400000.0625,-8302.01953125,-400000.0625,-13618.330078125,-400000.0625
137.19454789161682,-400000.0625,-3627.919921875,-8678.33984375,-400000.0625,-8339.98046875,-400000.0625,-13659.8095703125,-400000.0625
137.2092547416687,-400000.0625,-3648.6201171875,-8694.080078125,-400000.0625,-8359.5302734375,-400000.0625,-13675.5498046875,-400000.0625
137.25891757011414,-400000.0625,-3622.580078125,-8671.9501953125,-400000.0625,-8338.7900390625,-400000.0625,-13652.0400390625,-400000.0625
137.27430033683777,-400000.0625,-3591.6298828125,-8643.580078125,-400000.0625,-8298.259765625,-400000.0625,-13624.5302734375,-400000.0625
137.29839372634888,-400000.0625,-3596.5400390625,-8648.2998046875,-400000.0625,-8302.98046875,-400000.0625,-13629.5302734375,-400000.0625
137.3305115699768,-400000.0625,-3633.929931640625,-8683.16015625,-400000.0625,-8348.419921875,-400000.0625,-13662.580078125,-400000.0625
137.38577675819397,-400000.0625,-3645.89990234375,-8692.7900390625,-400000.0625,-8348.3203125,-400000.0625,-13661.6201171875,-400000.0625
137.40906739234924,-400000.0625,-3613.18994140625,-8658.740234375,-400000.0625,-8318.849609375,-400000.0625,-13640.259765625,-400000.0625
137.42535638809204,-400000.0625,-3571.3701171875,-8621.0302734375,-400000.0625,-8301.7802734375,-400000.0625,-13605.8798828125,-400000.0625
137.45576930046082,-400000.0625,-3587.2900390625,-8641.0498046875,-400000.0625,-8310.990234375,-400000.0625,-13613.650390625,-400000.0625
137.5116732120514,-400000.0625,-3627.06005859375,-8677.8203125,-400000.0625,-8345.509765625,-400000.0625,-13655.0400390625,-400000.0625
137.52793622016907,-400000.0625,-3639.889892578125,-8685.6904296875,-400000.0625,-8357.3798828125,-400000.0625,-13668.8203125,-400000.0625
137.55173134803772,-400000.0625,-3610.419921875,-8657.1201171875,-400000.0625,-8328.8701171875,-400000.0625,-13647.6103515625,-400000.0625
137.568701505661,-400000.0625,-3578.090087890625,-8629.509765625,-400000.0625,-8295.25,-400000.0625,-13613.9404296875,-400000.0625
137.620836019516,-400000.0625,-3595.159912109375,-8642.7197265625,-400000.0625,-8311.1298828125,-400000.0625,-13627.150390625,-400000.0625
137.6338927745819,-400000.0625,-3629.8798828125,-8676.4296875,-400000.0625,-8351.849609375,-400000.0625,-13658.8603515625,-400000.0625
137.6577606201172,-400000.0625,-3641.320068359375,-8688.400390625,-400000.0625,-8357.669921875,-400000.0625,-13670.2998046875,-400000.0625
137.67030906677246,-400000.0625,-3615.570068359375,-8664.66015625,-400000.0625,-8324.2900390625,-400000.0625,-13647.1796875,-400000.0625
137.72636890411377,-400000.0625,-3580.18994140625,-8630.3701171875,-400000.0625,-8287.240234375,-400000.0625,-13610.41015625,-400000.0625
137.75220227241516,-400000.0625,-3577.469970703125,-8630.849609375,-400000.0625,-8297.5400390625,-400000.0625,-13604.9296875,-400000.0625
137.76584386825562,-400000.0625,-3605.800048828125,-8660.080078125,-400000.0625,-8328.6298828125,-400000.0625,-13632.58984375,-400000.0625
137.78469061851501,-400000.0625,-3634.360107421875,-8685.73046875,-400000.0625,-8362.3896484375,-400000.0625,-13661.240234375,-400000.0625
137.82692193984985,-400000.0625,-3612.22998046875,-8662.8896484375,-400000.0625,-8342.599609375,-400000.0625,-13644.41015625,-400000.0625
137.84181761741638,-400000.0625,-3585.6298828125,-8637.759765625,-400000.0625,-8314.900390625,-400000.0625,-13617.5595703125,-400000.0625
137.86204624176025,-400000.0625,-3592.679931640625,-8644.6796875,-400000.0625,-8309.41015625,-400000.0625,-13628.150390625,-400000.0625
137.8765959739685,-400000.0625,-3622.820068359375,-8672.669921875,-400000.0625,-8339.259765625,-400000.0625,-13655.0400390625,-400000.0625
137.88776803016663,-400000.0625,-3634.169921875,-8682.0595703125,-400000.0625,-8356.330078125,-400000.0625,-13665.25,-400000.0625
137.94678235054016,-400000.0625,-3607.080078125,-8656.259765625,-400000.0625,-8322.33984375,-400000.0625,-13642.169921875,-400000.0625
137.95898842811584,-400000.0625,-3574.56005859375,-8627.419921875,-400000.0625,-8296.73046875,-400000.0625,-13615.66015625,-400000.0625
137.97312879562378,-400000.0625,-3582.3798828125,-8636.08984375,-400000.0625,-8311.509765625,-400000.0625,-13619.7099609375,-400000.0625
137.99059772491455,-400000.0625,-3616.330078125,-8668.1396484375,-400000.0625,-8336.5,-400000.0625,-13648.6103515625,-400000.0625
138.03199768066406,-400000.0625,-3626.6298828125,-8679.580078125,-400000.0625,-8351.849609375,-400000.0625,-13658.240234375,-400000.0625
138.0451455116272,-400000.0625,-3603.080078125,-8656.98046875,-400000.0625,-8327.580078125,-400000.0625,-13644.98046875,-400000.0625
138.0588834285736,-400000.0625,-3565.8798828125,-8620.0703125,-400000.0625,-8295.009765625,-400000.0625,-13616.5595703125,-400000.0625
138.0753529071808,-400000.0625,-3576.139892578125,-8629.75,-400000.0625,-8305.599609375,-400000.0625,-13617.849609375,-400000.0625
138.10286808013916,-400000.0625,-3617.47998046875,-8670.8603515625,-400000.0625,-8343.41015625,-400000.0625,-13656.4296875,-400000.0625
138.1507785320282,-400000.0625,-3640.840087890625,-8689.400390625,-400000.0625,-8358.5302734375,-400000.0625,-13681.0302734375,-400000.0625
138.1648144721985,-400000.0625,-3616.949951171875,-8664.0400390625,-400000.0625,-8331.9697265625,-400000.0625,-13658.3798828125,-400000.0625
138.1807758808136,-400000.0625,-3576.89990234375,-8627.990234375,-400000.0625,-8291.6298828125,-400000.0625,-13622.1904296875,-400000.0625
138.19321823120117,-400000.0625,-3580.949951171875,-8635.1396484375,-400000.0625,-8305.7900390625,-400000.0625,-13627.150390625,-400000.0625
138.2151701450348,-400000.0625,-3617.3798828125,-8667.2802734375,-400000.0625,-8341.98046875,-400000.0625,-13657.1396484375,-400000.0625
138.25788474082947,-400000.0625,-3629.72998046875,-8674.4296875,-400000.0625,-8354.9501953125,-400000.0625,-13671.0703125,-400000.0625
138.28226590156555,-400000.0625,-3598.68994140625,-8646.1103515625,-400000.0625,-8320.3798828125,-400000.0625,-13640.1201171875,-400000.0625
138.29347681999207,-400000.0625,-3562.39990234375,-8614.4501953125,-400000.0625,-8287.3798828125,-400000.0625,-13613.7998046875,-400000.0625
138.32043528556824,-400000.0625,-3564.68994140625,-8615.1103515625,-400000.0625,-8293.5302734375,-400000.0625,-13614.509765625,-400000.0625
138.36734437942505,-400000.0625,-3607.610107421875,-8653.1201171875,-400000.0625,-8323.48046875,-400000.0625,-13653.7998046875,-400000.0625
138.39044857025146,-400000.0625,-3633.449951171875,-8681.8203125,-400000.0625,-8358.1904296875,-400000.0625,-13677.5498046875,-400000.0625
138.4150128364563,-400000.0625,-3612.570068359375,-8662.650390625,-400000.0625,-8337.9296875,-400000.0625,-13654.1904296875,-400000.0625
138.4266848564148,-400000.0625,-3578.570068359375,-8631.990234375,-400000.0625,-8302.6396484375,-400000.0625,-13627.009765625,-400000.0625
138.48609352111816,-400000.0625,-3576.7099609375,-8631.75,-400000.0625,-8291.580078125,-400000.0625,-13628.3896484375,-400000.0625
138.50350642204285,-400000.0625,-3609.989990234375,-8660.41015625,-400000.0625,-8323.1904296875,-400000.0625,-13654.1396484375,-400000.0625
138.5273129940033,-400000.0625,-3621.77001953125,-8670.3798828125,-400000.0625,-8336.16015625,-400000.0625,-13666.490234375,-400000.0625
138.59332370758057,-400000.0625,-3596.1201171875,-8646.4404296875,-400000.0625,-8323.76953125,-400000.0625,-13648.1298828125,-400000.0625
138.60736346244812,-400000.0625,-3561.39990234375,-8615.2099609375,-400000.0625,-8291.0498046875,-400000.0625,-13615.5595703125,-400000.0625
138.62864089012146,-400000.0625,-3567.97998046875,-8622.4599609375,-400000.0625,-8302.740234375,-400000.0625,-13616.7099609375,-400000.0625
138.66886973381042,-400000.0625,-3606.510009765625,-8658.7001953125,-400000.0625,-8335.2099609375,-400000.0625,-13648.26953125,-400000.0625
138.684818983078,-400000.0625,-3626.43994140625,-8674.76953125,-400000.0625,-8338.5,-400000.0625,-13672.9697265625,-400000.0625
138.6983880996704,-400000.0625,-3595.639892578125,-8643.5302734375,-400000.0625,-8311.3701171875,-400000.0625,-13652.759765625,-400000.0625
138.71216130256653,-400000.0625,-3571.56005859375,-8621.0703125,-400000.0625,-8288.1904296875,-400000.0625,-13632.58984375,-400000.0625
138.7251582145691,-400000.0625,-3583.860107421875,-8632.3701171875,-400000.0625,-8300.349609375,-400000.0625,-13634.01953125,-400000.0625
138.74455165863037,-400000.0625,-3612.659912109375,-8661.4599609375,-400000.0625,-8330.490234375,-400000.0625,-13657.91015625,-400000.0625
138.77931904792786,-400000.0625,-3632.360107421875,-8677.6298828125,-400000.0625,-8345.26953125,-400000.0625,-13676.5,-400000.0625
138.79477310180664,-400000.0625,-3608.22998046875,-8651.73046875,-400000.0625,-8322.33984375,-400000.0625,-13647.83984375,-400000.0625
138.8160412311554,-400000.0625,-3575.989990234375,-8625.080078125,-400000.0625,-8299.01953125,-400000.0625,-13617.4697265625,-400000.0625
138.82643342018127,-400000.0625,-3580.6201171875,-8632.23046875,-400000.0625,-8307.3095703125,-400000.0625,-13625.8095703125,-400000.0625
138.84038066864014,-400000.0625,-3617.330078125,-8662.8896484375,-400000.0625,-8348.1298828125,-400000.0625,-13652.7099609375,-400000.0625
138.85464596748352,-400000.0625,-3629.02001953125,-8673.0498046875,-400000.0625,-8344.990234375,-400000.0625,-13662.3896484375,-400000.0625
138.8895444869995,-400000.0625,-3601.60009765625,-8648.349609375,-400000.0625,-8315.66015625,-400000.0625,-13642.8798828125,-400000.0625
138.9017732143402,-400000.0625,-3570.840087890625,-8620.740234375,-400000.0625,-8299.400390625,-400000.0625,-13611.8896484375,-400000.0625
138.91736435890198,-400000.0625,-3581.3798828125,-8633.849609375,-400000.0625,-8308.26953125,-400000.0625,-13621.0,-400000.0625
138.92762994766235,-400000.0625,-3609.469970703125,-8656.7900390625,-400000.0625,-8322.669921875,-400000.0625,-13640.5,-400000.0625
138.94050908088684,-400000.0625,-3628.35009765625,-8670.3798828125,-400000.0625,-8343.080078125,-400000.0625,-13664.3896484375,-400000.0625
138.95478582382202,-400000.0625,-3616.2900390625,-8660.8896484375,-400000.0625,-8335.6904296875,-400000.0625,-13659.33984375,-400000.0625
138.9880566596985,-400000.0625,-3590.820068359375,-8637.7197265625,-400000.0625,-8303.830078125,-400000.0625,-13632.919921875,-400000.0625
138.99859738349915,-400000.0625,-3593.72998046875,-8643.2900390625,-400000.0625,-8312.5595703125,-400000.0625,-13634.58984375,-400000.0625
139.02058267593384,-400000.0625,-3618.340087890625,-8665.1796875,-400000.0625,-8345.2197265625,-400000.0625,-13652.1796875,-400000.0625
139.03128027915955,-400000.0625,-3627.6298828125,-8673.48046875,-400000.0625,-8347.9404296875,-400000.0625,-13659.099609375,-400000.0625
139.04463720321655,-400000.0625,-3601.64990234375,-8647.73046875,-400000.0625,-8323.0,-400000.0625,-13638.2099609375,-400000.0625
139.05750393867493,-400000.0625,-3570.219970703125,-8618.2099609375,-400000.0625,-8291.48046875,-400000.0625,-13616.5595703125,-400000.0625
139.09264993667603,-400000.0625,-3583.719970703125,-8631.51953125,-400000.0625,-8304.2197265625,-400000.0625,-13629.490234375,-400000.0625
139.10704040527344,-400000.0625,-3613.760009765625,-8661.7001953125,-400000.0625,-8335.7802734375,-400000.0625,-13655.9501953125,-400000.0625
139.11835312843323,-400000.0625,-3621.77001953125,-8669.23046875,-400000.0625,-8346.3701171875,-400000.0625,-13668.5400390625,-400000.0625
139.12813782691956,-400000.0625,-3598.830078125,-8651.0703125,-400000.0625,-8329.25,-400000.0625,-13644.0302734375,-400000.0625
139.14054036140442,-400000.0625,-3572.419921875,-8625.1298828125,-400000.0625,-8292.6796875,-400000.0625,-13617.990234375,-400000.0625
139.15205121040344,-400000.0625,-3570.030029296875,-8621.6904296875,-400000.0625,-8294.2998046875,-400000.0625,-13611.83984375,-400000.0625
139.1640181541443,-400000.0625,-3596.2099609375,-8645.8203125,-400000.0625,-8326.009765625,-400000.0625,-13630.3896484375,-400000.0625
139.19810557365417,-400000.0625,-3624.5400390625,-8670.1396484375,-400000.0625,-8357.7197265625,-400000.0625,-13661.240234375,-400000.0625
139.21108889579773,-400000.0625,-3616.6201171875,-8663.7001953125,-400000.0625,-8336.259765625,-400000.0625,-13657.7099609375,-400000.0625
139.22104167938232,-400000.0625,-3589.489990234375,-8638.5703125,-400000.0625,-8301.5498046875,-400000.0625,-13634.8701171875,-400000.0625
139.23107504844666,-400000.0625,-3594.300048828125,-8645.25,-400000.0625,-8305.8798828125,-400000.0625,-13633.2998046875,-400000.0625
139.2437024116516,-400000.0625,-3628.489990234375,-8678.2001953125,-400000.0625,-8347.3203125,-400000.0625,-13666.1103515625,-400000.0625
139.25513815879822,-400000.0625,-3637.64990234375,-8686.6396484375,-400000.0625,-8359.5302734375,-400000.0625,-13666.8203125,-400000.0625
139.26927018165588,-400000.0625,-3611.22998046875,-8660.7001953125,-400000.0625,-8330.919921875,-400000.0625,-13644.41015625,-400000.0625
139.29979634284973,-400000.0625,-3578.469970703125,-8628.990234375,-400000.0625,-8285.5703125,-400000.0625,-13609.169921875,-400000.0625
139.31235456466675,-400000.0625,-3584.340087890625,-8638.8603515625,-400000.0625,-8301.9697265625,-400000.0625,-13620.2802734375,-400000.0625
139.32402348518372,-400000.0625,-3620.14990234375,-8673.8603515625,-400000.0625,-8353.66015625,-400000.0625,-13655.1396484375,-400000.0625
139.334538936615,-400000.0625,-3637.1201171875,-8687.1201171875,-400000.0625,-8360.91015625,-400000.0625,-13667.8701171875,-400000.0625
139.34728980064392,-400000.0625,-3605.409912109375,-8654.8798828125,-400000.0625,-8328.4404296875,-400000.0625,-13643.9296875,-400000.0625
139.35740280151367,-400000.0625,-3560.39990234375,-8615.4501953125,-400000.0625,-8290.33984375,-400000.0625,-13608.5498046875,-400000.0625
139.36708545684814,-400000.0625,-3584.10009765625,-8640.2900390625,-400000.0625,-8297.25,-400000.0625,-13620.1904296875,-400000.0625
139.380024433136,-400000.0625,-3630.449951171875,-8683.490234375,-400000.0625,-8351.1796875,-400000.0625,-13662.4404296875,-400000.0625
139.41116094589233,-400000.0625,-3642.3701171875,-8693.26953125,-400000.0625,-8353.7099609375,-400000.0625,-13672.0703125,-400000.0625
139.42178797721863,-400000.0625,-3612.22998046875,-8663.509765625,-400000.0625,-8329.73046875,-400000.0625,-13648.6103515625,-400000.0625
139.43166184425354,-400000.0625,-3575.52001953125,-8630.51953125,-400000.0625,-8307.509765625,-400000.0625,-13619.1904296875,-400000.0625
139.44440531730652,-400000.0625,-3581.330078125,-8637.2900390625,-400000.0625,-8316.900390625,-400000.0625,-13621.759765625,-400000.0625
139.45561051368713,-400000.0625,-3611.7099609375,-8666.6103515625,-400000.0625,-8343.169921875,-400000.0625,-13649.419921875,-400000.0625
139.46539092063904,-400000.0625,-3627.679931640625,-8675.669921875,-400000.0625,-8345.83984375,-400000.0625,-13663.009765625,-400000.0625
139.4771420955658,-400000.0625,-3604.219970703125,-8655.3095703125,-400000.0625,-8323.7197265625,-400000.0625,-13639.4501953125,-400000.0625
139.48752355575562,-400000.0625,-3574.419921875,-8630.6103515625,-400000.0625,-8293.25,-400000.0625,-13608.0302734375,-400000.0625
139.51820850372314,-400000.0625,-3585.2900390625,-8638.2900390625,-400000.0625,-8305.5,-400000.0625,-13617.23046875,-400000.0625
139.5270037651062,-400000.0625,-3619.0,-8667.7998046875,-400000.0625,-8336.9697265625,-400000.0625,-13648.1298828125,-400000.0625
139.545227766037,-400000.0625,-3626.5400390625,-8674.240234375,-400000.0625,-8343.509765625,-400000.0625,-13654.5703125,-400000.0625
139.55454421043396,-400000.0625,-3604.93994140625,-8654.6396484375,-400000.0625,-8329.6298828125,-400000.0625,-13640.9296875,-400000.0625
139.566308259964,-400000.0625,-3578.52001953125,-8630.66015625,-400000.0625,-8298.259765625,-400000.0625,-13622.7099609375,-400000.0625
139.57843136787415,-400000.0625,-3587.10009765625,-8637.91015625,-400000.0625,-8302.259765625,-400000.0625,-13625.4296875,-400000.0625
139.5890462398529,-400000.0625,-3614.6201171875,-8665.1796875,-400000.0625,-8338.6396484375,-400000.0625,-13652.990234375,-400000.0625
139.62386107444763,-400000.0625,-3630.68994140625,-8679.4404296875,-400000.0625,-8353.0,-400000.0625,-13668.5400390625,-400000.0625
139.6333954334259,-400000.0625,-3608.22998046875,-8656.5498046875,-400000.0625,-8329.580078125,-400000.0625,-13649.509765625,-400000.0625
139.6491982936859,-400000.0625,-3577.0400390625,-8627.2197265625,-400000.0625,-8291.91015625,-400000.0625,-13620.9501953125,-400000.0625
139.65850186347961,-400000.0625,-3583.9599609375,-8633.51953125,-400000.0625,-8295.7802734375,-400000.0625,-13620.8603515625,-400000.0625
139.671062707901,-400000.0625,-3617.0,-8663.75,-400000.0625,-8328.2001953125,-400000.0625,-13649.8896484375,-400000.0625
139.68320322036743,-400000.0625,-3635.360107421875,-8679.7197265625,-400000.0625,-8349.2802734375,-400000.0625,-13668.400390625,-400000.0625
139.69317984580994,-400000.0625,-3607.3701171875,-8655.3603515625,-400000.0625,-8330.5400390625,-400000.0625,-13652.51953125,-400000.0625
139.72743439674377,-400000.0625,-3563.68994140625,-8615.58984375,-400000.0625,-8290.8203125,-400000.0625,-13616.1298828125,-400000.0625
139.7470383644104,-400000.0625,-3560.39990234375,-8614.6796875,-400000.0625,-8284.8603515625,-400000.0625,-13611.3203125,-400000.0625
139.75687384605408,-400000.0625,-3603.97998046875,-8654.9296875,-400000.0625,-8319.9501953125,-400000.0625,-13649.9404296875,-400000.0625
139.7684042453766,-400000.0625,-3630.72998046875,-8680.2998046875,-400000.0625,-8348.080078125,-400000.0625,-13669.6396484375,-400000.0625
139.7810573577881,-400000.0625,-3605.320068359375,-8659.169921875,-400000.0625,-8323.76953125,-400000.0625,-13648.4599609375,-400000.0625
139.79023671150208,-400000.0625,-3565.449951171875,-8623.740234375,-400000.0625,-8284.6201171875,-400000.0625,-13613.6103515625,-400000.0625
139.80143094062805,-400000.0625,-3579.090087890625,-8634.66015625,-400000.0625,-8301.9697265625,-400000.0625,-13622.1396484375,-400000.0625
139.8415231704712,-400000.0625,-3613.280029296875,-8664.66015625,-400000.0625,-8338.400390625,-400000.0625,-13650.900390625,-400000.0625
139.85322451591492,-400000.0625,-3624.110107421875,-8674.76953125,-400000.0625,-8348.0400390625,-400000.0625,-13655.849609375,-400000.0625
139.86656737327576,-400000.0625,-3601.030029296875,-8648.2099609375,-400000.0625,-8320.759765625,-400000.0625,-13640.5498046875,-400000.0625
139.8809154033661,-400000.0625,-3566.7900390625,-8617.16015625,-400000.0625,-8282.0400390625,-400000.0625,-13614.080078125,-400000.0625
139.89110326766968,-400000.0625,-3572.989990234375,-8625.4599609375,-400000.0625,-8289.5302734375,-400000.0625,-13616.2802734375,-400000.0625
139.9070544242859,-400000.0625,-3606.3701171875,-8657.0302734375,-400000.0625,-8333.6396484375,-400000.0625,-13641.6904296875,-400000.0625
139.93926286697388,-400000.0625,-3619.2900390625,-8668.1396484375,-400000.0625,-8351.990234375,-400000.0625,-13648.23046875,-400000.0625
139.95501565933228,-400000.0625,-3581.10009765625,-8637.8603515625,-400000.0625,-8317.1396484375,-400000.0625,-13625.6201171875,-400000.0625
139.96717262268066,-400000.0625,-3565.070068359375,-8623.9296875,-400000.0625,-8292.6298828125,-400000.0625,-13611.26953125,-400000.0625
139.97879815101624,-400000.0625,-3589.43994140625,-8641.2001953125,-400000.0625,-8303.6904296875,-400000.0625,-13625.91015625,-400000.0625
139.99001622200012,-400000.0625,-3621.669921875,-8669.8095703125,-400000.0625,-8328.76953125,-400000.0625,-13659.6201171875,-400000.0625
140.0016746520996,-400000.0625,-3633.929931640625,-8683.58984375,-400000.0625,-8352.4697265625,-400000.0625,-13669.5400390625,-400000.0625
140.02225351333618,-400000.0625,-3605.699951171875,-8658.7001953125,-400000.0625,-8319.1904296875,-400000.0625,-13644.8896484375,-400000.0625
140.05639934539795,-400000.0625,-3572.75,-8626.26953125,-400000.0625,-8284.0,-400000.0625,-13613.26953125,-400000.0625
140.06864404678345,-400000.0625,-3579.89990234375,-8634.9501953125,-400000.0625,-8306.080078125,-400000.0625,-13615.4697265625,-400000.0625
140.0811026096344,-400000.0625,-3613.469970703125,-8664.66015625,-400000.0625,-8336.7802734375,-400000.0625,-13647.26953125,-400000.0625
140.09062719345093,-400000.0625,-3630.969970703125,-8679.009765625,-400000.0625,-8349.0400390625,-400000.0625,-13659.1904296875,-400000.0625
140.10287761688232,-400000.0625,-3600.739990234375,-8647.73046875,-400000.0625,-8320.6201171875,-400000.0625,-13633.4404296875,-400000.0625
140.11867880821228,-400000.0625,-3565.8798828125,-8612.73046875,-400000.0625,-8283.4296875,-400000.0625,-13601.8798828125,-400000.0625
140.12841081619263,-400000.0625,-3578.760009765625,-8628.990234375,-400000.0625,-8296.490234375,-400000.0625,-13616.23046875,-400000.0625
140.16544651985168,-400000.0625,-3620.199951171875,-8670.1396484375,-400000.0625,-8339.4501953125,-400000.0625,-13654.330078125,-400000.0625
140.1792185306549,-400000.0625,-3633.929931640625,-8681.4404296875,-400000.0625,-8348.1796875,-400000.0625,-13667.73046875,-400000.0625
140.1904706954956,-400000.0625,-3601.64990234375,-8650.490234375,-400000.0625,-8319.0,-400000.0625,-13641.8798828125,-400000.0625
140.20559573173523,-400000.0625,-3569.840087890625,-8618.7802734375,-400000.0625,-8300.400390625,-400000.0625,-13614.509765625,-400000.0625
140.21838760375977,-400000.0625,-3579.18994140625,-8627.6103515625,-400000.0625,-8305.41015625,-400000.0625,-13619.7099609375,-400000.0625
140.22742247581482,-400000.0625,-3608.179931640625,-8658.3095703125,-400000.0625,-8331.7802734375,-400000.0625,-13639.7900390625,-400000.0625
140.24561429023743,-400000.0625,-3616.760009765625,-8664.990234375,-400000.0625,-8341.4599609375,-400000.0625,-13648.5595703125,-400000.0625
140.2767629623413,-400000.0625,-3581.10009765625,-8632.08984375,-400000.0625,-8302.169921875,-400000.0625,-13617.66015625,-400000.0625
140.28824663162231,-400000.0625,-3552.77001953125,-8607.669921875,-400000.0625,-8281.900390625,-400000.0625,-13595.8203125,-400000.0625
140.30375623703003,-400000.0625,-3574.3701171875,-8626.3203125,-400000.0625,-8308.98046875,-400000.0625,-13609.0302734375,-400000.0625
140.31568789482117,-400000.0625,-3612.800048828125,-8662.509765625,-400000.0625,-8340.98046875,-400000.0625,-13647.75,-400000.0625
140.32496094703674,-400000.0625,-3628.830078125,-8672.91015625,-400000.0625,-8343.75,-400000.0625,-13659.240234375,-400000.0625
140.34590601921082,-400000.0625,-3600.8798828125,-8645.33984375,-400000.0625,-8316.6103515625,-400000.0625,-13634.2998046875,-400000.0625
140.3808925151825,-400000.0625,-3567.550048828125,-8616.8798828125,-400000.0625,-8279.0400390625,-400000.0625,-13602.7802734375,-400000.0625
140.39085841178894,-400000.0625,-3573.510009765625,-8624.4599609375,-400000.0625,-8294.8701171875,-400000.0625,-13606.599609375,-400000.0625
140.4051752090454,-400000.0625,-3601.60009765625,-8653.8798828125,-400000.0625,-8333.0595703125,-400000.0625,-13631.5400390625,-400000.0625
140.41708135604858,-400000.0625,-3618.2900390625,-8665.990234375,-400000.0625,-8338.259765625,-400000.0625,-13646.7900390625,-400000.0625
140.42642068862915,-400000.0625,-3598.97998046875,-8646.8701171875,-400000.0625,-8315.75,-400000.0625,-13632.0595703125,-400000.0625
140.4402370452881,-400000.0625,-3567.550048828125,-8620.0703125,-400000.0625,-8287.9599609375,-400000.0625,-13603.2099609375,-400000.0625
140.45264220237732,-400000.0625,-3574.56005859375,-8627.26953125,-400000.0625,-8289.5302734375,-400000.0625,-13607.0703125,-400000.0625
140.49234008789062,-400000.0625,-3600.929931640625,-8651.9697265625,-400000.0625,-8316.990234375,-400000.0625,-13630.3896484375,-400000.0625
140.50883674621582,-400000.0625,-3620.820068359375,-8670.1396484375,-400000.0625,-8347.1298828125,-400000.0625,-13645.3603515625,-400000.0625
140.51973152160645,-400000.0625,-3609.510009765625,-8659.7001953125,-400000.0625,-8332.2099609375,-400000.0625,-13634.400390625,-400000.0625
140.52964282035828,-400000.0625,-3575.659912109375,-8628.3203125,-400000.0625,-8301.349609375,-400000.0625,-13604.2099609375,-400000.0625
140.54839444160461,-400000.0625,-3575.610107421875,-8629.3701171875,-400000.0625,-8305.169921875,-400000.0625,-13605.5,-400000.0625
140.55787873268127,-400000.0625,-3607.989990234375,-8658.1201171875,-400000.0625,-8321.5703125,-400000.0625,-13633.009765625,-400000.0625
140.59191966056824,-400000.0625,-3627.5400390625,-8676.669921875,-400000.0625,-8337.3095703125,-400000.0625,-13649.6103515625,-400000.0625
140.60511326789856,-400000.0625,-3598.550048828125,-8648.6796875,-400000.0625,-8307.509765625,-400000.0625,-13631.25,-400000.0625
140.61622977256775,-400000.0625,-3565.60009765625,-8619.0703125,-400000.0625,-8285.8095703125,-400000.0625,-13605.2099609375,-400000.0625
140.637127161026,-400000.0625,-3556.590087890625,-8611.009765625,-400000.0625,-8244.51953125,-400000.0625,-13578.4599609375,-400000.0625
140.6372172832489,-400000.0625,-3596.8798828125,-8644.5302734375,-400000.0625,-8271.599609375,-400000.0625,-13608.98046875,-400000.0625
140.63723826408386,-400000.0625,-3616.3798828125,-8665.51953125,-400000.0625,-8295.8203125,-400000.0625,-13632.3896484375,-400000.0625
140.63725686073303,-400000.0625,-3598.550048828125,-8651.400390625,-400000.0625,-8280.3701171875,-400000.0625,-13618.3798828125,-400000.0625
140.63727378845215,-400000.0625,-3565.030029296875,-8616.01953125,-400000.0625,-8248.51953125,-400000.0625,-13581.330078125,-400000.0625
140.637291431427,-400000.0625,-3561.68994140625,-8610.490234375,-400000.0625,-8251.2900390625,-400000.0625,-13576.3701171875,-400000.0625
140.6373085975647,-400000.0625,-3591.35009765625,-8639.5302734375,-400000.0625,-8284.900390625,-400000.0625,-13606.650390625,-400000.0625
140.63732600212097,-400000.0625,-3624.25,-8667.0400390625,-400000.0625,-8301.830078125,-400000.0625,-13633.1103515625,-400000.0625
140.63734245300293,-400000.0625,-3611.89990234375,-8650.490234375,-400000.0625,-8279.1298828125,-400000.0625,-13620.9501953125,-400000.0625
140.63735914230347,-400000.0625,-3573.93994140625,-8617.349609375,-400000.0625,-8238.41015625,-400000.0625,-13589.76953125,-400000.0625
140.63737535476685,-400000.0625,-3559.969970703125,-8610.8203125,-400000.0625,-8235.5498046875,-400000.0625,-13578.080078125,-400000.0625
140.63739204406738,-400000.0625,-3583.530029296875,-8637.1396484375,-400000.0625,-8262.16015625,-400000.0625,-13590.150390625,-400000.0625
140.63740873336792,-400000.0625,-3605.27001953125,-8656.9296875,-400000.0625,-8293.490234375,-400000.0625,-13612.4599609375,-400000.0625
140.63742542266846,-400000.0625,-3607.179931640625,-8658.98046875,-400000.0625,-8307.0302734375,-400000.0625,-13618.5703125,-400000.0625
140.63744163513184,-400000.0625,-3574.89990234375,-8625.3701171875,-400000.0625,-8266.9296875,-400000.0625,-13591.2900390625,-400000.0625
140.6374590396881,-400000.0625,-3568.030029296875,-8615.919921875,-400000.0625,-8243.7001953125,-400000.0625,-13580.23046875,-400000.0625
140.6374762058258,-400000.0625,-3594.070068359375,-8642.0498046875,-400000.0625,-8269.98046875,-400000.0625,-13602.349609375,-400000.0625
140.63749289512634,-400000.0625,-3617.050048828125,-8661.3203125,-400000.0625,-8284.1904296875,-400000.0625,-13617.900390625,-400000.0625
140.63750982284546,-400000.0625,-3610.179931640625,-8653.6396484375,-400000.0625,-8280.0400390625,-400000.0625,-13608.3603515625,-400000.0625
140.63752675056458,-400000.0625,-3575.179931640625,-8625.3203125,-400000.0625,-8259.6298828125,-400000.0625,-13583.4697265625,-400000.0625
140.63754391670227,-400000.0625,-3565.68994140625,-8615.6904296875,-400000.0625,-8249.6201171875,-400000.0625,-13572.5,-400000.0625
140.63756203651428,-400000.0625,-3596.1201171875,-8644.8701171875,-400000.0625,-8272.2197265625,-400000.0625,-13592.669921875,-400000.0625
140.63757872581482,-400000.0625,-3618.10009765625,-8665.849609375,-400000.0625,-8293.490234375,-400000.0625,-13621.2802734375,-400000.0625
140.63759541511536,-400000.0625,-3597.8798828125,-8647.7802734375,-400000.0625,-8281.330078125,-400000.0625,-13608.5498046875,-400000.0625
140.63761138916016,-400000.0625,-3563.68994140625,-8613.400390625,-400000.0625,-8245.759765625,-400000.0625,-13582.0400390625,-400000.0625
140.63762784004211,-400000.0625,-3554.679931640625,-8600.9501953125,-400000.0625,-8229.4501953125,-400000.0625,-13573.7001953125,-400000.0625
140.63764929771423,-400000.0625,-3579.469970703125,-8622.169921875,-400000.0625,-8253.1904296875,-400000.0625,-13588.2900390625,-400000.0625
140.6376657485962,-400000.0625,-3620.860107421875,-8663.9404296875,-400000.0625,-8299.2099609375,-400000.0625,-13636.01953125,-400000.0625
140.63768219947815,-400000.0625,-3617.6201171875,-8664.4697265625,-400000.0625,-8296.8203125,-400000.0625,-13633.7802734375,-400000.0625
140.63769817352295,-400000.0625,-3580.6201171875,-8631.0400390625,-400000.0625,-8260.0595703125,-400000.0625,-13589.3798828125,-400000.0625
140.6377146244049,-400000.0625,-3571.4599609375,-8623.3095703125,-400000.0625,-8254.8203125,-400000.0625,-13574.650390625,-400000.0625
140.63773107528687,-400000.0625,-3594.489990234375,-8645.76953125,-400000.0625,-8269.740234375,-400000.0625,-13593.9599609375,-400000.0625
140.63774704933167,-400000.0625,-3619.10009765625,-8663.26953125,-400000.0625,-8287.48046875,-400000.0625,-13619.4697265625,-400000.0625
140.63776421546936,-400000.0625,-3603.409912109375,-8645.8701171875,-400000.0625,-8277.6103515625,-400000.0625,-13607.3095703125,-400000.0625
140.6377809047699,-400000.0625,-3561.159912109375,-8609.9599609375,-400000.0625,-8237.26953125,-400000.0625,-13578.1298828125,-400000.0625
140.63779735565186,-400000.0625,-3550.860107421875,-8601.51953125,-400000.0625,-8227.7802734375,-400000.0625,-13571.4501953125,-400000.0625
140.63781332969666,-400000.0625,-3584.81005859375,-8630.1298828125,-400000.0625,-8269.7900390625,-400000.0625,-13600.6396484375,-400000.0625
140.63782954216003,-400000.0625,-3610.89990234375,-8656.5498046875,-400000.0625,-8293.1103515625,-400000.0625,-13618.7998046875,-400000.0625
140.63784527778625,-400000.0625,-3595.39990234375,-8645.6796875,-400000.0625,-8272.26953125,-400000.0625,-13603.98046875,-400000.0625
140.63786125183105,-400000.0625,-3577.0400390625,-8628.26953125,-400000.0625,-8246.4697265625,-400000.0625,-13581.330078125,-400000.0625
140.63789415359497,-400000.0625,-3572.610107421875,-8623.5498046875,-400000.0625,-8243.5595703125,-400000.0625,-13578.0400390625,-400000.0625
140.63791060447693,-400000.0625,-3604.4599609375,-8652.0703125,-400000.0625,-8280.990234375,-400000.0625,-13609.4599609375,-400000.0625
140.63792657852173,-400000.0625,-3630.35009765625,-8676.5302734375,-400000.0625,-8312.509765625,-400000.0625,-13635.2099609375,-400000.0625
140.6379427909851,-400000.0625,-3613.949951171875,-8656.41015625,-400000.0625,-8291.6298828125,-400000.0625,-13616.66015625,-400000.0625
140.6379587650299,-400000.0625,-3578.419921875,-8622.4599609375,-400000.0625,-8253.0498046875,-400000.0625,-13590.8603515625,-400000.0625
140.63797521591187,-400000.0625,-3566.550048828125,-8614.58984375,-400000.0625,-8238.3603515625,-400000.0625,-13576.7998046875,-400000.0625
140.6379909515381,-400000.0625,-3590.35009765625,-8638.48046875,-400000.0625,-8265.3095703125,-400000.0625,-13603.6396484375,-400000.0625
140.6380066871643,-400000.0625,-3622.530029296875,-8666.6103515625,-400000.0625,-8296.919921875,-400000.0625,-13628.48046875,-400000.0625
140.63806748390198,-400000.0625,-3611.659912109375,-8655.7900390625,-400000.0625,-8283.0,-400000.0625,-13616.419921875,-400000.0625
140.63811802864075,-400000.0625,-3575.280029296875,-8619.4501953125,-400000.0625,-8247.23046875,-400000.0625,-13587.51953125,-400000.0625
140.63812708854675,-400000.0625,-3563.360107421875,-8608.490234375,-400000.0625,-8245.1796875,-400000.0625,-13578.7998046875,-400000.0625
140.63813400268555,-400000.0625,-3592.919921875,-8637.3798828125,-400000.0625,-8270.41015625,-400000.0625,-13601.01953125,-400000.0625
140.6381413936615,-400000.0625,-3611.659912109375,-8655.3603515625,-400000.0625,-8287.7197265625,-400000.0625,-13619.0400390625,-400000.0625
140.63814854621887,-400000.0625,-3609.280029296875,-8654.2099609375,-400000.0625,-8287.0498046875,-400000.0625,-13622.9501953125,-400000.0625
140.63815569877625,-400000.0625,-3581.760009765625,-8630.849609375,-400000.0625,-8259.6298828125,-400000.0625,-13597.490234375,-400000.0625
140.6381630897522,-400000.0625,-3567.929931640625,-8621.599609375,-400000.0625,-8243.990234375,-400000.0625,-13588.2900390625,-400000.0625
140.638170003891,-400000.0625,-3592.2099609375,-8641.009765625,-400000.0625,-8269.740234375,-400000.0625,-13604.6904296875,-400000.0625
140.63817691802979,-400000.0625,-3620.6201171875,-8662.8896484375,-400000.0625,-8303.4501953125,-400000.0625,-13630.5302734375,-400000.0625
140.63818383216858,-400000.0625,-3607.1298828125,-8651.5,-400000.0625,-8282.9501953125,-400000.0625,-13619.23046875,-400000.0625
140.6381905078888,-400000.0625,-3568.030029296875,-8615.0703125,-400000.0625,-8242.3701171875,-400000.0625,-13593.0595703125,-400000.0625
140.6381974220276,-400000.0625,-3563.1201171875,-8607.25,-400000.0625,-8245.51953125,-400000.0625,-13582.66015625,-400000.0625
140.6382040977478,-400000.0625,-3594.159912109375,-8638.0,-400000.0625,-8277.7001953125,-400000.0625,-13604.3603515625,-400000.0625
140.63821077346802,-400000.0625,-3621.2900390625,-8668.08984375,-400000.0625,-8307.83984375,-400000.0625,-13630.25,-400000.0625
140.6382176876068,-400000.0625,-3608.56005859375,-8654.7900390625,-400000.0625,-8300.73046875,-400000.0625,-13614.6103515625,-400000.0625
140.6382246017456,-400000.0625,-3578.0,-8624.2197265625,-400000.0625,-8256.76953125,-400000.0625,-13589.4296875,-400000.0625
140.63823127746582,-400000.0625,-3568.97998046875,-8613.1103515625,-400000.0625,-8228.259765625,-400000.0625,-13577.419921875,-400000.0625
140.63824367523193,-400000.0625,-3581.18994140625,-8628.4599609375,-400000.0625,-8255.9599609375,-400000.0625,-13587.8095703125,-400000.0625
140.63825058937073,-400000.0625,-3608.889892578125,-8653.2099609375,-400000.0625,-8295.16015625,-400000.0625,-13620.1396484375,-400000.0625
140.63825750350952,-400000.0625,-3613.659912109375,-8655.3095703125,-400000.0625,-8294.3896484375,-400000.0625,-13625.0498046875,-400000.0625
140.63826417922974,-400000.0625,-3580.47998046875,-8627.3203125,-400000.0625,-8267.1201171875,-400000.0625,-13597.490234375,-400000.0625
140.63827109336853,-400000.0625,-3573.699951171875,-8624.0302734375,-400000.0625,-8260.3896484375,-400000.0625,-13587.5703125,-400000.0625
140.63827776908875,-400000.0625,-3598.1201171875,-8646.6796875,-400000.0625,-8274.3701171875,-400000.0625,-13604.3095703125,-400000.0625
140.63828468322754,-400000.0625,-3623.6298828125,-8673.5703125,-400000.0625,-8296.400390625,-400000.0625,-13629.009765625,-400000.0625
140.63829159736633,-400000.0625,-3619.9599609375,-8665.51953125,-400000.0625,-8292.6796875,-400000.0625,-13625.48046875,-400000.0625
140.63829851150513,-400000.0625,-3580.669921875,-8626.8896484375,-400000.0625,-8261.2998046875,-400000.0625,-13589.9599609375,-400000.0625
140.63830518722534,-400000.0625,-3559.969970703125,-8608.6298828125,-400000.0625,-8240.7998046875,-400000.0625,-13578.419921875,-400000.0625
140.6383125782013,-400000.0625,-3595.110107421875,-8638.4296875,-400000.0625,-8277.7001953125,-400000.0625,-13605.3095703125,-400000.0625
140.6383192539215,-400000.0625,-3626.300048828125,-8669.0,-400000.0625,-8301.830078125,-400000.0625,-13634.6396484375,-400000.0625
140.6383261680603,-400000.0625,-3612.419921875,-8658.0302734375,-400000.0625,-8285.8603515625,-400000.0625,-13624.0498046875,-400000.0625
140.63833355903625,-400000.0625,-3564.409912109375,-8614.400390625,-400000.0625,-8252.6201171875,-400000.0625,-13577.0302734375,-400000.0625
140.63834023475647,-400000.0625,-3562.360107421875,-8614.1103515625,-400000.0625,-8243.419921875,-400000.0625,-13570.98046875,-400000.0625
140.63834691047668,-400000.0625,-3607.56005859375,-8657.98046875,-400000.0625,-8285.08984375,-400000.0625,-13610.83984375,-400000.0625
140.6383535861969,-400000.0625,-3636.169921875,-8681.9697265625,-400000.0625,-8315.900390625,-400000.0625,-13638.58984375,-400000.0625
140.6383605003357,-400000.0625,-3626.159912109375,-8669.3798828125,-400000.0625,-8293.9599609375,-400000.0625,-13627.6298828125,-400000.0625
140.6383671760559,-400000.0625,-3586.719970703125,-8632.51953125,-400000.0625,-8263.400390625,-400000.0625,-13594.580078125,-400000.0625
140.63837385177612,-400000.0625,-3569.64990234375,-8619.259765625,-400000.0625,-8258.4404296875,-400000.0625,-13580.6103515625,-400000.0625
140.63838076591492,-400000.0625,-3598.39990234375,-8645.33984375,-400000.0625,-8291.2001953125,-400000.0625,-13608.169921875,-400000.0625
140.6383876800537,-400000.0625,-3623.820068359375,-8668.6103515625,-400000.0625,-8305.8798828125,-400000.0625,-13628.76953125,-400000.0625
140.6383945941925,-400000.0625,-3613.89990234375,-8658.83984375,-400000.0625,-8281.330078125,-400000.0625,-13622.7099609375,-400000.0625
140.6384015083313,-400000.0625,-3574.800048828125,-8624.169921875,-400000.0625,-8245.66015625,-400000.0625,-13588.759765625,-400000.0625
140.6384081840515,-400000.0625,-3566.68994140625,-8615.2998046875,-400000.0625,-8241.3203125,-400000.0625,-13570.8798828125,-400000.0625
140.63841485977173,-400000.0625,-3593.72998046875,-8643.91015625,-400000.0625,-8273.7900390625,-400000.0625,-13600.2998046875,-400000.0625
140.63842153549194,-400000.0625,-3632.550048828125,-8679.8203125,-400000.0625,-8319.66015625,-400000.0625,-13633.6796875,-400000.0625
140.63842868804932,-400000.0625,-3620.909912109375,-8668.849609375,-400000.0625,-8307.8896484375,-400000.0625,-13629.9599609375,-400000.0625
140.63843536376953,-400000.0625,-3582.570068359375,-8633.4697265625,-400000.0625,-8268.169921875,-400000.0625,-13598.6298828125,-400000.0625
140.63844180107117,-400000.0625,-3570.75,-8623.080078125,-400000.0625,-8258.8701171875,-400000.0625,-13583.849609375,-400000.0625
140.63844847679138,-400000.0625,-3597.1201171875,-8648.830078125,-400000.0625,-8275.83984375,-400000.0625,-13606.83984375,-400000.0625
140.6384561061859,-400000.0625,-3622.679931640625,-8672.91015625,-400000.0625,-8305.41015625,-400000.0625,-13625.48046875,-400000.0625
140.6384630203247,-400000.0625,-3609.510009765625,-8660.3701171875,-400000.0625,-8295.8701171875,-400000.0625,-13623.8095703125,-400000.0625
140.63847017288208,-400000.0625,-3571.56005859375,-8625.83984375,-400000.0625,-8266.6396484375,-400000.0625,-13589.5703125,-400000.0625
140.63847708702087,-400000.0625,-3568.320068359375,-8619.98046875,-400000.0625,-8251.4296875,-400000.0625,-13581.849609375,-400000.0625
140.63848400115967,-400000.0625,-3597.830078125,-8645.580078125,-400000.0625,-8268.9296875,-400000.0625,-13614.66015625,-400000.0625
140.63849115371704,-400000.0625,-3629.06005859375,-8673.9599609375,-400000.0625,-8300.400390625,-400000.0625,-13635.73046875,-400000.0625
140.6384983062744,-400000.0625,-3622.6298828125,-8663.509765625,-400000.0625,-8297.8701171875,-400000.0625,-13618.66015625,-400000.0625
140.6385054588318,-400000.0625,-3571.1298828125,-8623.650390625,-400000.0625,-8263.7802734375,-400000.0625,-13593.2900390625,-400000.0625
140.638512134552,-400000.0625,-3545.570068359375,-8603.6201171875,-400000.0625,-8243.4697265625,-400000.0625,-13567.740234375,-400000.0625
140.6385190486908,-400000.0625,-3589.9599609375,-8640.6201171875,-400000.0625,-8278.3203125,-400000.0625,-13600.8798828125,-400000.0625
140.63852667808533,-400000.0625,-3627.489990234375,-8674.669921875,-400000.0625,-8310.650390625,-400000.0625,-13640.98046875,-400000.0625
140.63853454589844,-400000.0625,-3605.56005859375,-8653.4501953125,-400000.0625,-8292.3896484375,-400000.0625,-13628.33984375,-400000.0625
140.6385416984558,-400000.0625,-3564.360107421875,-8617.7802734375,-400000.0625,-8257.7197265625,-400000.0625,-13597.2998046875,-400000.0625
140.63855028152466,-400000.0625,-3559.639892578125,-8611.25,-400000.0625,-8258.580078125,-400000.0625,-13584.3798828125,-400000.0625
140.63855719566345,-400000.0625,-3592.780029296875,-8639.5302734375,-400000.0625,-8286.0,-400000.0625,-13612.8896484375,-400000.0625
140.6385645866394,-400000.0625,-3622.9599609375,-8667.7099609375,-400000.0625,-8301.7802734375,-400000.0625,-13644.5498046875,-400000.0625
140.63857173919678,-400000.0625,-3612.760009765625,-8658.740234375,-400000.0625,-8298.259765625,-400000.0625,-13631.8701171875,-400000.0625
140.63857865333557,-400000.0625,-3575.52001953125,-8625.169921875,-400000.0625,-8265.3095703125,-400000.0625,-13595.580078125,-400000.0625
140.63858604431152,-400000.0625,-3563.5,-8610.4404296875,-400000.0625,-8252.0,-400000.0625,-13586.240234375,-400000.0625
140.6385931968689,-400000.0625,-3592.590087890625,-8638.669921875,-400000.0625,-8283.1904296875,-400000.0625,-13606.98046875,-400000.0625
140.63860034942627,-400000.0625,-3624.25,-8669.0,-400000.0625,-8310.75,-400000.0625,-13636.5400390625,-400000.0625
140.63860750198364,-400000.0625,-3611.3701171875,-8659.3603515625,-400000.0625,-8300.259765625,-400000.0625,-13625.91015625,-400000.0625
140.63861441612244,-400000.0625,-3568.889892578125,-8620.740234375,-400000.0625,-8260.7802734375,-400000.0625,-13587.669921875,-400000.0625
140.63862109184265,-400000.0625,-3570.27001953125,-8622.5,-400000.0625,-8251.7197265625,-400000.0625,-13593.8203125,-400000.0625
140.6386275291443,-400000.0625,-3607.1298828125,-8655.8798828125,-400000.0625,-8285.5703125,-400000.0625,-13624.6201171875,-400000.0625
140.63863444328308,-400000.0625,-3637.1201171875,-8677.0498046875,-400000.0625,-8317.849609375,-400000.0625,-13647.6103515625,-400000.0625
140.63864135742188,-400000.0625,-3617.530029296875,-8661.080078125,-400000.0625,-8304.3603515625,-400000.0625,-13637.0703125,-400000.0625
140.63864827156067,-400000.0625,-3579.429931640625,-8628.0400390625,-400000.0625,-8256.9599609375,-400000.0625,-13601.0703125,-400000.0625
140.63865518569946,-400000.0625,-3568.60009765625,-8620.2197265625,-400000.0625,-8251.8603515625,-400000.0625,-13589.8603515625,-400000.0625
140.63866257667542,-400000.0625,-3598.39990234375,-8645.580078125,-400000.0625,-8285.8603515625,-400000.0625,-13609.5498046875,-400000.0625
140.6386697292328,-400000.0625,-3626.6298828125,-8674.150390625,-400000.0625,-8319.0498046875,-400000.0625,-13638.8798828125,-400000.0625
140.63867735862732,-400000.0625,-3615.090087890625,-8665.990234375,-400000.0625,-8302.8798828125,-400000.0625,-13634.16015625,-400000.0625
140.6386857032776,-400000.0625,-3584.0,-8636.0498046875,-400000.0625,-8271.5,-400000.0625,-13599.349609375,-400000.0625
140.6386935710907,-400000.0625,-3575.330078125,-8626.7998046875,-400000.0625,-8261.6796875,-400000.0625,-13588.48046875,-400000.0625
140.63870096206665,-400000.0625,-3601.739990234375,-8647.8203125,-400000.0625,-8281.330078125,-400000.0625,-13611.0302734375,-400000.0625
140.63870882987976,-400000.0625,-3628.300048828125,-8671.330078125,-400000.0625,-8310.7998046875,-400000.0625,-13638.0703125,-400000.0625
140.63871574401855,-400000.0625,-3615.139892578125,-8662.0302734375,-400000.0625,-8294.580078125,-400000.0625,-13624.3798828125,-400000.0625
140.63872289657593,-400000.0625,-3576.52001953125,-8629.080078125,-400000.0625,-8260.4404296875,-400000.0625,-13590.2900390625,-400000.0625
140.63872981071472,-400000.0625,-3578.469970703125,-8632.849609375,-400000.0625,-8259.009765625,-400000.0625,-13591.7197265625,-400000.0625
140.63873767852783,-400000.0625,-3610.989990234375,-8664.900390625,-400000.0625,-8290.4296875,-400000.0625,-13623.91015625,-400000.0625
140.63874506950378,-400000.0625,-3640.27001953125,-8692.0302734375,-400000.0625,-8322.1396484375,-400000.0625,-13652.6103515625,-400000.0625
140.63875269889832,-400000.0625,-3621.909912109375,-8673.5302734375,-400000.0625,-8307.080078125,-400000.0625,-13640.98046875,-400000.0625
140.6387598514557,-400000.0625,-3581.570068359375,-8638.099609375,-400000.0625,-8268.740234375,-400000.0625,-13608.7900390625,-400000.0625
140.63876724243164,-400000.0625,-3572.3701171875,-8632.759765625,-400000.0625,-8254.6201171875,-400000.0625,-13592.33984375,-400000.0625
140.63877415657043,-400000.0625,-3598.639892578125,-8657.5498046875,-400000.0625,-8281.2802734375,-400000.0625,-13614.080078125,-400000.0625
140.63878107070923,-400000.0625,-3624.110107421875,-8679.150390625,-400000.0625,-8317.759765625,-400000.0625,-13636.16015625,-400000.0625
140.63878870010376,-400000.0625,-3608.27001953125,-8662.83984375,-400000.0625,-8303.2099609375,-400000.0625,-13624.0,-400000.0625
140.63879704475403,-400000.0625,-3577.52001953125,-8632.51953125,-400000.0625,-8272.2197265625,-400000.0625,-13601.8798828125,-400000.0625
140.6388053894043,-400000.0625,-3572.93994140625,-8628.3203125,-400000.0625,-8265.73046875,-400000.0625,-13593.9599609375,-400000.0625
140.63881421089172,-400000.0625,-3605.409912109375,-8658.0302734375,-400000.0625,-8292.150390625,-400000.0625,-13615.5595703125,-400000.0625
140.6388223171234,-400000.0625,-3630.72998046875,-8682.2001953125,-400000.0625,-8310.080078125,-400000.0625,-13640.01953125,-400000.0625
140.6388304233551,-400000.0625,-3617.81005859375,-8668.23046875,-400000.0625,-8293.0595703125,-400000.0625,-13630.2001953125,-400000.0625
140.6388394832611,-400000.0625,-3575.85009765625,-8631.330078125,-400000.0625,-8263.5400390625,-400000.0625,-13592.8203125,-400000.0625
140.63884806632996,-400000.0625,-3567.7900390625,-8623.3095703125,-400000.0625,-8255.2900390625,-400000.0625,-13577.8896484375,-400000.0625
140.6388556957245,-400000.0625,-3599.169921875,-8652.8798828125,-400000.0625,-8286.8095703125,-400000.0625,-13616.1298828125,-400000.0625
140.63886260986328,-400000.0625,-3629.300048828125,-8681.9697265625,-400000.0625,-8319.6201171875,-400000.0625,-13643.7001953125,-400000.0625
140.63886952400208,-400000.0625,-3627.6298828125,-8678.25,-400000.0625,-8315.419921875,-400000.0625,-13641.3603515625,-400000.0625
140.6388771533966,-400000.0625,-3589.14990234375,-8642.5302734375,-400000.0625,-8284.51953125,-400000.0625,-13605.8798828125,-400000.0625
140.63888454437256,-400000.0625,-3575.1298828125,-8630.6103515625,-400000.0625,-8265.16015625,-400000.0625,-13587.91015625,-400000.0625
140.6388931274414,-400000.0625,-3608.0400390625,-8657.3095703125,-400000.0625,-8293.8701171875,-400000.0625,-13624.5302734375,-400000.0625
140.63890171051025,-400000.0625,-3636.1201171875,-8685.7802734375,-400000.0625,-8329.76953125,-400000.0625,-13648.6103515625,-400000.0625
140.63891220092773,-400000.0625,-3622.25,-8671.1904296875,-400000.0625,-8303.98046875,-400000.0625,-13629.0595703125,-400000.0625
140.63892078399658,-400000.0625,-3585.14990234375,-8633.8095703125,-400000.0625,-8257.25,-400000.0625,-13598.830078125,-400000.0625
140.6389286518097,-400000.0625,-3571.800048828125,-8627.2197265625,-400000.0625,-8248.9501953125,-400000.0625,-13594.5302734375,-400000.0625
140.6389377117157,-400000.0625,-3595.590087890625,-8654.0703125,-400000.0625,-8291.6298828125,-400000.0625,-13619.51953125,-400000.0625
140.6389458179474,-400000.0625,-3613.52001953125,-8670.9501953125,-400000.0625,-8311.7998046875,-400000.0625,-13636.0703125,-400000.0625
140.63895392417908,-400000.0625,-3599.070068359375,-8654.599609375,-400000.0625,-8290.2001953125,-400000.0625,-13621.08984375,-400000.0625
140.63896083831787,-400000.0625,-3583.530029296875,-8638.0,-400000.0625,-8273.5498046875,-400000.0625,-13611.1298828125,-400000.0625
140.63896799087524,-400000.0625,-3585.199951171875,-8636.7099609375,-400000.0625,-8268.400390625,-400000.0625,-13606.259765625,-400000.0625
140.63897919654846,-400000.0625,-3610.7099609375,-8661.3701171875,-400000.0625,-8294.9599609375,-400000.0625,-13631.919921875,-400000.0625
140.63898730278015,-400000.0625,-3625.72998046875,-8676.3896484375,-400000.0625,-8318.2802734375,-400000.0625,-13644.169921875,-400000.0625
140.63899445533752,-400000.0625,-3611.760009765625,-8662.0302734375,-400000.0625,-8297.16015625,-400000.0625,-13629.150390625,-400000.0625
140.63900232315063,-400000.0625,-3583.0,-8635.9501953125,-400000.0625,-8267.3095703125,-400000.0625,-13603.98046875,-400000.0625
140.63900923728943,-400000.0625,-3572.27001953125,-8627.7998046875,-400000.0625,-8269.1201171875,-400000.0625,-13595.9599609375,-400000.0625
140.63901686668396,-400000.0625,-3597.929931640625,-8649.1103515625,-400000.0625,-8289.240234375,-400000.0625,-13616.7998046875,-400000.0625
140.63902473449707,-400000.0625,-3624.9599609375,-8673.3798828125,-400000.0625,-8316.849609375,-400000.0625,-13643.83984375,-400000.0625
140.6390323638916,-400000.0625,-3613.090087890625,-8663.4599609375,-400000.0625,-8309.83984375,-400000.0625,-13638.0703125,-400000.0625
140.6390402317047,-400000.0625,-3577.52001953125,-8631.08984375,-400000.0625,-8269.01953125,-400000.0625,-13604.259765625,-400000.0625
140.63994073867798,-400000.0625,-3565.64990234375,-8618.6396484375,-400000.0625,-8244.2802734375,-400000.0625,-13592.0498046875,-400000.0625
140.63999342918396,-400000.0625,-3688.9599609375,-8666.7998046875,-400000.0625,-8283.759765625,-400000.0625,-13629.8203125,-400000.0625
140.64001631736755,-400000.0625,-3733.489990234375,-8699.4697265625,-400000.0625,-8309.7001953125,-400000.0625,-13669.16015625,-400000.0625
140.6400363445282,-400000.0625,-3726.860107421875,-8687.4501953125,-400000.0625,-8275.6103515625,-400000.0625,-13661.8603515625,-400000.0625
140.64005517959595,-400000.0625,-3702.969970703125,-8650.6396484375,-400000.0625,-8245.08984375,-400000.0625,-13625.580078125,-400000.0625
140.6400740146637,-400000.0625,-3716.419921875,-8659.75,-400000.0625,-8249.900390625,-400000.0625,-13632.8701171875,-400000.0625
140.6400923728943,-400000.0625,-3753.610107421875,-8690.4501953125,-400000.0625,-8261.0595703125,-400000.0625,-13665.2998046875,-400000.0625
140.64011120796204,-400000.0625,-3788.18994140625,-8713.2001953125,-400000.0625,-8274.83984375,-400000.0625,-13688.419921875,-400000.0625
140.64013004302979,-400000.0625,-3776.5,-8697.9404296875,-400000.0625,-8263.0595703125,-400000.0625,-13672.73046875,-400000.0625
140.6401491165161,-400000.0625,-3756.0,-8666.23046875,-400000.0625,-8234.3603515625,-400000.0625,-13655.51953125,-400000.0625
140.64016723632812,-400000.0625,-3759.429931640625,-8662.509765625,-400000.0625,-8233.9296875,-400000.0625,-13655.240234375,-400000.0625
140.6401867866516,-400000.0625,-3788.89990234375,-8685.4501953125,-400000.0625,-8260.3896484375,-400000.0625,-13672.6904296875,-400000.0625
140.64020609855652,-400000.0625,-3829.429931640625,-8711.91015625,-400000.0625,-8292.2900390625,-400000.0625,-13700.5302734375,-400000.0625
140.64022517204285,-400000.0625,-3838.39990234375,-8719.0595703125,-400000.0625,-8287.0498046875,-400000.0625,-13707.58984375,-400000.0625
140.64024424552917,-400000.0625,-3803.639892578125,-8696.41015625,-400000.0625,-8247.5703125,-400000.0625,-13677.9296875,-400000.0625
140.6402621269226,-400000.0625,-3791.18994140625,-8675.5302734375,-400000.0625,-8224.2001953125,-400000.0625,-13663.5302734375,-400000.0625
140.6402804851532,-400000.0625,-3832.8701171875,-8707.5703125,-400000.0625,-8253.580078125,-400000.0625,-13689.330078125,-400000.0625
140.64029908180237,-400000.0625,-3874.639892578125,-8741.9501953125,-400000.0625,-8277.080078125,-400000.0625,-13720.849609375,-400000.0625
140.64031767845154,-400000.0625,-3867.909912109375,-8722.01953125,-400000.0625,-8248.3798828125,-400000.0625,-13711.6904296875,-400000.0625
140.64033579826355,-400000.0625,-3837.159912109375,-8689.6396484375,-400000.0625,-8218.240234375,-400000.0625,-13696.2900390625,-400000.0625
140.6403546333313,-400000.0625,-3831.47998046875,-8683.25,-400000.0625,-8216.7197265625,-400000.0625,-13688.51953125,-400000.0625
140.64037346839905,-400000.0625,-3864.6201171875,-8708.1396484375,-400000.0625,-8235.3095703125,-400000.0625,-13713.5,-400000.0625
140.64039278030396,-400000.0625,-3911.02001953125,-8746.9599609375,-400000.0625,-8261.919921875,-400000.0625,-13741.7802734375,-400000.0625
140.64041185379028,-400000.0625,-3910.8798828125,-8739.0,-400000.0625,-8251.8603515625,-400000.0625,-13740.8701171875,-400000.0625
140.64043045043945,-400000.0625,-3889.610107421875,-8710.0498046875,-400000.0625,-8224.9697265625,-400000.0625,-13720.7001953125,-400000.0625
140.64045071601868,-400000.0625,-3883.169921875,-8695.5595703125,-400000.0625,-8212.1396484375,-400000.0625,-13706.5,-400000.0625
140.64047026634216,-400000.0625,-3908.72998046875,-8708.2900390625,-400000.0625,-8217.8603515625,-400000.0625,-13719.75,-400000.0625
140.6404893398285,-400000.0625,-3950.1201171875,-8743.91015625,-400000.0625,-8257.150390625,-400000.0625,-13758.6103515625,-400000.0625
140.64050936698914,-400000.0625,-3948.360107421875,-8745.2900390625,-400000.0625,-8239.1298828125,-400000.0625,-13766.669921875,-400000.0625
140.64052939414978,-400000.0625,-3917.929931640625,-8711.0498046875,-400000.0625,-8195.830078125,-400000.0625,-13729.4296875,-400000.0625
140.6405484676361,-400000.0625,-3913.550048828125,-8698.3701171875,-400000.0625,-8187.81982421875,-400000.0625,-13723.7099609375,-400000.0625
140.64056730270386,-400000.0625,-3943.72998046875,-8720.73046875,-400000.0625,-8217.0,-400000.0625,-13746.2197265625,-400000.0625
140.6405885219574,-400000.0625,-3968.530029296875,-8748.7197265625,-400000.0625,-8241.8896484375,-400000.0625,-13775.2099609375,-400000.0625
140.6406090259552,-400000.0625,-3974.14990234375,-8745.150390625,-400000.0625,-8224.5400390625,-400000.0625,-13766.9599609375,-400000.0625
140.64062881469727,-400000.0625,-3943.39990234375,-8711.240234375,-400000.0625,-8190.77978515625,-400000.0625,-13740.0595703125,-400000.0625
140.64064931869507,-400000.0625,-3923.85009765625,-8693.7900390625,-400000.0625,-8166.27001953125,-400000.0625,-13722.849609375,-400000.0625
140.64067006111145,-400000.0625,-3955.219970703125,-8718.830078125,-400000.0625,-8189.14990234375,-400000.0625,-13743.9296875,-400000.0625
140.6406922340393,-400000.0625,-3999.659912109375,-8750.2001953125,-400000.0625,-8219.8603515625,-400000.0625,-13778.259765625,-400000.0625
140.64071345329285,-400000.0625,-3998.469970703125,-8744.5302734375,-400000.0625,-8214.240234375,-400000.0625,-13772.8203125,-400000.0625
140.64074635505676,-400000.0625,-3959.510009765625,-8709.6201171875,-400000.0625,-8180.47998046875,-400000.0625,-13744.1201171875,-400000.0625
140.64076852798462,-400000.0625,-3943.35009765625,-8687.7802734375,-400000.0625,-8157.2998046875,-400000.0625,-13725.66015625,-400000.0625
140.64079022407532,-400000.0625,-3968.719970703125,-8708.759765625,-400000.0625,-8185.2900390625,-400000.0625,-13749.169921875,-400000.0625
140.64081287384033,-400000.0625,-4002.909912109375,-8735.75,-400000.0625,-8215.51953125,-400000.0625,-13770.580078125,-400000.0625
140.64083337783813,-400000.0625,-4014.780029296875,-8735.509765625,-400000.0625,-8199.1201171875,-400000.0625,-13771.919921875,-400000.0625
140.64085340499878,-400000.0625,-3980.780029296875,-8708.6201171875,-400000.0625,-8166.35986328125,-400000.0625,-13750.4599609375,-400000.0625
140.640878200531,-400000.0625,-3962.989990234375,-8692.3095703125,-400000.0625,-8164.4501953125,-400000.0625,-13728.0,-400000.0625
140.64089941978455,-400000.0625,-3991.219970703125,-8715.4404296875,-400000.0625,-8177.14013671875,-400000.0625,-13752.8896484375,-400000.0625
140.64092111587524,-400000.0625,-4032.469970703125,-8740.8095703125,-400000.0625,-8201.2197265625,-400000.0625,-13788.8896484375,-400000.0625
140.64094138145447,-400000.0625,-4025.840087890625,-8739.9501953125,-400000.0625,-8199.0302734375,-400000.0625,-13791.1796875,-400000.0625
140.6409614086151,-400000.0625,-3991.64990234375,-8707.48046875,-400000.0625,-8160.4501953125,-400000.0625,-13756.23046875,-400000.0625
140.6409821510315,-400000.0625,-3978.06005859375,-8692.3095703125,-400000.0625,-8143.9501953125,-400000.0625,-13734.76953125,-400000.0625
140.64100289344788,-400000.0625,-4005.669921875,-8709.48046875,-400000.0625,-8160.4501953125,-400000.0625,-13750.599609375,-400000.0625
140.64102268218994,-400000.0625,-4043.530029296875,-8732.0302734375,-400000.0625,-8196.01953125,-400000.0625,-13777.349609375,-400000.0625
140.64104413986206,-400000.0625,-4037.0,-8732.8896484375,-400000.0625,-8201.8896484375,-400000.0625,-13775.7802734375,-400000.0625
140.6410653591156,-400000.0625,-4008.340087890625,-8708.33984375,-400000.0625,-8162.7900390625,-400000.0625,-13750.3203125,-400000.0625
140.6410846710205,-400000.0625,-3993.4599609375,-8686.58984375,-400000.0625,-8138.509765625,-400000.0625,-13732.2900390625,-400000.0625
140.64110398292542,-400000.0625,-4010.389892578125,-8701.849609375,-400000.0625,-8168.56005859375,-400000.0625,-13753.3203125,-400000.0625
140.64112520217896,-400000.0625,-4042.669921875,-8734.26953125,-400000.0625,-8190.10986328125,-400000.0625,-13777.0703125,-400000.0625
140.64114451408386,-400000.0625,-4043.909912109375,-8725.5498046875,-400000.0625,-8171.31982421875,-400000.0625,-13780.9296875,-400000.0625
140.64116501808167,-400000.0625,-4004.10009765625,-8684.8701171875,-400000.0625,-8135.3701171875,-400000.0625,-13745.01953125,-400000.0625
140.64118432998657,-400000.0625,-4001.52001953125,-8680.150390625,-400000.0625,-8131.89013671875,-400000.0625,-13726.759765625,-400000.0625
140.64120388031006,-400000.0625,-4040.340087890625,-8709.48046875,-400000.0625,-8162.97998046875,-400000.0625,-13757.5595703125,-400000.0625
140.64122343063354,-400000.0625,-4070.81005859375,-8741.0,-400000.0625,-8199.7900390625,-400000.0625,-13790.080078125,-400000.0625
140.6412422657013,-400000.0625,-4066.75,-8736.6103515625,-400000.0625,-8172.7001953125,-400000.0625,-13785.650390625,-400000.0625
140.6412615776062,-400000.0625,-4022.31005859375,-8698.9404296875,-400000.0625,-8132.27001953125,-400000.0625,-13748.9296875,-400000.0625
140.64128017425537,-400000.0625,-3999.659912109375,-8680.5400390625,-400000.0625,-8131.35986328125,-400000.0625,-13730.1904296875,-400000.0625
140.64129853248596,-400000.0625,-4024.080078125,-8702.330078125,-400000.0625,-8165.31005859375,-400000.0625,-13749.7001953125,-400000.0625
140.64131879806519,-400000.0625,-4050.8798828125,-8728.7001953125,-400000.0625,-8191.58984375,-400000.0625,-13773.4404296875,-400000.0625
140.6413381099701,-400000.0625,-4034.570068359375,-8717.8203125,-400000.0625,-8184.43017578125,-400000.0625,-13759.7099609375,-400000.0625
140.641357421875,-400000.0625,-3990.510009765625,-8687.01953125,-400000.0625,-8162.5498046875,-400000.0625,-13722.900390625,-400000.0625
140.64137721061707,-400000.0625,-3962.139892578125,-8670.3798828125,-400000.0625,-8147.2900390625,-400000.0625,-13703.400390625,-400000.0625
140.64139652252197,-400000.0625,-3969.860107421875,-8692.0703125,-400000.0625,-8168.83984375,-400000.0625,-13726.0,-400000.0625
140.64141535758972,-400000.0625,-3988.60009765625,-8722.1201171875,-400000.0625,-8206.650390625,-400000.0625,-13749.080078125,-400000.0625
140.6414339542389,-400000.0625,-3966.280029296875,-8712.099609375,-400000.0625,-8211.900390625,-400000.0625,-13738.009765625,-400000.0625
140.64145350456238,-400000.0625,-3907.5400390625,-8670.08984375,-400000.0625,-8180.18994140625,-400000.0625,-13702.1103515625,-400000.0625
140.64147305488586,-400000.0625,-3870.8701171875,-8653.830078125,-400000.0625,-8171.89013671875,-400000.0625,-13678.740234375,-400000.0625
140.6414918899536,-400000.0625,-3883.169921875,-8680.0595703125,-400000.0625,-8201.0302734375,-400000.0625,-13695.76953125,-400000.0625
140.64151048660278,-400000.0625,-3906.110107421875,-8714.009765625,-400000.0625,-8237.7001953125,-400000.0625,-13722.4697265625,-400000.0625
140.6415295600891,-400000.0625,-3881.7900390625,-8704.0400390625,-400000.0625,-8241.419921875,-400000.0625,-13709.58984375,-400000.0625
140.64154744148254,-400000.0625,-3837.780029296875,-8674.669921875,-400000.0625,-8219.8603515625,-400000.0625,-13681.7900390625,-400000.0625
140.64156579971313,-400000.0625,-3818.85009765625,-8668.849609375,-400000.0625,-8205.1298828125,-400000.0625,-13673.349609375,-400000.0625
140.64158463478088,-400000.0625,-3826.090087890625,-8686.259765625,-400000.0625,-8241.75,-400000.0625,-13685.7001953125,-400000.0625
140.64160346984863,-400000.0625,-3837.969970703125,-8704.849609375,-400000.0625,-8272.0302734375,-400000.0625,-13702.1103515625,-400000.0625
140.64162349700928,-400000.0625,-3817.510009765625,-8689.5,-400000.0625,-8264.400390625,-400000.0625,-13692.7099609375,-400000.0625
140.6416416168213,-400000.0625,-3770.8798828125,-8654.6904296875,-400000.0625,-8238.9404296875,-400000.0625,-13658.5703125,-400000.0625
140.64166069030762,-400000.0625,-3740.260009765625,-8638.7197265625,-400000.0625,-8227.6796875,-400000.0625,-13634.490234375,-400000.0625
140.64167952537537,-400000.0625,-3755.6201171875,-8658.509765625,-400000.0625,-8252.0498046875,-400000.0625,-13656.0498046875,-400000.0625
140.6416974067688,-400000.0625,-3781.989990234375,-8687.8798828125,-400000.0625,-8282.330078125,-400000.0625,-13682.080078125,-400000.0625
140.6417167186737,-400000.0625,-3769.35009765625,-8678.3896484375,-400000.0625,-8274.3701171875,-400000.0625,-13672.1201171875,-400000.0625
140.6417350769043,-400000.0625,-3722.860107421875,-8639.91015625,-400000.0625,-8241.26953125,-400000.0625,-13632.73046875,-400000.0625
140.6417534351349,-400000.0625,-3691.2900390625,-8618.0703125,-400000.0625,-8228.919921875,-400000.0625,-13614.0400390625,-400000.0625
140.64177083969116,-400000.0625,-3709.60009765625,-8637.91015625,-400000.0625,-8255.9599609375,-400000.0625,-13633.4404296875,-400000.0625
140.64178943634033,-400000.0625,-3734.489990234375,-8659.83984375,-400000.0625,-8287.7197265625,-400000.0625,-13655.6201171875,-400000.0625
140.64180779457092,-400000.0625,-3719.139892578125,-8648.830078125,-400000.0625,-8276.0302734375,-400000.0625,-13646.5595703125,-400000.0625
140.6418261528015,-400000.0625,-3680.75,-8616.3095703125,-400000.0625,-8235.0302734375,-400000.0625,-13619.900390625,-400000.0625
140.64184474945068,-400000.0625,-3654.6201171875,-8600.1904296875,-400000.0625,-8225.2001953125,-400000.0625,-13594.76953125,-400000.0625
140.64186310768127,-400000.0625,-3678.93994140625,-8627.990234375,-400000.0625,-8260.490234375,-400000.0625,-13613.849609375,-400000.0625
140.64188170433044,-400000.0625,-3708.320068359375,-8655.6396484375,-400000.0625,-8292.9599609375,-400000.0625,-13637.400390625,-400000.0625
140.6419017314911,-400000.0625,-3687.330078125,-8642.4404296875,-400000.0625,-8274.1298828125,-400000.0625,-13625.4296875,-400000.0625
140.6419243812561,-400000.0625,-3663.25,-8620.1201171875,-400000.0625,-8256.6298828125,-400000.0625,-13602.6396484375,-400000.0625
140.64194321632385,-400000.0625,-3645.1298828125,-8607.150390625,-400000.0625,-8237.7001953125,-400000.0625,-13589.1904296875,-400000.0625
140.64196133613586,-400000.0625,-3667.5,-8626.650390625,-400000.0625,-8243.66015625,-400000.0625,-13607.0703125,-400000.0625
140.6419801712036,-400000.0625,-3701.1201171875,-8657.26953125,-400000.0625,-8282.1396484375,-400000.0625,-13638.3095703125,-400000.0625
140.64200472831726,-400000.0625,-3690.199951171875,-8651.9296875,-400000.0625,-8291.580078125,-400000.0625,-13638.01953125,-400000.0625
140.64202308654785,-400000.0625,-3650.7099609375,-8615.490234375,-400000.0625,-8267.3095703125,-400000.0625,-13603.5,-400000.0625
140.64204239845276,-400000.0625,-3634.260009765625,-8601.3798828125,-400000.0625,-8240.41015625,-400000.0625,-13584.1396484375,-400000.0625
140.64206075668335,-400000.0625,-3657.2900390625,-8625.2197265625,-400000.0625,-8256.7197265625,-400000.0625,-13605.0703125,-400000.0625
140.6420795917511,-400000.0625,-3689.6201171875,-8653.9296875,-400000.0625,-8279.2802734375,-400000.0625,-13633.5400390625,-400000.0625
140.6420979499817,-400000.0625,-3677.889892578125,-8644.0595703125,-400000.0625,-8269.83984375,-400000.0625,-13619.330078125,-400000.0625
140.6421160697937,-400000.0625,-3638.4599609375,-8607.8701171875,-400000.0625,-8246.7998046875,-400000.0625,-13590.0498046875,-400000.0625
140.64213490486145,-400000.0625,-3627.010009765625,-8597.7998046875,-400000.0625,-8240.509765625,-400000.0625,-13579.5595703125,-400000.0625
140.65873384475708,-400000.0625,-3538.419921875,-8543.0595703125,-400000.0625,-8210.900390625,-400000.0625,-13523.5302734375,-400000.0625
140.730881690979,-400000.0625,-3748.1298828125,-8499.1904296875,-400000.0625,-8023.4501953125,-400000.0625,-13651.66015625,-400000.0625
140.8573341369629,-400000.0625,-3693.10009765625,-8461.2900390625,-400000.0625,-7976.25,-400000.0625,-13568.2099609375,-400000.0625
140.92025756835938,-400000.0625,-3740.31005859375,-8508.4404296875,-400000.0625,-8013.81982421875,-400000.0625,-13590.6201171875,-400000.0625
141.03306126594543,-400000.0625,-3714.419921875,-8490.0400390625,-400000.0625,-7985.31005859375,-400000.0625,-13567.830078125,-400000.0625
141.11674666404724,-400000.0625,-3729.43994140625,-8509.01953125,-400000.0625,-8027.169921875,-400000.0625,-13577.3203125,-400000.0625
141.19533514976501,-400000.0625,-3699.260009765625,-8479.9296875,-400000.0625,-7981.97021484375,-400000.0625,-13572.0703125,-400000.0625
141.3041214942932,-400000.0625,-3659.06005859375,-8444.98046875,-400000.0625,-7971.759765625,-400000.0625,-13513.1396484375,-400000.0625
141.43824768066406,-400000.0625,-3686.52001953125,-8456.1396484375,-400000.0625,-7988.68994140625,-400000.0625,-13556.33984375,-400000.0625
141.4992094039917,-400000.0625,-3660.300048828125,-8431.150390625,-400000.0625,-7985.68994140625,-400000.0625,-13525.4404296875,-400000.0625
141.56050729751587,-400000.0625,-3675.800048828125,-8443.98046875,-400000.0625,-7973.81005859375,-400000.0625,-13554.3798828125,-400000.0625
141.62845540046692,-400000.0625,-3710.030029296875,-8473.2099609375,-400000.0625,-8006.33984375,-400000.0625,-13586.8603515625,-400000.0625
141.82202553749084,-400000.0625,-3902.6298828125,-8493.900390625,-400000.0625,-7917.93017578125,-400000.0625,-13641.3095703125,-400000.0625
141.88087391853333,-400000.0625,-3788.7099609375,-8487.8896484375,-400000.0625,-7976.580078125,-400000.0625,-13616.6103515625,-400000.0625
141.95324182510376,-400000.0625,-3749.85009765625,-8488.9404296875,-400000.0625,-7995.64990234375,-400000.0625,-13598.8701171875,-400000.0625
142.00896453857422,-400000.0625,-3759.050048828125,-8525.08984375,-400000.0625,-8031.89013671875,-400000.0625,-13630.009765625,-400000.0625
142.1507797241211,-400000.0625,-3736.5400390625,-8528.1904296875,-400000.0625,-8017.39990234375,-400000.0625,-13554.4296875,-400000.0625
142.34505987167358,-400000.0625,-3759.0,-8566.8095703125,-400000.0625,-8051.77978515625,-400000.0625,-13578.4599609375,-400000.0625
142.531733751297,-400000.0625,-3721.909912109375,-8556.9404296875,-400000.0625,-8027.22021484375,-400000.0625,-13584.7099609375,-400000.0625
142.58591485023499,-400000.0625,-3718.89990234375,-8563.23046875,-400000.0625,-8036.7099609375,-400000.0625,-13573.599609375,-400000.0625
142.65023469924927,-400000.0625,-3748.610107421875,-8594.419921875,-400000.0625,-8055.5400390625,-400000.0625,-13597.0595703125,-400000.0625
142.71391606330872,-400000.0625,-3738.5,-8578.73046875,-400000.0625,-8025.22021484375,-400000.0625,-13568.2099609375,-400000.0625
142.89013814926147,-400000.0625,-3704.60009765625,-8553.4599609375,-400000.0625,-8007.47998046875,-400000.0625,-13554.099609375,-400000.0625
143.16218543052673,-400000.0625,-3694.199951171875,-8554.41015625,-400000.0625,-8013.9599609375,-400000.0625,-13526.2998046875,-400000.0625
143.19519114494324,-400000.0625,-3726.010009765625,-8581.4501953125,-400000.0625,-8044.33984375,-400000.0625,-13549.51953125,-400000.0625
143.20578813552856,-400000.0625,-3742.030029296875,-8598.1904296875,-400000.0625,-8079.10009765625,-400000.0625,-13567.5400390625,-400000.0625
143.21993279457092,-400000.0625,-3733.159912109375,-8590.9404296875,-400000.0625,-8068.509765625,-400000.0625,-13568.0703125,-400000.0625
143.23255848884583,-400000.0625,-3700.2099609375,-8562.849609375,-400000.0625,-8019.8798828125,-400000.0625,-13541.5595703125,-400000.0625
143.2410752773285,-400000.0625,-3694.06005859375,-8555.41015625,-400000.0625,-8006.81005859375,-400000.0625,-13534.6904296875,-400000.0625
143.2555637359619,-400000.0625,-3721.090087890625,-8580.7802734375,-400000.0625,-8043.9599609375,-400000.0625,-13553.330078125,-400000.0625
143.2670636177063,-400000.0625,-3746.3701171875,-8602.240234375,-400000.0625,-8074.81005859375,-400000.0625,-13574.080078125,-400000.0625
143.30282020568848,-400000.0625,-3733.2099609375,-8590.990234375,-400000.0625,-8060.02978515625,-400000.0625,-13563.7802734375,-400000.0625
143.315114736557,-400000.0625,-3701.5400390625,-8562.51953125,-400000.0625,-8032.0400390625,-400000.0625,-13532.01953125,-400000.0625
143.32741856575012,-400000.0625,-3684.0400390625,-8548.400390625,-400000.0625,-8024.93017578125,-400000.0625,-13522.7197265625,-400000.0625
143.3374891281128,-400000.0625,-3714.75,-8578.58984375,-400000.0625,-8049.10986328125,-400000.0625,-13550.759765625,-400000.0625
143.34626960754395,-400000.0625,-3754.760009765625,-8610.2001953125,-400000.0625,-8076.91015625,-400000.0625,-13580.75,-400000.0625
143.36038970947266,-400000.0625,-3736.2099609375,-8591.7001953125,-400000.0625,-8053.8798828125,-400000.0625,-13571.1201171875,-400000.0625
143.3718376159668,-400000.0625,-3697.780029296875,-8556.1298828125,-400000.0625,-8008.580078125,-400000.0625,-13537.5498046875,-400000.0625
143.40595316886902,-400000.0625,-3693.2900390625,-8552.41015625,-400000.0625,-8016.77978515625,-400000.0625,-13528.6298828125,-400000.0625
143.41634964942932,-400000.0625,-3724.530029296875,-8583.6904296875,-400000.0625,-8051.06005859375,-400000.0625,-13549.3798828125,-400000.0625
143.43080401420593,-400000.0625,-3743.080078125,-8601.669921875,-400000.0625,-8065.64990234375,-400000.0625,-13569.7900390625,-400000.0625
143.43989825248718,-400000.0625,-3722.3798828125,-8583.5,-400000.0625,-8053.8798828125,-400000.0625,-13551.5703125,-400000.0625
143.45135235786438,-400000.0625,-3690.860107421875,-8551.4599609375,-400000.0625,-8027.64990234375,-400000.0625,-13520.33984375,-400000.0625
143.46523642539978,-400000.0625,-3695.389892578125,-8555.41015625,-400000.0625,-8018.77978515625,-400000.0625,-13519.5703125,-400000.0625
143.47554874420166,-400000.0625,-3729.43994140625,-8589.98046875,-400000.0625,-8047.25,-400000.0625,-13553.330078125,-400000.0625
143.50895881652832,-400000.0625,-3748.0400390625,-8606.240234375,-400000.0625,-8069.75,-400000.0625,-13580.419921875,-400000.0625
143.52154064178467,-400000.0625,-3734.449951171875,-8588.1201171875,-400000.0625,-8048.39013671875,-400000.0625,-13566.01953125,-400000.0625
143.53344535827637,-400000.0625,-3703.449951171875,-8562.7099609375,-400000.0625,-8026.93017578125,-400000.0625,-13531.830078125,-400000.0625
143.5444130897522,-400000.0625,-3688.719970703125,-8551.740234375,-400000.0625,-8014.72998046875,-400000.0625,-13523.0595703125,-400000.0625
143.55942392349243,-400000.0625,-3712.93994140625,-8571.2001953125,-400000.0625,-8044.580078125,-400000.0625,-13538.83984375,-400000.0625
143.5730278491974,-400000.0625,-3748.469970703125,-8607.009765625,-400000.0625,-8074.0,-400000.0625,-13569.400390625,-400000.0625
143.58796787261963,-400000.0625,-3736.5400390625,-8594.7001953125,-400000.0625,-8051.16015625,-400000.0625,-13559.919921875,-400000.0625
143.623877286911,-400000.0625,-3693.489990234375,-8555.26953125,-400000.0625,-8015.77978515625,-400000.0625,-13524.009765625,-400000.0625
143.68232774734497,-400000.0625,-3743.840087890625,-8568.099609375,-400000.0625,-8041.3798828125,-400000.0625,-13542.1298828125,-400000.0625
143.74673676490784,-400000.0625,-4076.199951171875,-8635.669921875,-400000.0625,-7949.31005859375,-400000.0625,-13626.2900390625,-400000.0625
143.86771607398987,-400000.0625,-4293.06005859375,-8503.6298828125,-400000.0625,-7881.830078125,-400000.0625,-13643.5498046875,-400000.0625
143.97390460968018,-400000.0625,-3950.830078125,-8572.91015625,-400000.0625,-8007.91015625,-400000.0625,-13612.6103515625,-400000.0625
144.0583426952362,-400000.0625,-3730.14990234375,-8478.740234375,-400000.0625,-7972.0,-400000.0625,-13504.3603515625,-400000.0625
144.19652676582336,-400000.0625,-3747.85009765625,-8541.2001953125,-400000.0625,-8027.97998046875,-400000.0625,-13538.5498046875,-400000.0625
144.2500557899475,-400000.0625,-3776.97998046875,-8573.580078125,-400000.0625,-8065.31982421875,-400000.0625,-13563.5400390625,-400000.0625
144.35814094543457,-400000.0625,-3733.110107421875,-8536.48046875,-400000.0625,-8014.39013671875,-400000.0625,-13530.6396484375,-400000.0625
144.44704174995422,-400000.0625,-3705.31005859375,-8521.1796875,-400000.0625,-7987.60009765625,-400000.0625,-13508.1796875,-400000.0625
144.64978885650635,-400000.0625,-3722.949951171875,-8543.6796875,-400000.0625,-8015.919921875,-400000.0625,-13525.76953125,-400000.0625
144.71130061149597,-400000.0625,-3688.18994140625,-8502.48046875,-400000.0625,-7993.509765625,-400000.0625,-13524.150390625,-400000.0625
144.77146291732788,-400000.0625,-3677.889892578125,-8496.6201171875,-400000.0625,-7969.43017578125,-400000.0625,-13512.419921875,-400000.0625
144.89686608314514,-400000.0625,-3733.25,-8546.16015625,-400000.0625,-8030.83984375,-400000.0625,-13559.009765625,-400000.0625
144.95382690429688,-400000.0625,-3701.2099609375,-8553.41015625,-400000.0625,-8010.2900390625,-400000.0625,-13522.2001953125,-400000.0625
145.15030813217163,-400000.0625,-3720.89990234375,-8579.1103515625,-400000.0625,-8035.52001953125,-400000.0625,-13532.1201171875,-400000.0625
145.21597623825073,-400000.0625,-3737.31005859375,-8590.7900390625,-400000.0625,-8035.85009765625,-400000.0625,-13549.759765625,-400000.0625
145.27345275878906,-400000.0625,-3722.6201171875,-8585.41015625,-400000.0625,-8032.66015625,-400000.0625,-13534.599609375,-400000.0625
145.3402647972107,-400000.0625,-3670.409912109375,-8532.1396484375,-400000.0625,-7975.2900390625,-400000.0625,-13487.0498046875,-400000.0625
145.46746182441711,-400000.0625,-3710.840087890625,-8575.150390625,-400000.0625,-8014.5400390625,-400000.0625,-13509.5595703125,-400000.0625
145.5501561164856,-400000.0625,-3723.239990234375,-8585.41015625,-400000.0625,-8027.35986328125,-400000.0625,-13526.919921875,-400000.0625
145.66060876846313,-400000.0625,-3690.909912109375,-8557.1796875,-400000.0625,-7987.259765625,-400000.0625,-13489.580078125,-400000.0625
145.69690942764282,-400000.0625,-3696.5400390625,-8561.6103515625,-400000.0625,-7986.5,-400000.0625,-13496.73046875,-400000.0625
145.7073884010315,-400000.0625,-3736.5400390625,-8595.3701171875,-400000.0625,-8021.64013671875,-400000.0625,-13527.0595703125,-400000.0625
145.72130680084229,-400000.0625,-3757.330078125,-8612.4404296875,-400000.0625,-8043.43017578125,-400000.0625,-13546.08984375,-400000.0625
145.7382776737213,-400000.0625,-3730.820068359375,-8589.509765625,-400000.0625,-8020.2099609375,-400000.0625,-13527.73046875,-400000.0625
145.74834632873535,-400000.0625,-3690.820068359375,-8552.740234375,-400000.0625,-7979.06005859375,-400000.0625,-13492.1103515625,-400000.0625
145.76097965240479,-400000.0625,-3694.6298828125,-8555.0302734375,-400000.0625,-7986.35986328125,-400000.0625,-13494.830078125,-400000.0625
145.7994875907898,-400000.0625,-3723.3798828125,-8582.01953125,-400000.0625,-8019.97021484375,-400000.0625,-13519.7197265625,-400000.0625
145.8103129863739,-400000.0625,-3733.25,-8591.990234375,-400000.0625,-8025.5,-400000.0625,-13525.25,-400000.0625
145.8265619277954,-400000.0625,-3717.949951171875,-8577.1103515625,-400000.0625,-8006.2900390625,-400000.0625,-13515.2802734375,-400000.0625
145.8374786376953,-400000.0625,-3688.0,-8554.26953125,-400000.0625,-8002.81005859375,-400000.0625,-13491.1103515625,-400000.0625
145.8530023097992,-400000.0625,-3699.35009765625,-8565.6201171875,-400000.0625,-7994.56005859375,-400000.0625,-13499.3095703125,-400000.0625
145.86568427085876,-400000.0625,-3734.919921875,-8595.9404296875,-400000.0625,-8023.64013671875,-400000.0625,-13525.4404296875,-400000.0625
145.90181469917297,-400000.0625,-3754.659912109375,-8608.76953125,-400000.0625,-8047.8701171875,-400000.0625,-13544.9404296875,-400000.0625
145.9112787246704,-400000.0625,-3729.43994140625,-8587.080078125,-400000.0625,-8014.6298828125,-400000.0625,-13532.58984375,-400000.0625
145.92441415786743,-400000.0625,-3684.85009765625,-8550.2197265625,-400000.0625,-7973.2001953125,-400000.0625,-13488.2001953125,-400000.0625
145.93559908866882,-400000.0625,-3685.429931640625,-8551.650390625,-400000.0625,-7977.43994140625,-400000.0625,-13484.1904296875,-400000.0625
145.94596672058105,-400000.0625,-3727.199951171875,-8588.509765625,-400000.0625,-8018.68994140625,-400000.0625,-13517.1904296875,-400000.0625
145.96011304855347,-400000.0625,-3751.0400390625,-8615.349609375,-400000.0625,-8040.10009765625,-400000.0625,-13543.3203125,-400000.0625
145.9733350276947,-400000.0625,-3728.909912109375,-8596.66015625,-400000.0625,-8031.18017578125,-400000.0625,-13527.25,-400000.0625
146.00634264945984,-400000.0625,-3694.489990234375,-8561.900390625,-400000.0625,-7997.3701171875,-400000.0625,-13489.6298828125,-400000.0625
146.01665949821472,-400000.0625,-3697.43994140625,-8565.1904296875,-400000.0625,-7986.58984375,-400000.0625,-13492.5400390625,-400000.0625
146.0315647125244,-400000.0625,-3735.110107421875,-8599.4697265625,-400000.0625,-8026.89013671875,-400000.0625,-13526.7802734375,-400000.0625
146.04394030570984,-400000.0625,-3751.989990234375,-8612.6796875,-400000.0625,-8031.66015625,-400000.0625,-13541.1298828125,-400000.0625
146.06062841415405,-400000.0625,-3726.580078125,-8588.509765625,-400000.0625,-8011.39013671875,-400000.0625,-13516.240234375,-400000.0625
146.07092380523682,-400000.0625,-3692.679931640625,-8559.23046875,-400000.0625,-7991.60009765625,-400000.0625,-13488.580078125,-400000.0625
146.0832576751709,-400000.0625,-3691.47998046875,-8560.9404296875,-400000.0625,-7991.02978515625,-400000.0625,-13488.580078125,-400000.0625
146.1159210205078,-400000.0625,-3723.139892578125,-8592.6103515625,-400000.0625,-8021.5498046875,-400000.0625,-13516.759765625,-400000.0625
146.12891125679016,-400000.0625,-3746.56005859375,-8610.9599609375,-400000.0625,-8033.3701171875,-400000.0625,-13528.6796875,-400000.0625
146.20050644874573,-400000.0625,-4194.2099609375,-8612.349609375,-400000.0625,-7896.14013671875,-400000.0625,-13621.759765625,-400000.0625
146.36165070533752,-400000.0625,-3755.860107421875,-8539.0595703125,-400000.0625,-7982.35009765625,-400000.0625,-13516.3798828125,-400000.0625
146.57081389427185,-400000.0625,-3782.989990234375,-8597.66015625,-400000.0625,-8020.4501953125,-400000.0625,-13536.0302734375,-400000.0625
146.62166619300842,-400000.0625,-3731.6298828125,-8557.1796875,-400000.0625,-7988.60009765625,-400000.0625,-13507.1298828125,-400000.0625
146.6983551979065,-400000.0625,-3736.35009765625,-8562.6103515625,-400000.0625,-7987.5498046875,-400000.0625,-13503.0302734375,-400000.0625
146.7517602443695,-400000.0625,-3760.389892578125,-8587.7900390625,-400000.0625,-8015.81982421875,-400000.0625,-13529.9697265625,-400000.0625
146.8145854473114,-400000.0625,-3782.610107421875,-8615.5400390625,-400000.0625,-8035.7998046875,-400000.0625,-13533.7802734375,-400000.0625
146.93054056167603,-400000.0625,-3742.27001953125,-8577.2998046875,-400000.0625,-7996.56005859375,-400000.0625,-13496.5,-400000.0625
147.14268803596497,-400000.0625,-3763.6298828125,-8603.4296875,-400000.0625,-8033.1298828125,-400000.0625,-13531.16015625,-400000.0625
147.19577836990356,-400000.0625,-3742.030029296875,-8582.6904296875,-400000.0625,-8001.27978515625,-400000.0625,-13515.4296875,-400000.0625
147.30153274536133,-400000.0625,-3700.830078125,-8545.8798828125,-400000.0625,-7977.81982421875,-400000.0625,-13464.259765625,-400000.0625
147.4516043663025,-400000.0625,-3744.219970703125,-8582.5498046875,-400000.0625,-8009.47998046875,-400000.0625,-13507.3203125,-400000.0625
147.5147521495819,-400000.0625,-3725.429931640625,-8573.9599609375,-400000.0625,-8008.81005859375,-400000.0625,-13477.0400390625,-400000.0625
147.59553861618042,-400000.0625,-3696.780029296875,-8541.009765625,-400000.0625,-7950.39990234375,-400000.0625,-13456.4404296875,-400000.0625
147.85162901878357,-400000.0625,-3713.320068359375,-8560.849609375,-400000.0625,-7998.7099609375,-400000.0625,-13482.330078125,-400000.0625
147.96366167068481,-400000.0625,-3708.320068359375,-8552.740234375,-400000.0625,-7963.0400390625,-400000.0625,-13466.650390625,-400000.0625
148.04881358146667,-400000.0625,-3730.010009765625,-8567.51953125,-400000.0625,-7986.1201171875,-400000.0625,-13465.4501953125,-400000.0625
148.0975034236908,-400000.0625,-3746.080078125,-8579.830078125,-400000.0625,-7997.93994140625,-400000.0625,-13495.400390625,-400000.0625
148.15320348739624,-400000.0625,-3720.7099609375,-8555.1298828125,-400000.0625,-7964.66015625,-400000.0625,-13474.7998046875,-400000.0625
148.1637945175171,-400000.0625,-3689.580078125,-8527.3798828125,-400000.0625,-7947.5400390625,-400000.0625,-13443.849609375,-400000.0625
148.1740779876709,-400000.0625,-3691.719970703125,-8530.3798828125,-400000.0625,-7943.81982421875,-400000.0625,-13438.419921875,-400000.0625
148.1877806186676,-400000.0625,-3737.159912109375,-8573.150390625,-400000.0625,-7975.10009765625,-400000.0625,-13477.419921875,-400000.0625
148.20251750946045,-400000.0625,-3758.050048828125,-8589.1298828125,-400000.0625,-7995.56005859375,-400000.0625,-13497.9697265625,-400000.0625
148.23352694511414,-400000.0625,-3728.25,-8560.6103515625,-400000.0625,-7962.7998046875,-400000.0625,-13476.900390625,-400000.0625
148.2434482574463,-400000.0625,-3694.489990234375,-8532.099609375,-400000.0625,-7935.43017578125,-400000.0625,-13447.099609375,-400000.0625
148.25446701049805,-400000.0625,-3702.39990234375,-8538.8203125,-400000.0625,-7949.06982421875,-400000.0625,-13450.7197265625,-400000.0625
148.2678668498993,-400000.0625,-3731.35009765625,-8565.669921875,-400000.0625,-7987.4501953125,-400000.0625,-13477.419921875,-400000.0625
148.27962374687195,-400000.0625,-3739.929931640625,-8574.5302734375,-400000.0625,-7998.52001953125,-400000.0625,-13486.76953125,-400000.0625
148.29409217834473,-400000.0625,-3713.22998046875,-8550.5,-400000.0625,-7961.080078125,-400000.0625,-13467.26953125,-400000.0625
148.30508971214294,-400000.0625,-3690.10009765625,-8527.1396484375,-400000.0625,-7927.509765625,-400000.0625,-13439.849609375,-400000.0625
148.33851265907288,-400000.0625,-3704.31005859375,-8539.4404296875,-400000.0625,-7939.2001953125,-400000.0625,-13446.6201171875,-400000.0625
148.35136437416077,-400000.0625,-3737.39990234375,-8574.919921875,-400000.0625,-7987.5,-400000.0625,-13483.8603515625,-400000.0625
148.36219906806946,-400000.0625,-3746.510009765625,-8579.1103515625,-400000.0625,-7998.85009765625,-400000.0625,-13490.919921875,-400000.0625
148.37359499931335,-400000.0625,-3713.320068359375,-8549.5,-400000.0625,-7966.81005859375,-400000.0625,-13461.5,-400000.0625
148.38932251930237,-400000.0625,-3700.780029296875,-8539.6298828125,-400000.0625,-7944.2998046875,-400000.0625,-13450.7197265625,-400000.0625
148.40192580223083,-400000.0625,-3715.56005859375,-8549.6396484375,-400000.0625,-7943.580078125,-400000.0625,-13454.7197265625,-400000.0625
148.4111967086792,-400000.0625,-3738.929931640625,-8574.3896484375,-400000.0625,-7967.47021484375,-400000.0625,-13480.330078125,-400000.0625
148.45057940483093,-400000.0625,-3753.52001953125,-8586.8798828125,-400000.0625,-7986.68994140625,-400000.0625,-13494.830078125,-400000.0625
148.46479606628418,-400000.0625,-3726.9599609375,-8560.849609375,-400000.0625,-7970.14013671875,-400000.0625,-13467.3603515625,-400000.0625
148.47616934776306,-400000.0625,-3692.77001953125,-8531.51953125,-400000.0625,-7960.509765625,-400000.0625,-13435.8896484375,-400000.0625
148.4883553981781,-400000.0625,-3704.929931640625,-8545.8798828125,-400000.0625,-7963.990234375,-400000.0625,-13452.8701171875,-400000.0625
148.50313544273376,-400000.0625,-3739.31005859375,-8574.1103515625,-400000.0625,-7980.77978515625,-400000.0625,-13483.0,-400000.0625
148.51345109939575,-400000.0625,-3749.699951171875,-8581.400390625,-400000.0625,-7985.97021484375,-400000.0625,-13496.58984375,-400000.0625
148.54804611206055,-400000.0625,-3719.949951171875,-8554.8896484375,-400000.0625,-7953.60009765625,-400000.0625,-13466.6904296875,-400000.0625
148.56731605529785,-400000.0625,-3687.909912109375,-8524.75,-400000.0625,-7925.1298828125,-400000.0625,-13436.8896484375,-400000.0625
148.57736039161682,-400000.0625,-3692.010009765625,-8526.66015625,-400000.0625,-7947.06005859375,-400000.0625,-13439.2802734375,-400000.0625
148.59331011772156,-400000.0625,-3738.5,-8571.240234375,-400000.0625,-7992.509765625,-400000.0625,-13480.1904296875,-400000.0625
148.60817909240723,-400000.0625,-3756.139892578125,-8584.0703125,-400000.0625,-8009.47998046875,-400000.0625,-13494.01953125,-400000.0625
148.62685537338257,-400000.0625,-3727.2900390625,-8557.4599609375,-400000.0625,-7978.39013671875,-400000.0625,-13475.1298828125,-400000.0625
148.768967628479,-400000.0625,-3832.14990234375,-8548.4501953125,-400000.0625,-7978.919921875,-400000.0625,-13510.509765625,-400000.0625
148.8634054660797,-400000.0625,-3755.18994140625,-8529.23046875,-400000.0625,-7945.97021484375,-400000.0625,-13458.73046875,-400000.0625
148.92047357559204,-400000.0625,-3732.39990234375,-8515.41015625,-400000.0625,-7929.7998046875,-400000.0625,-13444.5703125,-400000.0625
148.98573517799377,-400000.0625,-3772.449951171875,-8566.1904296875,-400000.0625,-7980.2001953125,-400000.0625,-13484.33984375,-400000.0625
149.0951328277588,-400000.0625,-3758.719970703125,-8563.8095703125,-400000.0625,-7982.2998046875,-400000.0625,-13471.3203125,-400000.0625
149.12883853912354,-400000.0625,-3711.030029296875,-8531.91015625,-400000.0625,-7945.490234375,-400000.0625,-13438.509765625,-400000.0625
149.18055891990662,-400000.0625,-3755.429931640625,-8573.490234375,-400000.0625,-7968.27978515625,-400000.0625,-13481.669921875,-400000.0625
149.30655431747437,-400000.0625,-3764.389892578125,-8584.2099609375,-400000.0625,-7986.35986328125,-400000.0625,-13487.6298828125,-400000.0625
149.49891424179077,-400000.0625,-3722.81005859375,-8548.98046875,-400000.0625,-7940.009765625,-400000.0625,-13448.0498046875,-400000.0625
149.56533360481262,-400000.0625,-3705.360107421875,-8539.9599609375,-400000.0625,-7929.14013671875,-400000.0625,-13431.259765625,-400000.0625
149.62810349464417,-400000.0625,-3747.510009765625,-8586.6904296875,-400000.0625,-7980.35009765625,-400000.0625,-13464.4501953125,-400000.0625
149.6966004371643,-400000.0625,-3767.679931640625,-8604.2900390625,-400000.0625,-7999.47021484375,-400000.0625,-13475.6103515625,-400000.0625
149.75439739227295,-400000.0625,-3735.72998046875,-8577.7802734375,-400000.0625,-7975.39013671875,-400000.0625,-13450.099609375,-400000.0625
149.8582239151001,-400000.0625,-3708.7900390625,-8548.740234375,-400000.0625,-7920.93017578125,-400000.0625,-13443.0400390625,-400000.0625
149.949378490448,-400000.0625,-3766.5400390625,-8611.2998046875,-400000.0625,-7999.419921875,-400000.0625,-13484.099609375,-400000.0625
150.0814232826233,-400000.0625,-3737.550048828125,-8580.7802734375,-400000.0625,-7970.2900390625,-400000.0625,-13452.6298828125,-400000.0625
150.14842224121094,-400000.0625,-3752.280029296875,-8594.66015625,-400000.0625,-7986.97998046875,-400000.0625,-13465.169921875,-400000.0625
150.22046303749084,-400000.0625,-3700.919921875,-8538.5302734375,-400000.0625,-7930.66015625,-400000.0625,-13410.7099609375,-400000.0625
150.34767842292786,-400000.0625,-3761.340087890625,-8594.75,-400000.0625,-7991.41015625,-400000.0625,-13460.58984375,-400000.0625
150.39901328086853,-400000.0625,-3710.93994140625,-8542.400390625,-400000.0625,-7916.5,-400000.0625,-13423.16015625,-400000.0625
150.45704913139343,-400000.0625,-3713.610107421875,-8546.5400390625,-400000.0625,-7925.56005859375,-400000.0625,-13420.3896484375,-400000.0625
150.52419304847717,-400000.0625,-3741.1201171875,-8570.0498046875,-400000.0625,-7954.31005859375,-400000.0625,-13438.66015625,-400000.0625
150.61532020568848,-400000.0625,-3705.360107421875,-8541.6298828125,-400000.0625,-7918.8798828125,-400000.0625,-13405.0400390625,-400000.0625
150.65873551368713,-400000.0625,-3733.02001953125,-8562.1396484375,-400000.0625,-7955.41015625,-400000.0625,-13423.919921875,-400000.0625
150.67083859443665,-400000.0625,-3713.179931640625,-8548.58984375,-400000.0625,-7936.43017578125,-400000.0625,-13420.0595703125,-400000.0625
150.6887559890747,-400000.0625,-3698.679931640625,-8537.25,-400000.0625,-7895.0400390625,-400000.0625,-13409.2802734375,-400000.0625
150.70144939422607,-400000.0625,-3709.030029296875,-8544.919921875,-400000.0625,-7900.3798828125,-400000.0625,-13420.33984375,-400000.0625
150.70982885360718,-400000.0625,-3735.639892578125,-8567.8603515625,-400000.0625,-7936.56982421875,-400000.0625,-13437.26953125,-400000.0625
150.72507762908936,-400000.0625,-3739.409912109375,-8573.6298828125,-400000.0625,-7957.41015625,-400000.0625,-13439.849609375,-400000.0625
150.7678530216217,-400000.0625,-3711.610107421875,-8547.259765625,-400000.0625,-7931.330078125,-400000.0625,-13422.6298828125,-400000.0625
150.78148579597473,-400000.0625,-3683.81005859375,-8519.599609375,-400000.0625,-7895.89990234375,-400000.0625,-13394.169921875,-400000.0625
150.7941243648529,-400000.0625,-3694.6298828125,-8534.150390625,-400000.0625,-7914.10986328125,-400000.0625,-13402.650390625,-400000.0625
150.80613565444946,-400000.0625,-3730.010009765625,-8565.9501953125,-400000.0625,-7947.10986328125,-400000.0625,-13434.0302734375,-400000.0625
150.81885027885437,-400000.0625,-3742.97998046875,-8575.0595703125,-400000.0625,-7948.68994140625,-400000.0625,-13446.240234375,-400000.0625
150.8306369781494,-400000.0625,-3713.320068359375,-8547.16015625,-400000.0625,-7923.89013671875,-400000.0625,-13420.150390625,-400000.0625
150.86818861961365,-400000.0625,-3679.320068359375,-8512.6904296875,-400000.0625,-7893.3701171875,-400000.0625,-13384.1103515625,-400000.0625
150.87667441368103,-400000.0625,-3695.77001953125,-8526.4697265625,-400000.0625,-7897.81005859375,-400000.0625,-13391.9296875,-400000.0625
150.88866519927979,-400000.0625,-3734.159912109375,-8567.669921875,-400000.0625,-7938.580078125,-400000.0625,-13438.509765625,-400000.0625
150.90103340148926,-400000.0625,-3743.97998046875,-8578.7802734375,-400000.0625,-7951.5,-400000.0625,-13449.4296875,-400000.0625
150.91158890724182,-400000.0625,-3714.659912109375,-8551.5498046875,-400000.0625,-7922.97998046875,-400000.0625,-13423.400390625,-400000.0625
150.9259431362152,-400000.0625,-3687.429931640625,-8527.4697265625,-400000.0625,-7903.14990234375,-400000.0625,-13405.23046875,-400000.0625
150.93612265586853,-400000.0625,-3703.929931640625,-8538.2001953125,-400000.0625,-7912.58984375,-400000.0625,-13407.849609375,-400000.0625
150.97562766075134,-400000.0625,-3734.35009765625,-8565.9501953125,-400000.0625,-7935.6201171875,-400000.0625,-13438.6103515625,-400000.0625
150.9890899658203,-400000.0625,-3740.639892578125,-8572.8203125,-400000.0625,-7940.43994140625,-400000.0625,-13447.7197265625,-400000.0625
151.00197172164917,-400000.0625,-3716.419921875,-8547.0703125,-400000.0625,-7925.60986328125,-400000.0625,-13424.9697265625,-400000.0625
151.01148104667664,-400000.0625,-3676.409912109375,-8513.3095703125,-400000.0625,-7900.759765625,-400000.0625,-13394.1201171875,-400000.0625
151.02581000328064,-400000.0625,-3693.340087890625,-8529.4296875,-400000.0625,-7906.580078125,-400000.0625,-13409.759765625,-400000.0625
151.03635454177856,-400000.0625,-3739.070068359375,-8572.4404296875,-400000.0625,-7941.490234375,-400000.0625,-13441.5595703125,-400000.0625
151.06799268722534,-400000.0625,-3742.1201171875,-8577.6298828125,-400000.0625,-7940.72021484375,-400000.0625,-13445.6201171875,-400000.0625
151.0772430896759,-400000.0625,-3711.27001953125,-8548.58984375,-400000.0625,-7908.5400390625,-400000.0625,-13425.16015625,-400000.0625
151.09490871429443,-400000.0625,-3682.800048828125,-8520.26953125,-400000.0625,-7880.830078125,-400000.0625,-13398.83984375,-400000.0625
151.1055862903595,-400000.0625,-3700.449951171875,-8535.2001953125,-400000.0625,-7900.81005859375,-400000.0625,-13410.0,-400000.0625
151.12174272537231,-400000.0625,-3733.679931640625,-8568.7197265625,-400000.0625,-7941.25,-400000.0625,-13442.2802734375,-400000.0625
151.13508796691895,-400000.0625,-3737.639892578125,-8572.48046875,-400000.0625,-7955.89013671875,-400000.0625,-13451.150390625,-400000.0625
151.3309895992279,-400000.0625,-3808.070068359375,-8496.0498046875,-400000.0625,-7830.72021484375,-400000.0625,-13417.4404296875,-400000.0625
151.4180715084076,-400000.0625,-3736.110107421875,-8487.3203125,-400000.0625,-7823.08984375,-400000.0625,-13392.16015625,-400000.0625
151.49283504486084,-400000.0625,-3743.7900390625,-8523.75,-400000.0625,-7853.60009765625,-400000.0625,-13418.2900390625,-400000.0625
151.54507303237915,-400000.0625,-3750.659912109375,-8538.2001953125,-400000.0625,-7872.81982421875,-400000.0625,-13407.9501953125,-400000.0625
151.61130690574646,-400000.0625,-3763.6298828125,-8554.7900390625,-400000.0625,-7899.9501953125,-400000.0625,-13437.5595703125,-400000.0625
151.7493450641632,-400000.0625,-3693.43994140625,-8511.3095703125,-400000.0625,-7832.85986328125,-400000.0625,-13375.330078125,-400000.0625
151.94846200942993,-400000.0625,-3753.85009765625,-8575.25,-400000.0625,-7875.58984375,-400000.0625,-13420.2998046875,-400000.0625
151.99507689476013,-400000.0625,-3726.199951171875,-8553.5498046875,-400000.0625,-7853.7998046875,-400000.0625,-13403.7001953125,-400000.0625
152.12149167060852,-400000.0625,-3708.840087890625,-8552.41015625,-400000.0625,-7852.75,-400000.0625,-13390.5400390625,-400000.0625
152.18671703338623,-400000.0625,-3695.580078125,-8548.740234375,-400000.0625,-7821.990234375,-400000.0625,-13377.5703125,-400000.0625
152.25061416625977,-400000.0625,-3746.4599609375,-8591.509765625,-400000.0625,-7884.83984375,-400000.0625,-13426.8798828125,-400000.0625
152.31273365020752,-400000.0625,-3730.820068359375,-8572.7197265625,-400000.0625,-7865.91015625,-400000.0625,-13416.2001953125,-400000.0625
152.41981554031372,-400000.0625,-3688.669921875,-8535.6201171875,-400000.0625,-7827.7099609375,-400000.0625,-13382.0498046875,-400000.0625
152.50551891326904,-400000.0625,-3734.159912109375,-8583.830078125,-400000.0625,-7875.77978515625,-400000.0625,-13423.16015625,-400000.0625
152.80021238327026,-400000.0625,-3741.840087890625,-8537.8701171875,-400000.0625,-7728.77001953125,-400000.0625,-13420.0595703125,-400000.0625
152.8364441394806,-400000.0625,-3748.469970703125,-8536.150390625,-400000.0625,-7727.47998046875,-400000.0625,-13424.01953125,-400000.0625
153.1677258014679,-400000.0625,-3769.110107421875,-8552.7900390625,-400000.0625,-7802.06005859375,-400000.0625,-13441.419921875,-400000.0625
153.20060348510742,-400000.0625,-3771.159912109375,-8556.650390625,-400000.0625,-7823.330078125,-400000.0625,-13443.9501953125,-400000.0625
153.2102735042572,-400000.0625,-3735.110107421875,-8520.5595703125,-400000.0625,-7784.22021484375,-400000.0625,-13414.240234375,-400000.0625
153.22429633140564,-400000.0625,-3712.610107421875,-8498.150390625,-400000.0625,-7757.0400390625,-400000.0625,-13394.7900390625,-400000.0625
153.23977613449097,-400000.0625,-3738.449951171875,-8523.419921875,-400000.0625,-7775.5498046875,-400000.0625,-13407.1796875,-400000.0625
153.2521448135376,-400000.0625,-3782.27001953125,-8563.6103515625,-400000.0625,-7815.4599609375,-400000.0625,-13445.330078125,-400000.0625
153.26278924942017,-400000.0625,-3788.81005859375,-8567.669921875,-400000.0625,-7824.419921875,-400000.0625,-13448.1904296875,-400000.0625
153.2753930091858,-400000.0625,-3749.1298828125,-8531.1396484375,-400000.0625,-7794.43017578125,-400000.0625,-13420.1103515625,-400000.0625
153.3097047805786,-400000.0625,-3717.949951171875,-8503.8701171875,-400000.0625,-7760.47998046875,-400000.0625,-13395.83984375,-400000.0625
153.32245206832886,-400000.0625,-3722.47998046875,-8511.1201171875,-400000.0625,-7767.14990234375,-400000.0625,-13395.7900390625,-400000.0625
153.3344600200653,-400000.0625,-3759.6201171875,-8543.349609375,-400000.0625,-7807.490234375,-400000.0625,-13433.7900390625,-400000.0625
153.34485936164856,-400000.0625,-3768.5400390625,-8552.599609375,-400000.0625,-7820.419921875,-400000.0625,-13443.759765625,-400000.0625
153.36239528656006,-400000.0625,-3737.969970703125,-8523.9404296875,-400000.0625,-7786.60986328125,-400000.0625,-13419.9599609375,-400000.0625
153.3717918395996,-400000.0625,-3704.409912109375,-8494.7099609375,-400000.0625,-7751.27978515625,-400000.0625,-13389.7802734375,-400000.0625
153.3832528591156,-400000.0625,-3706.550048828125,-8499.1904296875,-400000.0625,-7762.47998046875,-400000.0625,-13395.3603515625,-400000.0625
153.41588616371155,-400000.0625,-3758.2900390625,-8548.2099609375,-400000.0625,-7808.39990234375,-400000.0625,-13430.6396484375,-400000.0625
153.43036937713623,-400000.0625,-3783.659912109375,-8567.6201171875,-400000.0625,-7830.3798828125,-400000.0625,-13446.1904296875,-400000.0625
153.4434039592743,-400000.0625,-3746.93994140625,-8535.669921875,-400000.0625,-7794.81005859375,-400000.0625,-13420.25,-400000.0625
153.45643162727356,-400000.0625,-3709.080078125,-8503.580078125,-400000.0625,-7751.509765625,-400000.0625,-13387.490234375,-400000.0625
153.46688985824585,-400000.0625,-3720.81005859375,-8516.83984375,-400000.0625,-7769.5400390625,-400000.0625,-13397.740234375,-400000.0625
153.47780418395996,-400000.0625,-3749.179931640625,-8545.919921875,-400000.0625,-7816.41015625,-400000.0625,-13428.5498046875,-400000.0625
153.49476671218872,-400000.0625,-3764.25,-8557.6103515625,-400000.0625,-7831.10009765625,-400000.0625,-13437.9404296875,-400000.0625
153.5309817790985,-400000.0625,-3745.169921875,-8537.6298828125,-400000.0625,-7800.68017578125,-400000.0625,-13424.8701171875,-400000.0625
153.5420298576355,-400000.0625,-3706.739990234375,-8504.580078125,-400000.0625,-7760.759765625,-400000.0625,-13391.73046875,-400000.0625
153.56174731254578,-400000.0625,-3717.610107421875,-8510.4501953125,-400000.0625,-7762.0498046875,-400000.0625,-13388.349609375,-400000.0625
153.57207989692688,-400000.0625,-3767.919921875,-8555.7900390625,-400000.0625,-7806.58984375,-400000.0625,-13432.3603515625,-400000.0625
153.58686017990112,-400000.0625,-3774.02001953125,-8566.330078125,-400000.0625,-7827.85986328125,-400000.0625,-13447.099609375,-400000.0625
153.60033583641052,-400000.0625,-3737.830078125,-8536.8603515625,-400000.0625,-7799.10009765625,-400000.0625,-13425.490234375,-400000.0625
153.63557982444763,-400000.0625,-3706.739990234375,-8509.5400390625,-400000.0625,-7774.5400390625,-400000.0625,-13396.0302734375,-400000.0625
153.6487476825714,-400000.0625,-3715.280029296875,-8516.3603515625,-400000.0625,-7780.740234375,-400000.0625,-13394.4501953125,-400000.0625
153.72379875183105,-400000.0625,-4378.1298828125,-8469.919921875,-400000.0625,-7603.64990234375,-400000.0625,-13493.8701171875,-400000.0625
153.80147671699524,-400000.0625,-4075.47998046875,-8580.2998046875,-400000.0625,-7796.0,-400000.0625,-13536.83984375,-400000.0625
153.88089084625244,-400000.0625,-3887.419921875,-8530.0,-400000.0625,-7822.509765625,-400000.0625,-13482.91015625,-400000.0625
153.97992944717407,-400000.0625,-3732.820068359375,-8477.259765625,-400000.0625,-7780.27001953125,-400000.0625,-13397.9296875,-400000.0625
154.0442087650299,-400000.0625,-3733.2099609375,-8494.7099609375,-400000.0625,-7792.240234375,-400000.0625,-13398.509765625,-400000.0625
154.10747981071472,-400000.0625,-3772.929931640625,-8543.2099609375,-400000.0625,-7823.27978515625,-400000.0625,-13444.51953125,-400000.0625
154.18274688720703,-400000.0625,-3758.909912109375,-8559.1796875,-400000.0625,-7831.0,-400000.0625,-13377.0,-400000.0625
154.274028301239,-400000.0625,-3760.6201171875,-8570.0498046875,-400000.0625,-7838.919921875,-400000.0625,-13378.1396484375,-400000.0625
154.29827690124512,-400000.0625,-3730.5400390625,-8527.6103515625,-400000.0625,-7811.169921875,-400000.0625,-13344.8603515625,-400000.0625
154.36442756652832,-400000.0625,-3705.60009765625,-8511.3095703125,-400000.0625,-7806.830078125,-400000.0625,-13384.6298828125,-400000.0625
154.43122792243958,-400000.0625,-3752.090087890625,-8559.4697265625,-400000.0625,-7846.2099609375,-400000.0625,-13416.580078125,-400000.0625
154.49403357505798,-400000.0625,-3719.330078125,-8548.6396484375,-400000.0625,-7828.89990234375,-400000.0625,-13375.0,-400000.0625
154.55582237243652,-400000.0625,-3784.0400390625,-8652.7802734375,-400000.0625,-7861.7099609375,-400000.0625,-13286.01953125,-400000.0625
154.63850831985474,-400000.0625,-3763.9599609375,-8651.259765625,-400000.0625,-7839.16015625,-400000.0625,-13191.26953125,-400000.0625
154.69273853302002,-400000.0625,-3834.9599609375,-8725.740234375,-400000.0625,-7890.18017578125,-400000.0625,-13255.5,-400000.0625
154.75068926811218,-400000.0625,-3844.550048828125,-8728.5498046875,-400000.0625,-7897.81005859375,-400000.0625,-13257.0302734375,-400000.0625
154.8082673549652,-400000.0625,-3840.639892578125,-8706.6201171875,-400000.0625,-7890.1298828125,-400000.0625,-13257.3603515625,-400000.0625
154.98158073425293,-400000.0625,-3696.72998046875,-8541.16015625,-400000.0625,-7812.740234375,-400000.0625,-13402.6103515625,-400000.0625
155.07253742218018,-400000.0625,-3709.97998046875,-8560.849609375,-400000.0625,-7834.9599609375,-400000.0625,-13408.9501953125,-400000.0625
155.25865006446838,-400000.0625,-3750.1298828125,-8582.259765625,-400000.0625,-7845.31005859375,-400000.0625,-13418.76953125,-400000.0625
155.37620782852173,-400000.0625,-3698.969970703125,-8535.3896484375,-400000.0625,-7796.14990234375,-400000.0625,-13380.9599609375,-400000.0625
155.41735911369324,-400000.0625,-3739.929931640625,-8581.4501953125,-400000.0625,-7855.509765625,-400000.0625,-13415.0498046875,-400000.0625
155.45292210578918,-400000.0625,-3753.0400390625,-8594.080078125,-400000.0625,-7874.919921875,-400000.0625,-13422.4404296875,-400000.0625
155.59381914138794,-400000.0625,-3687.429931640625,-8534.5302734375,-400000.0625,-7810.2099609375,-400000.0625,-13360.1201171875,-400000.0625
155.65332627296448,-400000.0625,-3698.06005859375,-8549.3603515625,-400000.0625,-7823.75,-400000.0625,-13365.41015625,-400000.0625
155.66495418548584,-400000.0625,-3738.739990234375,-8585.0703125,-400000.0625,-7858.08984375,-400000.0625,-13398.740234375,-400000.0625
155.67431783676147,-400000.0625,-3741.1201171875,-8585.740234375,-400000.0625,-7857.08984375,-400000.0625,-13405.23046875,-400000.0625
155.6861753463745,-400000.0625,-3705.5,-8550.41015625,-400000.0625,-7818.509765625,-400000.0625,-13374.0400390625,-400000.0625
155.6985728740692,-400000.0625,-3680.090087890625,-8528.0400390625,-400000.0625,-7795.18994140625,-400000.0625,-13350.490234375,-400000.0625
155.72824001312256,-400000.0625,-3698.919921875,-8544.919921875,-400000.0625,-7805.10986328125,-400000.0625,-13369.75,-400000.0625
155.73855066299438,-400000.0625,-3743.93994140625,-8586.6904296875,-400000.0625,-7846.02001953125,-400000.0625,-13406.7998046875,-400000.0625
155.7543637752533,-400000.0625,-3752.570068359375,-8594.2802734375,-400000.0625,-7862.81005859375,-400000.0625,-13414.099609375,-400000.0625
155.76688647270203,-400000.0625,-3716.56005859375,-8563.4697265625,-400000.0625,-7837.77001953125,-400000.0625,-13382.25,-400000.0625
155.78111243247986,-400000.0625,-3679.93994140625,-8530.8603515625,-400000.0625,-7802.9599609375,-400000.0625,-13351.919921875,-400000.0625
155.79693031311035,-400000.0625,-3694.580078125,-8539.33984375,-400000.0625,-7794.14013671875,-400000.0625,-13367.3701171875,-400000.0625
155.8075761795044,-400000.0625,-3740.1201171875,-8581.6904296875,-400000.0625,-7840.490234375,-400000.0625,-13403.7998046875,-400000.0625
155.84480166435242,-400000.0625,-3751.56005859375,-8595.2802734375,-400000.0625,-7866.47998046875,-400000.0625,-13419.1103515625,-400000.0625
155.8595154285431,-400000.0625,-3724.3798828125,-8569.0498046875,-400000.0625,-7832.81005859375,-400000.0625,-13395.9296875,-400000.0625
155.87057161331177,-400000.0625,-3688.77001953125,-8538.2900390625,-400000.0625,-7801.77001953125,-400000.0625,-13363.83984375,-400000.0625
155.8819718360901,-400000.0625,-3704.60009765625,-8555.3701171875,-400000.0625,-7812.31005859375,-400000.0625,-13379.099609375,-400000.0625
155.89504075050354,-400000.0625,-3749.659912109375,-8595.2802734375,-400000.0625,-7853.31982421875,-400000.0625,-13414.099609375,-400000.0625
155.90698170661926,-400000.0625,-3752.179931640625,-8596.330078125,-400000.0625,-7869.91015625,-400000.0625,-13417.150390625,-400000.0625
155.9175066947937,-400000.0625,-3721.52001953125,-8565.900390625,-400000.0625,-7836.91015625,-400000.0625,-13383.91015625,-400000.0625
155.9493796825409,-400000.0625,-3685.330078125,-8530.9501953125,-400000.0625,-7792.52001953125,-400000.0625,-13354.349609375,-400000.0625
155.96307969093323,-400000.0625,-3693.06005859375,-8539.009765625,-400000.0625,-7801.14990234375,-400000.0625,-13365.169921875,-400000.0625
155.97273182868958,-400000.0625,-3731.43994140625,-8575.490234375,-400000.0625,-7842.4501953125,-400000.0625,-13394.6396484375,-400000.0625
155.98402976989746,-400000.0625,-3736.590087890625,-8577.4404296875,-400000.0625,-7849.8798828125,-400000.0625,-13398.0302734375,-400000.0625
155.99976682662964,-400000.0625,-3715.75,-8561.419921875,-400000.0625,-7829.240234375,-400000.0625,-13387.0595703125,-400000.0625
156.00892448425293,-400000.0625,-3691.860107421875,-8540.6796875,-400000.0625,-7811.259765625,-400000.0625,-13367.9404296875,-400000.0625
156.0208466053009,-400000.0625,-3706.219970703125,-8549.1201171875,-400000.0625,-7824.7099609375,-400000.0625,-13377.4296875,-400000.0625
156.05910754203796,-400000.0625,-3741.7900390625,-8581.16015625,-400000.0625,-7853.4599609375,-400000.0625,-13407.7998046875,-400000.0625
156.07034730911255,-400000.0625,-3745.1298828125,-8587.599609375,-400000.0625,-7852.509765625,-400000.0625,-13411.1396484375,-400000.0625
156.0840311050415,-400000.0625,-3710.409912109375,-8556.75,-400000.0625,-7820.1298828125,-400000.0625,-13384.3896484375,-400000.0625
156.1039695739746,-400000.0625,-3676.030029296875,-8525.08984375,-400000.0625,-7795.85986328125,-400000.0625,-13352.919921875,-400000.0625
156.1306915283203,-400000.0625,-3687.719970703125,-8535.2001953125,-400000.0625,-7817.93994140625,-400000.0625,-13362.4599609375,-400000.0625
156.22150015830994,-400000.0625,-4011.820068359375,-8521.83984375,-400000.0625,-7728.6298828125,-400000.0625,-13438.849609375,-400000.0625
156.28289079666138,-400000.0625,-3776.409912109375,-8489.66015625,-400000.0625,-7788.330078125,-400000.0625,-13354.9697265625,-400000.0625
156.34649753570557,-400000.0625,-3791.860107421875,-8539.009765625,-400000.0625,-7828.18994140625,-400000.0625,-13381.9599609375,-400000.0625
156.54339003562927,-400000.0625,-3695.969970703125,-8487.0302734375,-400000.0625,-7764.580078125,-400000.0625,-13324.3603515625,-400000.0625
156.60290336608887,-400000.0625,-3748.469970703125,-8545.6904296875,-400000.0625,-7851.22021484375,-400000.0625,-13392.5,-400000.0625
156.72761392593384,-400000.0625,-3746.4599609375,-8550.6396484375,-400000.0625,-7854.509765625,-400000.0625,-13389.919921875,-400000.0625
156.83088874816895,-400000.0625,-3703.639892578125,-8511.9296875,-400000.0625,-7810.39990234375,-400000.0625,-13352.490234375,-400000.0625
157.05001211166382,-400000.0625,-3678.179931640625,-8504.490234375,-400000.0625,-7790.14013671875,-400000.0625,-13332.8896484375,-400000.0625
157.11563539505005,-400000.0625,-3682.419921875,-8512.259765625,-400000.0625,-7790.0400390625,-400000.0625,-13337.1796875,-400000.0625
157.20416712760925,-400000.0625,-3686.139892578125,-8515.2197265625,-400000.0625,-7788.9501953125,-400000.0625,-13338.419921875,-400000.0625
157.25647449493408,-400000.0625,-3705.31005859375,-8539.73046875,-400000.0625,-7801.39013671875,-400000.0625,-13358.0703125,-400000.0625
157.30799436569214,-400000.0625,-3728.719970703125,-8565.6201171875,-400000.0625,-7833.52978515625,-400000.0625,-13376.669921875,-400000.0625
157.3704903125763,-400000.0625,-3757.429931640625,-8596.7099609375,-400000.0625,-7855.3701171875,-400000.0625,-13407.51953125,-400000.0625
157.59069323539734,-400000.0625,-3724.47998046875,-8567.8095703125,-400000.0625,-7791.759765625,-400000.0625,-13376.8095703125,-400000.0625
157.75769662857056,-400000.0625,-3714.179931640625,-8561.23046875,-400000.0625,-7804.009765625,-400000.0625,-13379.91015625,-400000.0625
157.82025265693665,-400000.0625,-3668.2099609375,-8519.0302734375,-400000.0625,-7763.10009765625,-400000.0625,-13355.9697265625,-400000.0625
157.9377613067627,-400000.0625,-3676.1298828125,-8526.9501953125,-400000.0625,-7775.39990234375,-400000.0625,-13369.900390625,-400000.0625
157.9775745868683,-400000.0625,-3703.1201171875,-8553.599609375,-400000.0625,-7811.39990234375,-400000.0625,-13399.3203125,-400000.0625
158.00798082351685,-400000.0625,-3671.27001953125,-8517.5498046875,-400000.0625,-7777.93017578125,-400000.0625,-13371.330078125,-400000.0625
158.14828634262085,-400000.0625,-3710.219970703125,-8516.83984375,-400000.0625,-7805.77978515625,-400000.0625,-13409.7099609375,-400000.0625
158.2040798664093,-400000.0625,-3679.93994140625,-8488.66015625,-400000.0625,-7787.3701171875,-400000.0625,-13391.4501953125,-400000.0625
158.22356367111206,-400000.0625,-3723.10009765625,-8527.2802734375,-400000.0625,-7823.60986328125,-400000.0625,-13427.830078125,-400000.0625
158.23620557785034,-400000.0625,-3735.72998046875,-8539.2998046875,-400000.0625,-7840.25,-400000.0625,-13439.6103515625,-400000.0625
158.24939918518066,-400000.0625,-3705.97998046875,-8513.9296875,-400000.0625,-7809.93017578125,-400000.0625,-13412.91015625,-400000.0625
158.2894377708435,-400000.0625,-3674.320068359375,-8482.0302734375,-400000.0625,-7777.41015625,-400000.0625,-13376.669921875,-400000.0625
158.30462384223938,-400000.0625,-3673.93994140625,-8483.2197265625,-400000.0625,-7780.02978515625,-400000.0625,-13385.8701171875,-400000.0625
158.31890606880188,-400000.0625,-3704.02001953125,-8511.2099609375,-400000.0625,-7810.31005859375,-400000.0625,-13415.2900390625,-400000.0625
158.33890771865845,-400000.0625,-3707.4599609375,-8513.169921875,-400000.0625,-7818.89013671875,-400000.0625,-13419.490234375,-400000.0625
158.35206651687622,-400000.0625,-3675.75,-8479.3603515625,-400000.0625,-7791.14013671875,-400000.0625,-13393.4501953125,-400000.0625
158.40166997909546,-400000.0625,-3658.820068359375,-8465.7197265625,-400000.0625,-7773.919921875,-400000.0625,-13377.6201171875,-400000.0625
158.41335463523865,-400000.0625,-3678.469970703125,-8486.4599609375,-400000.0625,-7786.080078125,-400000.0625,-13394.6396484375,-400000.0625
158.42471861839294,-400000.0625,-3712.93994140625,-8519.4599609375,-400000.0625,-7815.5498046875,-400000.0625,-13425.349609375,-400000.0625
158.4429154396057,-400000.0625,-3731.389892578125,-8535.240234375,-400000.0625,-7836.14990234375,-400000.0625,-13432.83984375,-400000.0625
158.45456433296204,-400000.0625,-3699.5400390625,-8505.1103515625,-400000.0625,-7810.5498046875,-400000.0625,-13407.759765625,-400000.0625
158.48964405059814,-400000.0625,-3661.969970703125,-8474.1103515625,-400000.0625,-7780.93017578125,-400000.0625,-13378.4296875,-400000.0625
158.50044059753418,-400000.0625,-3666.639892578125,-8480.0302734375,-400000.0625,-7788.3701171875,-400000.0625,-13382.48046875,-400000.0625
