time,ch1,ch2,ch3,ch4,ch5,ch6,ch7,ch8
159.54432463645935,-400000.0625,-68158.6328125,-400000.0625,-400000.0625,-340209.65625,-400000.0625,-400000.0625,-400000.0625
159.55778336524963,-400000.0625,-68429.046875,-400000.0625,-400000.0625,-342300.21875,-400000.0625,-400000.0625,-400000.0625
159.56376147270203,-400000.0625,-68119.296875,-400000.0625,-400000.0625,-340022.65625,-400000.0625,-400000.0625,-400000.0625
159.5712695121765,-400000.0625,-69048.3671875,-400000.0625,-400000.0625,-338736.15625,-400000.0625,-400000.0625,-400000.0625
159.57843470573425,-400000.0625,-71088.890625,-400000.0625,-400000.0625,-342343.9375,-400000.0625,-400000.0625,-400000.0625
159.58425760269165,-400000.0625,-72833.1171875,-400000.0625,-400000.0625,-348072.375,-400000.0625,-400000.0625,-400000.0625
159.59261631965637,-400000.0625,-73087.3671875,-400000.0625,-400000.0625,-350200.875,-400000.0625,-400000.0625,-400000.0625
159.60014152526855,-400000.0625,-72765.6484375,-400000.0625,-400000.0625,-347902.96875,-400000.0625,-400000.0625,-400000.0625
159.60542249679565,-400000.0625,-73786.4609375,-400000.0625,-400000.0625,-346537.8125,-400000.0625,-400000.0625,-400000.0625
159.61095190048218,-400000.0625,-75839.34375,-400000.0625,-400000.0625,-350121.0625,-400000.0625,-400000.0625,-400000.0625
159.61775183677673,-400000.0625,-77510.6015625,-400000.0625,-400000.0625,-355887.5,-400000.0625,-400000.0625,-400000.0625
159.62487196922302,-400000.0625,-77838.0,-400000.0625,-400000.0625,-358035.375,-400000.0625,-400000.0625,-400000.0625
159.6315586566925,-400000.0625,-77554.65625,-400000.0625,-400000.0625,-355703.71875,-400000.0625,-400000.0625,-400000.0625
159.63797402381897,-400000.0625,-78481.96875,-400000.0625,-400000.0625,-354302.875,-400000.0625,-400000.0625,-400000.0625
159.64376759529114,-400000.0625,-80532.75,-400000.0625,-400000.0625,-357849.15625,-400000.0625,-400000.0625,-400000.0625
159.64958500862122,-400000.0625,-82289.9375,-400000.0625,-400000.0625,-363590.875,-400000.0625,-400000.0625,-400000.0625
159.66320896148682,-400000.0625,-82617.1015625,-400000.0625,-400000.0625,-365743.15625,-400000.0625,-400000.0625,-400000.0625
159.67051434516907,-400000.0625,-82289.9921875,-400000.0625,-400000.0625,-363442.75,-400000.0625,-400000.0625,-400000.0625
159.67764902114868,-400000.0625,-83228.171875,-400000.0625,-400000.0625,-362063.78125,-400000.0625,-400000.0625,-400000.0625
159.68339443206787,-400000.0625,-85303.5078125,-400000.0625,-400000.0625,-365572.34375,-400000.0625,-400000.0625,-400000.0625
159.69101357460022,-400000.0625,-87056.546875,-400000.0625,-400000.0625,-371224.3125,-400000.0625,-400000.0625,-400000.0625
159.69641590118408,-400000.0625,-87381.46875,-400000.0625,-400000.0625,-373318.5625,-400000.0625,-400000.0625,-400000.0625
159.70333671569824,-400000.0625,-87098.703125,-400000.0625,-400000.0625,-371045.25,-400000.0625,-400000.0625,-400000.0625
159.71179008483887,-400000.0625,-88069.0703125,-400000.0625,-400000.0625,-369702.28125,-400000.0625,-400000.0625,-400000.0625
159.7177712917328,-400000.0625,-90135.15625,-400000.0625,-400000.0625,-373193.5,-400000.0625,-400000.0625,-400000.0625
159.72619152069092,-400000.0625,-91860.828125,-400000.0625,-400000.0625,-378783.28125,-400000.0625,-400000.0625,-400000.0625
159.7332465648651,-400000.0625,-92183.40625,-400000.0625,-400000.0625,-380849.5,-400000.0625,-400000.0625,-400000.0625
159.74052333831787,-400000.0625,-91892.109375,-400000.0625,-400000.0625,-378601.125,-400000.0625,-400000.0625,-400000.0625
159.7460286617279,-400000.0625,-92848.0703125,-400000.0625,-400000.0625,-377304.96875,-400000.0625,-400000.0625,-400000.0625
159.75256443023682,-400000.0625,-94891.609375,-400000.0625,-400000.0625,-380770.96875,-400000.0625,-400000.0625,-400000.0625
159.76496291160583,-400000.0625,-96594.25,-400000.0625,-400000.0625,-386285.40625,-400000.0625,-400000.0625,-400000.0625
159.77180933952332,-400000.0625,-96896.3671875,-400000.0625,-400000.0625,-388300.65625,-400000.0625,-400000.0625,-400000.0625
159.77810049057007,-400000.0625,-96611.9375,-400000.0625,-400000.0625,-386086.46875,-400000.0625,-400000.0625,-400000.0625
159.78547954559326,-400000.0625,-97573.9609375,-400000.0625,-400000.0625,-384817.96875,-400000.0625,-400000.0625,-400000.0625
159.7930920124054,-400000.0625,-99608.71875,-400000.0625,-400000.0625,-388251.90625,-400000.0625,-400000.0625,-400000.0625
159.7989706993103,-400000.0625,-101293.0,-400000.0625,-400000.0625,-393715.4375,-400000.0625,-400000.0625,-400000.0625
159.80735421180725,-400000.0625,-101590.9296875,-400000.0625,-400000.0625,-395718.09375,-400000.0625,-400000.0625,-400000.0625
159.81360125541687,-400000.0625,-101318.421875,-400000.0625,-400000.0625,-393511.53125,-400000.0625,-400000.0625,-400000.0625
159.82184863090515,-400000.0625,-102289.546875,-400000.0625,-400000.0625,-392243.53125,-400000.0625,-400000.0625,-400000.0625
159.8297197818756,-400000.0625,-104305.65625,-400000.0625,-400000.0625,-395655.34375,-400000.0625,-400000.0625,-400000.0625
159.8376977443695,-400000.0625,-105977.640625,-400000.0625,-400000.0625,-400000.0625,-400000.0625,-400000.0625,-400000.0625
159.8431646823883,-400000.0625,-106269.1796875,-400000.0625,-400000.0625,-400000.0625,-400000.0625,-400000.0625,-400000.0625
159.84910464286804,-400000.0625,-105993.4296875,-400000.0625,-400000.0625,-400000.0625,-400000.0625,-400000.0625,-400000.0625
159.85510754585266,-400000.0625,-106955.25,-400000.0625,-400000.0625,-399655.1875,-400000.0625,-400000.0625,-400000.0625
159.86557340621948,-400000.0625,-108967.9765625,-400000.0625,-400000.0625,-400000.0625,-400000.0625,-400000.0625,-400000.0625
159.87376523017883,-400000.0625,-110628.09375,-400000.0625,-400000.0625,-400000.0625,-400000.0625,-400000.0625,-400000.0625
159.8800868988037,-400000.0625,-110932.6484375,-400000.0625,-400000.0625,-400000.0625,-400000.0625,-400000.0625,-400000.0625
159.88528203964233,-400000.0625,-110662.0390625,-400000.0625,-400000.0625,-400000.0625,-400000.0625,-400000.0625,-400000.0625
159.89140582084656,-400000.0625,-111611.7109375,-400000.0625,-400000.0625,-400000.0625,-400000.0625,-400000.0625,-400000.0625
159.89676809310913,-400000.0625,-113615.71875,-400000.0625,-400000.0625,-400000.0625,-400000.0625,-400000.0625,-400000.0625
159.90358448028564,-400000.0625,-115289.5625,-400000.0625,-400000.0625,-400000.0625,-400000.0625,-400000.0625,-400000.0625
159.91056728363037,-400000.0625,-115597.7890625,-400000.0625,-400000.0625,-400000.0625,-400000.0625,-400000.0625,-400000.0625
159.9167184829712,-400000.0625,-115321.75,-400000.0625,-400000.0625,-400000.0625,-400000.0625,-400000.0625,-400000.0625
159.9251606464386,-400000.0625,-116270.6484375,-400000.0625,-400000.0625,-400000.0625,-400000.0625,-400000.0625,-400000.0625
159.93178272247314,-400000.0625,-118276.609375,-400000.0625,-400000.0625,-400000.0625,-400000.0625,-400000.0625,-400000.0625
159.93813681602478,-400000.0625,-119957.3671875,-400000.0625,-400000.0625,-400000.0625,-400000.0625,-400000.0625,-400000.0625
159.94460773468018,-400000.0625,-120259.0078125,-400000.0625,-400000.0625,-400000.0625,-400000.0625,-400000.0625,-400000.0625
159.95128893852234,-400000.0625,-119973.71875,-400000.0625,-400000.0625,-400000.0625,-400000.0625,-400000.0625,-400000.0625
159.9568953514099,-400000.0625,-120927.0625,-400000.0625,-400000.0625,-400000.0625,-400000.0625,-400000.0625,-400000.0625
159.97063326835632,-400000.0625,-122944.3203125,-400000.0625,-400000.0625,-400000.0625,-400000.0625,-400000.0625,-400000.0625
159.97718954086304,-400000.0625,-124627.9375,-400000.0625,-400000.0625,-400000.0625,-400000.0625,-400000.0625,-400000.0625
159.98369979858398,-400000.0625,-124933.8828125,-400000.0625,-400000.0625,-400000.0625,-400000.0625,-400000.0625,-400000.0625
159.99052834510803,-400000.0625,-124644.203125,-400000.0625,-400000.0625,-400000.0625,-400000.0625,-400000.0625,-400000.0625
159.99808979034424,-400000.0625,-125587.0,-400000.0625,-400000.0625,-400000.0625,-400000.0625,-400000.0625,-400000.0625
160.0060715675354,-400000.0625,-127607.6875,-400000.0625,-400000.0625,-400000.0625,-400000.0625,-400000.0625,-400000.0625
160.01265048980713,-400000.0625,-129294.21875,-400000.0625,-400000.0625,-400000.0625,-400000.0625,-400000.0625,-400000.0625
160.02053713798523,-400000.0625,-129600.5390625,-400000.0625,-400000.0625,-400000.0625,-400000.0625,-400000.0625,-400000.0625
160.02723622322083,-400000.0625,-129296.40625,-400000.0625,-400000.0625,-400000.0625,-400000.0625,-400000.0625,-400000.0625
160.0403871536255,-400000.0625,-130222.71875,-400000.0625,-400000.0625,-400000.0625,-400000.0625,-400000.0625,-400000.0625
160.05477929115295,-400000.0625,-132241.40625,-400000.0625,-400000.0625,-400000.0625,-400000.0625,-400000.0625,-400000.0625
160.06130123138428,-400000.0625,-133966.9375,-400000.0625,-400000.0625,-400000.0625,-400000.0625,-400000.0625,-400000.0625
160.07565999031067,-400000.0625,-134283.515625,-400000.0625,-400000.0625,-400000.0625,-400000.0625,-400000.0625,-400000.0625
160.0812382698059,-400000.0625,-133948.296875,-400000.0625,-400000.0625,-400000.0625,-400000.0625,-400000.0625,-400000.0625
160.08747553825378,-400000.0625,-134834.109375,-400000.0625,-400000.0625,-400000.0625,-400000.0625,-400000.0625,-400000.0625
160.09432744979858,-400000.0625,-136860.53125,-400000.0625,-400000.0625,-400000.0625,-400000.0625,-400000.0625,-400000.0625
160.100576877594,-400000.0625,-138598.171875,-400000.0625,-400000.0625,-400000.0625,-400000.0625,-400000.0625,-400000.0625
160.10795712471008,-400000.0625,-138910.125,-400000.0625,-400000.0625,-400000.0625,-400000.0625,-400000.0625,-400000.0625
160.1139862537384,-400000.0625,-138550.25,-400000.0625,-400000.0625,-400000.0625,-400000.0625,-400000.0625,-400000.0625
160.12072372436523,-400000.0625,-139439.65625,-400000.0625,-400000.0625,-400000.0625,-400000.0625,-400000.0625,-400000.0625
160.12710785865784,-400000.0625,-141473.9375,-400000.0625,-400000.0625,-400000.0625,-400000.0625,-400000.0625,-400000.0625
160.13240122795105,-400000.0625,-143209.8125,-400000.0625,-400000.0625,-400000.0625,-400000.0625,-400000.0625,-400000.0625
160.14084219932556,-400000.0625,-143523.140625,-400000.0625,-400000.0625,-400000.0625,-400000.0625,-400000.0625,-400000.0625
160.14883184432983,-400000.0625,-143187.40625,-400000.0625,-400000.0625,-400000.0625,-400000.0625,-400000.0625,-400000.0625
160.15582418441772,-400000.0625,-144094.625,-400000.0625,-400000.0625,-400000.0625,-400000.0625,-400000.0625,-400000.0625
160.1628212928772,-400000.0625,-146143.265625,-400000.0625,-400000.0625,-400000.0625,-400000.0625,-400000.0625,-400000.0625
160.1742718219757,-400000.0625,-147900.546875,-400000.0625,-400000.0625,-400000.0625,-400000.0625,-400000.0625,-400000.0625
160.18109464645386,-400000.0625,-148235.203125,-400000.0625,-400000.0625,-400000.0625,-400000.0625,-400000.0625,-400000.0625
160.18868947029114,-400000.0625,-147885.046875,-400000.0625,-400000.0625,-400000.0625,-400000.0625,-400000.0625,-400000.0625
160.19501185417175,-400000.0625,-148771.734375,-400000.0625,-400000.0625,-400000.0625,-400000.0625,-400000.0625,-400000.0625
160.20091104507446,-400000.0625,-150798.4375,-400000.0625,-400000.0625,-400000.0625,-400000.0625,-400000.0625,-400000.0625
160.20606637001038,-400000.0625,-152539.125,-400000.0625,-400000.0625,-400000.0625,-400000.0625,-400000.0625,-400000.0625
160.21131229400635,-400000.0625,-152859.1875,-400000.0625,-400000.0625,-400000.0625,-400000.0625,-400000.0625,-400000.0625
160.21660137176514,-400000.0625,-152493.203125,-400000.0625,-400000.0625,-400000.0625,-400000.0625,-400000.0625,-400000.0625
160.22362756729126,-400000.0625,-153356.703125,-400000.0625,-400000.0625,-400000.0625,-400000.0625,-400000.0625,-400000.0625
160.2301561832428,-400000.0625,-155379.984375,-400000.0625,-400000.0625,-400000.0625,-400000.0625,-400000.0625,-400000.0625
160.24082899093628,-400000.0625,-157134.0625,-400000.0625,-400000.0625,-400000.0625,-400000.0625,-400000.0625,-400000.0625
160.25006937980652,-400000.0625,-157458.90625,-400000.0625,-400000.0625,-400000.0625,-400000.0625,-400000.0625,-400000.0625
160.2582666873932,-400000.0625,-157101.078125,-400000.0625,-400000.0625,-400000.0625,-400000.0625,-400000.0625,-400000.0625
160.26372838020325,-400000.0625,-157971.9375,-400000.0625,-400000.0625,-400000.0625,-400000.0625,-400000.0625,-400000.0625
160.2769980430603,-400000.0625,-159991.09375,-400000.0625,-400000.0625,-400000.0625,-400000.0625,-400000.0625,-400000.0625
160.28283405303955,-400000.0625,-161740.984375,-400000.0625,-400000.0625,-400000.0625,-400000.0625,-400000.0625,-400000.0625
160.28994989395142,-400000.0625,-162065.328125,-400000.0625,-400000.0625,-400000.0625,-400000.0625,-400000.0625,-400000.0625
160.29585695266724,-400000.0625,-161700.359375,-400000.0625,-400000.0625,-400000.0625,-400000.0625,-400000.0625,-400000.0625
160.303551197052,-400000.0625,-162564.0625,-400000.0625,-400000.0625,-400000.0625,-400000.0625,-400000.0625,-400000.0625
160.3101842403412,-400000.0625,-164585.1875,-400000.0625,-400000.0625,-400000.0625,-400000.0625,-400000.0625,-400000.0625
160.31522607803345,-400000.0625,-166325.40625,-400000.0625,-400000.0625,-400000.0625,-400000.0625,-400000.0625,-400000.0625
160.32150721549988,-400000.0625,-166647.3125,-400000.0625,-400000.0625,-400000.0625,-400000.0625,-400000.0625,-400000.0625
160.32861137390137,-400000.0625,-166291.828125,-400000.0625,-400000.0625,-400000.0625,-400000.0625,-400000.0625,-400000.0625
160.33386492729187,-400000.0625,-167174.9375,-400000.0625,-400000.0625,-400000.0625,-400000.0625,-400000.0625,-400000.0625
160.33914422988892,-400000.0625,-169193.53125,-400000.0625,-400000.0625,-400000.0625,-400000.0625,-400000.0625,-400000.0625
160.34431505203247,-400000.0625,-170919.25,-400000.0625,-400000.0625,-400000.0625,-400000.0625,-400000.0625,-400000.0625
160.34975576400757,-400000.0625,-171233.25,-400000.0625,-400000.0625,-400000.0625,-400000.0625,-400000.0625,-400000.0625
160.3583333492279,-400000.0625,-170888.78125,-400000.0625,-400000.0625,-400000.0625,-400000.0625,-400000.0625,-400000.0625
160.3648591041565,-400000.0625,-171768.34375,-400000.0625,-400000.0625,-400000.0625,-400000.0625,-400000.0625,-400000.0625
160.37942790985107,-400000.0625,-173772.640625,-400000.0625,-400000.0625,-400000.0625,-400000.0625,-400000.0625,-400000.0625
160.38526034355164,-400000.0625,-175495.265625,-400000.0625,-400000.0625,-400000.0625,-400000.0625,-400000.0625,-400000.0625
160.3906066417694,-400000.0625,-175819.265625,-400000.0625,-400000.0625,-400000.0625,-400000.0625,-400000.0625,-400000.0625
160.39706015586853,-400000.0625,-175476.625,-400000.0625,-400000.0625,-400000.0625,-400000.0625,-400000.0625,-400000.0625
160.40437579154968,-400000.0625,-176357.8125,-400000.0625,-400000.0625,-400000.0625,-400000.0625,-400000.0625,-400000.0625
160.41135454177856,-400000.0625,-178349.984375,-400000.0625,-400000.0625,-400000.0625,-400000.0625,-400000.0625,-400000.0625
160.41726088523865,-400000.0625,-180059.265625,-400000.0625,-400000.0625,-400000.0625,-400000.0625,-400000.0625,-400000.0625
160.42567133903503,-400000.0625,-180386.375,-400000.0625,-400000.0625,-400000.0625,-400000.0625,-400000.0625,-400000.0625
160.4321255683899,-400000.0625,-180050.96875,-400000.0625,-400000.0625,-400000.0625,-400000.0625,-400000.0625,-400000.0625
160.44000720977783,-400000.0625,-180921.671875,-400000.0625,-400000.0625,-400000.0625,-400000.0625,-400000.0625,-400000.0625
160.44578862190247,-400000.0625,-182899.828125,-400000.0625,-400000.0625,-400000.0625,-400000.0625,-400000.0625,-400000.0625
160.45213079452515,-400000.0625,-184587.125,-400000.0625,-400000.0625,-400000.0625,-400000.0625,-400000.0625,-400000.0625
160.46001648902893,-400000.0625,-184903.125,-400000.0625,-400000.0625,-400000.0625,-400000.0625,-400000.0625,-400000.0625
160.4657552242279,-400000.0625,-184580.203125,-400000.0625,-400000.0625,-400000.0625,-400000.0625,-400000.0625,-400000.0625
160.4805405139923,-400000.0625,-185463.984375,-400000.0625,-400000.0625,-400000.0625,-400000.0625,-400000.0625,-400000.0625
160.4890012741089,-400000.0625,-187431.453125,-400000.0625,-400000.0625,-400000.0625,-400000.0625,-400000.0625,-400000.0625
160.49564814567566,-400000.0625,-189122.75,-400000.0625,-400000.0625,-400000.0625,-400000.0625,-400000.0625,-400000.0625
160.50344967842102,-400000.0625,-189439.9375,-400000.0625,-400000.0625,-400000.0625,-400000.0625,-400000.0625,-400000.0625
160.50991320610046,-400000.0625,-189117.03125,-400000.0625,-400000.0625,-400000.0625,-400000.0625,-400000.0625,-400000.0625
160.51665496826172,-400000.0625,-189998.890625,-400000.0625,-400000.0625,-400000.0625,-400000.0625,-400000.0625,-400000.0625
160.52506399154663,-400000.0625,-191967.703125,-400000.0625,-400000.0625,-400000.0625,-400000.0625,-400000.0625,-400000.0625
160.53205680847168,-400000.0625,-193643.15625,-400000.0625,-400000.0625,-400000.0625,-400000.0625,-400000.0625,-400000.0625
160.53914880752563,-400000.0625,-193970.796875,-400000.0625,-400000.0625,-400000.0625,-400000.0625,-400000.0625,-400000.0625
160.5453441143036,-400000.0625,-193655.3125,-400000.0625,-400000.0625,-400000.0625,-400000.0625,-400000.0625,-400000.0625
160.55204248428345,-400000.0625,-194527.59375,-400000.0625,-400000.0625,-400000.0625,-400000.0625,-400000.0625,-400000.0625
160.56003522872925,-400000.0625,-196477.765625,-400000.0625,-400000.0625,-400000.0625,-400000.0625,-400000.0625,-400000.0625
160.56560826301575,-400000.0625,-198155.703125,-400000.0625,-400000.0625,-400000.0625,-400000.0625,-400000.0625,-400000.0625
160.57351064682007,-400000.0625,-198473.5625,-400000.0625,-400000.0625,-400000.0625,-400000.0625,-400000.0625,-400000.0625
160.58713126182556,-400000.0625,-198153.515625,-400000.0625,-400000.0625,-400000.0625,-400000.0625,-400000.0625,-400000.0625
160.59472107887268,-400000.0625,-199026.1875,-400000.0625,-400000.0625,-400000.0625,-400000.0625,-400000.0625,-400000.0625
160.6029670238495,-400000.0625,-200990.3125,-400000.0625,-400000.0625,-400000.0625,-400000.0625,-400000.0625,-400000.0625
160.60905194282532,-400000.0625,-202672.21875,-400000.0625,-400000.0625,-400000.0625,-400000.0625,-400000.0625,-400000.0625
160.61466193199158,-400000.0625,-202994.90625,-400000.0625,-400000.0625,-400000.0625,-400000.0625,-400000.0625,-400000.0625
160.62069129943848,-400000.0625,-202668.015625,-400000.0625,-400000.0625,-400000.0625,-400000.0625,-400000.0625,-400000.0625
160.6259412765503,-400000.0625,-203537.578125,-400000.0625,-400000.0625,-400000.0625,-400000.0625,-400000.0625,-400000.0625
160.63120889663696,-400000.0625,-205494.765625,-400000.0625,-400000.0625,-400000.0625,-400000.0625,-400000.0625,-400000.0625
160.63775396347046,-400000.0625,-207185.390625,-400000.0625,-400000.0625,-400000.0625,-400000.0625,-400000.0625,-400000.0625
160.64487743377686,-400000.0625,-207519.21875,-400000.0625,-400000.0625,-400000.0625,-400000.0625,-400000.0625,-400000.0625
160.65177726745605,-400000.0625,-207208.984375,-400000.0625,-400000.0625,-400000.0625,-400000.0625,-400000.0625,-400000.0625
160.65941405296326,-400000.0625,-208094.671875,-400000.0625,-400000.0625,-400000.0625,-400000.0625,-400000.0625,-400000.0625
160.66481280326843,-400000.0625,-210044.265625,-400000.0625,-400000.0625,-400000.0625,-400000.0625,-400000.0625,-400000.0625
160.67185139656067,-400000.0625,-211693.125,-400000.0625,-400000.0625,-400000.0625,-400000.0625,-400000.0625,-400000.0625
160.67860770225525,-400000.0625,-212004.734375,-400000.0625,-400000.0625,-400000.0625,-400000.0625,-400000.0625,-400000.0625
160.6927673816681,-400000.0625,-211719.59375,-400000.0625,-400000.0625,-400000.0625,-400000.0625,-400000.0625,-400000.0625
160.69956874847412,-400000.0625,-212624.625,-400000.0625,-400000.0625,-400000.0625,-400000.0625,-400000.0625,-400000.0625
160.70660948753357,-400000.0625,-214529.828125,-400000.0625,-400000.0625,-400000.0625,-400000.0625,-400000.0625,-400000.0625
160.7137987613678,-400000.0625,-216105.953125,-400000.0625,-400000.0625,-400000.0625,-400000.0625,-400000.0625,-400000.0625
160.7203073501587,-400000.0625,-216355.34375,-400000.0625,-400000.0625,-400000.0625,-400000.0625,-400000.0625,-400000.0625
160.72622156143188,-400000.0625,-190859.046875,-400000.0625,-400000.0625,-400000.0625,-400000.0625,-400000.0625,-400000.0625
160.73165798187256,-400000.0625,-72652.296875,-400000.0625,-400000.0625,-400000.0625,-400000.0625,-400000.0625,-400000.0625
160.73964095115662,-400000.0625,-33728.7890625,-400000.0625,-400000.0625,-400000.0625,-400000.0625,-400000.0625,-400000.0625
160.74648237228394,-400000.0625,-31523.5703125,-400000.0625,-400000.0625,-400000.0625,-400000.0625,-400000.0625,-400000.0625
160.75355172157288,-400000.0625,-31374.740234375,-400000.0625,-400000.0625,-400000.0625,-400000.0625,-400000.0625,-400000.0625
160.76009225845337,-400000.0625,-31661.23046875,-400000.0625,-400000.0625,-400000.0625,-400000.0625,-400000.0625,-400000.0625
160.76682686805725,-400000.0625,-30855.560546875,-400000.0625,-400000.0625,-400000.0625,-400000.0625,-400000.0625,-400000.0625
160.77528643608093,-400000.0625,-29208.94921875,-400000.0625,-400000.0625,-400000.0625,-400000.0625,-400000.0625,-400000.0625
160.78175687789917,-400000.0625,-28133.349609375,-400000.0625,-400000.0625,-400000.0625,-400000.0625,-400000.0625,-400000.0625
160.79351329803467,-400000.0625,-28514.669921875,-400000.0625,-400000.0625,-400000.0625,-400000.0625,-400000.0625,-400000.0625
160.79934310913086,-400000.0625,-29216.150390625,-400000.0625,-400000.0625,-400000.0625,-400000.0625,-400000.0625,-400000.0625
160.80764532089233,-400000.0625,-28641.75,-400000.0625,-400000.0625,-400000.0625,-400000.0625,-400000.0625,-400000.0625
160.81434440612793,-400000.0625,-27154.01953125,-400000.0625,-400000.0625,-400000.0625,-400000.0625,-400000.0625,-400000.0625
160.82244157791138,-400000.0625,-26313.689453125,-400000.0625,-400000.0625,-400000.0625,-400000.0625,-400000.0625,-400000.0625
160.82843923568726,-400000.0625,-26887.470703125,-400000.0625,-400000.0625,-400000.0625,-400000.0625,-400000.0625,-400000.0625
160.83578968048096,-400000.0625,-27665.669921875,-400000.0625,-400000.0625,-400000.0625,-400000.0625,-400000.0625,-400000.0625
160.84169268608093,-400000.0625,-27189.58984375,-400000.0625,-400000.0625,-400000.0625,-400000.0625,-400000.0625,-400000.0625
160.84767413139343,-400000.0625,-25806.0,-400000.0625,-400000.0625,-400000.0625,-400000.0625,-400000.0625,-400000.0625
160.85598397254944,-400000.0625,-25069.4296875,-400000.0625,-400000.0625,-400000.0625,-400000.0625,-400000.0625,-400000.0625
160.86206030845642,-400000.0625,-25721.310546875,-400000.0625,-400000.0625,-400000.0625,-400000.0625,-400000.0625,-400000.0625
160.8709454536438,-400000.0625,-26576.5703125,-400000.0625,-400000.0625,-400000.0625,-400000.0625,-400000.0625,-400000.0625
160.87683701515198,-400000.0625,-26139.7890625,-400000.0625,-400000.0625,-400000.0625,-400000.0625,-400000.0625,-400000.0625
160.8846685886383,-400000.0625,-24800.490234375,-400000.0625,-400000.0625,-400000.0625,-400000.0625,-400000.0625,-400000.0625
160.89890050888062,-400000.0625,-24075.609375,-400000.0625,-400000.0625,-400000.0625,-400000.0625,-400000.0625,-400000.0625
160.9072141647339,-400000.0625,-24654.33984375,-400000.0625,-400000.0625,-400000.0625,-400000.0625,-400000.0625,-400000.0625
160.91461539268494,-400000.0625,-25477.220703125,-400000.0625,-400000.0625,-400000.0625,-400000.0625,-400000.0625,-400000.0625
160.9219467639923,-400000.0625,-25021.83984375,-400000.0625,-400000.0625,-400000.0625,-400000.0625,-400000.0625,-400000.0625
160.92811346054077,-400000.0625,-23606.109375,-400000.0625,-400000.0625,-400000.0625,-400000.0625,-400000.0625,-400000.0625
160.9356586933136,-400000.0625,-22887.5703125,-400000.0625,-400000.0625,-400000.0625,-400000.0625,-400000.0625,-400000.0625
160.94284057617188,-400000.0625,-23562.19921875,-400000.0625,-400000.0625,-400000.0625,-400000.0625,-400000.0625,-400000.0625
160.94869661331177,-400000.0625,-24451.259765625,-400000.0625,-400000.0625,-400000.0625,-400000.0625,-400000.0625,-400000.0625
160.9562258720398,-400000.0625,-24115.140625,-400000.0625,-400000.0625,-400000.0625,-400000.0625,-400000.0625,-400000.0625
160.9625039100647,-400000.0625,-22813.900390625,-400000.0625,-400000.0625,-400000.0625,-400000.0625,-400000.0625,-400000.0625
160.96956205368042,-400000.0625,-22199.58984375,-400000.0625,-400000.0625,-400000.0625,-400000.0625,-400000.0625,-400000.0625
160.976078748703,-400000.0625,-22984.560546875,-400000.0625,-400000.0625,-400000.0625,-400000.0625,-400000.0625,-400000.0625
160.98142790794373,-400000.0625,-23836.0390625,-400000.0625,-400000.0625,-400000.0625,-400000.0625,-400000.0625,-400000.0625
160.98698711395264,-400000.0625,-23386.91015625,-400000.0625,-400000.0625,-400000.0625,-400000.0625,-400000.0625,-400000.0625
160.99804759025574,-400000.0625,-22211.080078125,-400000.0625,-400000.0625,-400000.0625,-400000.0625,-400000.0625,-400000.0625
161.00393748283386,-400000.0625,-21621.08984375,-400000.0625,-400000.0625,-400000.0625,-400000.0625,-400000.0625,-400000.0625
161.00931596755981,-400000.0625,-22352.130859375,-400000.0625,-400000.0625,-400000.0625,-400000.0625,-400000.0625,-400000.0625
161.01472854614258,-400000.0625,-23216.76953125,-400000.0625,-400000.0625,-400000.0625,-400000.0625,-400000.0625,-400000.0625
161.02362442016602,-400000.0625,-22908.640625,-400000.0625,-400000.0625,-400000.0625,-400000.0625,-400000.0625,-400000.0625
161.03017377853394,-400000.0625,-21670.76953125,-400000.0625,-400000.0625,-400000.0625,-400000.0625,-400000.0625,-400000.0625
161.04504585266113,-400000.0625,-21106.580078125,-400000.0625,-400000.0625,-400000.0625,-400000.0625,-400000.0625,-400000.0625
161.05460739135742,-400000.0625,-21961.169921875,-400000.0625,-400000.0625,-400000.0625,-400000.0625,-400000.0625,-400000.0625
161.06124901771545,-400000.0625,-22894.9609375,-400000.0625,-400000.0625,-400000.0625,-400000.0625,-400000.0625,-400000.0625
161.06654596328735,-400000.0625,-22575.240234375,-400000.0625,-400000.0625,-400000.0625,-400000.0625,-400000.0625,-400000.0625
161.0745871067047,-400000.0625,-21362.880859375,-400000.0625,-400000.0625,-400000.0625,-400000.0625,-400000.0625,-400000.0625
161.08046770095825,-400000.0625,-20779.08984375,-400000.0625,-400000.0625,-400000.0625,-400000.0625,-400000.0625,-400000.0625
161.0855941772461,-400000.0625,-21491.8203125,-400000.0625,-400000.0625,-400000.0625,-400000.0625,-400000.0625,-400000.0625
161.0913999080658,-400000.0625,-22503.330078125,-400000.0625,-400000.0625,-400000.0625,-400000.0625,-400000.0625,-400000.0625
161.10187411308289,-400000.0625,-22272.30078125,-400000.0625,-400000.0625,-400000.0625,-400000.0625,-400000.0625,-400000.0625
161.10933089256287,-400000.0625,-21085.310546875,-400000.0625,-400000.0625,-400000.0625,-400000.0625,-400000.0625,-400000.0625
161.11550521850586,-400000.0625,-20382.9296875,-400000.0625,-400000.0625,-400000.0625,-400000.0625,-400000.0625,-400000.0625
161.1216595172882,-400000.0625,-20853.7109375,-400000.0625,-400000.0625,-400000.0625,-400000.0625,-400000.0625,-400000.0625
161.12726211547852,-400000.0625,-21400.5,-400000.0625,-400000.0625,-400000.0625,-400000.0625,-400000.0625,-400000.0625
161.13300704956055,-400000.0625,-21114.30078125,-400000.0625,-400000.0625,-400000.0625,-400000.0625,-400000.0625,-400000.0625
161.13927245140076,-400000.0625,-22209.26953125,-400000.0625,-400000.0625,-400000.0625,-400000.0625,-400000.0625,-400000.0625
161.14726209640503,-400000.0625,-23918.630859375,-400000.0625,-400000.0625,-400000.0625,-400000.0625,-400000.0625,-400000.0625
161.15449452400208,-400000.0625,-24420.4609375,-400000.0625,-400000.0625,-400000.0625,-400000.0625,-400000.0625,-400000.0625
161.1621174812317,-400000.0625,-24326.419921875,-400000.0625,-400000.0625,-400000.0625,-400000.0625,-400000.0625,-400000.0625
161.1693558692932,-400000.0625,-25399.830078125,-400000.0625,-400000.0625,-400000.0625,-400000.0625,-400000.0625,-400000.0625
161.1754412651062,-400000.0625,-27497.630859375,-400000.0625,-400000.0625,-400000.0625,-400000.0625,-400000.0625,-400000.0625
161.1807188987732,-400000.0625,-29263.740234375,-400000.0625,-400000.0625,-400000.0625,-400000.0625,-400000.0625,-400000.0625
161.1873438358307,-400000.0625,-29762.130859375,-400000.0625,-400000.0625,-400000.0625,-400000.0625,-400000.0625,-400000.0625
161.19456720352173,-400000.0625,-29680.640625,-400000.0625,-400000.0625,-400000.0625,-400000.0625,-400000.0625,-400000.0625
161.20461010932922,-400000.0625,-30706.599609375,-400000.0625,-400000.0625,-400000.0625,-400000.0625,-400000.0625,-400000.0625
161.20986080169678,-400000.0625,-32751.419921875,-400000.0625,-400000.0625,-400000.0625,-400000.0625,-400000.0625,-400000.0625
161.2149543762207,-400000.0625,-34531.9296875,-400000.0625,-400000.0625,-400000.0625,-400000.0625,-400000.0625,-400000.0625
161.22129607200623,-400000.0625,-35014.01171875,-400000.0625,-400000.0625,-400000.0625,-400000.0625,-400000.0625,-400000.0625
161.22889184951782,-400000.0625,-34926.421875,-400000.0625,-400000.0625,-400000.0625,-400000.0625,-400000.0625,-400000.0625
161.23859214782715,-400000.0625,-35972.26953125,-400000.0625,-400000.0625,-400000.0625,-400000.0625,-400000.0625,-400000.0625
161.24787545204163,-400000.0625,-37987.328125,-400000.0625,-400000.0625,-400000.0625,-400000.0625,-400000.0625,-400000.0625
161.25681972503662,-400000.0625,-39717.3515625,-400000.0625,-400000.0625,-400000.0625,-400000.0625,-400000.0625,-400000.0625
161.26371812820435,-400000.0625,-40175.16015625,-400000.0625,-400000.0625,-400000.0625,-400000.0625,-400000.0625,-400000.0625
161.27097702026367,-400000.0625,-40068.9609375,-400000.0625,-400000.0625,-400000.0625,-400000.0625,-400000.0625,-400000.0625
161.27680850028992,-400000.0625,-41111.08984375,-400000.0625,-400000.0625,-400000.0625,-400000.0625,-400000.0625,-400000.0625
161.28468108177185,-400000.0625,-43034.83984375,-400000.0625,-400000.0625,-400000.0625,-400000.0625,-400000.0625,-400000.0625
161.29250931739807,-400000.0625,-44613.4609375,-400000.0625,-400000.0625,-400000.0625,-400000.0625,-400000.0625,-400000.0625
161.29915189743042,-400000.0625,-45025.69140625,-400000.0625,-400000.0625,-400000.0625,-400000.0625,-400000.0625,-400000.0625
161.31427383422852,-400000.0625,-40307.9609375,-400000.0625,-400000.0625,-400000.0625,-400000.0625,-400000.0625,-400000.0625
161.32176446914673,-400000.0625,-27458.720703125,-400000.0625,-400000.0625,-400000.0625,-400000.0625,-400000.0625,-400000.0625
161.32898330688477,-400000.0625,-24577.94921875,-400000.0625,-400000.0625,-400000.0625,-400000.0625,-400000.0625,-400000.0625
161.33550024032593,-400000.0625,-23892.0703125,-400000.0625,-400000.0625,-400000.0625,-400000.0625,-400000.0625,-400000.0625
161.3421220779419,-400000.0625,-24384.9296875,-400000.0625,-400000.0625,-400000.0625,-400000.0625,-400000.0625,-400000.0625
161.34856462478638,-400000.0625,-25239.1796875,-400000.0625,-400000.0625,-400000.0625,-400000.0625,-400000.0625,-400000.0625
161.35527205467224,-400000.0625,-24883.369140625,-400000.0625,-400000.0625,-400000.0625,-400000.0625,-400000.0625,-400000.0625
161.36146569252014,-400000.0625,-23507.880859375,-400000.0625,-400000.0625,-400000.0625,-400000.0625,-400000.0625,-400000.0625
161.36698961257935,-400000.0625,-22707.419921875,-400000.0625,-400000.0625,-400000.0625,-400000.0625,-400000.0625,-400000.0625
161.37426114082336,-400000.0625,-24193.91015625,-400000.0625,-400000.0625,-400000.0625,-400000.0625,-400000.0625,-400000.0625
161.38125824928284,-400000.0625,-27629.08984375,-400000.0625,-400000.0625,-260570.40625,-400000.0625,-400000.0625,-400000.0625
161.38831067085266,-400000.0625,-25888.73046875,-400000.0625,-400000.0625,-56644.87890625,-400000.0625,-400000.0625,-400000.0625
161.39425611495972,-400000.0625,-23305.23046875,-400000.0625,-400000.0625,-39823.62890625,-400000.0625,-400000.0625,-400000.0625
161.40067267417908,-400000.0625,-22233.869140625,-400000.0625,-400000.0625,-37174.98828125,-400000.0625,-400000.0625,-400000.0625
161.41330289840698,-400000.0625,-22667.359375,-400000.0625,-400000.0625,-36660.390625,-400000.0625,-400000.0625,-400000.0625
161.41931295394897,-400000.0625,-23475.509765625,-400000.0625,-400000.0625,-36751.80078125,-400000.0625,-400000.0625,-400000.0625
161.4253225326538,-400000.0625,-23394.060546875,-400000.0625,-400000.0625,-35920.0,-400000.0625,-400000.0625,-400000.0625
161.43129920959473,-400000.0625,-22127.5390625,-400000.0625,-400000.0625,-34318.9296875,-400000.0625,-400000.0625,-400000.0625
161.43761825561523,-400000.0625,-21426.439453125,-400000.0625,-400000.0625,-33313.94921875,-400000.0625,-400000.0625,-400000.0625
161.44506788253784,-400000.0625,-22069.310546875,-400000.0625,-400000.0625,-33507.16015625,-400000.0625,-400000.0625,-400000.0625
161.45161175727844,-400000.0625,-23027.990234375,-400000.0625,-400000.0625,-33756.55078125,-400000.0625,-400000.0625,-400000.0625
161.45829844474792,-400000.0625,-22722.91015625,-400000.0625,-400000.0625,-33234.41015625,-400000.0625,-400000.0625,-400000.0625
161.46385097503662,-400000.0625,-21626.810546875,-400000.0625,-400000.0625,-31965.830078125,-400000.0625,-400000.0625,-400000.0625
161.4695053100586,-400000.0625,-20968.869140625,-400000.0625,-400000.0625,-31158.310546875,-400000.0625,-400000.0625,-400000.0625
161.4756634235382,-400000.0625,-21560.05078125,-400000.0625,-400000.0625,-31713.19921875,-400000.0625,-400000.0625,-400000.0625
161.4810380935669,-400000.0625,-22596.890625,-400000.0625,-400000.0625,-32346.25,-400000.0625,-400000.0625,-400000.0625
161.4875500202179,-400000.0625,-22509.76953125,-400000.0625,-400000.0625,-31869.369140625,-400000.0625,-400000.0625,-400000.0625
161.49323511123657,-400000.0625,-21345.7109375,-400000.0625,-400000.0625,-30701.970703125,-400000.0625,-400000.0625,-400000.0625
161.49888968467712,-400000.0625,-20799.5390625,-400000.0625,-400000.0625,-30328.1796875,-400000.0625,-400000.0625,-400000.0625
161.50794529914856,-400000.0625,-21512.130859375,-400000.0625,-400000.0625,-31133.509765625,-400000.0625,-400000.0625,-400000.0625
161.52199840545654,-400000.0625,-22470.189453125,-400000.0625,-400000.0625,-31840.609375,-400000.0625,-400000.0625,-400000.0625
161.52800345420837,-400000.0625,-22248.3203125,-400000.0625,-400000.0625,-31558.66015625,-400000.0625,-400000.0625,-400000.0625
161.53383350372314,-400000.0625,-21119.9296875,-400000.0625,-400000.0625,-30524.880859375,-400000.0625,-400000.0625,-400000.0625
161.54227876663208,-400000.0625,-20572.859375,-400000.0625,-400000.0625,-30040.83984375,-400000.0625,-400000.0625,-400000.0625
161.54774379730225,-400000.0625,-21244.619140625,-400000.0625,-400000.0625,-30732.6796875,-400000.0625,-400000.0625,-400000.0625
161.5534589290619,-400000.0625,-22332.9609375,-400000.0625,-400000.0625,-31508.640625,-400000.0625,-400000.0625,-400000.0625
161.55868339538574,-400000.0625,-22324.609375,-400000.0625,-400000.0625,-31337.83984375,-400000.0625,-400000.0625,-400000.0625
161.5638942718506,-400000.0625,-21158.4609375,-400000.0625,-400000.0625,-30332.900390625,-400000.0625,-400000.0625,-400000.0625
161.57020258903503,-400000.0625,-20576.669921875,-400000.0625,-400000.0625,-29743.060546875,-400000.0625,-400000.0625,-400000.0625
161.57898044586182,-400000.0625,-21346.859375,-400000.0625,-400000.0625,-30383.30078125,-400000.0625,-400000.0625,-400000.0625
161.5848491191864,-400000.0625,-22391.1796875,-400000.0625,-400000.0625,-31358.060546875,-400000.0625,-400000.0625,-400000.0625
161.59161257743835,-400000.0625,-22210.080078125,-400000.0625,-400000.0625,-31766.369140625,-400000.0625,-400000.0625,-400000.0625
161.59850025177002,-400000.0625,-21086.5,-400000.0625,-400000.0625,-35015.44140625,-400000.0625,-400000.0625,-400000.0625
161.60500979423523,-400000.0625,-20508.720703125,-400000.0625,-400000.0625,-40679.359375,-400000.0625,-400000.0625,-400000.0625
161.610445022583,-400000.0625,-21242.48046875,-400000.0625,-400000.0625,-43541.62890625,-400000.0625,-400000.0625,-400000.0625
161.6251347064972,-400000.0625,-22217.23046875,-400000.0625,-400000.0625,-42279.109375,-400000.0625,-400000.0625,-400000.0625
161.63147592544556,-400000.0625,-21829.939453125,-400000.0625,-400000.0625,-41302.0703125,-400000.0625,-400000.0625,-400000.0625
161.63768553733826,-400000.0625,-20409.25,-400000.0625,-400000.0625,-44464.55078125,-400000.0625,-400000.0625,-400000.0625
161.643723487854,-400000.0625,-19766.669921875,-400000.0625,-400000.0625,-49856.62109375,-400000.0625,-400000.0625,-400000.0625
161.64900922775269,-400000.0625,-20007.330078125,-400000.0625,-400000.0625,-52398.16015625,-400000.0625,-400000.0625,-400000.0625
161.65708017349243,-400000.0625,-19894.26953125,-400000.0625,-400000.0625,-50954.921875,-400000.0625,-400000.0625,-400000.0625
161.66322088241577,-400000.0625,-20830.490234375,-400000.0625,-400000.0625,-49985.75,-400000.0625,-400000.0625,-400000.0625
161.66900968551636,-400000.0625,-22819.0,-400000.0625,-400000.0625,-53090.05078125,-400000.0625,-400000.0625,-400000.0625
161.6742250919342,-400000.0625,-24601.369140625,-400000.0625,-400000.0625,-58473.12109375,-400000.0625,-400000.0625,-400000.0625
161.68200135231018,-400000.0625,-25103.4296875,-400000.0625,-400000.0625,-61172.828125,-400000.0625,-400000.0625,-400000.0625
161.68891835212708,-400000.0625,-24979.01953125,-400000.0625,-400000.0625,-59835.96875,-400000.0625,-400000.0625,-400000.0625
161.69720125198364,-400000.0625,-26000.359375,-400000.0625,-400000.0625,-58831.51171875,-400000.0625,-400000.0625,-400000.0625
161.70426630973816,-400000.0625,-28012.7109375,-400000.0625,-400000.0625,-61980.3984375,-400000.0625,-400000.0625,-400000.0625
161.71230292320251,-400000.0625,-29717.44921875,-400000.0625,-400000.0625,-67474.8515625,-400000.0625,-400000.0625,-400000.0625
161.7255711555481,-400000.0625,-30178.220703125,-400000.0625,-400000.0625,-70164.5,-400000.0625,-400000.0625,-400000.0625
161.73101997375488,-400000.0625,-30083.759765625,-400000.0625,-400000.0625,-68711.0,-400000.0625,-400000.0625,-400000.0625
161.73725247383118,-400000.0625,-31086.0703125,-400000.0625,-400000.0625,-67597.96875,-400000.0625,-400000.0625,-400000.0625
161.7443082332611,-400000.0625,-33005.33984375,-400000.0625,-400000.0625,-70755.3515625,-400000.0625,-400000.0625,-400000.0625
161.74968457221985,-400000.0625,-34653.71875,-400000.0625,-400000.0625,-76289.28125,-400000.0625,-400000.0625,-400000.0625
161.7548816204071,-400000.0625,-35104.140625,-400000.0625,-400000.0625,-78977.828125,-400000.0625,-400000.0625,-400000.0625
161.760018825531,-400000.0625,-34989.4609375,-400000.0625,-400000.0625,-77494.109375,-400000.0625,-400000.0625,-400000.0625
161.7651629447937,-400000.0625,-35986.94921875,-400000.0625,-400000.0625,-76373.203125,-400000.0625,-400000.0625,-400000.0625
161.7720649242401,-400000.0625,-37922.4296875,-400000.0625,-400000.0625,-79534.0625,-400000.0625,-400000.0625,-400000.0625
161.78075671195984,-400000.0625,-39566.7109375,-400000.0625,-400000.0625,-85064.8515625,-400000.0625,-400000.0625,-400000.0625
161.78604173660278,-400000.0625,-39999.78125,-400000.0625,-400000.0625,-87736.8984375,-400000.0625,-400000.0625,-400000.0625
161.79254579544067,-400000.0625,-39885.140625,-400000.0625,-400000.0625,-86242.8828125,-400000.0625,-400000.0625,-400000.0625
161.79801678657532,-400000.0625,-40887.9296875,-400000.0625,-400000.0625,-85118.8828125,-400000.0625,-400000.0625,-400000.0625
161.80426025390625,-400000.0625,-42803.71875,-400000.0625,-400000.0625,-88255.2734375,-400000.0625,-400000.0625,-400000.0625
161.810777425766,-400000.0625,-44409.94921875,-400000.0625,-400000.0625,-93730.5625,-400000.0625,-400000.0625,-400000.0625
161.81621623039246,-400000.0625,-44834.4296875,-400000.0625,-400000.0625,-96355.3984375,-400000.0625,-400000.0625,-400000.0625
161.8335428237915,-400000.0625,-44737.87109375,-400000.0625,-400000.0625,-94849.0703125,-400000.0625,-400000.0625,-400000.0625
161.8390030860901,-400000.0625,-45745.66015625,-400000.0625,-400000.0625,-93717.8671875,-400000.0625,-400000.0625,-400000.0625
161.8440592288971,-400000.0625,-47639.23046875,-400000.0625,-400000.0625,-96809.109375,-400000.0625,-400000.0625,-400000.0625
161.8490617275238,-400000.0625,-49242.21875,-400000.0625,-400000.0625,-102249.96875,-400000.0625,-400000.0625,-400000.0625
161.8547387123108,-400000.0625,-49690.58984375,-400000.0625,-400000.0625,-104867.09375,-400000.0625,-400000.0625,-400000.0625
161.8607828617096,-400000.0625,-49610.80859375,-400000.0625,-400000.0625,-103348.1171875,-400000.0625,-400000.0625,-400000.0625
161.86809468269348,-400000.0625,-50618.23046875,-400000.0625,-400000.0625,-102173.203125,-400000.0625,-400000.0625,-400000.0625
161.87399530410767,-400000.0625,-52529.44140625,-400000.0625,-400000.0625,-105230.0625,-400000.0625,-400000.0625,-400000.0625
161.87963938713074,-400000.0625,-54153.96875,-400000.0625,-400000.0625,-110629.2421875,-400000.0625,-400000.0625,-400000.0625
161.8859875202179,-400000.0625,-54616.73828125,-400000.0625,-400000.0625,-113225.2421875,-400000.0625,-400000.0625,-400000.0625
161.89144134521484,-400000.0625,-54539.640625,-400000.0625,-400000.0625,-111741.171875,-400000.0625,-400000.0625,-400000.0625
161.8967523574829,-400000.0625,-55557.3515625,-400000.0625,-400000.0625,-110614.4609375,-400000.0625,-400000.0625,-400000.0625
161.9041142463684,-400000.0625,-57486.87109375,-400000.0625,-400000.0625,-113664.6875,-400000.0625,-400000.0625,-400000.0625
161.91046142578125,-400000.0625,-59128.859375,-400000.0625,-400000.0625,-119030.109375,-400000.0625,-400000.0625,-400000.0625
161.91865229606628,-400000.0625,-59589.73046875,-400000.0625,-400000.0625,-121629.3515625,-400000.0625,-400000.0625,-400000.0625
161.92962980270386,-400000.0625,-59515.76953125,-400000.0625,-400000.0625,-120156.3984375,-400000.0625,-400000.0625,-400000.0625
161.93676471710205,-400000.0625,-60528.0,-400000.0625,-400000.0625,-119016.5703125,-400000.0625,-400000.0625,-400000.0625
161.9441783428192,-400000.0625,-62436.05859375,-400000.0625,-400000.0625,-122034.328125,-400000.0625,-400000.0625,-400000.0625
161.95084190368652,-400000.0625,-64054.96875,-400000.0625,-400000.0625,-127373.5703125,-400000.0625,-400000.0625,-400000.0625
161.95687866210938,-400000.0625,-64511.87890625,-400000.0625,-400000.0625,-129961.6015625,-400000.0625,-400000.0625,-400000.0625
161.96310353279114,-400000.0625,-64427.71875,-400000.0625,-400000.0625,-128468.4765625,-400000.0625,-400000.0625,-400000.0625
161.96933889389038,-400000.0625,-65422.2109375,-400000.0625,-400000.0625,-127302.28125,-400000.0625,-400000.0625,-400000.0625
161.97631168365479,-400000.0625,-67318.2578125,-400000.0625,-400000.0625,-130297.4921875,-400000.0625,-400000.0625,-400000.0625
161.9826021194458,-400000.0625,-68936.8828125,-400000.0625,-400000.0625,-135634.25,-400000.0625,-400000.0625,-400000.0625
161.98958373069763,-400000.0625,-69382.2890625,-400000.0625,-400000.0625,-138214.125,-400000.0625,-400000.0625,-400000.0625
161.9957549571991,-400000.0625,-69277.0078125,-400000.0625,-400000.0625,-136698.359375,-400000.0625,-400000.0625,-400000.0625
162.00288081169128,-400000.0625,-70250.140625,-400000.0625,-400000.0625,-135493.6875,-400000.0625,-400000.0625,-400000.0625
162.012024641037,-400000.0625,-72151.046875,-400000.0625,-400000.0625,-138472.046875,-400000.0625,-400000.0625,-400000.0625
162.0180263519287,-400000.0625,-73787.6484375,-400000.0625,-400000.0625,-143810.578125,-400000.0625,-400000.0625,-400000.0625
162.02652835845947,-400000.0625,-74239.171875,-400000.0625,-400000.0625,-146396.515625,-400000.0625,-400000.0625,-400000.0625
162.04956245422363,-400000.0625,-74120.2890625,-400000.0625,-400000.0625,-144864.671875,-400000.0625,-400000.0625,-400000.0625
162.05690240859985,-400000.0625,-75079.546875,-400000.0625,-400000.0625,-143622.03125,-400000.0625,-400000.0625,-400000.0625
162.06256818771362,-400000.0625,-76978.03125,-400000.0625,-400000.0625,-146569.84375,-400000.0625,-400000.0625,-400000.0625
162.06785702705383,-400000.0625,-78621.828125,-400000.0625,-400000.0625,-151905.171875,-400000.0625,-400000.0625,-400000.0625
162.07469248771667,-400000.0625,-79070.0078125,-400000.0625,-400000.0625,-154484.8125,-400000.0625,-400000.0625,-400000.0625
162.0801465511322,-400000.0625,-78921.65625,-400000.0625,-400000.0625,-152931.984375,-400000.0625,-400000.0625,-400000.0625
162.0859875679016,-400000.0625,-79857.7890625,-400000.0625,-400000.0625,-151667.90625,-400000.0625,-400000.0625,-400000.0625
162.09401559829712,-400000.0625,-81763.2265625,-400000.0625,-400000.0625,-154603.265625,-400000.0625,-400000.0625,-400000.0625
162.10003638267517,-400000.0625,-83402.9296875,-400000.0625,-400000.0625,-159924.53125,-400000.0625,-400000.0625,-400000.0625
162.10617232322693,-400000.0625,-83838.7578125,-400000.0625,-400000.0625,-162508.546875,-400000.0625,-400000.0625,-400000.0625
162.11153149604797,-400000.0625,-83697.3828125,-400000.0625,-400000.0625,-160971.1875,-400000.0625,-400000.0625,-400000.0625
162.11691784858704,-400000.0625,-84639.796875,-400000.0625,-400000.0625,-159702.796875,-400000.0625,-400000.0625,-400000.0625
162.1235795021057,-400000.0625,-86534.4609375,-400000.0625,-400000.0625,-162602.484375,-400000.0625,-400000.0625,-400000.0625
162.13012838363647,-400000.0625,-88189.65625,-400000.0625,-400000.0625,-167909.5,-400000.0625,-400000.0625,-400000.0625
162.14287185668945,-400000.0625,-88647.3828125,-400000.0625,-400000.0625,-170492.671875,-400000.0625,-400000.0625,-400000.0625
162.14921522140503,-400000.0625,-88511.5703125,-400000.0625,-400000.0625,-168957.828125,-400000.0625,-400000.0625,-400000.0625
162.15569257736206,-400000.0625,-89457.4296875,-400000.0625,-400000.0625,-167687.25,-400000.0625,-400000.0625,-400000.0625
162.16205382347107,-400000.0625,-91357.671875,-400000.0625,-400000.0625,-170570.6875,-400000.0625,-400000.0625,-400000.0625
162.16824460029602,-400000.0625,-93016.59375,-400000.0625,-400000.0625,-175851.375,-400000.0625,-400000.0625,-400000.0625
162.17500138282776,-400000.0625,-93490.5625,-400000.0625,-400000.0625,-178434.109375,-400000.0625,-400000.0625,-400000.0625
162.18044590950012,-400000.0625,-93363.109375,-400000.0625,-400000.0625,-176903.984375,-400000.0625,-400000.0625,-400000.0625
162.1866419315338,-400000.0625,-94300.1875,-400000.0625,-400000.0625,-175616.0,-400000.0625,-400000.0625,-400000.0625
162.1919810771942,-400000.0625,-96192.7109375,-400000.0625,-400000.0625,-178469.015625,-400000.0625,-400000.0625,-400000.0625
162.1973259449005,-400000.0625,-97851.4765625,-400000.0625,-400000.0625,-183734.484375,-400000.0625,-400000.0625,-400000.0625
162.20355868339539,-400000.0625,-98320.3515625,-400000.0625,-400000.0625,-186309.546875,-400000.0625,-400000.0625,-400000.0625
162.21088409423828,-400000.0625,-98193.421875,-400000.0625,-400000.0625,-184776.65625,-400000.0625,-400000.0625,-400000.0625
162.2166464328766,-400000.0625,-99130.828125,-400000.0625,-400000.0625,-183480.484375,-400000.0625,-400000.0625,-400000.0625
162.22186613082886,-400000.0625,-101035.9921875,-400000.0625,-400000.0625,-186335.625,-400000.0625,-400000.0625,-400000.0625
162.22691345214844,-400000.0625,-102707.96875,-400000.0625,-400000.0625,-191598.25,-400000.0625,-400000.0625,-400000.0625
162.23260593414307,-400000.0625,-103182.7578125,-400000.0625,-400000.0625,-194166.59375,-400000.0625,-400000.0625,-400000.0625
162.24528813362122,-400000.0625,-103044.7109375,-400000.0625,-400000.0625,-192625.78125,-400000.0625,-400000.0625,-400000.0625
162.25240349769592,-400000.0625,-103978.0703125,-400000.0625,-400000.0625,-191341.328125,-400000.0625,-400000.0625,-400000.0625
162.25840640068054,-400000.0625,-105882.8515625,-400000.0625,-400000.0625,-194198.109375,-400000.0625,-400000.0625,-400000.0625
162.26588535308838,-400000.0625,-107558.6015625,-400000.0625,-400000.0625,-199460.15625,-400000.0625,-400000.0625,-400000.0625
162.27452850341797,-400000.0625,-108023.5625,-400000.0625,-400000.0625,-202022.625,-400000.0625,-400000.0625,-400000.0625
162.28010320663452,-400000.0625,-107872.7421875,-400000.0625,-400000.0625,-200487.921875,-400000.0625,-400000.0625,-400000.0625
162.28681826591492,-400000.0625,-108794.5078125,-400000.0625,-400000.0625,-199206.046875,-400000.0625,-400000.0625,-400000.0625
162.29346132278442,-400000.0625,-110696.8515625,-400000.0625,-400000.0625,-202061.953125,-400000.0625,-400000.0625,-400000.0625
162.29918026924133,-400000.0625,-112358.5390625,-400000.0625,-400000.0625,-207311.796875,-400000.0625,-400000.0625,-400000.0625
162.3043565750122,-400000.0625,-112816.921875,-400000.0625,-400000.0625,-209876.75,-400000.0625,-400000.0625,-400000.0625
162.31064462661743,-400000.0625,-112666.046875,-400000.0625,-400000.0625,-208347.546875,-400000.0625,-400000.0625,-400000.0625
162.31607484817505,-400000.0625,-113587.3515625,-400000.0625,-400000.0625,-207066.65625,-400000.0625,-400000.0625,-400000.0625
162.3234157562256,-400000.0625,-115469.09375,-400000.0625,-400000.0625,-209914.28125,-400000.0625,-400000.0625,-400000.0625
162.32947635650635,-400000.0625,-117125.859375,-400000.0625,-400000.0625,-215172.65625,-400000.0625,-400000.0625,-400000.0625
162.3354730606079,-400000.0625,-117582.34375,-400000.0625,-400000.0625,-217744.8125,-400000.0625,-400000.0625,-400000.0625
162.3468532562256,-400000.0625,-117429.21875,-400000.0625,-400000.0625,-216215.6875,-400000.0625,-400000.0625,-400000.0625
162.35378122329712,-400000.0625,-118348.7109375,-400000.0625,-400000.0625,-214931.375,-400000.0625,-400000.0625,-400000.0625
162.3601312637329,-400000.0625,-120238.75,-400000.0625,-400000.0625,-217811.46875,-400000.0625,-400000.0625,-400000.0625
162.36534595489502,-400000.0625,-121896.328125,-400000.0625,-400000.0625,-223082.625,-400000.0625,-400000.0625,-400000.0625
162.3734905719757,-400000.0625,-122356.71875,-400000.0625,-400000.0625,-225659.0625,-400000.0625,-400000.0625,-400000.0625
162.37911772727966,-400000.0625,-122202.1171875,-400000.0625,-400000.0625,-224122.84375,-400000.0625,-400000.0625,-400000.0625
162.38686680793762,-400000.0625,-123116.84375,-400000.0625,-400000.0625,-222818.203125,-400000.0625,-400000.0625,-400000.0625
162.39355850219727,-400000.0625,-125006.640625,-400000.0625,-400000.0625,-225643.421875,-400000.0625,-400000.0625,-400000.0625
162.39875650405884,-400000.0625,-126668.75,-400000.0625,-400000.0625,-230887.109375,-400000.0625,-400000.0625,-400000.0625
162.40582871437073,-400000.0625,-127122.9375,-400000.0625,-400000.0625,-233450.15625,-400000.0625,-400000.0625,-400000.0625
162.4127538204193,-400000.0625,-126954.3828125,-400000.0625,-400000.0625,-231905.6875,-400000.0625,-400000.0625,-400000.0625
162.4183156490326,-400000.0625,-127857.796875,-400000.0625,-400000.0625,-230581.015625,-400000.0625,-400000.0625,-400000.0625
162.42358088493347,-400000.0625,-129747.9765625,-400000.0625,-400000.0625,-233386.265625,-400000.0625,-400000.0625,-400000.0625
162.42900776863098,-400000.0625,-131407.609375,-400000.0625,-400000.0625,-238613.6875,-400000.0625,-400000.0625,-400000.0625
162.43490028381348,-400000.0625,-131859.1875,-400000.0625,-400000.0625,-241165.703125,-400000.0625,-400000.0625,-400000.0625
162.44279170036316,-400000.0625,-131682.703125,-400000.0625,-400000.0625,-239597.6875,-400000.0625,-400000.0625,-400000.0625
162.45351195335388,-400000.0625,-132581.875,-400000.0625,-400000.0625,-238248.09375,-400000.0625,-400000.0625,-400000.0625
162.4592866897583,-400000.0625,-134460.046875,-400000.0625,-400000.0625,-241028.765625,-400000.0625,-400000.0625,-400000.0625
162.46456623077393,-400000.0625,-136110.421875,-400000.0625,-400000.0625,-246236.546875,-400000.0625,-400000.0625,-400000.0625
162.47220730781555,-400000.0625,-136549.578125,-400000.0625,-400000.0625,-248785.8125,-400000.0625,-400000.0625,-400000.0625
162.4791295528412,-400000.0625,-136368.234375,-400000.0625,-400000.0625,-247229.125,-400000.0625,-400000.0625,-400000.0625
162.4866144657135,-400000.0625,-137257.828125,-400000.0625,-400000.0625,-245878.390625,-400000.0625,-400000.0625,-400000.0625
162.4942181110382,-400000.0625,-139130.421875,-400000.0625,-400000.0625,-248656.0625,-400000.0625,-400000.0625,-400000.0625
162.50079154968262,-400000.0625,-140778.609375,-400000.0625,-400000.0625,-253869.953125,-400000.0625,-400000.0625,-400000.0625
162.50913310050964,-400000.0625,-141224.34375,-400000.0625,-400000.0625,-256427.375,-400000.0625,-400000.0625,-400000.0625
162.515709400177,-400000.0625,-141040.53125,-400000.0625,-400000.0625,-254859.4375,-400000.0625,-400000.0625,-400000.0625
162.52356553077698,-400000.0625,-141918.390625,-400000.0625,-400000.0625,-253483.421875,-400000.0625,-400000.0625,-400000.0625
162.5301320552826,-400000.0625,-143787.125,-400000.0625,-400000.0625,-256231.90625,-400000.0625,-400000.0625,-400000.0625
162.5377058982849,-400000.0625,-145445.3125,-400000.0625,-400000.0625,-261440.640625,-400000.0625,-400000.0625,-400000.0625
162.54439878463745,-400000.0625,-145887.203125,-400000.0625,-400000.0625,-263991.90625,-400000.0625,-400000.0625,-400000.0625
162.5573878288269,-400000.0625,-145697.1875,-400000.0625,-400000.0625,-262410.59375,-400000.0625,-400000.0625,-400000.0625
162.56466507911682,-400000.0625,-146571.03125,-400000.0625,-400000.0625,-261012.203125,-400000.0625,-400000.0625,-400000.0625
162.57189679145813,-400000.0625,-148441.140625,-400000.0625,-400000.0625,-263749.34375,-400000.0625,-400000.0625,-400000.0625
162.57966589927673,-400000.0625,-150096.09375,-400000.0625,-400000.0625,-268951.0625,-400000.0625,-400000.0625,-400000.0625
162.58635926246643,-400000.0625,-150541.125,-400000.0625,-400000.0625,-271506.90625,-400000.0625,-400000.0625,-400000.0625
162.5924208164215,-400000.0625,-150337.765625,-400000.0625,-400000.0625,-269914.09375,-400000.0625,-400000.0625,-400000.0625
162.59873580932617,-400000.0625,-151209.3125,-400000.0625,-400000.0625,-268521.65625,-400000.0625,-400000.0625,-400000.0625
162.6051881313324,-400000.0625,-153086.203125,-400000.0625,-400000.0625,-271268.0625,-400000.0625,-400000.0625,-400000.0625
162.61143350601196,-400000.0625,-154738.78125,-400000.0625,-400000.0625,-276465.96875,-400000.0625,-400000.0625,-400000.0625
162.61774325370789,-400000.0625,-155164.734375,-400000.0625,-400000.0625,-278999.78125,-400000.0625,-400000.0625,-400000.0625
162.6254186630249,-400000.0625,-154961.3125,-400000.0625,-400000.0625,-277400.25,-400000.0625,-400000.0625,-400000.0625
162.6314718723297,-400000.0625,-155831.6875,-400000.0625,-400000.0625,-275988.0,-400000.0625,-400000.0625,-400000.0625
162.63848972320557,-400000.0625,-157707.09375,-400000.0625,-400000.0625,-278722.875,-400000.0625,-400000.0625,-400000.0625
162.64407873153687,-400000.0625,-159357.703125,-400000.0625,-400000.0625,-283917.875,-400000.0625,-400000.0625,-400000.0625
162.6499502658844,-400000.0625,-159788.578125,-400000.0625,-400000.0625,-286467.625,-400000.0625,-400000.0625,-400000.0625
162.66318488121033,-400000.0625,-159574.8125,-400000.0625,-400000.0625,-284862.75,-400000.0625,-400000.0625,-400000.0625
162.66933250427246,-400000.0625,-160436.703125,-400000.0625,-400000.0625,-283432.125,-400000.0625,-400000.0625,-400000.0625
162.67576956748962,-400000.0625,-162289.109375,-400000.0625,-400000.0625,-286132.0,-400000.0625,-400000.0625,-400000.0625
162.68191289901733,-400000.0625,-163932.296875,-400000.0625,-400000.0625,-291312.53125,-400000.0625,-400000.0625,-400000.0625
162.68872714042664,-400000.0625,-164365.3125,-400000.0625,-400000.0625,-293852.9375,-400000.0625,-400000.0625,-400000.0625
162.69596219062805,-400000.0625,-164160.40625,-400000.0625,-400000.0625,-292256.15625,-400000.0625,-400000.0625,-400000.0625
162.70302605628967,-400000.0625,-165013.1875,-400000.0625,-400000.0625,-290819.71875,-400000.0625,-400000.0625,-400000.0625
162.71099185943604,-400000.0625,-166847.875,-400000.0625,-400000.0625,-293502.46875,-400000.0625,-400000.0625,-400000.0625
162.71920609474182,-400000.0625,-168456.046875,-400000.0625,-400000.0625,-298667.46875,-400000.0625,-400000.0625,-400000.0625
162.72498226165771,-400000.0625,-168867.5625,-400000.0625,-400000.0625,-301209.59375,-400000.0625,-400000.0625,-400000.0625
162.73035836219788,-400000.0625,-168662.84375,-400000.0625,-400000.0625,-299609.75,-400000.0625,-400000.0625,-400000.0625
162.7367115020752,-400000.0625,-169523.203125,-400000.0625,-400000.0625,-298154.6875,-400000.0625,-400000.0625,-400000.0625
162.74303579330444,-400000.0625,-171356.75,-400000.0625,-400000.0625,-300831.6875,-400000.0625,-400000.0625,-400000.0625
162.7496087551117,-400000.0625,-172955.8125,-400000.0625,-400000.0625,-306007.125,-400000.0625,-400000.0625,-400000.0625
162.75654768943787,-400000.0625,-173364.328125,-400000.0625,-400000.0625,-308564.46875,-400000.0625,-400000.0625,-400000.0625
162.76652121543884,-400000.0625,-173168.0625,-400000.0625,-400000.0625,-306968.59375,-400000.0625,-400000.0625,-400000.0625
162.77393126487732,-400000.0625,-174039.578125,-400000.0625,-400000.0625,-305513.625,-400000.0625,-400000.0625,-400000.0625
162.7813000679016,-400000.0625,-175871.015625,-400000.0625,-400000.0625,-308193.09375,-400000.0625,-400000.0625,-400000.0625
162.79021763801575,-400000.0625,-177464.078125,-400000.0625,-400000.0625,-313375.6875,-400000.0625,-400000.0625,-400000.0625
162.7979302406311,-400000.0625,-177875.40625,-400000.0625,-400000.0625,-315935.875,-400000.0625,-400000.0625,-400000.0625
162.8040211200714,-400000.0625,-177673.3125,-400000.0625,-400000.0625,-314312.96875,-400000.0625,-400000.0625,-400000.0625
162.81007432937622,-400000.0625,-178535.046875,-400000.0625,-400000.0625,-312825.96875,-400000.0625,-400000.0625,-400000.0625
162.81535077095032,-400000.0625,-180354.0,-400000.0625,-400000.0625,-315492.125,-400000.0625,-400000.0625,-400000.0625
162.8237750530243,-400000.0625,-181920.3125,-400000.0625,-400000.0625,-320669.84375,-400000.0625,-400000.0625,-400000.0625
162.83058166503906,-400000.0625,-182295.203125,-400000.0625,-400000.0625,-323184.375,-400000.0625,-400000.0625,-400000.0625
162.8372242450714,-400000.0625,-182086.015625,-400000.0625,-400000.0625,-321535.15625,-400000.0625,-400000.0625,-400000.0625
162.84336185455322,-400000.0625,-182935.265625,-400000.0625,-400000.0625,-320010.40625,-400000.0625,-400000.0625,-400000.0625
162.84886479377747,-400000.0625,-184750.53125,-400000.0625,-400000.0625,-322658.625,-400000.0625,-400000.0625,-400000.0625
162.8548994064331,-400000.0625,-186330.875,-400000.0625,-400000.0625,-327850.375,-400000.0625,-400000.0625,-400000.0625
162.8621425628662,-400000.0625,-186726.453125,-400000.0625,-400000.0625,-330406.5,-400000.0625,-400000.0625,-400000.0625
162.87437105178833,-400000.0625,-186528.1875,-400000.0625,-400000.0625,-328767.1875,-400000.0625,-400000.0625,-400000.0625
162.87997102737427,-400000.0625,-187399.40625,-400000.0625,-400000.0625,-327244.21875,-400000.0625,-400000.0625,-400000.0625
162.88541722297668,-400000.0625,-189221.453125,-400000.0625,-400000.0625,-329878.03125,-400000.0625,-400000.0625,-400000.0625
162.8913836479187,-400000.0625,-190810.265625,-400000.0625,-400000.0625,-335059.53125,-400000.0625,-400000.0625,-400000.0625
162.8966555595398,-400000.0625,-191214.15625,-400000.0625,-400000.0625,-337610.8125,-400000.0625,-400000.0625,-400000.0625
162.9029848575592,-400000.0625,-191009.875,-400000.0625,-400000.0625,-335950.28125,-400000.0625,-400000.0625,-400000.0625
162.9098606109619,-400000.0625,-191866.703125,-400000.0625,-400000.0625,-334393.5,-400000.0625,-400000.0625,-400000.0625
162.91772389411926,-400000.0625,-193687.40625,-400000.0625,-400000.0625,-337011.21875,-400000.0625,-400000.0625,-400000.0625
162.92432355880737,-400000.0625,-195254.59375,-400000.0625,-400000.0625,-342169.90625,-400000.0625,-400000.0625,-400000.0625
162.93067288398743,-400000.0625,-195647.453125,-400000.0625,-400000.0625,-344720.40625,-400000.0625,-400000.0625,-400000.0625
162.93684887886047,-400000.0625,-195446.09375,-400000.0625,-400000.0625,-343073.96875,-400000.0625,-400000.0625,-400000.0625
162.9421203136444,-400000.0625,-196310.5,-400000.0625,-400000.0625,-341550.34375,-400000.0625,-400000.0625,-400000.0625
162.94756436347961,-400000.0625,-198113.078125,-400000.0625,-400000.0625,-344158.3125,-400000.0625,-400000.0625,-400000.0625
162.95409178733826,-400000.0625,-199658.84375,-400000.0625,-400000.0625,-349298.125,-400000.0625,-400000.0625,-400000.0625
162.96167278289795,-400000.0625,-200022.53125,-400000.0625,-400000.0625,-351835.78125,-400000.0625,-400000.0625,-400000.0625
162.96753549575806,-400000.0625,-199807.375,-400000.0625,-400000.0625,-350214.375,-400000.0625,-400000.0625,-400000.0625
162.9783387184143,-400000.0625,-174683.203125,-400000.0625,-400000.0625,-348603.875,-400000.0625,-400000.0625,-400000.0625
162.98465609550476,-400000.0625,-64542.96875,-400000.0625,-400000.0625,-350778.0,-400000.0625,-400000.0625,-400000.0625
162.99091839790344,-400000.0625,-31926.970703125,-400000.0625,-400000.0625,-355731.15625,-400000.0625,-400000.0625,-400000.0625
162.99763369560242,-400000.0625,-31360.580078125,-400000.0625,-400000.0625,-358258.71875,-400000.0625,-400000.0625,-400000.0625
163.00502562522888,-400000.0625,-31717.970703125,-400000.0625,-400000.0625,-356669.28125,-400000.0625,-400000.0625,-400000.0625
163.01162672042847,-400000.0625,-31078.390625,-400000.0625,-400000.0625,-355134.59375,-400000.0625,-400000.0625,-400000.0625
163.01909136772156,-400000.0625,-29431.19921875,-400000.0625,-400000.0625,-357632.375,-400000.0625,-400000.0625,-400000.0625
163.0244562625885,-400000.0625,-28443.580078125,-400000.0625,-400000.0625,-362643.28125,-400000.0625,-400000.0625,-400000.0625
163.03076696395874,-400000.0625,-28686.380859375,-400000.0625,-400000.0625,-365146.78125,-400000.0625,-400000.0625,-400000.0625
163.0475697517395,-400000.0625,-29434.060546875,-400000.0625,-400000.0625,-363653.9375,-400000.0625,-400000.0625,-400000.0625
163.05471420288086,-400000.0625,-29103.51953125,-400000.0625,-400000.0625,-362231.78125,-400000.0625,-400000.0625,-400000.0625
163.06068992614746,-400000.0625,-27851.630859375,-400000.0625,-400000.0625,-364268.15625,-400000.0625,-400000.0625,-400000.0625
163.0661177635193,-400000.0625,-26853.0390625,-400000.0625,-400000.0625,-368985.40625,-400000.0625,-400000.0625,-400000.0625
163.07370281219482,-400000.0625,-27230.69921875,-400000.0625,-400000.0625,-371516.1875,-400000.0625,-400000.0625,-400000.0625
163.08824586868286,-400000.0625,-28061.6796875,-400000.0625,-400000.0625,-369895.96875,-400000.0625,-400000.0625,-400000.0625
163.09427571296692,-400000.0625,-27796.83984375,-400000.0625,-400000.0625,-368133.15625,-400000.0625,-400000.0625,-400000.0625
163.10105967521667,-400000.0625,-26455.44921875,-400000.0625,-400000.0625,-370436.875,-400000.0625,-400000.0625,-400000.0625
163.10970640182495,-400000.0625,-25515.509765625,-400000.0625,-400000.0625,-375542.96875,-400000.0625,-400000.0625,-400000.0625
163.11713123321533,-400000.0625,-25959.830078125,-400000.0625,-400000.0625,-378221.40625,-400000.0625,-400000.0625,-400000.0625
163.12474703788757,-400000.0625,-27112.439453125,-400000.0625,-400000.0625,-376518.875,-400000.0625,-400000.0625,-400000.0625
163.1313259601593,-400000.0625,-26863.150390625,-400000.0625,-400000.0625,-374595.96875,-400000.0625,-400000.0625,-400000.0625
163.1388087272644,-400000.0625,-25453.189453125,-400000.0625,-400000.0625,-376883.65625,-400000.0625,-400000.0625,-400000.0625
163.14483070373535,-400000.0625,-24599.169921875,-400000.0625,-400000.0625,-382107.3125,-400000.0625,-400000.0625,-400000.0625
163.15237712860107,-400000.0625,-25138.240234375,-400000.0625,-400000.0625,-384879.625,-400000.0625,-400000.0625,-400000.0625
163.15844631195068,-400000.0625,-26188.619140625,-400000.0625,-400000.0625,-383170.125,-400000.0625,-400000.0625,-400000.0625
163.1636278629303,-400000.0625,-26115.369140625,-400000.0625,-400000.0625,-381214.8125,-400000.0625,-400000.0625,-400000.0625
163.17144131660461,-400000.0625,-24829.529296875,-400000.0625,-400000.0625,-383492.53125,-400000.0625,-400000.0625,-400000.0625
163.18007588386536,-400000.0625,-23983.099609375,-400000.0625,-400000.0625,-388729.4375,-400000.0625,-400000.0625,-400000.0625
163.19184279441833,-400000.0625,-24627.0703125,-400000.0625,-400000.0625,-391539.34375,-400000.0625,-400000.0625,-400000.0625
163.1974413394928,-400000.0625,-25696.470703125,-400000.0625,-400000.0625,-389875.5,-400000.0625,-400000.0625,-400000.0625
163.20543098449707,-400000.0625,-25537.880859375,-400000.0625,-400000.0625,-387987.71875,-400000.0625,-400000.0625,-400000.0625
163.212144613266,-400000.0625,-24353.83984375,-400000.0625,-400000.0625,-390338.46875,-400000.0625,-400000.0625,-400000.0625
163.21883940696716,-400000.0625,-23572.44921875,-400000.0625,-400000.0625,-395592.21875,-400000.0625,-400000.0625,-400000.0625
163.2263958454132,-400000.0625,-24191.0,-400000.0625,-400000.0625,-398383.8125,-400000.0625,-400000.0625,-400000.0625
163.23363208770752,-400000.0625,-25163.26953125,-400000.0625,-400000.0625,-396747.5,-400000.0625,-400000.0625,-400000.0625
163.2409429550171,-400000.0625,-25065.7109375,-400000.0625,-400000.0625,-394922.625,-400000.0625,-400000.0625,-400000.0625
163.24701118469238,-400000.0625,-23833.75,-400000.0625,-400000.0625,-397238.40625,-400000.0625,-400000.0625,-400000.0625
163.25351762771606,-400000.0625,-23076.009765625,-400000.0625,-400000.0625,-400000.0625,-400000.0625,-400000.0625,-400000.0625
163.26038122177124,-400000.0625,-23669.19921875,-400000.0625,-400000.0625,-400000.0625,-400000.0625,-400000.0625,-400000.0625
163.2682044506073,-400000.0625,-24667.98046875,-400000.0625,-400000.0625,-400000.0625,-400000.0625,-400000.0625,-400000.0625
163.27389931678772,-400000.0625,-24430.94921875,-400000.0625,-400000.0625,-400000.0625,-400000.0625,-400000.0625,-400000.0625
163.27962493896484,-400000.0625,-23171.380859375,-400000.0625,-400000.0625,-400000.0625,-400000.0625,-400000.0625,-400000.0625
163.2911994457245,-400000.0625,-22285.890625,-400000.0625,-400000.0625,-400000.0625,-400000.0625,-400000.0625,-400000.0625
163.3046293258667,-400000.0625,-22741.83984375,-400000.0625,-400000.0625,-400000.0625,-400000.0625,-400000.0625,-400000.0625
163.31112217903137,-400000.0625,-23691.609375,-400000.0625,-400000.0625,-400000.0625,-400000.0625,-400000.0625,-400000.0625
163.31669759750366,-400000.0625,-24856.279296875,-400000.0625,-400000.0625,-400000.0625,-400000.0625,-400000.0625,-400000.0625
163.3245267868042,-400000.0625,-26804.779296875,-400000.0625,-400000.0625,-400000.0625,-400000.0625,-400000.0625,-400000.0625
163.33170986175537,-400000.0625,-28543.7109375,-400000.0625,-400000.0625,-400000.0625,-400000.0625,-400000.0625,-400000.0625
163.3383595943451,-400000.0625,-29107.669921875,-400000.0625,-400000.0625,-400000.0625,-400000.0625,-400000.0625,-400000.0625
163.34524297714233,-400000.0625,-29077.009765625,-400000.0625,-400000.0625,-400000.0625,-400000.0625,-400000.0625,-400000.0625
163.35199618339539,-400000.0625,-30018.619140625,-400000.0625,-400000.0625,-400000.0625,-400000.0625,-400000.0625,-400000.0625
163.35813570022583,-400000.0625,-31914.48046875,-400000.0625,-400000.0625,-400000.0625,-400000.0625,-400000.0625,-400000.0625
163.3635971546173,-400000.0625,-33697.3203125,-400000.0625,-400000.0625,-400000.0625,-400000.0625,-400000.0625,-400000.0625
163.37113666534424,-400000.0625,-34332.8515625,-400000.0625,-400000.0625,-400000.0625,-400000.0625,-400000.0625,-400000.0625
163.3779010772705,-400000.0625,-34228.37890625,-400000.0625,-400000.0625,-400000.0625,-400000.0625,-400000.0625,-400000.0625
163.3832654953003,-400000.0625,-35126.69140625,-400000.0625,-400000.0625,-400000.0625,-400000.0625,-400000.0625,-400000.0625
163.3903729915619,-400000.0625,-37071.5703125,-400000.0625,-400000.0625,-400000.0625,-400000.0625,-400000.0625,-400000.0625
163.39599347114563,-400000.0625,-38854.7890625,-400000.0625,-400000.0625,-400000.0625,-400000.0625,-400000.0625,-400000.0625
163.4094271659851,-400000.0625,-39423.08984375,-400000.0625,-400000.0625,-400000.0625,-400000.0625,-400000.0625,-400000.0625
163.4150562286377,-400000.0625,-39311.21875,-400000.0625,-400000.0625,-400000.0625,-400000.0625,-400000.0625,-400000.0625
163.42155241966248,-400000.0625,-40206.2890625,-400000.0625,-400000.0625,-400000.0625,-400000.0625,-400000.0625,-400000.0625
163.42922377586365,-400000.0625,-42110.5,-400000.0625,-400000.0625,-400000.0625,-400000.0625,-400000.0625,-400000.0625
163.4352626800537,-400000.0625,-43859.05859375,-400000.0625,-400000.0625,-400000.0625,-400000.0625,-400000.0625,-400000.0625
163.44116067886353,-400000.0625,-44433.6484375,-400000.0625,-400000.0625,-400000.0625,-400000.0625,-400000.0625,-400000.0625
163.4464876651764,-400000.0625,-44346.53125,-400000.0625,-400000.0625,-400000.0625,-400000.0625,-400000.0625,-400000.0625
163.45437788963318,-400000.0625,-45274.5,-400000.0625,-400000.0625,-400000.0625,-400000.0625,-400000.0625,-400000.0625
163.4606945514679,-400000.0625,-47171.6015625,-400000.0625,-400000.0625,-400000.0625,-400000.0625,-400000.0625,-400000.0625
163.46612286567688,-400000.0625,-48862.75,-400000.0625,-400000.0625,-400000.0625,-400000.0625,-400000.0625,-400000.0625
163.47485446929932,-400000.0625,-49334.671875,-400000.0625,-400000.0625,-400000.0625,-400000.0625,-400000.0625,-400000.0625
163.4817180633545,-400000.0625,-41806.66015625,-400000.0625,-400000.0625,-400000.0625,-400000.0625,-400000.0625,-400000.0625
163.48951244354248,-400000.0625,-27089.359375,-400000.0625,-400000.0625,-400000.0625,-400000.0625,-400000.0625,-400000.0625
163.49529457092285,-400000.0625,-24811.990234375,-400000.0625,-400000.0625,-400000.0625,-400000.0625,-400000.0625,-400000.0625
163.50254774093628,-400000.0625,-24261.720703125,-400000.0625,-400000.0625,-400000.0625,-400000.0625,-400000.0625,-400000.0625
163.5165238380432,-400000.0625,-24874.2109375,-400000.0625,-400000.0625,-400000.0625,-400000.0625,-400000.0625,-400000.0625
163.5255310535431,-400000.0625,-25910.91015625,-400000.0625,-400000.0625,-400000.0625,-400000.0625,-400000.0625,-400000.0625
163.5321831703186,-400000.0625,-25773.669921875,-400000.0625,-400000.0625,-400000.0625,-400000.0625,-400000.0625,-400000.0625
163.53933143615723,-400000.0625,-24512.580078125,-400000.0625,-400000.0625,-400000.0625,-400000.0625,-400000.0625,-400000.0625
163.54495334625244,-400000.0625,-23589.80078125,-400000.0625,-400000.0625,-400000.0625,-400000.0625,-400000.0625,-400000.0625
163.55068039894104,-400000.0625,-24072.939453125,-400000.0625,-400000.0625,-400000.0625,-400000.0625,-400000.0625,-400000.0625
163.55752158164978,-400000.0625,-25150.779296875,-400000.0625,-400000.0625,-400000.0625,-400000.0625,-400000.0625,-400000.0625
163.56325840950012,-400000.0625,-24966.4296875,-400000.0625,-400000.0625,-400000.0625,-400000.0625,-400000.0625,-400000.0625
163.57167887687683,-400000.0625,-23683.5,-400000.0625,-400000.0625,-400000.0625,-400000.0625,-400000.0625,-400000.0625
163.57899713516235,-400000.0625,-22889.330078125,-400000.0625,-400000.0625,-400000.0625,-400000.0625,-400000.0625,-400000.0625
163.58521175384521,-400000.0625,-23473.9296875,-400000.0625,-400000.0625,-400000.0625,-400000.0625,-400000.0625,-400000.0625
163.59383821487427,-400000.0625,-24492.69921875,-400000.0625,-400000.0625,-400000.0625,-400000.0625,-400000.0625,-400000.0625
163.59942293167114,-400000.0625,-24375.5390625,-400000.0625,-400000.0625,-400000.0625,-400000.0625,-400000.0625,-400000.0625
163.60738039016724,-400000.0625,-23101.05078125,-400000.0625,-400000.0625,-400000.0625,-400000.0625,-400000.0625,-400000.0625
163.61812663078308,-400000.0625,-22393.51953125,-400000.0625,-400000.0625,-400000.0625,-400000.0625,-400000.0625,-400000.0625
163.62356662750244,-400000.0625,-23049.400390625,-400000.0625,-400000.0625,-400000.0625,-400000.0625,-400000.0625,-400000.0625
163.6298635005951,-400000.0625,-24028.16015625,-400000.0625,-400000.0625,-400000.0625,-400000.0625,-400000.0625,-400000.0625
163.63600611686707,-400000.0625,-24035.220703125,-400000.0625,-400000.0625,-400000.0625,-400000.0625,-400000.0625,-400000.0625
163.64278626441956,-400000.0625,-22905.2109375,-400000.0625,-400000.0625,-400000.0625,-400000.0625,-400000.0625,-400000.0625
163.6488742828369,-400000.0625,-22078.08984375,-400000.0625,-400000.0625,-400000.0625,-400000.0625,-400000.0625,-400000.0625
163.65583324432373,-400000.0625,-22612.2890625,-400000.0625,-400000.0625,-400000.0625,-400000.0625,-400000.0625,-400000.0625
163.66210055351257,-400000.0625,-23697.330078125,-400000.0625,-400000.0625,-400000.0625,-400000.0625,-400000.0625,-400000.0625
163.6687741279602,-400000.0625,-23888.16015625,-400000.0625,-400000.0625,-400000.0625,-400000.0625,-400000.0625,-400000.0625
163.6762135028839,-400000.0625,-22700.650390625,-400000.0625,-400000.0625,-400000.0625,-400000.0625,-400000.0625,-400000.0625
163.68277215957642,-400000.0625,-21916.439453125,-400000.0625,-400000.0625,-400000.0625,-400000.0625,-400000.0625,-400000.0625
163.69065141677856,-400000.0625,-22558.599609375,-400000.0625,-400000.0625,-400000.0625,-400000.0625,-400000.0625,-400000.0625
163.69662714004517,-400000.0625,-23678.5390625,-400000.0625,-400000.0625,-400000.0625,-400000.0625,-400000.0625,-400000.0625
163.7029893398285,-400000.0625,-23740.439453125,-400000.0625,-400000.0625,-400000.0625,-400000.0625,-400000.0625,-400000.0625
163.7096779346466,-400000.0625,-22706.560546875,-400000.0625,-400000.0625,-400000.0625,-400000.0625,-400000.0625,-400000.0625
163.72186875343323,-400000.0625,-21969.4609375,-400000.0625,-400000.0625,-400000.0625,-400000.0625,-400000.0625,-400000.0625
163.72729444503784,-400000.0625,-22582.9609375,-400000.0625,-400000.0625,-400000.0625,-400000.0625,-400000.0625,-400000.0625
163.7326855659485,-400000.0625,-23839.5703125,-400000.0625,-400000.0625,-400000.0625,-400000.0625,-400000.0625,-400000.0625
163.74052929878235,-400000.0625,-23813.73046875,-400000.0625,-400000.0625,-400000.0625,-400000.0625,-400000.0625,-400000.0625
163.74625492095947,-400000.0625,-22707.75,-400000.0625,-400000.0625,-400000.0625,-400000.0625,-400000.0625,-400000.0625
163.75372290611267,-400000.0625,-21902.75,-400000.0625,-400000.0625,-400000.0625,-400000.0625,-400000.0625,-400000.0625
163.7600200176239,-400000.0625,-22403.8203125,-400000.0625,-400000.0625,-400000.0625,-400000.0625,-400000.0625,-400000.0625
163.76507782936096,-400000.0625,-23482.990234375,-400000.0625,-400000.0625,-400000.0625,-400000.0625,-400000.0625,-400000.0625
163.77357482910156,-400000.0625,-23312.0,-400000.0625,-400000.0625,-400000.0625,-400000.0625,-400000.0625,-400000.0625
163.78005456924438,-400000.0625,-22080.7109375,-400000.0625,-400000.0625,-400000.0625,-400000.0625,-400000.0625,-400000.0625
163.78797364234924,-400000.0625,-21354.9609375,-400000.0625,-400000.0625,-400000.0625,-400000.0625,-400000.0625,-400000.0625
163.79402542114258,-400000.0625,-22020.76953125,-400000.0625,-400000.0625,-400000.0625,-400000.0625,-400000.0625,-400000.0625
163.80104088783264,-400000.0625,-22454.55078125,-400000.0625,-400000.0625,-400000.0625,-400000.0625,-400000.0625,-400000.0625
163.80774450302124,-400000.0625,-23413.470703125,-400000.0625,-400000.0625,-400000.0625,-400000.0625,-400000.0625,-400000.0625
163.813312292099,-400000.0625,-25277.619140625,-400000.0625,-400000.0625,-400000.0625,-400000.0625,-400000.0625,-400000.0625
163.8244936466217,-400000.0625,-26974.490234375,-400000.0625,-400000.0625,-400000.0625,-400000.0625,-400000.0625,-400000.0625
163.82997155189514,-400000.0625,-27530.150390625,-400000.0625,-400000.0625,-400000.0625,-400000.0625,-400000.0625,-400000.0625
163.8364977836609,-400000.0625,-27455.380859375,-400000.0625,-400000.0625,-400000.0625,-400000.0625,-400000.0625,-400000.0625
163.84265971183777,-400000.0625,-28405.76953125,-400000.0625,-400000.0625,-400000.0625,-400000.0625,-400000.0625,-400000.0625
163.84830570220947,-400000.0625,-30310.73046875,-400000.0625,-400000.0625,-400000.0625,-400000.0625,-400000.0625,-400000.0625
163.8571000099182,-400000.0625,-31981.849609375,-400000.0625,-400000.0625,-400000.0625,-400000.0625,-400000.0625,-400000.0625
163.86293363571167,-400000.0625,-32495.41015625,-400000.0625,-400000.0625,-400000.0625,-400000.0625,-400000.0625,-400000.0625
163.8703155517578,-400000.0625,-32396.890625,-400000.0625,-400000.0625,-400000.0625,-400000.0625,-400000.0625,-400000.0625
163.87637972831726,-400000.0625,-33292.25,-400000.0625,-400000.0625,-400000.0625,-400000.0625,-400000.0625,-400000.0625
163.88364720344543,-400000.0625,-35144.76171875,-400000.0625,-400000.0625,-400000.0625,-400000.0625,-400000.0625,-400000.0625
163.89008140563965,-400000.0625,-36828.46875,-400000.0625,-400000.0625,-400000.0625,-400000.0625,-400000.0625,-400000.0625
163.8964307308197,-400000.0625,-37373.0703125,-400000.0625,-400000.0625,-400000.0625,-400000.0625,-400000.0625,-400000.0625
163.90492057800293,-400000.0625,-37271.21875,-400000.0625,-400000.0625,-400000.0625,-400000.0625,-400000.0625,-400000.0625
163.91376161575317,-400000.0625,-38166.1015625,-400000.0625,-400000.0625,-400000.0625,-400000.0625,-400000.0625,-400000.0625
163.92619943618774,-400000.0625,-40030.33984375,-400000.0625,-400000.0625,-400000.0625,-400000.0625,-400000.0625,-400000.0625
163.9350609779358,-400000.0625,-41717.73046875,-400000.0625,-400000.0625,-400000.0625,-400000.0625,-400000.0625,-400000.0625
163.94299387931824,-400000.0625,-42268.8984375,-400000.0625,-400000.0625,-400000.0625,-400000.0625,-400000.0625,-400000.0625
163.9486107826233,-400000.0625,-42171.91015625,-400000.0625,-400000.0625,-400000.0625,-400000.0625,-400000.0625,-400000.0625
163.95686960220337,-400000.0625,-43066.75,-400000.0625,-400000.0625,-400000.0625,-400000.0625,-400000.0625,-400000.0625
163.9631621837616,-400000.0625,-44929.69921875,-400000.0625,-400000.0625,-400000.0625,-400000.0625,-400000.0625,-400000.0625
163.96931862831116,-400000.0625,-46608.30859375,-400000.0625,-400000.0625,-400000.0625,-400000.0625,-400000.0625,-400000.0625
163.97652912139893,-400000.0625,-47150.19140625,-400000.0625,-400000.0625,-400000.0625,-400000.0625,-400000.0625,-400000.0625
163.98294830322266,-400000.0625,-47070.94140625,-400000.0625,-400000.0625,-400000.0625,-400000.0625,-400000.0625,-400000.0625
163.98938512802124,-400000.0625,-47982.4609375,-400000.0625,-400000.0625,-400000.0625,-400000.0625,-400000.0625,-400000.0625
163.99507236480713,-400000.0625,-49842.6484375,-400000.0625,-400000.0625,-400000.0625,-400000.0625,-400000.0625,-400000.0625
164.0004961490631,-400000.0625,-51516.109375,-400000.0625,-400000.0625,-400000.0625,-400000.0625,-400000.0625,-400000.0625
164.00864100456238,-400000.0625,-52064.0,-400000.0625,-400000.0625,-400000.0625,-400000.0625,-400000.0625,-400000.0625
164.0165560245514,-400000.0625,-51983.6015625,-400000.0625,-400000.0625,-400000.0625,-400000.0625,-400000.0625,-400000.0625
164.0284707546234,-400000.0625,-52902.3203125,-400000.0625,-400000.0625,-400000.0625,-400000.0625,-400000.0625,-400000.0625
164.04082703590393,-400000.0625,-54759.55859375,-400000.0625,-400000.0625,-400000.0625,-400000.0625,-400000.0625,-400000.0625
164.0534384250641,-400000.0625,-56421.37890625,-400000.0625,-400000.0625,-400000.0625,-400000.0625,-400000.0625,-400000.0625
164.05952191352844,-400000.0625,-56960.6796875,-400000.0625,-400000.0625,-400000.0625,-400000.0625,-400000.0625,-400000.0625
164.06501173973083,-400000.0625,-56899.69921875,-400000.0625,-400000.0625,-400000.0625,-400000.0625,-400000.0625,-400000.0625
164.0724709033966,-400000.0625,-57827.62109375,-400000.0625,-400000.0625,-400000.0625,-400000.0625,-400000.0625,-400000.0625
164.07852482795715,-400000.0625,-59683.66015625,-400000.0625,-400000.0625,-400000.0625,-400000.0625,-400000.0625,-400000.0625
164.08416080474854,-400000.0625,-61321.83984375,-400000.0625,-400000.0625,-400000.0625,-400000.0625,-400000.0625,-400000.0625
164.08971238136292,-400000.0625,-61840.44921875,-400000.0625,-400000.0625,-400000.0625,-400000.0625,-400000.0625,-400000.0625
164.09561419487,-400000.0625,-61775.828125,-400000.0625,-400000.0625,-400000.0625,-400000.0625,-400000.0625,-400000.0625
164.10338163375854,-400000.0625,-62713.48828125,-400000.0625,-400000.0625,-400000.0625,-400000.0625,-400000.0625,-400000.0625
164.11021375656128,-400000.0625,-64559.3203125,-400000.0625,-400000.0625,-400000.0625,-400000.0625,-400000.0625,-400000.0625
164.11691069602966,-400000.0625,-66182.71875,-400000.0625,-400000.0625,-400000.0625,-400000.0625,-400000.0625,-400000.0625
164.12859296798706,-400000.0625,-66702.7578125,-400000.0625,-400000.0625,-400000.0625,-400000.0625,-400000.0625,-400000.0625
164.13473653793335,-400000.0625,-66644.6796875,-400000.0625,-400000.0625,-400000.0625,-400000.0625,-400000.0625,-400000.0625
164.14230275154114,-400000.0625,-67574.890625,-400000.0625,-400000.0625,-400000.0625,-400000.0625,-400000.0625,-400000.0625
164.14914917945862,-400000.0625,-69406.328125,-400000.0625,-400000.0625,-400000.0625,-400000.0625,-400000.0625,-400000.0625
164.1565465927124,-400000.0625,-71017.3203125,-400000.0625,-400000.0625,-400000.0625,-400000.0625,-400000.0625,-400000.0625
164.16222739219666,-400000.0625,-71533.15625,-400000.0625,-400000.0625,-400000.0625,-400000.0625,-400000.0625,-400000.0625
164.16776847839355,-400000.0625,-71479.8984375,-400000.0625,-400000.0625,-400000.0625,-400000.0625,-400000.0625,-400000.0625
164.17311263084412,-400000.0625,-72415.5,-400000.0625,-400000.0625,-400000.0625,-400000.0625,-400000.0625,-400000.0625
164.1784381866455,-400000.0625,-74241.546875,-400000.0625,-400000.0625,-400000.0625,-400000.0625,-400000.0625,-400000.0625
164.18439435958862,-400000.0625,-75845.578125,-400000.0625,-400000.0625,-400000.0625,-400000.0625,-400000.0625,-400000.0625
164.19119262695312,-400000.0625,-76354.609375,-400000.0625,-400000.0625,-400000.0625,-400000.0625,-400000.0625,-400000.0625
164.19706320762634,-400000.0625,-76299.390625,-400000.0625,-400000.0625,-400000.0625,-400000.0625,-400000.0625,-400000.0625
164.2026550769806,-400000.0625,-77230.421875,-400000.0625,-400000.0625,-400000.0625,-400000.0625,-400000.0625,-400000.0625
164.20875811576843,-400000.0625,-79054.3671875,-400000.0625,-400000.0625,-400000.0625,-400000.0625,-400000.0625,-400000.0625
164.21449494361877,-400000.0625,-80644.859375,-400000.0625,-400000.0625,-400000.0625,-400000.0625,-400000.0625,-400000.0625
164.22082805633545,-400000.0625,-81154.6875,-400000.0625,-400000.0625,-400000.0625,-400000.0625,-400000.0625,-400000.0625
164.2356469631195,-400000.0625,-81103.53125,-400000.0625,-400000.0625,-400000.0625,-400000.0625,-400000.0625,-400000.0625
164.2422800064087,-400000.0625,-82032.59375,-400000.0625,-400000.0625,-400000.0625,-400000.0625,-400000.0625,-400000.0625
164.24818515777588,-400000.0625,-83837.09375,-400000.0625,-400000.0625,-400000.0625,-400000.0625,-400000.0625,-400000.0625
164.25675320625305,-400000.0625,-85418.7578125,-400000.0625,-400000.0625,-400000.0625,-400000.0625,-400000.0625,-400000.0625
164.26368927955627,-400000.0625,-85931.6484375,-400000.0625,-400000.0625,-400000.0625,-400000.0625,-400000.0625,-400000.0625
164.27145886421204,-400000.0625,-85883.6328125,-400000.0625,-400000.0625,-400000.0625,-400000.0625,-400000.0625,-400000.0625
164.27849435806274,-400000.0625,-86806.7421875,-400000.0625,-400000.0625,-400000.0625,-400000.0625,-400000.0625,-400000.0625
164.28570175170898,-400000.0625,-88604.890625,-400000.0625,-400000.0625,-400000.0625,-400000.0625,-400000.0625,-400000.0625
164.29351830482483,-400000.0625,-90175.3984375,-400000.0625,-400000.0625,-400000.0625,-400000.0625,-400000.0625,-400000.0625
164.29980158805847,-400000.0625,-90672.84375,-400000.0625,-400000.0625,-400000.0625,-400000.0625,-400000.0625,-400000.0625
164.30850744247437,-400000.0625,-90609.8984375,-400000.0625,-400000.0625,-400000.0625,-400000.0625,-400000.0625,-400000.0625
164.3144564628601,-400000.0625,-91523.9375,-400000.0625,-400000.0625,-400000.0625,-400000.0625,-400000.0625,-400000.0625
164.3232192993164,-400000.0625,-93311.6484375,-400000.0625,-400000.0625,-400000.0625,-400000.0625,-400000.0625,-400000.0625
164.33809995651245,-400000.0625,-94892.9375,-400000.0625,-400000.0625,-400000.0625,-400000.0625,-400000.0625,-400000.0625
164.34548664093018,-400000.0625,-95415.171875,-400000.0625,-400000.0625,-400000.0625,-400000.0625,-400000.0625,-400000.0625
164.35373497009277,-400000.0625,-95359.859375,-400000.0625,-400000.0625,-400000.0625,-400000.0625,-400000.0625,-400000.0625
164.35970282554626,-400000.0625,-96266.5703125,-400000.0625,-400000.0625,-400000.0625,-400000.0625,-400000.0625,-400000.0625
164.36721444129944,-400000.0625,-98060.8125,-400000.0625,-400000.0625,-400000.0625,-400000.0625,-400000.0625,-400000.0625
164.37505388259888,-400000.0625,-99630.03125,-400000.0625,-400000.0625,-400000.0625,-400000.0625,-400000.0625,-400000.0625
164.38198614120483,-400000.0625,-100140.296875,-400000.0625,-400000.0625,-400000.0625,-400000.0625,-400000.0625,-400000.0625
164.3879692554474,-400000.0625,-100076.7421875,-400000.0625,-400000.0625,-400000.0625,-400000.0625,-400000.0625,-400000.0625
164.39342522621155,-400000.0625,-100981.1484375,-400000.0625,-400000.0625,-400000.0625,-400000.0625,-400000.0625,-400000.0625
164.39894723892212,-400000.0625,-102780.7421875,-400000.0625,-400000.0625,-400000.0625,-400000.0625,-400000.0625,-400000.0625
164.4071385860443,-400000.0625,-104355.296875,-400000.0625,-400000.0625,-400000.0625,-400000.0625,-400000.0625,-400000.0625
164.41409492492676,-400000.0625,-104843.8671875,-400000.0625,-400000.0625,-400000.0625,-400000.0625,-400000.0625,-400000.0625
164.42156457901,-400000.0625,-104786.6015625,-400000.0625,-400000.0625,-400000.0625,-400000.0625,-400000.0625,-400000.0625
164.42895245552063,-400000.0625,-105688.578125,-400000.0625,-400000.0625,-400000.0625,-400000.0625,-400000.0625,-400000.0625
164.4404444694519,-400000.0625,-107464.8515625,-400000.0625,-400000.0625,-400000.0625,-400000.0625,-400000.0625,-400000.0625
164.44850850105286,-400000.0625,-109040.2265625,-400000.0625,-400000.0625,-400000.0625,-400000.0625,-400000.0625,-400000.0625
164.45596194267273,-400000.0625,-109564.75,-400000.0625,-400000.0625,-400000.0625,-400000.0625,-400000.0625,-400000.0625
164.46382808685303,-400000.0625,-109502.5703125,-400000.0625,-400000.0625,-400000.0625,-400000.0625,-400000.0625,-400000.0625
164.4704360961914,-400000.0625,-110395.640625,-400000.0625,-400000.0625,-400000.0625,-400000.0625,-400000.0625,-400000.0625
164.47704076766968,-400000.0625,-112184.96875,-400000.0625,-400000.0625,-400000.0625,-400000.0625,-400000.0625,-400000.0625
164.48362255096436,-400000.0625,-113777.1328125,-400000.0625,-400000.0625,-400000.0625,-400000.0625,-400000.0625,-400000.0625
164.49272227287292,-400000.0625,-114301.078125,-400000.0625,-400000.0625,-400000.0625,-400000.0625,-400000.0625,-400000.0625
164.5001347064972,-400000.0625,-114247.0,-400000.0625,-400000.0625,-400000.0625,-400000.0625,-400000.0625,-400000.0625
164.5069453716278,-400000.0625,-115127.578125,-400000.0625,-400000.0625,-400000.0625,-400000.0625,-400000.0625,-400000.0625
164.5127031803131,-400000.0625,-116911.8515625,-400000.0625,-400000.0625,-400000.0625,-400000.0625,-400000.0625,-400000.0625
164.5180790424347,-400000.0625,-118518.03125,-400000.0625,-400000.0625,-400000.0625,-400000.0625,-400000.0625,-400000.0625
164.52337336540222,-400000.0625,-119047.9375,-400000.0625,-400000.0625,-400000.0625,-400000.0625,-400000.0625,-400000.0625
164.52885961532593,-400000.0625,-118974.75,-400000.0625,-400000.0625,-400000.0625,-400000.0625,-400000.0625,-400000.0625
164.5345802307129,-400000.0625,-119847.6015625,-400000.0625,-400000.0625,-400000.0625,-400000.0625,-400000.0625,-400000.0625
164.5543851852417,-400000.0625,-121632.3984375,-400000.0625,-400000.0625,-400000.0625,-400000.0625,-400000.0625,-400000.0625
164.5894923210144,-400000.0625,-123231.328125,-400000.0625,-400000.0625,-400000.0625,-400000.0625,-400000.0625,-400000.0625
164.60723042488098,-400000.0625,-123760.5703125,-400000.0625,-400000.0625,-400000.0625,-400000.0625,-400000.0625,-400000.0625
164.6125612258911,-400000.0625,-123681.5078125,-400000.0625,-400000.0625,-400000.0625,-400000.0625,-400000.0625,-400000.0625
164.62205910682678,-400000.0625,-124535.53125,-400000.0625,-400000.0625,-400000.0625,-400000.0625,-400000.0625,-400000.0625
164.63769841194153,-400000.0625,-126313.5625,-400000.0625,-400000.0625,-400000.0625,-400000.0625,-400000.0625,-400000.0625
164.65920996665955,-400000.0625,-127925.6015625,-400000.0625,-400000.0625,-400000.0625,-400000.0625,-400000.0625,-400000.0625
164.6652328968048,-400000.0625,-128455.9375,-400000.0625,-400000.0625,-400000.0625,-400000.0625,-400000.0625,-400000.0625
164.6853940486908,-400000.0625,-128366.1484375,-400000.0625,-400000.0625,-400000.0625,-400000.0625,-400000.0625,-400000.0625
164.69589614868164,-400000.0625,-129216.2578125,-400000.0625,-400000.0625,-400000.0625,-400000.0625,-400000.0625,-400000.0625
164.70367169380188,-400000.0625,-131000.9609375,-400000.0625,-400000.0625,-400000.0625,-400000.0625,-400000.0625,-400000.0625
164.7197630405426,-400000.0625,-132623.5,-400000.0625,-400000.0625,-400000.0625,-400000.0625,-400000.0625,-400000.0625
164.72786355018616,-400000.0625,-133146.109375,-400000.0625,-400000.0625,-400000.0625,-400000.0625,-400000.0625,-400000.0625
164.74288702011108,-400000.0625,-133037.109375,-400000.0625,-400000.0625,-400000.0625,-400000.0625,-400000.0625,-400000.0625
164.75990104675293,-400000.0625,-133873.234375,-400000.0625,-400000.0625,-400000.0625,-400000.0625,-400000.0625,-400000.0625
164.76647520065308,-400000.0625,-135653.9375,-400000.0625,-400000.0625,-400000.0625,-400000.0625,-400000.0625,-400000.0625
164.7905797958374,-400000.0625,-137271.84375,-400000.0625,-400000.0625,-400000.0625,-400000.0625,-400000.0625,-400000.0625
164.80170845985413,-400000.0625,-137805.0,-400000.0625,-400000.0625,-400000.0625,-400000.0625,-400000.0625,-400000.0625
164.81150650978088,-400000.0625,-137695.515625,-400000.0625,-400000.0625,-400000.0625,-400000.0625,-400000.0625,-400000.0625
164.81768536567688,-400000.0625,-138520.109375,-400000.0625,-400000.0625,-400000.0625,-400000.0625,-400000.0625,-400000.0625
164.83295273780823,-400000.0625,-140295.625,-400000.0625,-400000.0625,-400000.0625,-400000.0625,-400000.0625,-400000.0625
164.8443627357483,-400000.0625,-141922.296875,-400000.0625,-400000.0625,-400000.0625,-400000.0625,-400000.0625,-400000.0625
164.86537265777588,-400000.0625,-142455.015625,-400000.0625,-400000.0625,-400000.0625,-400000.0625,-400000.0625,-400000.0625
164.87541389465332,-400000.0625,-142341.203125,-400000.0625,-400000.0625,-400000.0625,-400000.0625,-400000.0625,-400000.0625
164.88115048408508,-400000.0625,-143154.109375,-400000.0625,-400000.0625,-400000.0625,-400000.0625,-400000.0625,-400000.0625
164.88704562187195,-400000.0625,-144925.796875,-400000.0625,-400000.0625,-400000.0625,-400000.0625,-400000.0625,-400000.0625
164.89250898361206,-400000.0625,-146548.765625,-400000.0625,-400000.0625,-400000.0625,-400000.0625,-400000.0625,-400000.0625
164.89771485328674,-400000.0625,-147078.15625,-400000.0625,-400000.0625,-400000.0625,-400000.0625,-400000.0625,-400000.0625
164.90370678901672,-400000.0625,-146953.65625,-400000.0625,-400000.0625,-400000.0625,-400000.0625,-400000.0625,-400000.0625
164.90883898735046,-400000.0625,-147760.546875,-400000.0625,-400000.0625,-400000.0625,-400000.0625,-400000.0625,-400000.0625
164.9141993522644,-400000.0625,-149525.28125,-400000.0625,-400000.0625,-400000.0625,-400000.0625,-400000.0625,-400000.0625
164.9194302558899,-400000.0625,-151146.625,-400000.0625,-400000.0625,-400000.0625,-400000.0625,-400000.0625,-400000.0625
164.92442154884338,-400000.0625,-151683.015625,-400000.0625,-400000.0625,-400000.0625,-400000.0625,-400000.0625,-400000.0625
164.92443203926086,-400000.0625,-151565.953125,-400000.0625,-400000.0625,-400000.0625,-400000.0625,-400000.0625,-400000.0625
164.92443680763245,-400000.0625,-152371.28125,-400000.0625,-400000.0625,-400000.0625,-400000.0625,-400000.0625,-400000.0625
164.9293713569641,-400000.0625,-154137.578125,-400000.0625,-400000.0625,-400000.0625,-400000.0625,-400000.0625,-400000.0625
164.92938208580017,-400000.0625,-155760.34375,-400000.0625,-400000.0625,-400000.0625,-400000.0625,-400000.0625,-400000.0625
164.92938876152039,-400000.0625,-156303.515625,-400000.0625,-400000.0625,-400000.0625,-400000.0625,-400000.0625,-400000.0625
164.92939472198486,-400000.0625,-156184.015625,-400000.0625,-400000.0625,-400000.0625,-400000.0625,-400000.0625,-400000.0625
164.92940020561218,-400000.0625,-156983.25,-400000.0625,-400000.0625,-400000.0625,-400000.0625,-400000.0625,-400000.0625
164.92940473556519,-400000.0625,-158744.0625,-400000.0625,-400000.0625,-400000.0625,-400000.0625,-400000.0625,-400000.0625
164.92940950393677,-400000.0625,-160369.515625,-400000.0625,-400000.0625,-400000.0625,-400000.0625,-400000.0625,-400000.0625
164.92941451072693,-400000.0625,-160900.90625,-400000.0625,-400000.0625,-400000.0625,-400000.0625,-400000.0625,-400000.0625
164.92941880226135,-400000.0625,-160773.921875,-400000.0625,-400000.0625,-400000.0625,-400000.0625,-400000.0625,-400000.0625
164.92942333221436,-400000.0625,-161556.015625,-400000.0625,-400000.0625,-400000.0625,-400000.0625,-400000.0625,-400000.0625
164.92942762374878,-400000.0625,-163303.6875,-400000.0625,-400000.0625,-400000.0625,-400000.0625,-400000.0625,-400000.0625
164.92943167686462,-400000.0625,-164931.453125,-400000.0625,-400000.0625,-400000.0625,-400000.0625,-400000.0625,-400000.0625
164.92943596839905,-400000.0625,-165475.71875,-400000.0625,-400000.0625,-400000.0625,-400000.0625,-400000.0625,-400000.0625
164.9294400215149,-400000.0625,-165339.78125,-400000.0625,-400000.0625,-400000.0625,-400000.0625,-400000.0625,-400000.0625
164.93435168266296,-400000.0625,-166122.125,-400000.0625,-400000.0625,-400000.0625,-400000.0625,-400000.0625,-400000.0625
164.93436098098755,-400000.0625,-167878.21875,-400000.0625,-400000.0625,-400000.0625,-400000.0625,-400000.0625,-400000.0625
164.93436574935913,-400000.0625,-169506.90625,-400000.0625,-400000.0625,-400000.0625,-400000.0625,-400000.0625,-400000.0625
164.93436980247498,-400000.0625,-170046.203125,-400000.0625,-400000.0625,-400000.0625,-400000.0625,-400000.0625,-400000.0625
164.93437457084656,-400000.0625,-169916.65625,-400000.0625,-400000.0625,-400000.0625,-400000.0625,-400000.0625,-400000.0625
164.9343786239624,-400000.0625,-170695.984375,-400000.0625,-400000.0625,-400000.0625,-400000.0625,-400000.0625,-400000.0625
164.93438291549683,-400000.0625,-172457.625,-400000.0625,-400000.0625,-400000.0625,-400000.0625,-400000.0625,-400000.0625
164.93438720703125,-400000.0625,-174091.875,-400000.0625,-400000.0625,-400000.0625,-400000.0625,-400000.0625,-400000.0625
164.93439149856567,-400000.0625,-174621.078125,-400000.0625,-400000.0625,-400000.0625,-400000.0625,-400000.0625,-400000.0625
164.93439602851868,-400000.0625,-174486.75,-400000.0625,-400000.0625,-400000.0625,-400000.0625,-400000.0625,-400000.0625
164.93440008163452,-400000.0625,-175277.203125,-400000.0625,-400000.0625,-400000.0625,-400000.0625,-400000.0625,-400000.0625
164.93440413475037,-400000.0625,-177028.53125,-400000.0625,-400000.0625,-400000.0625,-400000.0625,-400000.0625,-400000.0625
164.9344084262848,-400000.0625,-178663.703125,-400000.0625,-400000.0625,-400000.0625,-400000.0625,-400000.0625,-400000.0625
164.9344141483307,-400000.0625,-179211.96875,-400000.0625,-400000.0625,-400000.0625,-400000.0625,-400000.0625,-400000.0625
164.93441820144653,-400000.0625,-179069.109375,-400000.0625,-400000.0625,-400000.0625,-400000.0625,-400000.0625,-400000.0625
164.93442177772522,-400000.0625,-179840.0625,-400000.0625,-400000.0625,-400000.0625,-400000.0625,-400000.0625,-400000.0625
164.93442583084106,-400000.0625,-181602.546875,-400000.0625,-400000.0625,-400000.0625,-400000.0625,-400000.0625,-400000.0625
164.9344301223755,-400000.0625,-183230.84375,-400000.0625,-400000.0625,-400000.0625,-400000.0625,-400000.0625,-400000.0625
164.93443417549133,-400000.0625,-183779.453125,-400000.0625,-400000.0625,-400000.0625,-400000.0625,-400000.0625,-400000.0625
164.9344379901886,-400000.0625,-183656.515625,-400000.0625,-400000.0625,-400000.0625,-400000.0625,-400000.0625,-400000.0625
164.93444180488586,-400000.0625,-184418.078125,-400000.0625,-400000.0625,-400000.0625,-400000.0625,-400000.0625,-400000.0625
164.9393675327301,-400000.0625,-186151.953125,-400000.0625,-400000.0625,-400000.0625,-400000.0625,-400000.0625,-400000.0625
164.93937826156616,-400000.0625,-187785.984375,-400000.0625,-400000.0625,-400000.0625,-400000.0625,-400000.0625,-400000.0625
164.9393835067749,-400000.0625,-188331.671875,-400000.0625,-400000.0625,-400000.0625,-400000.0625,-400000.0625,-400000.0625
164.93938875198364,-400000.0625,-188184.90625,-400000.0625,-400000.0625,-400000.0625,-400000.0625,-400000.0625,-400000.0625
164.9393937587738,-400000.0625,-188932.6875,-400000.0625,-400000.0625,-400000.0625,-400000.0625,-400000.0625,-400000.0625
164.93939852714539,-400000.0625,-190672.046875,-400000.0625,-400000.0625,-400000.0625,-400000.0625,-400000.0625,-400000.0625
164.9394028186798,-400000.0625,-192305.921875,-400000.0625,-400000.0625,-400000.0625,-400000.0625,-400000.0625,-400000.0625
164.93940663337708,-400000.0625,-192844.125,-400000.0625,-400000.0625,-400000.0625,-400000.0625,-400000.0625,-400000.0625
164.93941044807434,-400000.0625,-192670.984375,-400000.0625,-400000.0625,-400000.0625,-400000.0625,-400000.0625,-400000.0625
164.9394142627716,-400000.0625,-193382.234375,-400000.0625,-400000.0625,-400000.0625,-400000.0625,-400000.0625,-400000.0625
164.9394187927246,-400000.0625,-195083.78125,-400000.0625,-400000.0625,-400000.0625,-400000.0625,-400000.0625,-400000.0625
164.93942260742188,-400000.0625,-196685.296875,-400000.0625,-400000.0625,-400000.0625,-400000.0625,-400000.0625,-400000.0625
164.93942642211914,-400000.0625,-197200.078125,-400000.0625,-400000.0625,-400000.0625,-400000.0625,-400000.0625,-400000.0625
164.93943047523499,-400000.0625,-197015.359375,-400000.0625,-400000.0625,-400000.0625,-400000.0625,-400000.0625,-400000.0625
164.93943405151367,-400000.0625,-197679.34375,-400000.0625,-400000.0625,-400000.0625,-400000.0625,-400000.0625,-400000.0625
164.93943786621094,-400000.0625,-199331.640625,-400000.0625,-400000.0625,-400000.0625,-400000.0625,-400000.0625,-400000.0625
164.9394416809082,-400000.0625,-200922.125,-400000.0625,-400000.0625,-400000.0625,-400000.0625,-400000.0625,-400000.0625
164.9443473815918,-400000.0625,-201440.875,-400000.0625,-400000.0625,-400000.0625,-400000.0625,-400000.0625,-400000.0625
164.94435834884644,-400000.0625,-201215.484375,-400000.0625,-400000.0625,-400000.0625,-400000.0625,-400000.0625,-400000.0625
164.94436359405518,-400000.0625,-201845.71875,-400000.0625,-400000.0625,-400000.0625,-400000.0625,-400000.0625,-400000.0625
164.94436836242676,-400000.0625,-203501.6875,-400000.0625,-400000.0625,-400000.0625,-400000.0625,-400000.0625,-400000.0625
164.948579788208,-400000.0625,-205123.96875,-400000.0625,-400000.0625,-400000.0625,-400000.0625,-400000.0625,-400000.0625
164.95344185829163,-400000.0625,-205706.671875,-400000.0625,-400000.0625,-400000.0625,-400000.0625,-400000.0625,-400000.0625
164.95345330238342,-400000.0625,-205577.453125,-400000.0625,-400000.0625,-400000.0625,-400000.0625,-400000.0625,-400000.0625
164.95345854759216,-400000.0625,-206335.046875,-400000.0625,-400000.0625,-400000.0625,-400000.0625,-400000.0625,-400000.0625
164.95346426963806,-400000.0625,-208078.65625,-400000.0625,-400000.0625,-400000.0625,-400000.0625,-400000.0625,-400000.0625
164.95346879959106,-400000.0625,-209677.4375,-400000.0625,-400000.0625,-400000.0625,-400000.0625,-400000.0625,-400000.0625
164.95347332954407,-400000.0625,-210232.625,-400000.0625,-400000.0625,-400000.0625,-400000.0625,-400000.0625,-400000.0625
164.9534773826599,-400000.0625,-210078.21875,-400000.0625,-400000.0625,-400000.0625,-400000.0625,-400000.0625,-400000.0625
164.95348143577576,-400000.0625,-203566.09375,-400000.0625,-400000.0625,-400000.0625,-400000.0625,-400000.0625,-400000.0625
164.95348572731018,-400000.0625,-111210.7421875,-400000.0625,-400000.0625,-400000.0625,-400000.0625,-400000.0625,-400000.0625
164.95348978042603,-400000.0625,-41346.359375,-400000.0625,-400000.0625,-400000.0625,-400000.0625,-400000.0625,-400000.0625
164.95349383354187,-400000.0625,-38073.9296875,-400000.0625,-400000.0625,-400000.0625,-400000.0625,-400000.0625,-400000.0625
164.95349764823914,-400000.0625,-37811.19140625,-400000.0625,-400000.0625,-400000.0625,-400000.0625,-400000.0625,-400000.0625
164.95350193977356,-400000.0625,-36891.55859375,-400000.0625,-400000.0625,-400000.0625,-400000.0625,-400000.0625,-400000.0625
164.9535059928894,-400000.0625,-35050.48828125,-400000.0625,-400000.0625,-400000.0625,-400000.0625,-400000.0625,-400000.0625
164.95351004600525,-400000.0625,-33593.75,-400000.0625,-400000.0625,-400000.0625,-400000.0625,-400000.0625,-400000.0625
164.95351386070251,-400000.0625,-33569.53125,-400000.0625,-400000.0625,-400000.0625,-400000.0625,-400000.0625,-400000.0625
164.95351767539978,-400000.0625,-34234.9609375,-400000.0625,-400000.0625,-400000.0625,-400000.0625,-400000.0625,-400000.0625
164.95352172851562,-400000.0625,-33884.33984375,-400000.0625,-400000.0625,-400000.0625,-400000.0625,-400000.0625,-400000.0625
164.9535255432129,-400000.0625,-32371.810546875,-400000.0625,-400000.0625,-400000.0625,-400000.0625,-400000.0625,-400000.0625
164.95352935791016,-400000.0625,-31151.580078125,-400000.0625,-400000.0625,-400000.0625,-400000.0625,-400000.0625,-400000.0625
164.95353317260742,-400000.0625,-31314.900390625,-400000.0625,-400000.0625,-400000.0625,-400000.0625,-400000.0625,-400000.0625
164.95353770256042,-400000.0625,-32156.330078125,-400000.0625,-400000.0625,-400000.0625,-400000.0625,-400000.0625,-400000.0625
164.9535415172577,-400000.0625,-31955.19921875,-400000.0625,-400000.0625,-400000.0625,-400000.0625,-400000.0625,-400000.0625
164.95354509353638,-400000.0625,-30625.390625,-400000.0625,-400000.0625,-400000.0625,-400000.0625,-400000.0625,-400000.0625
164.95354890823364,-400000.0625,-29422.05078125,-400000.0625,-400000.0625,-400000.0625,-400000.0625,-400000.0625,-400000.0625
164.9535529613495,-400000.0625,-29760.939453125,-400000.0625,-400000.0625,-400000.0625,-400000.0625,-400000.0625,-400000.0625
164.95355653762817,-400000.0625,-30837.16015625,-400000.0625,-400000.0625,-400000.0625,-400000.0625,-400000.0625,-400000.0625
164.95356035232544,-400000.0625,-30661.779296875,-400000.0625,-400000.0625,-400000.0625,-400000.0625,-400000.0625,-400000.0625
164.95356392860413,-400000.0625,-29483.990234375,-400000.0625,-400000.0625,-400000.0625,-400000.0625,-400000.0625,-400000.0625
164.9535677433014,-400000.0625,-28470.7109375,-400000.0625,-400000.0625,-400000.0625,-400000.0625,-400000.0625,-400000.0625
164.95357251167297,-400000.0625,-28761.8203125,-400000.0625,-400000.0625,-400000.0625,-400000.0625,-400000.0625,-400000.0625
164.95357632637024,-400000.0625,-29771.279296875,-400000.0625,-400000.0625,-400000.0625,-400000.0625,-400000.0625,-400000.0625
164.9535801410675,-400000.0625,-29923.060546875,-400000.0625,-400000.0625,-400000.0625,-400000.0625,-400000.0625,-400000.0625
164.95358395576477,-400000.0625,-28776.509765625,-400000.0625,-400000.0625,-400000.0625,-400000.0625,-400000.0625,-400000.0625
164.95358753204346,-400000.0625,-27794.41015625,-400000.0625,-400000.0625,-400000.0625,-400000.0625,-400000.0625,-400000.0625
164.95859384536743,-400000.0625,-28210.259765625,-400000.0625,-400000.0625,-400000.0625,-400000.0625,-400000.0625,-400000.0625
164.96345448493958,-400000.0625,-29250.91015625,-400000.0625,-400000.0625,-400000.0625,-400000.0625,-400000.0625,-400000.0625
164.96346354484558,-400000.0625,-29303.98046875,-400000.0625,-400000.0625,-400000.0625,-400000.0625,-400000.0625,-400000.0625
164.96346807479858,-400000.0625,-28133.16015625,-400000.0625,-400000.0625,-400000.0625,-400000.0625,-400000.0625,-400000.0625
164.9634726047516,-400000.0625,-27154.9296875,-400000.0625,-400000.0625,-400000.0625,-400000.0625,-400000.0625,-400000.0625
164.96347737312317,-400000.0625,-27517.419921875,-400000.0625,-400000.0625,-400000.0625,-400000.0625,-400000.0625,-400000.0625
164.9634816646576,-400000.0625,-28538.0390625,-400000.0625,-400000.0625,-400000.0625,-400000.0625,-400000.0625,-400000.0625
164.9634861946106,-400000.0625,-28568.990234375,-400000.0625,-400000.0625,-400000.0625,-400000.0625,-400000.0625,-400000.0625
164.96349024772644,-400000.0625,-27585.890625,-400000.0625,-400000.0625,-400000.0625,-400000.0625,-400000.0625,-400000.0625
164.96349501609802,-400000.0625,-26890.810546875,-400000.0625,-400000.0625,-400000.0625,-400000.0625,-400000.0625,-400000.0625
164.9634988307953,-400000.0625,-27707.8203125,-400000.0625,-400000.0625,-400000.0625,-400000.0625,-400000.0625,-400000.0625
164.9635031223297,-400000.0625,-29768.51953125,-400000.0625,-400000.0625,-400000.0625,-400000.0625,-400000.0625,-400000.0625
164.96350741386414,-400000.0625,-31528.810546875,-400000.0625,-400000.0625,-400000.0625,-400000.0625,-400000.0625,-400000.0625
164.96351170539856,-400000.0625,-33430.62890625,-400000.0625,-400000.0625,-400000.0625,-400000.0625,-400000.0625,-400000.0625
164.9635157585144,-400000.0625,-35171.37109375,-400000.0625,-400000.0625,-400000.0625,-400000.0625,-400000.0625,-400000.0625
164.96351957321167,-400000.0625,-35907.55859375,-400000.0625,-400000.0625,-400000.0625,-400000.0625,-400000.0625,-400000.0625
164.96352410316467,-400000.0625,-35985.140625,-400000.0625,-400000.0625,-400000.0625,-400000.0625,-400000.0625,-400000.0625
164.96352767944336,-400000.0625,-36876.87109375,-400000.0625,-400000.0625,-400000.0625,-400000.0625,-400000.0625,-400000.0625
164.96353197097778,-400000.0625,-38758.37890625,-400000.0625,-400000.0625,-400000.0625,-400000.0625,-400000.0625,-400000.0625
164.96353602409363,-400000.0625,-40592.53125,-400000.0625,-400000.0625,-400000.0625,-400000.0625,-400000.0625,-400000.0625
164.9635398387909,-400000.0625,-41350.609375,-400000.0625,-400000.0625,-400000.0625,-400000.0625,-400000.0625,-400000.0625
164.96354365348816,-400000.0625,-41367.62890625,-400000.0625,-400000.0625,-400000.0625,-400000.0625,-400000.0625,-400000.0625
164.96354794502258,-400000.0625,-42233.76171875,-400000.0625,-400000.0625,-400000.0625,-400000.0625,-400000.0625,-400000.0625
164.96355199813843,-400000.0625,-44111.44921875,-400000.0625,-400000.0625,-400000.0625,-400000.0625,-400000.0625,-400000.0625
164.96355605125427,-400000.0625,-45930.8203125,-400000.0625,-400000.0625,-400000.0625,-400000.0625,-400000.0625,-400000.0625
164.9635627269745,-400000.0625,-46670.390625,-400000.0625,-400000.0625,-400000.0625,-400000.0625,-400000.0625,-400000.0625
164.96356654167175,-400000.0625,-46681.26953125,-400000.0625,-400000.0625,-400000.0625,-400000.0625,-400000.0625,-400000.0625
164.96357083320618,-400000.0625,-47535.37890625,-400000.0625,-400000.0625,-400000.0625,-400000.0625,-400000.0625,-400000.0625
164.96357440948486,-400000.0625,-49384.12109375,-400000.0625,-400000.0625,-400000.0625,-400000.0625,-400000.0625,-400000.0625
164.96357822418213,-400000.0625,-51150.19140625,-400000.0625,-400000.0625,-400000.0625,-400000.0625,-400000.0625,-400000.0625
164.9635820388794,-400000.0625,-51853.140625,-400000.0625,-400000.0625,-400000.0625,-400000.0625,-400000.0625,-400000.0625
164.96358585357666,-400000.0625,-51854.19140625,-400000.0625,-400000.0625,-400000.0625,-400000.0625,-400000.0625,-400000.0625
164.96359014511108,-400000.0625,-49694.828125,-400000.0625,-400000.0625,-400000.0625,-400000.0625,-400000.0625,-400000.0625
164.96359372138977,-400000.0625,-34290.6484375,-400000.0625,-400000.0625,-400000.0625,-400000.0625,-400000.0625,-400000.0625
164.96359753608704,-400000.0625,-28086.0,-400000.0625,-400000.0625,-400000.0625,-400000.0625,-400000.0625,-400000.0625
164.9683678150177,-400000.0625,-28573.560546875,-400000.0625,-400000.0625,-400000.0625,-400000.0625,-400000.0625,-400000.0625
164.96837759017944,-400000.0625,-29622.369140625,-400000.0625,-400000.0625,-400000.0625,-400000.0625,-400000.0625,-400000.0625
164.96838283538818,-400000.0625,-29721.740234375,-400000.0625,-400000.0625,-400000.0625,-400000.0625,-400000.0625,-400000.0625
164.96838760375977,-400000.0625,-28476.669921875,-400000.0625,-400000.0625,-400000.0625,-400000.0625,-400000.0625,-400000.0625
164.9683918952942,-400000.0625,-27284.859375,-400000.0625,-400000.0625,-400000.0625,-400000.0625,-400000.0625,-400000.0625
164.9683964252472,-400000.0625,-27501.009765625,-400000.0625,-400000.0625,-400000.0625,-400000.0625,-400000.0625,-400000.0625
164.96840047836304,-400000.0625,-28453.44921875,-400000.0625,-400000.0625,-400000.0625,-400000.0625,-400000.0625,-400000.0625
164.9684042930603,-400000.0625,-28374.060546875,-400000.0625,-400000.0625,-400000.0625,-400000.0625,-400000.0625,-400000.0625
164.96840858459473,-400000.0625,-27141.859375,-400000.0625,-400000.0625,-400000.0625,-400000.0625,-400000.0625,-400000.0625
164.968412399292,-400000.0625,-26162.33984375,-400000.0625,-400000.0625,-400000.0625,-400000.0625,-400000.0625,-400000.0625
164.96841621398926,-400000.0625,-26562.0703125,-400000.0625,-400000.0625,-400000.0625,-400000.0625,-400000.0625,-400000.0625
164.9684202671051,-400000.0625,-27556.23046875,-400000.0625,-400000.0625,-400000.0625,-400000.0625,-400000.0625,-400000.0625
164.96842408180237,-400000.0625,-27806.810546875,-400000.0625,-400000.0625,-400000.0625,-400000.0625,-400000.0625,-400000.0625
164.9684281349182,-400000.0625,-30071.830078125,-400000.0625,-400000.0625,-370125.8125,-400000.0625,-400000.0625,-400000.0625
164.96843242645264,-400000.0625,-29367.359375,-400000.0625,-400000.0625,-96428.0703125,-400000.0625,-400000.0625,-400000.0625
164.9684362411499,-400000.0625,-27198.41015625,-400000.0625,-400000.0625,-44701.48828125,-400000.0625,-400000.0625,-400000.0625
164.96844005584717,-400000.0625,-27572.01953125,-400000.0625,-400000.0625,-41041.671875,-400000.0625,-400000.0625,-400000.0625
164.968444108963,-400000.0625,-27424.390625,-400000.0625,-400000.0625,-39447.55078125,-400000.0625,-400000.0625,-400000.0625
164.96844840049744,-400000.0625,-26213.26953125,-400000.0625,-400000.0625,-37546.109375,-400000.0625,-400000.0625,-400000.0625
164.9684522151947,-400000.0625,-25201.560546875,-400000.0625,-400000.0625,-36008.03125,-400000.0625,-400000.0625,-400000.0625
164.96871709823608,-400000.0625,-25633.150390625,-400000.0625,-400000.0625,-35835.94140625,-400000.0625,-400000.0625,-400000.0625
164.97386813163757,-400000.0625,-26673.369140625,-400000.0625,-400000.0625,-36344.25,-400000.0625,-400000.0625,-400000.0625
164.97882175445557,-400000.0625,-26717.330078125,-400000.0625,-400000.0625,-36164.4296875,-400000.0625,-400000.0625,-400000.0625
164.97883248329163,-400000.0625,-25650.599609375,-400000.0625,-400000.0625,-34834.1015625,-400000.0625,-400000.0625,-400000.0625
164.9788384437561,-400000.0625,-24892.759765625,-400000.0625,-400000.0625,-33798.7890625,-400000.0625,-400000.0625,-400000.0625
164.97884321212769,-400000.0625,-25284.33984375,-400000.0625,-400000.0625,-34145.55078125,-400000.0625,-400000.0625,-400000.0625
164.9788477420807,-400000.0625,-26284.029296875,-400000.0625,-400000.0625,-34878.44921875,-400000.0625,-400000.0625,-400000.0625
164.9788520336151,-400000.0625,-26446.30078125,-400000.0625,-400000.0625,-34769.62890625,-400000.0625,-400000.0625,-400000.0625
164.9788568019867,-400000.0625,-25443.599609375,-400000.0625,-400000.0625,-33776.23828125,-400000.0625,-400000.0625,-400000.0625
164.97886109352112,-400000.0625,-24459.4609375,-400000.0625,-400000.0625,-33011.73046875,-400000.0625,-400000.0625,-400000.0625
164.97886562347412,-400000.0625,-24924.619140625,-400000.0625,-400000.0625,-33123.828125,-400000.0625,-400000.0625,-400000.0625
164.97887015342712,-400000.0625,-26197.390625,-400000.0625,-400000.0625,-33968.55078125,-400000.0625,-400000.0625,-400000.0625
164.97887444496155,-400000.0625,-26286.1796875,-400000.0625,-400000.0625,-34693.8203125,-400000.0625,-400000.0625,-400000.0625
164.983647108078,-400000.0625,-25235.849609375,-400000.0625,-400000.0625,-37495.5703125,-400000.0625,-400000.0625,-400000.0625
164.98372602462769,-400000.0625,-24300.529296875,-400000.0625,-400000.0625,-43134.171875,-400000.0625,-400000.0625,-400000.0625
164.98374891281128,-400000.0625,-24812.609375,-400000.0625,-400000.0625,-47180.0390625,-400000.0625,-400000.0625,-400000.0625
164.98376083374023,-400000.0625,-25986.099609375,-400000.0625,-400000.0625,-47235.26171875,-400000.0625,-400000.0625,-400000.0625
164.9837715625763,-400000.0625,-26138.740234375,-400000.0625,-400000.0625,-46434.7890625,-400000.0625,-400000.0625,-400000.0625
164.98378086090088,-400000.0625,-25175.91015625,-400000.0625,-400000.0625,-48942.80859375,-400000.0625,-400000.0625,-400000.0625
164.98379015922546,-400000.0625,-24272.919921875,-400000.0625,-400000.0625,-54343.328125,-400000.0625,-400000.0625,-400000.0625
164.9837999343872,-400000.0625,-24699.640625,-400000.0625,-400000.0625,-58128.55078125,-400000.0625,-400000.0625,-400000.0625
164.9838089942932,-400000.0625,-25907.5703125,-400000.0625,-400000.0625,-57917.7890625,-400000.0625,-400000.0625,-400000.0625
164.98381805419922,-400000.0625,-26149.939453125,-400000.0625,-400000.0625,-56814.01171875,-400000.0625,-400000.0625,-400000.0625
164.98382759094238,-400000.0625,-25103.759765625,-400000.0625,-400000.0625,-58988.91015625,-400000.0625,-400000.0625,-400000.0625
164.9838366508484,-400000.0625,-24145.609375,-400000.0625,-400000.0625,-64086.87109375,-400000.0625,-400000.0625,-400000.0625
164.98384594917297,-400000.0625,-24537.0390625,-400000.0625,-400000.0625,-67658.1875,-400000.0625,-400000.0625,-400000.0625
164.98385500907898,-400000.0625,-25665.619140625,-400000.0625,-400000.0625,-67314.6796875,-400000.0625,-400000.0625,-400000.0625
164.9838638305664,-400000.0625,-25920.869140625,-400000.0625,-400000.0625,-66231.8828125,-400000.0625,-400000.0625,-400000.0625
164.9838728904724,-400000.0625,-24898.48046875,-400000.0625,-400000.0625,-68480.8828125,-400000.0625,-400000.0625,-400000.0625
164.98388147354126,-400000.0625,-23915.2890625,-400000.0625,-400000.0625,-73664.203125,-400000.0625,-400000.0625,-400000.0625
164.98952507972717,-400000.0625,-24363.619140625,-400000.0625,-400000.0625,-77275.4765625,-400000.0625,-400000.0625,-400000.0625
164.99519419670105,-400000.0625,-25553.990234375,-400000.0625,-400000.0625,-76895.1015625,-400000.0625,-400000.0625,-400000.0625
164.99999284744263,-400000.0625,-25878.669921875,-400000.0625,-400000.0625,-75697.7578125,-400000.0625,-400000.0625,-400000.0625
165.00000762939453,-400000.0625,-25196.560546875,-400000.0625,-400000.0625,-77904.7109375,-400000.0625,-400000.0625,-400000.0625
165.00001406669617,-400000.0625,-25085.259765625,-400000.0625,-400000.0625,-83104.140625,-400000.0625,-400000.0625,-400000.0625
165.00002002716064,-400000.0625,-27197.029296875,-400000.0625,-400000.0625,-86717.0390625,-400000.0625,-400000.0625,-400000.0625
165.00002551078796,-400000.0625,-28173.880859375,-400000.0625,-400000.0625,-86315.8828125,-400000.0625,-400000.0625,-400000.0625
165.00003099441528,-400000.0625,-28872.25,-400000.0625,-400000.0625,-85069.140625,-400000.0625,-400000.0625,-400000.0625
165.00003743171692,-400000.0625,-30645.900390625,-400000.0625,-400000.0625,-87250.0,-400000.0625,-400000.0625,-400000.0625
165.00004291534424,-400000.0625,-32487.6796875,-400000.0625,-400000.0625,-92432.4609375,-400000.0625,-400000.0625,-400000.0625
165.0000479221344,-400000.0625,-33253.91015625,-400000.0625,-400000.0625,-95986.0390625,-400000.0625,-400000.0625,-400000.0625
165.0000548362732,-400000.0625,-33124.87890625,-400000.0625,-400000.0625,-95507.8203125,-400000.0625,-400000.0625,-400000.0625
165.0000603199005,-400000.0625,-33747.25,-400000.0625,-400000.0625,-94183.2734375,-400000.0625,-400000.0625,-400000.0625
165.00006580352783,-400000.0625,-35553.98046875,-400000.0625,-400000.0625,-96304.2890625,-400000.0625,-400000.0625,-400000.0625
165.00007128715515,-400000.0625,-37446.03125,-400000.0625,-400000.0625,-101444.296875,-400000.0625,-400000.0625,-400000.0625
165.0000786781311,-400000.0625,-38189.75,-400000.0625,-400000.0625,-104981.6328125,-400000.0625,-400000.0625,-400000.0625
165.00008344650269,-400000.0625,-38042.171875,-400000.0625,-400000.0625,-104485.140625,-400000.0625,-400000.0625,-400000.0625
165.00008845329285,-400000.0625,-38693.71875,-400000.0625,-400000.0625,-103170.7421875,-400000.0625,-400000.0625,-400000.0625
165.00009322166443,-400000.0625,-40499.01953125,-400000.0625,-400000.0625,-105272.8828125,-400000.0625,-400000.0625,-400000.0625
165.0000991821289,-400000.0625,-42385.921875,-400000.0625,-400000.0625,-110368.359375,-400000.0625,-400000.0625,-400000.0625
165.00010347366333,-400000.0625,-43141.3203125,-400000.0625,-400000.0625,-113856.6171875,-400000.0625,-400000.0625,-400000.0625
165.0001082420349,-400000.0625,-43013.4296875,-400000.0625,-400000.0625,-113340.921875,-400000.0625,-400000.0625,-400000.0625
165.00011372566223,-400000.0625,-43663.3203125,-400000.0625,-400000.0625,-112011.2578125,-400000.0625,-400000.0625,-400000.0625
165.0001184940338,-400000.0625,-45459.3203125,-400000.0625,-400000.0625,-114083.3515625,-400000.0625,-400000.0625,-400000.0625
165.0001232624054,-400000.0625,-47303.109375,-400000.0625,-400000.0625,-119115.5625,-400000.0625,-400000.0625,-400000.0625
165.00012826919556,-400000.0625,-48035.48046875,-400000.0625,-400000.0625,-122558.078125,-400000.0625,-400000.0625,-400000.0625
165.0001335144043,-400000.0625,-47909.30859375,-400000.0625,-400000.0625,-122030.703125,-400000.0625,-400000.0625,-400000.0625
165.0001392364502,-400000.0625,-48568.58984375,-400000.0625,-400000.0625,-120696.2734375,-400000.0625,-400000.0625,-400000.0625
165.00014424324036,-400000.0625,-50342.08984375,-400000.0625,-400000.0625,-122725.40625,-400000.0625,-400000.0625,-400000.0625
165.00014901161194,-400000.0625,-52159.26953125,-400000.0625,-400000.0625,-127704.8671875,-400000.0625,-400000.0625,-400000.0625
165.0001540184021,-400000.0625,-52873.140625,-400000.0625,-400000.0625,-131114.546875,-400000.0625,-400000.0625,-400000.0625
165.00015878677368,-400000.0625,-52738.4296875,-400000.0625,-400000.0625,-130571.1875,-400000.0625,-400000.0625,-400000.0625
165.0001630783081,-400000.0625,-53402.05078125,-400000.0625,-400000.0625,-129226.5625,-400000.0625,-400000.0625,-400000.0625
165.0001678466797,-400000.0625,-55166.73046875,-400000.0625,-400000.0625,-131249.96875,-400000.0625,-400000.0625,-400000.0625
165.0001723766327,-400000.0625,-56959.87109375,-400000.0625,-400000.0625,-136222.46875,-400000.0625,-400000.0625,-400000.0625
165.0001769065857,-400000.0625,-57662.05859375,-400000.0625,-400000.0625,-139618.984375,-400000.0625,-400000.0625,-400000.0625
165.00018310546875,-400000.0625,-57534.6484375,-400000.0625,-400000.0625,-139047.546875,-400000.0625,-400000.0625,-400000.0625
165.0001881122589,-400000.0625,-58199.3203125,-400000.0625,-400000.0625,-137668.34375,-400000.0625,-400000.0625,-400000.0625
165.00019454956055,-400000.0625,-59957.23046875,-400000.0625,-400000.0625,-139657.234375,-400000.0625,-400000.0625,-400000.0625
165.0001995563507,-400000.0625,-61738.0703125,-400000.0625,-400000.0625,-144595.40625,-400000.0625,-400000.0625,-400000.0625
165.00525403022766,-400000.0625,-62428.390625,-400000.0625,-400000.0625,-147959.546875,-400000.0625,-400000.0625,-400000.0625
165.01005697250366,-400000.0625,-62311.66015625,-400000.0625,-400000.0625,-147373.125,-400000.0625,-400000.0625,-400000.0625
165.01006627082825,-400000.0625,-62991.9609375,-400000.0625,-400000.0625,-145981.375,-400000.0625,-400000.0625,-400000.0625
165.01007103919983,-400000.0625,-64752.01171875,-400000.0625,-400000.0625,-147959.25,-400000.0625,-400000.0625,-400000.0625
165.01007509231567,-400000.0625,-66505.6328125,-400000.0625,-400000.0625,-152889.796875,-400000.0625,-400000.0625,-400000.0625
165.01007914543152,-400000.0625,-67173.3515625,-400000.0625,-400000.0625,-156223.03125,-400000.0625,-400000.0625,-400000.0625
165.01008296012878,-400000.0625,-65965.0390625,-400000.0625,-400000.0625,-155599.28125,-400000.0625,-400000.0625,-400000.0625
165.01008677482605,-400000.0625,-48492.8203125,-400000.0625,-400000.0625,-154111.5,-400000.0625,-400000.0625,-400000.0625
165.01009130477905,-400000.0625,-31516.890625,-400000.0625,-400000.0625,-155981.609375,-400000.0625,-400000.0625,-400000.0625
