time,ch1,ch2,ch3,ch4,ch5
timestamp,ch7,ch2,ch3,ch5,is_pause
timestamp,ch7,ch2,ch3,ch5,is_pause
timestamp,ch7,ch2,ch3,ch5,is_pause
timestamp,ch7,ch2,ch3,ch5,is_pause
timestamp,ch7,ch2,ch3,ch5,is_pause
timestamp,ch7,ch2,ch3,ch5,is_pause
0.08815979957580566,-400000.0625,-1583.9599609375,-5782.89013671875,-400000.0625,-5448.72021484375,-400000.0625,-19526.099609375,-400000.0625
timestamp,ch7,ch2,ch3,ch5,is_pause
0.10410022735595703,-400000.0625,-1544.239990234375,-5752.22998046875,-400000.0625,-5413.6298828125,-400000.0625,-19489.099609375,-400000.0625
0.10476279258728027,-400000.0625,-1575.5699462890625,-5780.35986328125,-400000.0625,-5443.3798828125,-400000.0625,-19519.330078125,-400000.0625
0.10479211807250977,-400000.0625,-1636.3599853515625,-5830.72021484375,-400000.0625,-5498.22021484375,-400000.0625,-19578.359375,-400000.0625
0.10481142997741699,-400000.0625,-1635.97998046875,-5828.72021484375,-400000.0625,-5498.1201171875,-400000.0625,-19575.220703125,-400000.0625
0.1048285961151123,-400000.0625,-1578.52001953125,-5774.35986328125,-400000.0625,-5445.10009765625,-400000.0625,-19517.900390625,-400000.0625
0.10484480857849121,-400000.0625,-1546.18994140625,-5752.0400390625,-400000.0625,-5414.6298828125,-400000.0625,-19487.33984375,-400000.0625
0.10486102104187012,-400000.0625,-1583.47998046875,-5786.509765625,-400000.0625,-5450.72998046875,-400000.0625,-19524.9609375,-400000.0625
0.1048886775970459,-400000.0625,-1637.93994140625,-5828.9501953125,-400000.0625,-5499.22021484375,-400000.0625,-19578.26953125,-400000.0625
0.10490536689758301,-400000.0625,-1636.31005859375,-5822.22998046875,-400000.0625,-5494.64013671875,-400000.0625,-19578.890625,-400000.0625
0.10492539405822754,-400000.0625,-1586.77001953125,-5780.89013671875,-400000.0625,-5447.91015625,-400000.0625,-19530.109375,-400000.0625
0.10494208335876465,-400000.0625,-1554.5799560546875,-5754.18994140625,-400000.0625,-5418.830078125,-400000.0625,-19493.869140625,-400000.0625
0.10495853424072266,-400000.0625,-1583.9100341796875,-5782.93994140625,-400000.0625,-5444.81005859375,-400000.0625,-19525.150390625,-400000.0625
0.10497546195983887,-400000.0625,-1636.7900390625,-5831.0498046875,-400000.0625,-5491.919921875,-400000.0625,-19574.119140625,-400000.0625
0.10499262809753418,-400000.0625,-1631.02001953125,-5823.330078125,-400000.0625,-5488.6298828125,-400000.0625,-19570.689453125,-400000.0625
0.10501670837402344,-400000.0625,-1580.0999755859375,-5775.97998046875,-400000.0625,-5445.39013671875,-400000.0625,-19526.439453125,-400000.0625
timestamp,ch7,ch2,ch3,ch5,is_pause
timestamp,ch7,ch2,ch3,ch5,is_pause
timestamp,ch7,ch2,ch3,ch5,is_pause
0.13528847694396973,-400000.0625,-1549.010009765625,-5748.60986328125,-400000.0625,-5413.580078125,-400000.0625,-19494.25,-400000.0625
0.13597464561462402,-400000.0625,-1579.9000244140625,-5780.75,-400000.0625,-5439.47021484375,-400000.0625,-19525.580078125,-400000.0625
0.1360013484954834,-400000.0625,-1625.300048828125,-5821.18017578125,-400000.0625,-5485.009765625,-400000.0625,-19576.080078125,-400000.0625
0.13601922988891602,-400000.0625,-1632.550048828125,-5821.509765625,-400000.0625,-5490.97021484375,-400000.0625,-19578.98046875,-400000.0625
0.13603591918945312,-400000.0625,-1588.489990234375,-5780.509765625,-400000.0625,-5450.2998046875,-400000.0625,-19534.400390625,-400000.0625
0.14339685440063477,-400000.0625,-1553.3399658203125,-5753.330078125,-400000.0625,-5421.72998046875,-400000.0625,-19496.869140625,-400000.0625
0.14400792121887207,-400000.0625,-1590.1099853515625,-5785.419921875,-400000.0625,-5452.8701171875,-400000.0625,-19530.630859375,-400000.0625
0.14405250549316406,-400000.0625,-1641.22998046875,-5831.240234375,-400000.0625,-5499.7001953125,-400000.0625,-19582.369140625,-400000.0625
0.14407825469970703,-400000.0625,-1641.4599609375,-5828.10009765625,-400000.0625,-5500.1298828125,-400000.0625,-19590.51953125,-400000.0625
0.1440877914428711,-400000.0625,-1588.5400390625,-5781.3701171875,-400000.0625,-5451.77978515625,-400000.0625,-19541.9296875,-400000.0625
0.14409446716308594,-400000.0625,-1552.300048828125,-5751.3701171875,-400000.0625,-5421.77978515625,-400000.0625,-19504.5,-400000.0625
0.14410161972045898,-400000.0625,-1579.47998046875,-5776.740234375,-400000.0625,-5449.10009765625,-400000.0625,-19529.76953125,-400000.0625
0.1441187858581543,-400000.0625,-1622.8199462890625,-5816.97998046875,-400000.0625,-5492.06982421875,-400000.0625,-19575.9296875,-400000.0625
0.14412546157836914,-400000.0625,-1629.68994140625,-5818.64990234375,-400000.0625,-5488.8701171875,-400000.0625,-19583.1796875,-400000.0625
0.14413213729858398,-400000.0625,-1584.530029296875,-5774.5498046875,-400000.0625,-5446.009765625,-400000.0625,-19536.779296875,-400000.0625
0.14413905143737793,-400000.0625,-1546.1400146484375,-5744.02978515625,-400000.0625,-5414.81982421875,-400000.0625,-19500.830078125,-400000.0625
timestamp,ch7,ch2,ch3,ch5,is_pause
timestamp,ch7,ch2,ch3,ch5,is_pause
timestamp,ch7,ch2,ch3,ch5,is_pause
timestamp,ch7,ch2,ch3,ch5,is_pause
0.19727182388305664,-400000.0625,-1575.1400146484375,-5771.10986328125,-400000.0625,-5440.85986328125,-400000.0625,-19534.2109375,-400000.0625
0.19800710678100586,-400000.0625,-1633.9300537109375,-5821.3701171875,-400000.0625,-5494.97998046875,-400000.0625,-19590.05078125,-400000.0625
0.19802260398864746,-400000.0625,-1635.5,-5820.7001953125,-400000.0625,-5496.1201171875,-400000.0625,-19585.609375,-400000.0625
0.1980299949645996,-400000.0625,-1578.8599853515625,-5766.10986328125,-400000.0625,-5444.14990234375,-400000.0625,-19525.580078125,-400000.0625
0.19803690910339355,-400000.0625,-1554.8699951171875,-5745.27001953125,-400000.0625,-5415.9599609375,-400000.0625,-19506.220703125,-400000.0625
0.1980435848236084,-400000.0625,-1608.510009765625,-5785.85009765625,-400000.0625,-5451.10986328125,-400000.0625,-19554.08984375,-400000.0625
0.19804954528808594,-400000.0625,-1660.06005859375,-5830.240234375,-400000.0625,-5500.56005859375,-400000.0625,-19601.30078125,-400000.0625
0.19805645942687988,-400000.0625,-1644.9000244140625,-5829.14013671875,-400000.0625,-5492.97021484375,-400000.0625,-19587.900390625,-400000.0625
0.19806265830993652,-400000.0625,-1601.8900146484375,-5783.93994140625,-400000.0625,-5441.759765625,-400000.0625,-19530.970703125,-400000.0625
0.19806909561157227,-400000.0625,-1581.1400146484375,-5771.68994140625,-400000.0625,-5415.8701171875,-400000.0625,-19501.779296875,-400000.0625
0.1980876922607422,-400000.0625,-1613.469970703125,-5805.5400390625,-400000.0625,-5444.72021484375,-400000.0625,-19524.150390625,-400000.0625
0.19809389114379883,-400000.0625,-1674.989990234375,-5855.990234375,-400000.0625,-5491.5,-400000.0625,-19570.2109375,-400000.0625
0.19810032844543457,-400000.0625,-1693.1099853515625,-5866.2900390625,-400000.0625,-5493.4501953125,-400000.0625,-19573.169921875,-400000.0625
0.1981067657470703,-400000.0625,-1651.0999755859375,-5826.43017578125,-400000.0625,-5454.2099609375,-400000.0625,-19523.580078125,-400000.0625
0.19811344146728516,-400000.0625,-1615.239990234375,-5802.009765625,-400000.0625,-5416.77978515625,-400000.0625,-19487.91015625,-400000.0625
0.1981194019317627,-400000.0625,-1645.8499755859375,-5829.47998046875,-400000.0625,-5438.759765625,-400000.0625,-19516.279296875,-400000.0625
timestamp,ch7,ch2,ch3,ch5,is_pause
timestamp,ch7,ch2,ch3,ch5,is_pause
timestamp,ch7,ch2,ch3,ch5,is_pause
timestamp,ch7,ch2,ch3,ch5,is_pause
timestamp,ch7,ch2,ch3,ch5,is_pause
0.2610771656036377,-400000.0625,-1697.4000244140625,-5872.580078125,-400000.0625,-5489.06005859375,-400000.0625,-19574.55078125,-400000.0625
0.265336275100708,-400000.0625,-1701.0699462890625,-5872.10986328125,-400000.0625,-5491.5400390625,-400000.0625,-19574.83984375,-400000.0625
0.2653660774230957,-400000.0625,-1645.4200439453125,-5821.7998046875,-400000.0625,-5440.81005859375,-400000.0625,-19519.900390625,-400000.0625
0.2653837203979492,-400000.0625,-1610.5699462890625,-5795.0498046875,-400000.0625,-5412.52978515625,-400000.0625,-19485.2890625,-400000.0625
0.26540112495422363,-400000.0625,-1645.7099609375,-5829.0498046875,-400000.0625,-5443.33984375,-400000.0625,-19518.0,-400000.0625
0.26541686058044434,-400000.0625,-1708.219970703125,-5885.41015625,-400000.0625,-5500.7900390625,-400000.0625,-19578.41015625,-400000.0625
0.26543235778808594,-400000.0625,-1709.6500244140625,-5883.1201171875,-400000.0625,-5504.66015625,-400000.0625,-19579.029296875,-400000.0625
0.2654554843902588,-400000.0625,-1659.72998046875,-5834.8701171875,-400000.0625,-5453.35009765625,-400000.0625,-19526.720703125,-400000.0625
0.2654705047607422,-400000.0625,-1617.9599609375,-5802.919921875,-400000.0625,-5416.6298828125,-400000.0625,-19490.859375,-400000.0625
0.265484094619751,-400000.0625,-1645.1800537109375,-5829.3798828125,-400000.0625,-5445.0,-400000.0625,-19519.279296875,-400000.0625
0.2655043601989746,-400000.0625,-1709.989990234375,-5880.68994140625,-400000.0625,-5498.60009765625,-400000.0625,-19576.650390625,-400000.0625
0.2655184268951416,-400000.0625,-1706.4599609375,-5876.97021484375,-400000.0625,-5497.41015625,-400000.0625,-19578.890625,-400000.0625
0.2655320167541504,-400000.0625,-1654.9100341796875,-5830.669921875,-400000.0625,-5450.490234375,-400000.0625,-19526.19921875,-400000.0625
0.2655453681945801,-400000.0625,-1621.06005859375,-5803.68017578125,-400000.0625,-5421.35009765625,-400000.0625,-19491.630859375,-400000.0625
0.26555871963500977,-400000.0625,-1651.530029296875,-5835.33984375,-400000.0625,-5448.91015625,-400000.0625,-19522.140625,-400000.0625
0.26557350158691406,-400000.0625,-1712.27001953125,-5884.97998046875,-400000.0625,-5501.080078125,-400000.0625,-19574.98046875,-400000.0625
timestamp,ch7,ch2,ch3,ch5,is_pause
timestamp,ch7,ch2,ch3,ch5,is_pause
timestamp,ch7,ch2,ch3,ch5,is_pause
timestamp,ch7,ch2,ch3,ch5,is_pause
timestamp,ch7,ch2,ch3,ch5,is_pause
0.3248777389526367,-400000.0625,-1709.6500244140625,-5875.8701171875,-400000.0625,-5498.7900390625,-400000.0625,-19574.220703125,-400000.0625
timestamp,ch7,ch2,ch3,ch5,is_pause
0.3410215377807617,-400000.0625,-1653.719970703125,-5829.0498046875,-400000.0625,-5456.06982421875,-400000.0625,-19522.619140625,-400000.0625
timestamp,ch7,ch2,ch3,ch5,is_pause
0.35670971870422363,-400000.0625,-1618.81005859375,-5799.2900390625,-400000.0625,-5424.02001953125,-400000.0625,-19488.810546875,-400000.0625
timestamp,ch7,ch2,ch3,ch5,is_pause
0.36936116218566895,-400000.0625,-1645.8499755859375,-5827.759765625,-400000.0625,-5447.81982421875,-400000.0625,-19523.240234375,-400000.0625
timestamp,ch7,ch2,ch3,ch5,is_pause
timestamp,ch7,ch2,ch3,ch5,is_pause
timestamp,ch7,ch2,ch3,ch5,is_pause
0.41711878776550293,-400000.0625,-1702.1199951171875,-5875.2099609375,-400000.0625,-5498.93017578125,-400000.0625,-19576.689453125,-400000.0625
timestamp,ch7,ch2,ch3,ch5,is_pause
0.4307115077972412,-400000.0625,-1712.0400390625,-5879.1201171875,-400000.0625,-5497.740234375,-400000.0625,-19581.029296875,-400000.0625
timestamp,ch7,ch2,ch3,ch5,is_pause
0.4440751075744629,-400000.0625,-1657.199951171875,-5830.43017578125,-400000.0625,-5447.91015625,-400000.0625,-19529.630859375,-400000.0625
timestamp,ch7,ch2,ch3,ch5,is_pause
0.4630293846130371,-400000.0625,-1620.1500244140625,-5801.490234375,-400000.0625,-5419.5400390625,-400000.0625,-19491.8203125,-400000.0625
timestamp,ch7,ch2,ch3,ch5,is_pause
0.47737860679626465,-400000.0625,-1650.52001953125,-5830.18994140625,-400000.0625,-5446.669921875,-400000.0625,-19523.05078125,-400000.0625
timestamp,ch7,ch2,ch3,ch5,is_pause
timestamp,ch7,ch2,ch3,ch5,is_pause
0.5197083950042725,-400000.0625,-1698.8299560546875,-5877.2998046875,-400000.0625,-5500.169921875,-400000.0625,-19576.599609375,-400000.0625
timestamp,ch7,ch2,ch3,ch5,is_pause
timestamp,ch7,ch2,ch3,ch5,is_pause
0.5440211296081543,-400000.0625,-1699.8800048828125,-5868.6298828125,-400000.0625,-5494.5,-400000.0625,-19574.689453125,-400000.0625
timestamp,ch7,ch2,ch3,ch5,is_pause
0.5635020732879639,-400000.0625,-1648.52001953125,-5821.509765625,-400000.0625,-5442.669921875,-400000.0625,-19520.94921875,-400000.0625
timestamp,ch7,ch2,ch3,ch5,is_pause
0.5854673385620117,-400000.0625,-1614.52001953125,-5796.0498046875,-400000.0625,-5418.490234375,-400000.0625,-19491.76953125,-400000.0625
timestamp,ch7,ch2,ch3,ch5,is_pause
timestamp,ch7,ch2,ch3,ch5,is_pause
timestamp,ch7,ch2,ch3,ch5,is_pause
timestamp,ch7,ch2,ch3,ch5,is_pause
0.6454241275787354,-400000.0625,-1648.52001953125,-5825.56982421875,-400000.0625,-5452.25,-400000.0625,-19523.619140625,-400000.0625
timestamp,ch7,ch2,ch3,ch5,is_pause
0.6633474826812744,-400000.0625,-1703.7900390625,-5873.97021484375,-400000.0625,-5501.31982421875,-400000.0625,-19576.169921875,-400000.0625
timestamp,ch7,ch2,ch3,ch5,is_pause
0.6865842342376709,-400000.0625,-1702.3599853515625,-5868.52978515625,-400000.0625,-5495.22021484375,-400000.0625,-19577.220703125,-400000.0625
timestamp,ch7,ch2,ch3,ch5,is_pause
timestamp,ch7,ch2,ch3,ch5,is_pause
timestamp,ch7,ch2,ch3,ch5,is_pause
timestamp,ch7,ch2,ch3,ch5,is_pause
timestamp,ch7,ch2,ch3,ch5,is_pause
0.7595677375793457,-400000.0625,-1649.6199951171875,-5822.0400390625,-400000.0625,-5450.06005859375,-400000.0625,-19530.19921875,-400000.0625
timestamp,ch7,ch2,ch3,ch5,is_pause
0.7765951156616211,-400000.0625,-1615.9100341796875,-5795.669921875,-400000.0625,-5418.35009765625,-400000.0625,-19492.9609375,-400000.0625
timestamp,ch7,ch2,ch3,ch5,is_pause
0.7936925888061523,-400000.0625,-1653.239990234375,-5825.9501953125,-400000.0625,-5449.9599609375,-400000.0625,-19521.759765625,-400000.0625
timestamp,ch7,ch2,ch3,ch5,is_pause
timestamp,ch7,ch2,ch3,ch5,is_pause
timestamp,ch7,ch2,ch3,ch5,is_pause
timestamp,ch7,ch2,ch3,ch5,is_pause
0.8584785461425781,-400000.0625,-1704.1199951171875,-5875.2099609375,-400000.0625,-5503.89013671875,-400000.0625,-19583.080078125,-400000.0625
timestamp,ch7,ch2,ch3,ch5,is_pause
0.8783109188079834,-400000.0625,-1700.9300537109375,-5870.8701171875,-400000.0625,-5498.97998046875,-400000.0625,-19580.3203125,-400000.0625
timestamp,ch7,ch2,ch3,ch5,is_pause
0.8914663791656494,-400000.0625,-1648.7099609375,-5822.75,-400000.0625,-5449.10009765625,-400000.0625,-19526.580078125,-400000.0625
timestamp,ch7,ch2,ch3,ch5,is_pause
0.9007694721221924,-400000.0625,-1616.719970703125,-5796.77001953125,-400000.0625,-5419.5400390625,-400000.0625,-19495.009765625,-400000.0625
timestamp,ch7,ch2,ch3,ch5,is_pause
timestamp,ch7,ch2,ch3,ch5,is_pause
timestamp,ch7,ch2,ch3,ch5,is_pause
0.9599165916442871,-400000.0625,-1647.9000244140625,-5826.56982421875,-400000.0625,-5444.14990234375,-400000.0625,-19526.669921875,-400000.0625
timestamp,ch7,ch2,ch3,ch5,is_pause
0.9763202667236328,-400000.0625,-1700.5400390625,-5875.06005859375,-400000.0625,-5495.31005859375,-400000.0625,-19581.939453125,-400000.0625
timestamp,ch7,ch2,ch3,ch5,is_pause
0.9929087162017822,-400000.0625,-1700.4000244140625,-5872.5400390625,-400000.0625,-5497.5498046875,-400000.0625,-19575.650390625,-400000.0625
timestamp,ch7,ch2,ch3,ch5,is_pause
1.0105490684509277,-400000.0625,-1650.8599853515625,-5823.47021484375,-400000.0625,-5452.8701171875,-400000.0625,-19523.4296875,-400000.0625
timestamp,ch7,ch2,ch3,ch5,is_pause
timestamp,ch7,ch2,ch3,ch5,is_pause
timestamp,ch7,ch2,ch3,ch5,is_pause
timestamp,ch7,ch2,ch3,ch5,is_pause
1.068124532699585,-400000.0625,-1627.5400390625,-5806.5400390625,-400000.0625,-5427.41015625,-400000.0625,-19497.73046875,-400000.0625
timestamp,ch7,ch2,ch3,ch5,is_pause
1.0933465957641602,-400000.0625,-1655.8599853515625,-5836.39013671875,-400000.0625,-5458.64013671875,-400000.0625,-19527.869140625,-400000.0625
timestamp,ch7,ch2,ch3,ch5,is_pause
1.1119742393493652,-400000.0625,-1707.7900390625,-5878.830078125,-400000.0625,-5505.89990234375,-400000.0625,-19578.75,-400000.0625
timestamp,ch7,ch2,ch3,ch5,is_pause
timestamp,ch7,ch2,ch3,ch5,is_pause
timestamp,ch7,ch2,ch3,ch5,is_pause
timestamp,ch7,ch2,ch3,ch5,is_pause
1.175222396850586,-400000.0625,-1702.1199951171875,-5868.2900390625,-400000.0625,-5496.93017578125,-400000.0625,-19576.4609375,-400000.0625
timestamp,ch7,ch2,ch3,ch5,is_pause
timestamp,ch7,ch2,ch3,ch5,is_pause
1.199641227722168,-400000.0625,-1646.3800048828125,-5819.31982421875,-400000.0625,-5443.72021484375,-400000.0625,-19520.7109375,-400000.0625
timestamp,ch7,ch2,ch3,ch5,is_pause
1.2193787097930908,-400000.0625,-1619.239990234375,-5798.2001953125,-400000.0625,-5417.81982421875,-400000.0625,-19489.76953125,-400000.0625
timestamp,ch7,ch2,ch3,ch5,is_pause
timestamp,ch7,ch2,ch3,ch5,is_pause
timestamp,ch7,ch2,ch3,ch5,is_pause
timestamp,ch7,ch2,ch3,ch5,is_pause
1.277986764907837,-400000.0625,-1654.199951171875,-5831.91015625,-400000.0625,-5451.009765625,-400000.0625,-19521.91015625,-400000.0625
timestamp,ch7,ch2,ch3,ch5,is_pause
1.2956948280334473,-400000.0625,-1706.27001953125,-5873.490234375,-400000.0625,-5500.27001953125,-400000.0625,-19571.310546875,-400000.0625
timestamp,ch7,ch2,ch3,ch5,is_pause
timestamp,ch7,ch2,ch3,ch5,is_pause
1.3144803047180176,-400000.0625,-1704.030029296875,-5868.009765625,-400000.0625,-5499.64990234375,-400000.0625,-19572.44921875,-400000.0625
timestamp,ch7,ch2,ch3,ch5,is_pause
1.3416922092437744,-400000.0625,-1658.8699951171875,-5830.14990234375,-400000.0625,-5453.919921875,-400000.0625,-19527.490234375,-400000.0625
timestamp,ch7,ch2,ch3,ch5,is_pause
timestamp,ch7,ch2,ch3,ch5,is_pause
timestamp,ch7,ch2,ch3,ch5,is_pause
timestamp,ch7,ch2,ch3,ch5,is_pause
1.395533561706543,-400000.0625,-1629.5899658203125,-5808.1201171875,-400000.0625,-5426.41015625,-400000.0625,-19498.73046875,-400000.0625
timestamp,ch7,ch2,ch3,ch5,is_pause
1.4136362075805664,-400000.0625,-1661.1099853515625,-5837.6298828125,-400000.0625,-5455.2099609375,-400000.0625,-19532.640625,-400000.0625
timestamp,ch7,ch2,ch3,ch5,is_pause
1.4357316493988037,-400000.0625,-1709.510009765625,-5876.72998046875,-400000.0625,-5500.1298828125,-400000.0625,-19579.939453125,-400000.0625
timestamp,ch7,ch2,ch3,ch5,is_pause
1.451955795288086,-400000.0625,-1707.3599853515625,-5874.009765625,-400000.0625,-5495.8798828125,-400000.0625,-19574.259765625,-400000.0625
timestamp,ch7,ch2,ch3,ch5,is_pause
timestamp,ch7,ch2,ch3,ch5,is_pause
timestamp,ch7,ch2,ch3,ch5,is_pause
timestamp,ch7,ch2,ch3,ch5,is_pause
1.5104362964630127,-400000.0625,-1649.81005859375,-5822.330078125,-400000.0625,-5446.77001953125,-400000.0625,-19517.759765625,-400000.0625
timestamp,ch7,ch2,ch3,ch5,is_pause
1.5253825187683105,-400000.0625,-1621.199951171875,-5801.06005859375,-400000.0625,-5423.1201171875,-400000.0625,-19488.859375,-400000.0625
timestamp,ch7,ch2,ch3,ch5,is_pause
1.5457818508148193,-400000.0625,-1658.25,-5837.580078125,-400000.0625,-5456.8798828125,-400000.0625,-19527.720703125,-400000.0625
timestamp,ch7,ch2,ch3,ch5,is_pause
1.5605950355529785,-400000.0625,-1710.510009765625,-5883.27001953125,-400000.0625,-5503.080078125,-400000.0625,-19584.369140625,-400000.0625
timestamp,ch7,ch2,ch3,ch5,is_pause
timestamp,ch7,ch2,ch3,ch5,is_pause
timestamp,ch7,ch2,ch3,ch5,is_pause
1.6130127906799316,-400000.0625,-1708.6500244140625,-5876.72998046875,-400000.0625,-5502.31982421875,-400000.0625,-19577.169921875,-400000.0625
timestamp,ch7,ch2,ch3,ch5,is_pause
1.6304924488067627,-400000.0625,-1647.9000244140625,-5822.75,-400000.0625,-5447.009765625,-400000.0625,-19520.2890625,-400000.0625
timestamp,ch7,ch2,ch3,ch5,is_pause
1.644141674041748,-400000.0625,-1613.239990234375,-5796.2900390625,-400000.0625,-5414.580078125,-400000.0625,-19487.0,-400000.0625
timestamp,ch7,ch2,ch3,ch5,is_pause
1.657860279083252,-400000.0625,-1654.5799560546875,-5833.72021484375,-400000.0625,-5455.4501953125,-400000.0625,-19519.279296875,-400000.0625
timestamp,ch7,ch2,ch3,ch5,is_pause
1.6778228282928467,-400000.0625,-1710.4200439453125,-5884.1201171875,-400000.0625,-5502.080078125,-400000.0625,-19579.990234375,-400000.0625
timestamp,ch7,ch2,ch3,ch5,is_pause
timestamp,ch7,ch2,ch3,ch5,is_pause
timestamp,ch7,ch2,ch3,ch5,is_pause
1.7250523567199707,-400000.0625,-1709.8900146484375,-5881.5498046875,-400000.0625,-5499.64990234375,-400000.0625,-19578.41015625,-400000.0625
1.7339367866516113,-400000.0625,-1656.6300048828125,-5833.91015625,-400000.0625,-5455.39990234375,-400000.0625,-19526.529296875,-400000.0625
timestamp,ch7,ch2,ch3,ch5,is_pause
timestamp,ch7,ch2,ch3,ch5,is_pause
1.7575087547302246,-400000.0625,-1622.06005859375,-5804.6298828125,-400000.0625,-5419.4501953125,-400000.0625,-19491.9609375,-400000.0625
1.7664051055908203,-400000.0625,-1651.0999755859375,-5834.39013671875,-400000.0625,-5446.240234375,-400000.0625,-19522.2890625,-400000.0625
timestamp,ch7,ch2,ch3,ch5,is_pause
timestamp,ch7,ch2,ch3,ch5,is_pause
1.7900464534759521,-400000.0625,-1705.030029296875,-5877.68994140625,-400000.0625,-5491.919921875,-400000.0625,-19577.359375,-400000.0625
timestamp,ch7,ch2,ch3,ch5,is_pause
timestamp,ch7,ch2,ch3,ch5,is_pause
timestamp,ch7,ch2,ch3,ch5,is_pause
1.8378150463104248,-400000.0625,-1705.4100341796875,-5873.16015625,-400000.0625,-5491.5400390625,-400000.0625,-19573.400390625,-400000.0625
timestamp,ch7,ch2,ch3,ch5,is_pause
1.8568739891052246,-400000.0625,-1654.8199462890625,-5831.580078125,-400000.0625,-5451.16015625,-400000.0625,-19524.91015625,-400000.0625
timestamp,ch7,ch2,ch3,ch5,is_pause
timestamp,ch7,ch2,ch3,ch5,is_pause
1.8841571807861328,-400000.0625,-1622.300048828125,-5804.8701171875,-400000.0625,-5423.830078125,-400000.0625,-19495.349609375,-400000.0625
timestamp,ch7,ch2,ch3,ch5,is_pause
1.9015781879425049,-400000.0625,-1652.3399658203125,-5834.14990234375,-400000.0625,-5450.43994140625,-400000.0625,-19527.33984375,-400000.0625
timestamp,ch7,ch2,ch3,ch5,is_pause
timestamp,ch7,ch2,ch3,ch5,is_pause
timestamp,ch7,ch2,ch3,ch5,is_pause
timestamp,ch7,ch2,ch3,ch5,is_pause
timestamp,ch7,ch2,ch3,ch5,is_pause
1.980649709701538,-400000.0625,-1699.8800048828125,-5873.81982421875,-400000.0625,-5489.10986328125,-400000.0625,-19574.310546875,-400000.0625
timestamp,ch7,ch2,ch3,ch5,is_pause
2.009040117263794,-400000.0625,-1705.1199951171875,-5873.6298828125,-400000.0625,-5494.31005859375,-400000.0625,-19575.169921875,-400000.0625
timestamp,ch7,ch2,ch3,ch5,is_pause
timestamp,ch7,ch2,ch3,ch5,is_pause
timestamp,ch7,ch2,ch3,ch5,is_pause
timestamp,ch7,ch2,ch3,ch5,is_pause
timestamp,ch7,ch2,ch3,ch5,is_pause
2.0802161693573,-400000.0625,-1656.9599609375,-5831.72021484375,-400000.0625,-5451.72998046875,-400000.0625,-19524.099609375,-400000.0625
timestamp,ch7,ch2,ch3,ch5,is_pause
2.1038928031921387,-400000.0625,-1623.3399658203125,-5806.06982421875,-400000.0625,-5421.830078125,-400000.0625,-19491.8203125,-400000.0625
timestamp,ch7,ch2,ch3,ch5,is_pause
timestamp,ch7,ch2,ch3,ch5,is_pause
2.1305253505706787,-400000.0625,-1654.9100341796875,-5836.490234375,-400000.0625,-5448.8701171875,-400000.0625,-19525.240234375,-400000.0625
timestamp,ch7,ch2,ch3,ch5,is_pause
timestamp,ch7,ch2,ch3,ch5,is_pause
timestamp,ch7,ch2,ch3,ch5,is_pause
timestamp,ch7,ch2,ch3,ch5,is_pause
timestamp,ch7,ch2,ch3,ch5,is_pause
2.2074897289276123,-400000.0625,-1703.02001953125,-5879.5,-400000.0625,-5496.35986328125,-400000.0625,-19578.029296875,-400000.0625
timestamp,ch7,ch2,ch3,ch5,is_pause
2.2350616455078125,-400000.0625,-1700.5,-5874.25,-400000.0625,-5496.06982421875,-400000.0625,-19575.9296875,-400000.0625
timestamp,ch7,ch2,ch3,ch5,is_pause
timestamp,ch7,ch2,ch3,ch5,is_pause
timestamp,ch7,ch2,ch3,ch5,is_pause
timestamp,ch7,ch2,ch3,ch5,is_pause
timestamp,ch7,ch2,ch3,ch5,is_pause
2.3064260482788086,-400000.0625,-1649.81005859375,-5830.72021484375,-400000.0625,-5449.06005859375,-400000.0625,-19525.33984375,-400000.0625
2.3166074752807617,-400000.0625,-1618.719970703125,-5803.16015625,-400000.0625,-5420.35009765625,-400000.0625,-19489.8203125,-400000.0625
timestamp,ch7,ch2,ch3,ch5,is_pause
timestamp,ch7,ch2,ch3,ch5,is_pause
2.343113899230957,-400000.0625,-1654.3399658203125,-5835.81982421875,-400000.0625,-5452.5400390625,-400000.0625,-19523.380859375,-400000.0625
timestamp,ch7,ch2,ch3,ch5,is_pause
timestamp,ch7,ch2,ch3,ch5,is_pause
timestamp,ch7,ch2,ch3,ch5,is_pause
timestamp,ch7,ch2,ch3,ch5,is_pause
timestamp,ch7,ch2,ch3,ch5,is_pause
2.4418392181396484,-400000.0625,-1706.0799560546875,-5879.97998046875,-400000.0625,-5497.5498046875,-400000.0625,-19574.7890625,-400000.0625
timestamp,ch7,ch2,ch3,ch5,is_pause
2.473836660385132,-400000.0625,-1700.8800048828125,-5870.580078125,-400000.0625,-5494.64013671875,-400000.0625,-19571.259765625,-400000.0625
timestamp,ch7,ch2,ch3,ch5,is_pause
timestamp,ch7,ch2,ch3,ch5,is_pause
timestamp,ch7,ch2,ch3,ch5,is_pause
timestamp,ch7,ch2,ch3,ch5,is_pause
2.534754753112793,-400000.0625,-1646.81005859375,-5823.9501953125,-400000.0625,-5451.39013671875,-400000.0625,-19517.66015625,-400000.0625
timestamp,ch7,ch2,ch3,ch5,is_pause
timestamp,ch7,ch2,ch3,ch5,is_pause
2.561368703842163,-400000.0625,-1619.6700439453125,-5800.33984375,-400000.0625,-5420.64013671875,-400000.0625,-19484.669921875,-400000.0625
timestamp,ch7,ch2,ch3,ch5,is_pause
2.586616277694702,-400000.0625,-1650.8599853515625,-5833.91015625,-400000.0625,-5451.10986328125,-400000.0625,-19519.759765625,-400000.0625
timestamp,ch7,ch2,ch3,ch5,is_pause
timestamp,ch7,ch2,ch3,ch5,is_pause
timestamp,ch7,ch2,ch3,ch5,is_pause
timestamp,ch7,ch2,ch3,ch5,is_pause
timestamp,ch7,ch2,ch3,ch5,is_pause
2.657853364944458,-400000.0625,-1706.739990234375,-5883.64990234375,-400000.0625,-5503.7001953125,-400000.0625,-19575.880859375,-400000.0625
timestamp,ch7,ch2,ch3,ch5,is_pause
2.6779580116271973,-400000.0625,-1709.3199462890625,-5881.68994140625,-400000.0625,-5502.89013671875,-400000.0625,-19572.400390625,-400000.0625
timestamp,ch7,ch2,ch3,ch5,is_pause
2.6987366676330566,-400000.0625,-1648.1400146484375,-5828.0498046875,-400000.0625,-5447.81982421875,-400000.0625,-19516.51953125,-400000.0625
timestamp,ch7,ch2,ch3,ch5,is_pause
timestamp,ch7,ch2,ch3,ch5,is_pause
timestamp,ch7,ch2,ch3,ch5,is_pause
timestamp,ch7,ch2,ch3,ch5,is_pause
timestamp,ch7,ch2,ch3,ch5,is_pause
2.778719186782837,-400000.0625,-1619.0999755859375,-5801.490234375,-400000.0625,-5416.35009765625,-400000.0625,-19485.669921875,-400000.0625
timestamp,ch7,ch2,ch3,ch5,is_pause
2.7987773418426514,-400000.0625,-1651.1400146484375,-5833.39013671875,-400000.0625,-5450.33984375,-400000.0625,-19525.4296875,-400000.0625
timestamp,ch7,ch2,ch3,ch5,is_pause
timestamp,ch7,ch2,ch3,ch5,is_pause
timestamp,ch7,ch2,ch3,ch5,is_pause
timestamp,ch7,ch2,ch3,ch5,is_pause
2.853555917739868,-400000.0625,-1703.5999755859375,-5879.93017578125,-400000.0625,-5503.18017578125,-400000.0625,-19576.890625,-400000.0625
timestamp,ch7,ch2,ch3,ch5,is_pause
2.8802905082702637,-400000.0625,-1700.739990234375,-5875.490234375,-400000.0625,-5503.60986328125,-400000.0625,-19573.310546875,-400000.0625
timestamp,ch7,ch2,ch3,ch5,is_pause
2.896531581878662,-400000.0625,-1643.6600341796875,-5823.990234375,-400000.0625,-5450.14990234375,-400000.0625,-19517.23046875,-400000.0625
timestamp,ch7,ch2,ch3,ch5,is_pause
2.9166204929351807,-400000.0625,-1609.6600341796875,-5793.18994140625,-400000.0625,-5415.10986328125,-400000.0625,-19480.330078125,-400000.0625
timestamp,ch7,ch2,ch3,ch5,is_pause
timestamp,ch7,ch2,ch3,ch5,is_pause
timestamp,ch7,ch2,ch3,ch5,is_pause
timestamp,ch7,ch2,ch3,ch5,is_pause
2.9786083698272705,-400000.0625,-1648.1400146484375,-5832.77001953125,-400000.0625,-5446.77001953125,-400000.0625,-19521.91015625,-400000.0625
timestamp,ch7,ch2,ch3,ch5,is_pause
2.996161937713623,-400000.0625,-1701.780029296875,-5879.97998046875,-400000.0625,-5498.35986328125,-400000.0625,-19574.01953125,-400000.0625
timestamp,ch7,ch2,ch3,ch5,is_pause
3.0116913318634033,-400000.0625,-1702.8299560546875,-5873.06005859375,-400000.0625,-5496.5498046875,-400000.0625,-19571.119140625,-400000.0625
timestamp,ch7,ch2,ch3,ch5,is_pause
3.0298643112182617,-400000.0625,-1651.3800048828125,-5825.08984375,-400000.0625,-5449.14990234375,-400000.0625,-19519.08984375,-400000.0625
timestamp,ch7,ch2,ch3,ch5,is_pause
timestamp,ch7,ch2,ch3,ch5,is_pause
timestamp,ch7,ch2,ch3,ch5,is_pause
3.0844783782958984,-400000.0625,-1609.3299560546875,-5796.0498046875,-400000.0625,-5419.06005859375,-400000.0625,-19482.5703125,-400000.0625
timestamp,ch7,ch2,ch3,ch5,is_pause
timestamp,ch7,ch2,ch3,ch5,is_pause
3.110023260116577,-400000.0625,-1644.800048828125,-5831.669921875,-400000.0625,-5450.10986328125,-400000.0625,-19517.419921875,-400000.0625
timestamp,ch7,ch2,ch3,ch5,is_pause
3.130974531173706,-400000.0625,-1704.8399658203125,-5880.2099609375,-400000.0625,-5500.93994140625,-400000.0625,-19573.169921875,-400000.0625
timestamp,ch7,ch2,ch3,ch5,is_pause
timestamp,ch7,ch2,ch3,ch5,is_pause
timestamp,ch7,ch2,ch3,ch5,is_pause
timestamp,ch7,ch2,ch3,ch5,is_pause
timestamp,ch7,ch2,ch3,ch5,is_pause
3.2062201499938965,-400000.0625,-1695.969970703125,-5870.25,-400000.0625,-5493.39990234375,-400000.0625,-19570.9296875,-400000.0625
timestamp,ch7,ch2,ch3,ch5,is_pause
3.22556734085083,-400000.0625,-1642.3199462890625,-5817.3701171875,-400000.0625,-5442.43017578125,-400000.0625,-19509.509765625,-400000.0625
timestamp,ch7,ch2,ch3,ch5,is_pause
3.246079683303833,-400000.0625,-1617.0,-5800.10009765625,-400000.0625,-5418.06005859375,-400000.0625,-19485.94921875,-400000.0625
timestamp,ch7,ch2,ch3,ch5,is_pause
timestamp,ch7,ch2,ch3,ch5,is_pause
timestamp,ch7,ch2,ch3,ch5,is_pause
timestamp,ch7,ch2,ch3,ch5,is_pause
3.3209235668182373,-400000.0625,-1651.949951171875,-5838.72998046875,-400000.0625,-5454.2998046875,-400000.0625,-19524.529296875,-400000.0625
timestamp,ch7,ch2,ch3,ch5,is_pause
3.338149070739746,-400000.0625,-1708.4599609375,-5885.27001953125,-400000.0625,-5499.169921875,-400000.0625,-19576.5,-400000.0625
timestamp,ch7,ch2,ch3,ch5,is_pause
timestamp,ch7,ch2,ch3,ch5,is_pause
3.3616113662719727,-400000.0625,-1698.1600341796875,-5874.25,-400000.0625,-5492.830078125,-400000.0625,-19568.2109375,-400000.0625
timestamp,ch7,ch2,ch3,ch5,is_pause
timestamp,ch7,ch2,ch3,ch5,is_pause
timestamp,ch7,ch2,ch3,ch5,is_pause
3.416598320007324,-400000.0625,-1646.4200439453125,-5828.669921875,-400000.0625,-5445.14990234375,-400000.0625,-19512.0390625,-400000.0625
timestamp,ch7,ch2,ch3,ch5,is_pause
3.4326303005218506,-400000.0625,-1617.239990234375,-5804.5400390625,-400000.0625,-5422.39990234375,-400000.0625,-19484.619140625,-400000.0625
timestamp,ch7,ch2,ch3,ch5,is_pause
timestamp,ch7,ch2,ch3,ch5,is_pause
3.459639549255371,-400000.0625,-1644.949951171875,-5836.919921875,-400000.0625,-5455.06982421875,-400000.0625,-19515.80078125,-400000.0625
timestamp,ch7,ch2,ch3,ch5,is_pause
3.4795989990234375,-400000.0625,-1701.5,-5886.509765625,-400000.0625,-5504.31982421875,-400000.0625,-19568.779296875,-400000.0625
timestamp,ch7,ch2,ch3,ch5,is_pause
timestamp,ch7,ch2,ch3,ch5,is_pause
timestamp,ch7,ch2,ch3,ch5,is_pause
timestamp,ch7,ch2,ch3,ch5,is_pause
3.5500736236572266,-400000.0625,-1698.0699462890625,-5875.06005859375,-400000.0625,-5501.7998046875,-400000.0625,-19565.390625,-400000.0625
timestamp,ch7,ch2,ch3,ch5,is_pause
timestamp,ch7,ch2,ch3,ch5,is_pause
3.5784499645233154,-400000.0625,-1627.4000244140625,-5812.60009765625,-400000.0625,-5445.0498046875,-400000.0625,-19520.5703125,-400000.0625
timestamp,ch7,ch2,ch3,ch5,is_pause
3.6001577377319336,-400000.0625,-1580.5699462890625,-5778.64990234375,-400000.0625,-5416.06005859375,-400000.0625,-19499.259765625,-400000.0625
timestamp,ch7,ch2,ch3,ch5,is_pause
timestamp,ch7,ch2,ch3,ch5,is_pause
timestamp,ch7,ch2,ch3,ch5,is_pause
timestamp,ch7,ch2,ch3,ch5,is_pause
timestamp,ch7,ch2,ch3,ch5,is_pause
3.683762311935425,-400000.0625,-1611.5699462890625,-5812.83984375,-400000.0625,-5452.81982421875,-400000.0625,-19532.970703125,-400000.0625
timestamp,ch7,ch2,ch3,ch5,is_pause
timestamp,ch7,ch2,ch3,ch5,is_pause
3.712124824523926,-400000.0625,-1658.6300048828125,-5853.27001953125,-400000.0625,-5503.89013671875,-400000.0625,-19583.66015625,-400000.0625
timestamp,ch7,ch2,ch3,ch5,is_pause
timestamp,ch7,ch2,ch3,ch5,is_pause
timestamp,ch7,ch2,ch3,ch5,is_pause
timestamp,ch7,ch2,ch3,ch5,is_pause
3.784963607788086,-400000.0625,-1640.93994140625,-5834.2001953125,-400000.0625,-5495.5,-400000.0625,-19587.380859375,-400000.0625
timestamp,ch7,ch2,ch3,ch5,is_pause
timestamp,ch7,ch2,ch3,ch5,is_pause
3.806485414505005,-400000.0625,-1580.239990234375,-5782.89013671875,-400000.0625,-5449.06005859375,-400000.0625,-19528.529296875,-400000.0625
timestamp,ch7,ch2,ch3,ch5,is_pause
3.8241963386535645,-400000.0625,-1549.050048828125,-5761.0498046875,-400000.0625,-5423.4501953125,-400000.0625,-19499.5390625,-400000.0625
timestamp,ch7,ch2,ch3,ch5,is_pause
timestamp,ch7,ch2,ch3,ch5,is_pause
timestamp,ch7,ch2,ch3,ch5,is_pause
3.8746979236602783,-400000.0625,-1587.199951171875,-5795.10009765625,-400000.0625,-5454.5400390625,-400000.0625,-19537.169921875,-400000.0625
timestamp,ch7,ch2,ch3,ch5,is_pause
3.8904449939727783,-400000.0625,-1630.3499755859375,-5832.9599609375,-400000.0625,-5499.64990234375,-400000.0625,-19589.240234375,-400000.0625
timestamp,ch7,ch2,ch3,ch5,is_pause
3.9084384441375732,-400000.0625,-1627.72998046875,-5826.0,-400000.0625,-5490.64013671875,-400000.0625,-19587.0390625,-400000.0625
timestamp,ch7,ch2,ch3,ch5,is_pause
3.920339345932007,-400000.0625,-1578.949951171875,-5778.60009765625,-400000.0625,-5441.47998046875,-400000.0625,-19534.109375,-400000.0625
timestamp,ch7,ch2,ch3,ch5,is_pause
3.9404819011688232,-400000.0625,-1551.199951171875,-5759.52978515625,-400000.0625,-5421.5400390625,-400000.0625,-19505.689453125,-400000.0625
timestamp,ch7,ch2,ch3,ch5,is_pause
timestamp,ch7,ch2,ch3,ch5,is_pause
timestamp,ch7,ch2,ch3,ch5,is_pause
3.9839041233062744,-400000.0625,-1594.1099853515625,-5802.72998046875,-400000.0625,-5462.93017578125,-400000.0625,-19541.9296875,-400000.0625
timestamp,ch7,ch2,ch3,ch5,is_pause
3.9971203804016113,-400000.0625,-1641.1300048828125,-5841.2998046875,-400000.0625,-5507.330078125,-400000.0625,-19592.859375,-400000.0625
timestamp,ch7,ch2,ch3,ch5,is_pause
4.015692949295044,-400000.0625,-1639.8399658203125,-5837.10986328125,-400000.0625,-5505.3701171875,-400000.0625,-19589.859375,-400000.0625
timestamp,ch7,ch2,ch3,ch5,is_pause
4.0281805992126465,-400000.0625,-1588.43994140625,-5789.419921875,-400000.0625,-5453.39990234375,-400000.0625,-19539.55078125,-400000.0625
timestamp,ch7,ch2,ch3,ch5,is_pause
4.041000843048096,-400000.0625,-1556.489990234375,-5764.580078125,-400000.0625,-5422.06982421875,-400000.0625,-19509.650390625,-400000.0625
timestamp,ch7,ch2,ch3,ch5,is_pause
timestamp,ch7,ch2,ch3,ch5,is_pause
timestamp,ch7,ch2,ch3,ch5,is_pause
4.094207048416138,-400000.0625,-1586.77001953125,-5794.18994140625,-400000.0625,-5448.52978515625,-400000.0625,-19542.740234375,-400000.0625
timestamp,ch7,ch2,ch3,ch5,is_pause
4.110721826553345,-400000.0625,-1639.27001953125,-5837.919921875,-400000.0625,-5495.740234375,-400000.0625,-19592.859375,-400000.0625
timestamp,ch7,ch2,ch3,ch5,is_pause
4.130812883377075,-400000.0625,-1635.97998046875,-5831.0498046875,-400000.0625,-5496.1201171875,-400000.0625,-19589.470703125,-400000.0625
timestamp,ch7,ch2,ch3,ch5,is_pause
4.148072004318237,-400000.0625,-1581.760009765625,-5782.60009765625,-400000.0625,-5449.72021484375,-400000.0625,-19534.5390625,-400000.0625
timestamp,ch7,ch2,ch3,ch5,is_pause
timestamp,ch7,ch2,ch3,ch5,is_pause
timestamp,ch7,ch2,ch3,ch5,is_pause
timestamp,ch7,ch2,ch3,ch5,is_pause
4.208899974822998,-400000.0625,-1551.0999755859375,-5758.3798828125,-400000.0625,-5420.35009765625,-400000.0625,-19503.169921875,-400000.0625
timestamp,ch7,ch2,ch3,ch5,is_pause
4.226457595825195,-400000.0625,-1588.489990234375,-5793.330078125,-400000.0625,-5452.58984375,-400000.0625,-19538.169921875,-400000.0625
timestamp,ch7,ch2,ch3,ch5,is_pause
4.244208574295044,-400000.0625,-1637.75,-5835.81982421875,-400000.0625,-5501.22021484375,-400000.0625,-19589.66015625,-400000.0625
timestamp,ch7,ch2,ch3,ch5,is_pause
4.266937732696533,-400000.0625,-1633.8399658203125,-5828.0,-400000.0625,-5496.8798828125,-400000.0625,-19586.849609375,-400000.0625
timestamp,ch7,ch2,ch3,ch5,is_pause
timestamp,ch7,ch2,ch3,ch5,is_pause
timestamp,ch7,ch2,ch3,ch5,is_pause
timestamp,ch7,ch2,ch3,ch5,is_pause
4.320704460144043,-400000.0625,-1584.050048828125,-5781.27001953125,-400000.0625,-5451.06005859375,-400000.0625,-19530.490234375,-400000.0625
timestamp,ch7,ch2,ch3,ch5,is_pause
4.339428186416626,-400000.0625,-1557.5899658203125,-5762.6298828125,-400000.0625,-5429.93994140625,-400000.0625,-19504.740234375,-400000.0625
4.3510682582855225,-400000.0625,-1589.1600341796875,-5794.14013671875,-400000.0625,-5456.8798828125,-400000.0625,-19543.080078125,-400000.0625
timestamp,ch7,ch2,ch3,ch5,is_pause
timestamp,ch7,ch2,ch3,ch5,is_pause
4.376055717468262,-400000.0625,-1635.97998046875,-5832.85986328125,-400000.0625,-5505.18017578125,-400000.0625,-19586.609375,-400000.0625
timestamp,ch7,ch2,ch3,ch5,is_pause
timestamp,ch7,ch2,ch3,ch5,is_pause
timestamp,ch7,ch2,ch3,ch5,is_pause
4.426018476486206,-400000.0625,-1634.449951171875,-5827.47998046875,-400000.0625,-5507.27978515625,-400000.0625,-19579.599609375,-400000.0625
timestamp,ch7,ch2,ch3,ch5,is_pause
timestamp,ch7,ch2,ch3,ch5,is_pause
4.443505764007568,-400000.0625,-1578.1400146484375,-5776.68994140625,-400000.0625,-5447.77001953125,-400000.0625,-19523.720703125,-400000.0625
timestamp,ch7,ch2,ch3,ch5,is_pause
4.4601359367370605,-400000.0625,-1549.5799560546875,-5753.22998046875,-400000.0625,-5420.5400390625,-400000.0625,-19498.779296875,-400000.0625
timestamp,ch7,ch2,ch3,ch5,is_pause
4.479316234588623,-400000.0625,-1582.47998046875,-5784.27001953125,-400000.0625,-5450.2998046875,-400000.0625,-19530.349609375,-400000.0625
timestamp,ch7,ch2,ch3,ch5,is_pause
timestamp,ch7,ch2,ch3,ch5,is_pause
timestamp,ch7,ch2,ch3,ch5,is_pause
4.535115003585815,-400000.0625,-1637.7900390625,-5833.25,-400000.0625,-5501.1298828125,-400000.0625,-19582.23046875,-400000.0625
timestamp,ch7,ch2,ch3,ch5,is_pause
timestamp,ch7,ch2,ch3,ch5,is_pause
4.558476686477661,-400000.0625,-1638.0799560546875,-5829.3798828125,-400000.0625,-5495.35986328125,-400000.0625,-19582.23046875,-400000.0625
timestamp,ch7,ch2,ch3,ch5,is_pause
4.574369192123413,-400000.0625,-1575.6600341796875,-5775.02001953125,-400000.0625,-5442.10009765625,-400000.0625,-19527.9609375,-400000.0625
timestamp,ch7,ch2,ch3,ch5,is_pause
4.591869115829468,-400000.0625,-1543.7099609375,-5749.89013671875,-400000.0625,-5422.740234375,-400000.0625,-19493.919921875,-400000.0625
timestamp,ch7,ch2,ch3,ch5,is_pause
timestamp,ch7,ch2,ch3,ch5,is_pause
timestamp,ch7,ch2,ch3,ch5,is_pause
timestamp,ch7,ch2,ch3,ch5,is_pause
4.66227126121521,-400000.0625,-1585.050048828125,-5787.47021484375,-400000.0625,-5457.4501953125,-400000.0625,-19531.8203125,-400000.0625
timestamp,ch7,ch2,ch3,ch5,is_pause
4.681556224822998,-400000.0625,-1637.030029296875,-5830.52978515625,-400000.0625,-5496.5498046875,-400000.0625,-19587.189453125,-400000.0625
timestamp,ch7,ch2,ch3,ch5,is_pause
4.705988645553589,-400000.0625,-1632.0699462890625,-5823.27978515625,-400000.0625,-5491.58984375,-400000.0625,-19582.1796875,-400000.0625
timestamp,ch7,ch2,ch3,ch5,is_pause
timestamp,ch7,ch2,ch3,ch5,is_pause
timestamp,ch7,ch2,ch3,ch5,is_pause
timestamp,ch7,ch2,ch3,ch5,is_pause
4.768800497055054,-400000.0625,-1584.6700439453125,-5779.22021484375,-400000.0625,-5449.490234375,-400000.0625,-19530.490234375,-400000.0625
timestamp,ch7,ch2,ch3,ch5,is_pause
timestamp,ch7,ch2,ch3,ch5,is_pause
4.79109263420105,-400000.0625,-1559.0699462890625,-5760.3798828125,-400000.0625,-5428.97998046875,-400000.0625,-19503.98046875,-400000.0625
4.80381441116333,-400000.0625,-1590.43994140625,-5793.14013671875,-400000.0625,-5460.5498046875,-400000.0625,-19539.7890625,-400000.0625
timestamp,ch7,ch2,ch3,ch5,is_pause
4.817607164382935,-400000.0625,-1641.56005859375,-5835.8701171875,-400000.0625,-5503.18017578125,-400000.0625,-19589.240234375,-400000.0625
timestamp,ch7,ch2,ch3,ch5,is_pause
timestamp,ch7,ch2,ch3,ch5,is_pause
timestamp,ch7,ch2,ch3,ch5,is_pause
timestamp,ch7,ch2,ch3,ch5,is_pause
4.877931118011475,-400000.0625,-1635.739990234375,-5825.0,-400000.0625,-5494.740234375,-400000.0625,-19578.83984375,-400000.0625
timestamp,ch7,ch2,ch3,ch5,is_pause
4.896846294403076,-400000.0625,-1580.239990234375,-5771.4501953125,-400000.0625,-5443.3798828125,-400000.0625,-19526.669921875,-400000.0625
timestamp,ch7,ch2,ch3,ch5,is_pause
4.912398099899292,-400000.0625,-1549.0999755859375,-5748.419921875,-400000.0625,-5417.39990234375,-400000.0625,-19499.109375,-400000.0625
timestamp,ch7,ch2,ch3,ch5,is_pause
4.933415174484253,-400000.0625,-1587.719970703125,-5787.18017578125,-400000.0625,-5458.64013671875,-400000.0625,-19539.310546875,-400000.0625
timestamp,ch7,ch2,ch3,ch5,is_pause
timestamp,ch7,ch2,ch3,ch5,is_pause
timestamp,ch7,ch2,ch3,ch5,is_pause
4.983399868011475,-400000.0625,-1638.1300048828125,-5830.14990234375,-400000.0625,-5506.85009765625,-400000.0625,-19589.4296875,-400000.0625
timestamp,ch7,ch2,ch3,ch5,is_pause
4.997246265411377,-400000.0625,-1631.4000244140625,-5819.75,-400000.0625,-5498.02978515625,-400000.0625,-19582.990234375,-400000.0625
timestamp,ch7,ch2,ch3,ch5,is_pause
5.011099815368652,-400000.0625,-1577.18994140625,-5771.02001953125,-400000.0625,-5446.52978515625,-400000.0625,-19529.5390625,-400000.0625
timestamp,ch7,ch2,ch3,ch5,is_pause
5.02531361579895,-400000.0625,-1553.1500244140625,-5750.93994140625,-400000.0625,-5420.8798828125,-400000.0625,-19504.41015625,-400000.0625
timestamp,ch7,ch2,ch3,ch5,is_pause
5.040477991104126,-400000.0625,-1577.9000244140625,-5776.169921875,-400000.0625,-5450.14990234375,-400000.0625,-19533.01953125,-400000.0625
timestamp,ch7,ch2,ch3,ch5,is_pause
timestamp,ch7,ch2,ch3,ch5,is_pause
timestamp,ch7,ch2,ch3,ch5,is_pause
5.085919380187988,-400000.0625,-1632.0699462890625,-5823.22998046875,-400000.0625,-5500.97998046875,-400000.0625,-19582.23046875,-400000.0625
timestamp,ch7,ch2,ch3,ch5,is_pause
5.099279165267944,-400000.0625,-1637.8900146484375,-5823.7998046875,-400000.0625,-5498.27001953125,-400000.0625,-19581.130859375,-400000.0625
timestamp,ch7,ch2,ch3,ch5,is_pause
5.114455938339233,-400000.0625,-1586.6300048828125,-5777.5498046875,-400000.0625,-5451.81982421875,-400000.0625,-19540.5,-400000.0625
timestamp,ch7,ch2,ch3,ch5,is_pause
5.130073070526123,-400000.0625,-1557.72998046875,-5753.60986328125,-400000.0625,-5428.97998046875,-400000.0625,-19509.990234375,-400000.0625
timestamp,ch7,ch2,ch3,ch5,is_pause
5.1512815952301025,-400000.0625,-1594.02001953125,-5787.66015625,-400000.0625,-5457.740234375,-400000.0625,-19545.1796875,-400000.0625
timestamp,ch7,ch2,ch3,ch5,is_pause
timestamp,ch7,ch2,ch3,ch5,is_pause
timestamp,ch7,ch2,ch3,ch5,is_pause
5.20141863822937,-400000.0625,-1650.719970703125,-5833.77001953125,-400000.0625,-5505.419921875,-400000.0625,-19595.05078125,-400000.0625
timestamp,ch7,ch2,ch3,ch5,is_pause
5.214315891265869,-400000.0625,-1646.3800048828125,-5823.7998046875,-400000.0625,-5502.27001953125,-400000.0625,-19589.51953125,-400000.0625
timestamp,ch7,ch2,ch3,ch5,is_pause
5.229982614517212,-400000.0625,-1585.530029296875,-5775.1201171875,-400000.0625,-5448.14990234375,-400000.0625,-19524.619140625,-400000.0625
timestamp,ch7,ch2,ch3,ch5,is_pause
5.244978189468384,-400000.0625,-1557.5899658203125,-5759.33984375,-400000.0625,-5421.64013671875,-400000.0625,-19491.33984375,-400000.0625
timestamp,ch7,ch2,ch3,ch5,is_pause
timestamp,ch7,ch2,ch3,ch5,is_pause
5.267492771148682,-400000.0625,-1599.260009765625,-5794.9501953125,-400000.0625,-5455.39990234375,-400000.0625,-19518.08984375,-400000.0625
timestamp,ch7,ch2,ch3,ch5,is_pause
timestamp,ch7,ch2,ch3,ch5,is_pause
timestamp,ch7,ch2,ch3,ch5,is_pause
5.31633996963501,-400000.0625,-1657.8199462890625,-5843.35009765625,-400000.0625,-5504.85009765625,-400000.0625,-19568.109375,-400000.0625
timestamp,ch7,ch2,ch3,ch5,is_pause
5.332106113433838,-400000.0625,-1662.8299560546875,-5846.4501953125,-400000.0625,-5507.330078125,-400000.0625,-19567.439453125,-400000.0625
timestamp,ch7,ch2,ch3,ch5,is_pause
5.346566677093506,-400000.0625,-1609.6099853515625,-5802.919921875,-400000.0625,-5458.1201171875,-400000.0625,-19507.080078125,-400000.0625
timestamp,ch7,ch2,ch3,ch5,is_pause
5.367348909378052,-400000.0625,-1580.1400146484375,-5777.93017578125,-400000.0625,-5426.8798828125,-400000.0625,-19470.259765625,-400000.0625
timestamp,ch7,ch2,ch3,ch5,is_pause
5.38081693649292,-400000.0625,-1608.1800537109375,-5804.10986328125,-400000.0625,-5452.5400390625,-400000.0625,-19501.55078125,-400000.0625
timestamp,ch7,ch2,ch3,ch5,is_pause
timestamp,ch7,ch2,ch3,ch5,is_pause
timestamp,ch7,ch2,ch3,ch5,is_pause
5.428508996963501,-400000.0625,-1667.550048828125,-5852.31982421875,-400000.0625,-5504.7998046875,-400000.0625,-19559.529296875,-400000.0625
timestamp,ch7,ch2,ch3,ch5,is_pause
5.439603090286255,-400000.0625,-1667.1700439453125,-5846.740234375,-400000.0625,-5499.89013671875,-400000.0625,-19556.859375,-400000.0625
timestamp,ch7,ch2,ch3,ch5,is_pause
5.4522528648376465,-400000.0625,-1612.7099609375,-5801.8701171875,-400000.0625,-5451.35009765625,-400000.0625,-19508.650390625,-400000.0625
timestamp,ch7,ch2,ch3,ch5,is_pause
5.472906827926636,-400000.0625,-1586.0999755859375,-5783.83984375,-400000.0625,-5430.7900390625,-400000.0625,-19478.75,-400000.0625
timestamp,ch7,ch2,ch3,ch5,is_pause
5.485037088394165,-400000.0625,-1619.4300537109375,-5818.83984375,-400000.0625,-5466.4599609375,-400000.0625,-19511.029296875,-400000.0625
timestamp,ch7,ch2,ch3,ch5,is_pause
timestamp,ch7,ch2,ch3,ch5,is_pause
timestamp,ch7,ch2,ch3,ch5,is_pause
timestamp,ch7,ch2,ch3,ch5,is_pause
timestamp,ch7,ch2,ch3,ch5,is_pause
5.558265447616577,-400000.0625,-1672.219970703125,-5863.18994140625,-400000.0625,-5506.56005859375,-400000.0625,-19563.919921875,-400000.0625
timestamp,ch7,ch2,ch3,ch5,is_pause
timestamp,ch7,ch2,ch3,ch5,is_pause
5.583277225494385,-400000.0625,-1666.4000244140625,-5853.7001953125,-400000.0625,-5501.93994140625,-400000.0625,-19557.05078125,-400000.0625
timestamp,ch7,ch2,ch3,ch5,is_pause
timestamp,ch7,ch2,ch3,ch5,is_pause
5.614447116851807,-400000.0625,-1616.050048828125,-5807.8798828125,-400000.0625,-5455.64013671875,-400000.0625,-19505.880859375,-400000.0625
timestamp,ch7,ch2,ch3,ch5,is_pause
timestamp,ch7,ch2,ch3,ch5,is_pause
timestamp,ch7,ch2,ch3,ch5,is_pause
timestamp,ch7,ch2,ch3,ch5,is_pause
timestamp,ch7,ch2,ch3,ch5,is_pause
timestamp,ch7,ch2,ch3,ch5,is_pause
5.700368642807007,-400000.0625,-1590.010009765625,-5787.56005859375,-400000.0625,-5433.22998046875,-400000.0625,-19479.130859375,-400000.0625
timestamp,ch7,ch2,ch3,ch5,is_pause
5.715848684310913,-400000.0625,-1622.6300048828125,-5818.7998046875,-400000.0625,-5460.8798828125,-400000.0625,-19516.5703125,-400000.0625
timestamp,ch7,ch2,ch3,ch5,is_pause
timestamp,ch7,ch2,ch3,ch5,is_pause
timestamp,ch7,ch2,ch3,ch5,is_pause
timestamp,ch7,ch2,ch3,ch5,is_pause
timestamp,ch7,ch2,ch3,ch5,is_pause
5.783294677734375,-400000.0625,-1676.56005859375,-5866.81005859375,-400000.0625,-5506.75,-400000.0625,-19568.060546875,-400000.0625
timestamp,ch7,ch2,ch3,ch5,is_pause
timestamp,ch7,ch2,ch3,ch5,is_pause
5.803565979003906,-400000.0625,-1674.4599609375,-5858.56982421875,-400000.0625,-5502.56005859375,-400000.0625,-19562.869140625,-400000.0625
timestamp,ch7,ch2,ch3,ch5,is_pause
5.820128679275513,-400000.0625,-1618.239990234375,-5811.02001953125,-400000.0625,-5457.5,-400000.0625,-19507.3203125,-400000.0625
timestamp,ch7,ch2,ch3,ch5,is_pause
timestamp,ch7,ch2,ch3,ch5,is_pause
timestamp,ch7,ch2,ch3,ch5,is_pause
timestamp,ch7,ch2,ch3,ch5,is_pause
5.878728151321411,-400000.0625,-1593.6400146484375,-5788.52001953125,-400000.0625,-5433.7001953125,-400000.0625,-19475.029296875,-400000.0625
timestamp,ch7,ch2,ch3,ch5,is_pause
timestamp,ch7,ch2,ch3,ch5,is_pause
5.896135091781616,-400000.0625,-1621.77001953125,-5816.64990234375,-400000.0625,-5461.93017578125,-400000.0625,-19508.130859375,-400000.0625
timestamp,ch7,ch2,ch3,ch5,is_pause
5.91012716293335,-400000.0625,-1671.6500244140625,-5858.14013671875,-400000.0625,-5509.759765625,-400000.0625,-19558.9609375,-400000.0625
timestamp,ch7,ch2,ch3,ch5,is_pause
5.923299789428711,-400000.0625,-1671.510009765625,-5852.64990234375,-400000.0625,-5506.60986328125,-400000.0625,-19558.619140625,-400000.0625
timestamp,ch7,ch2,ch3,ch5,is_pause
timestamp,ch7,ch2,ch3,ch5,is_pause
timestamp,ch7,ch2,ch3,ch5,is_pause
timestamp,ch7,ch2,ch3,ch5,is_pause
5.976164817810059,-400000.0625,-1622.199951171875,-5806.02001953125,-400000.0625,-5451.77978515625,-400000.0625,-19506.98046875,-400000.0625
timestamp,ch7,ch2,ch3,ch5,is_pause
5.992208242416382,-400000.0625,-1594.8299560546875,-5788.85009765625,-400000.0625,-5426.64990234375,-400000.0625,-19478.419921875,-400000.0625
timestamp,ch7,ch2,ch3,ch5,is_pause
timestamp,ch7,ch2,ch3,ch5,is_pause
6.008200407028198,-400000.0625,-1628.68994140625,-5821.47021484375,-400000.0625,-5457.740234375,-400000.0625,-19521.669921875,-400000.0625
6.017045021057129,-400000.0625,-1675.800048828125,-5864.330078125,-400000.0625,-5507.7998046875,-400000.0625,-19567.970703125,-400000.0625
timestamp,ch7,ch2,ch3,ch5,is_pause
timestamp,ch7,ch2,ch3,ch5,is_pause
6.0418150424957275,-400000.0625,-1672.3199462890625,-5855.47021484375,-400000.0625,-5503.27001953125,-400000.0625,-19557.4296875,-400000.0625
timestamp,ch7,ch2,ch3,ch5,is_pause
timestamp,ch7,ch2,ch3,ch5,is_pause
timestamp,ch7,ch2,ch3,ch5,is_pause
timestamp,ch7,ch2,ch3,ch5,is_pause
6.096102952957153,-400000.0625,-1607.0400390625,-5797.2001953125,-400000.0625,-5444.669921875,-400000.0625,-19501.55078125,-400000.0625
timestamp,ch7,ch2,ch3,ch5,is_pause
6.111389875411987,-400000.0625,-1587.199951171875,-5780.64990234375,-400000.0625,-5422.35009765625,-400000.0625,-19475.990234375,-400000.0625
timestamp,ch7,ch2,ch3,ch5,is_pause
timestamp,ch7,ch2,ch3,ch5,is_pause
6.133793592453003,-400000.0625,-1622.3399658203125,-5816.1298828125,-400000.0625,-5454.58984375,-400000.0625,-19515.1796875,-400000.0625
timestamp,ch7,ch2,ch3,ch5,is_pause
6.145724296569824,-400000.0625,-1670.68994140625,-5858.330078125,-400000.0625,-5496.22021484375,-400000.0625,-19563.720703125,-400000.0625
timestamp,ch7,ch2,ch3,ch5,is_pause
timestamp,ch7,ch2,ch3,ch5,is_pause
timestamp,ch7,ch2,ch3,ch5,is_pause
timestamp,ch7,ch2,ch3,ch5,is_pause
6.199113368988037,-400000.0625,-1667.7900390625,-5851.93994140625,-400000.0625,-5495.68994140625,-400000.0625,-19555.810546875,-400000.0625
timestamp,ch7,ch2,ch3,ch5,is_pause
6.212900400161743,-400000.0625,-1617.0,-5806.68994140625,-400000.0625,-5449.10009765625,-400000.0625,-19502.119140625,-400000.0625
timestamp,ch7,ch2,ch3,ch5,is_pause
timestamp,ch7,ch2,ch3,ch5,is_pause
6.232630252838135,-400000.0625,-1589.43994140625,-5787.419921875,-400000.0625,-5428.41015625,-400000.0625,-19477.1796875,-400000.0625
timestamp,ch7,ch2,ch3,ch5,is_pause
6.249401807785034,-400000.0625,-1628.3499755859375,-5822.1298828125,-400000.0625,-5469.22998046875,-400000.0625,-19511.029296875,-400000.0625
timestamp,ch7,ch2,ch3,ch5,is_pause
timestamp,ch7,ch2,ch3,ch5,is_pause
timestamp,ch7,ch2,ch3,ch5,is_pause
timestamp,ch7,ch2,ch3,ch5,is_pause
6.305480480194092,-400000.0625,-1678.56005859375,-5865.0498046875,-400000.0625,-5508.18994140625,-400000.0625,-19563.9609375,-400000.0625
timestamp,ch7,ch2,ch3,ch5,is_pause
timestamp,ch7,ch2,ch3,ch5,is_pause
6.329484701156616,-400000.0625,-1668.97998046875,-5853.509765625,-400000.0625,-5497.4599609375,-400000.0625,-19556.810546875,-400000.0625
timestamp,ch7,ch2,ch3,ch5,is_pause
6.343757152557373,-400000.0625,-1618.719970703125,-5806.06982421875,-400000.0625,-5445.85986328125,-400000.0625,-19506.169921875,-400000.0625
timestamp,ch7,ch2,ch3,ch5,is_pause
6.359460115432739,-400000.0625,-1589.72998046875,-5786.60986328125,-400000.0625,-5416.81982421875,-400000.0625,-19482.66015625,-400000.0625
timestamp,ch7,ch2,ch3,ch5,is_pause
timestamp,ch7,ch2,ch3,ch5,is_pause
timestamp,ch7,ch2,ch3,ch5,is_pause
timestamp,ch7,ch2,ch3,ch5,is_pause
6.4057252407073975,-400000.0625,-1626.43994140625,-5822.47021484375,-400000.0625,-5453.8701171875,-400000.0625,-19518.0390625,-400000.0625
timestamp,ch7,ch2,ch3,ch5,is_pause
6.417247295379639,-400000.0625,-1675.1300048828125,-5862.759765625,-400000.0625,-5498.27001953125,-400000.0625,-19563.9609375,-400000.0625
timestamp,ch7,ch2,ch3,ch5,is_pause
6.435471057891846,-400000.0625,-1673.6500244140625,-5857.0400390625,-400000.0625,-5500.02978515625,-400000.0625,-19559.720703125,-400000.0625
timestamp,ch7,ch2,ch3,ch5,is_pause
6.452736854553223,-400000.0625,-1619.6700439453125,-5811.22021484375,-400000.0625,-5455.8798828125,-400000.0625,-19507.029296875,-400000.0625
timestamp,ch7,ch2,ch3,ch5,is_pause
timestamp,ch7,ch2,ch3,ch5,is_pause
6.472219705581665,-400000.0625,-1585.9599609375,-5787.47021484375,-400000.0625,-5426.8798828125,-400000.0625,-19477.69921875,-400000.0625
timestamp,ch7,ch2,ch3,ch5,is_pause
timestamp,ch7,ch2,ch3,ch5,is_pause
timestamp,ch7,ch2,ch3,ch5,is_pause
timestamp,ch7,ch2,ch3,ch5,is_pause
6.519378185272217,-400000.0625,-1621.9100341796875,-5820.85009765625,-400000.0625,-5455.5400390625,-400000.0625,-19506.5,-400000.0625
timestamp,ch7,ch2,ch3,ch5,is_pause
6.533299446105957,-400000.0625,-1672.0799560546875,-5863.0498046875,-400000.0625,-5499.22021484375,-400000.0625,-19561.150390625,-400000.0625
timestamp,ch7,ch2,ch3,ch5,is_pause
6.546496868133545,-400000.0625,-1666.5,-5856.08984375,-400000.0625,-5494.06982421875,-400000.0625,-19561.05078125,-400000.0625
timestamp,ch7,ch2,ch3,ch5,is_pause
6.561242580413818,-400000.0625,-1616.18994140625,-5808.4501953125,-400000.0625,-5445.85986328125,-400000.0625,-19504.98046875,-400000.0625
timestamp,ch7,ch2,ch3,ch5,is_pause
6.574672698974609,-400000.0625,-1581.9599609375,-5780.64990234375,-400000.0625,-5422.77978515625,-400000.0625,-19476.509765625,-400000.0625
timestamp,ch7,ch2,ch3,ch5,is_pause
timestamp,ch7,ch2,ch3,ch5,is_pause
timestamp,ch7,ch2,ch3,ch5,is_pause
6.615164279937744,-400000.0625,-1617.5699462890625,-5814.83984375,-400000.0625,-5459.2099609375,-400000.0625,-19514.0390625,-400000.0625
timestamp,ch7,ch2,ch3,ch5,is_pause
timestamp,ch7,ch2,ch3,ch5,is_pause
6.629168510437012,-400000.0625,-1668.9300537109375,-5858.56982421875,-400000.0625,-5503.22998046875,-400000.0625,-19564.390625,-400000.0625
timestamp,ch7,ch2,ch3,ch5,is_pause
6.640691041946411,-400000.0625,-1662.9200439453125,-5849.7900390625,-400000.0625,-5489.4501953125,-400000.0625,-19557.0,-400000.0625
6.64876389503479,-400000.0625,-1612.760009765625,-5805.5400390625,-400000.0625,-5445.43017578125,-400000.0625,-19507.83984375,-400000.0625
timestamp,ch7,ch2,ch3,ch5,is_pause
timestamp,ch7,ch2,ch3,ch5,is_pause
6.665083169937134,-400000.0625,-1588.43994140625,-5786.75,-400000.0625,-5420.39990234375,-400000.0625,-19479.560546875,-400000.0625
6.67450475692749,-400000.0625,-1619.530029296875,-5816.31982421875,-400000.0625,-5452.009765625,-400000.0625,-19510.3203125,-400000.0625
timestamp,ch7,ch2,ch3,ch5,is_pause
6.686825513839722,-400000.0625,-1673.3599853515625,-5863.240234375,-400000.0625,-5504.93994140625,-400000.0625,-19564.25,-400000.0625
timestamp,ch7,ch2,ch3,ch5,is_pause
timestamp,ch7,ch2,ch3,ch5,is_pause
timestamp,ch7,ch2,ch3,ch5,is_pause
6.72579288482666,-400000.0625,-1672.3599853515625,-5858.14013671875,-400000.0625,-5502.83984375,-400000.0625,-19560.19921875,-400000.0625
timestamp,ch7,ch2,ch3,ch5,is_pause
6.739644289016724,-400000.0625,-1618.3900146484375,-5808.93017578125,-400000.0625,-5449.39013671875,-400000.0625,-19502.830078125,-400000.0625
timestamp,ch7,ch2,ch3,ch5,is_pause
6.7491679191589355,-400000.0625,-1581.239990234375,-5780.64990234375,-400000.0625,-5421.68994140625,-400000.0625,-19469.7890625,-400000.0625
timestamp,ch7,ch2,ch3,ch5,is_pause
6.76483678817749,-400000.0625,-1618.8599853515625,-5820.31982421875,-400000.0625,-5458.31005859375,-400000.0625,-19509.130859375,-400000.0625
timestamp,ch7,ch2,ch3,ch5,is_pause
6.776130437850952,-400000.0625,-1677.27001953125,-5868.0498046875,-400000.0625,-5509.22998046875,-400000.0625,-19563.30078125,-400000.0625
timestamp,ch7,ch2,ch3,ch5,is_pause
6.784759998321533,-400000.0625,-1665.5,-5855.419921875,-400000.0625,-5505.990234375,-400000.0625,-19555.810546875,-400000.0625
timestamp,ch7,ch2,ch3,ch5,is_pause
6.8015100955963135,-400000.0625,-1611.9000244140625,-5807.5,-400000.0625,-5454.02001953125,-400000.0625,-19500.5,-400000.0625
timestamp,ch7,ch2,ch3,ch5,is_pause
timestamp,ch7,ch2,ch3,ch5,is_pause
timestamp,ch7,ch2,ch3,ch5,is_pause
timestamp,ch7,ch2,ch3,ch5,is_pause
6.846210241317749,-400000.0625,-1583.8599853515625,-5786.509765625,-400000.0625,-5418.25,-400000.0625,-19476.4609375,-400000.0625
timestamp,ch7,ch2,ch3,ch5,is_pause
6.8594794273376465,-400000.0625,-1618.0999755859375,-5816.27001953125,-400000.0625,-5446.72021484375,-400000.0625,-19507.509765625,-400000.0625
timestamp,ch7,ch2,ch3,ch5,is_pause
6.872301816940308,-400000.0625,-1668.8800048828125,-5859.419921875,-400000.0625,-5499.60009765625,-400000.0625,-19560.76953125,-400000.0625
timestamp,ch7,ch2,ch3,ch5,is_pause
6.886524677276611,-400000.0625,-1672.219970703125,-5860.85009765625,-400000.0625,-5502.64990234375,-400000.0625,-19560.76953125,-400000.0625
timestamp,ch7,ch2,ch3,ch5,is_pause
6.902994871139526,-400000.0625,-1621.719970703125,-5815.4599609375,-400000.0625,-5450.68017578125,-400000.0625,-19506.740234375,-400000.0625
timestamp,ch7,ch2,ch3,ch5,is_pause
timestamp,ch7,ch2,ch3,ch5,is_pause
timestamp,ch7,ch2,ch3,ch5,is_pause
6.939479112625122,-400000.0625,-1583.81005859375,-5787.56005859375,-400000.0625,-5420.58984375,-400000.0625,-19479.23046875,-400000.0625
timestamp,ch7,ch2,ch3,ch5,is_pause
6.9481518268585205,-400000.0625,-1618.4300537109375,-5822.330078125,-400000.0625,-5458.31005859375,-400000.0625,-19511.080078125,-400000.0625
timestamp,ch7,ch2,ch3,ch5,is_pause
6.963906288146973,-400000.0625,-1673.4100341796875,-5868.77001953125,-400000.0625,-5507.7998046875,-400000.0625,-19555.859375,-400000.0625
timestamp,ch7,ch2,ch3,ch5,is_pause
6.974797964096069,-400000.0625,-1668.550048828125,-5858.990234375,-400000.0625,-5502.22021484375,-400000.0625,-19553.189453125,-400000.0625
timestamp,ch7,ch2,ch3,ch5,is_pause
6.984067678451538,-400000.0625,-1616.6199951171875,-5814.35986328125,-400000.0625,-5451.77978515625,-400000.0625,-19505.119140625,-400000.0625
timestamp,ch7,ch2,ch3,ch5,is_pause
6.999187707901001,-400000.0625,-1594.8299560546875,-5796.43017578125,-400000.0625,-5429.22021484375,-400000.0625,-19485.7109375,-400000.0625
timestamp,ch7,ch2,ch3,ch5,is_pause
7.011064052581787,-400000.0625,-1625.43994140625,-5827.240234375,-400000.0625,-5461.97998046875,-400000.0625,-19517.849609375,-400000.0625
timestamp,ch7,ch2,ch3,ch5,is_pause
timestamp,ch7,ch2,ch3,ch5,is_pause
timestamp,ch7,ch2,ch3,ch5,is_pause
7.048218250274658,-400000.0625,-1674.93994140625,-5867.2001953125,-400000.0625,-5510.27978515625,-400000.0625,-19561.580078125,-400000.0625
timestamp,ch7,ch2,ch3,ch5,is_pause
7.059041261672974,-400000.0625,-1674.0799560546875,-5862.52001953125,-400000.0625,-5505.08984375,-400000.0625,-19561.099609375,-400000.0625
timestamp,ch7,ch2,ch3,ch5,is_pause
7.072190046310425,-400000.0625,-1617.18994140625,-5813.64990234375,-400000.0625,-5455.58984375,-400000.0625,-19510.26953125,-400000.0625
timestamp,ch7,ch2,ch3,ch5,is_pause
7.081635475158691,-400000.0625,-1590.5899658203125,-5793.56982421875,-400000.0625,-5427.89013671875,-400000.0625,-19478.609375,-400000.0625
timestamp,ch7,ch2,ch3,ch5,is_pause
7.097712516784668,-400000.0625,-1625.1600341796875,-5823.85009765625,-400000.0625,-5453.919921875,-400000.0625,-19510.80078125,-400000.0625
timestamp,ch7,ch2,ch3,ch5,is_pause
7.108822584152222,-400000.0625,-1672.1300048828125,-5865.14990234375,-400000.0625,-5502.990234375,-400000.0625,-19561.390625,-400000.0625
timestamp,ch7,ch2,ch3,ch5,is_pause
7.118252992630005,-400000.0625,-1662.6800537109375,-5852.7998046875,-400000.0625,-5498.169921875,-400000.0625,-19552.330078125,-400000.0625
timestamp,ch7,ch2,ch3,ch5,is_pause
timestamp,ch7,ch2,ch3,ch5,is_pause
timestamp,ch7,ch2,ch3,ch5,is_pause
timestamp,ch7,ch2,ch3,ch5,is_pause
7.165899038314819,-400000.0625,-1621.3900146484375,-5815.35986328125,-400000.0625,-5459.259765625,-400000.0625,-19511.80078125,-400000.0625
7.17587423324585,-400000.0625,-1595.2099609375,-5795.2900390625,-400000.0625,-5430.56005859375,-400000.0625,-19485.810546875,-400000.0625
timestamp,ch7,ch2,ch3,ch5,is_pause
7.189224720001221,-400000.0625,-1618.77001953125,-5820.60986328125,-400000.0625,-5459.5,-400000.0625,-19516.5703125,-400000.0625
timestamp,ch7,ch2,ch3,ch5,is_pause
timestamp,ch7,ch2,ch3,ch5,is_pause
7.206811904907227,-400000.0625,-1660.6300048828125,-5859.330078125,-400000.0625,-5501.7998046875,-400000.0625,-19576.5,-400000.0625
7.215017080307007,-400000.0625,-1652.77001953125,-5850.5498046875,-400000.0625,-5498.740234375,-400000.0625,-19570.9296875,-400000.0625
timestamp,ch7,ch2,ch3,ch5,is_pause
7.226520776748657,-400000.0625,-1589.5400390625,-5792.81005859375,-400000.0625,-5445.77001953125,-400000.0625,-19517.51953125,-400000.0625
timestamp,ch7,ch2,ch3,ch5,is_pause
timestamp,ch7,ch2,ch3,ch5,is_pause
timestamp,ch7,ch2,ch3,ch5,is_pause
timestamp,ch7,ch2,ch3,ch5,is_pause
7.271067142486572,-400000.0625,-1554.6800537109375,-5765.52978515625,-400000.0625,-5415.580078125,-400000.0625,-19483.94921875,-400000.0625
timestamp,ch7,ch2,ch3,ch5,is_pause
7.280373811721802,-400000.0625,-1587.9599609375,-5798.6298828125,-400000.0625,-5453.490234375,-400000.0625,-19523.76953125,-400000.0625
timestamp,ch7,ch2,ch3,ch5,is_pause
7.296007871627808,-400000.0625,-1639.3199462890625,-5846.5498046875,-400000.0625,-5511.85986328125,-400000.0625,-19577.69921875,-400000.0625
timestamp,ch7,ch2,ch3,ch5,is_pause
7.309061050415039,-400000.0625,-1641.1300048828125,-5839.5400390625,-400000.0625,-5499.22021484375,-400000.0625,-19571.830078125,-400000.0625
7.3162806034088135,-400000.0625,-1595.3499755859375,-5799.91015625,-400000.0625,-5447.39013671875,-400000.0625,-19524.859375,-400000.0625
timestamp,ch7,ch2,ch3,ch5,is_pause
timestamp,ch7,ch2,ch3,ch5,is_pause
7.333686828613281,-400000.0625,-1568.7900390625,-5780.169921875,-400000.0625,-5422.39990234375,-400000.0625,-19503.7890625,-400000.0625
timestamp,ch7,ch2,ch3,ch5,is_pause
timestamp,ch7,ch2,ch3,ch5,is_pause
7.366220712661743,-400000.0625,-1606.27001953125,-5812.8798828125,-400000.0625,-5459.35986328125,-400000.0625,-19534.16015625,-400000.0625
timestamp,ch7,ch2,ch3,ch5,is_pause
7.37671685218811,-400000.0625,-1650.0999755859375,-5852.31982421875,-400000.0625,-5507.47021484375,-400000.0625,-19583.279296875,-400000.0625
timestamp,ch7,ch2,ch3,ch5,is_pause
7.388294696807861,-400000.0625,-1640.6500244140625,-5841.10986328125,-400000.0625,-5498.080078125,-400000.0625,-19575.650390625,-400000.0625
timestamp,ch7,ch2,ch3,ch5,is_pause
7.402536869049072,-400000.0625,-1591.5400390625,-5796.85986328125,-400000.0625,-5458.39990234375,-400000.0625,-19525.099609375,-400000.0625
timestamp,ch7,ch2,ch3,ch5,is_pause
7.411922216415405,-400000.0625,-1560.5,-5771.10986328125,-400000.0625,-5432.27001953125,-400000.0625,-19491.9609375,-400000.0625
timestamp,ch7,ch2,ch3,ch5,is_pause
7.422398090362549,-400000.0625,-1596.6400146484375,-5807.5,-400000.0625,-5457.06982421875,-400000.0625,-19534.73046875,-400000.0625
timestamp,ch7,ch2,ch3,ch5,is_pause
7.437534809112549,-400000.0625,-1648.949951171875,-5853.990234375,-400000.0625,-5500.22021484375,-400000.0625,-19587.5703125,-400000.0625
timestamp,ch7,ch2,ch3,ch5,is_pause
timestamp,ch7,ch2,ch3,ch5,is_pause
timestamp,ch7,ch2,ch3,ch5,is_pause
7.470860719680786,-400000.0625,-1641.8900146484375,-5840.919921875,-400000.0625,-5498.97998046875,-400000.0625,-19578.029296875,-400000.0625
7.4791176319122314,-400000.0625,-1577.7099609375,-5784.3701171875,-400000.0625,-5442.6201171875,-400000.0625,-19517.23046875,-400000.0625
timestamp,ch7,ch2,ch3,ch5,is_pause
7.491621017456055,-400000.0625,-1553.010009765625,-5763.33984375,-400000.0625,-5420.919921875,-400000.0625,-19488.91015625,-400000.0625
timestamp,ch7,ch2,ch3,ch5,is_pause
timestamp,ch7,ch2,ch3,ch5,is_pause
7.5057642459869385,-400000.0625,-1606.800048828125,-5816.56005859375,-400000.0625,-5471.08984375,-400000.0625,-19537.98046875,-400000.0625
7.513177156448364,-400000.0625,-1659.3499755859375,-5862.7099609375,-400000.0625,-5514.18994140625,-400000.0625,-19592.140625,-400000.0625
timestamp,ch7,ch2,ch3,ch5,is_pause
7.526743173599243,-400000.0625,-1649.949951171875,-5851.31982421875,-400000.0625,-5503.080078125,-400000.0625,-19582.23046875,-400000.0625
timestamp,ch7,ch2,ch3,ch5,is_pause
7.537658214569092,-400000.0625,-1600.1700439453125,-5805.2099609375,-400000.0625,-5457.97021484375,-400000.0625,-19528.19921875,-400000.0625
timestamp,ch7,ch2,ch3,ch5,is_pause
timestamp,ch7,ch2,ch3,ch5,is_pause
timestamp,ch7,ch2,ch3,ch5,is_pause
7.57090163230896,-400000.0625,-1570.75,-5780.080078125,-400000.0625,-5434.93994140625,-400000.0625,-19498.73046875,-400000.0625
timestamp,ch7,ch2,ch3,ch5,is_pause
7.579274654388428,-400000.0625,-1603.6500244140625,-5813.64990234375,-400000.0625,-5465.64990234375,-400000.0625,-19530.5390625,-400000.0625
7.588039875030518,-400000.0625,-1658.1500244140625,-5857.52001953125,-400000.0625,-5503.93994140625,-400000.0625,-19578.890625,-400000.0625
timestamp,ch7,ch2,ch3,ch5,is_pause
7.600364446640015,-400000.0625,-1644.9000244140625,-5844.259765625,-400000.0625,-5498.02978515625,-400000.0625,-19575.5,-400000.0625
timestamp,ch7,ch2,ch3,ch5,is_pause
7.6102306842803955,-400000.0625,-1584.719970703125,-5791.27978515625,-400000.0625,-5445.0,-400000.0625,-19518.330078125,-400000.0625
timestamp,ch7,ch2,ch3,ch5,is_pause
7.617684602737427,-400000.0625,-1553.9200439453125,-5766.43994140625,-400000.0625,-5419.2998046875,-400000.0625,-19484.0,-400000.0625
timestamp,ch7,ch2,ch3,ch5,is_pause
7.633174896240234,-400000.0625,-1594.4000244140625,-5807.259765625,-400000.0625,-5464.35986328125,-400000.0625,-19524.76953125,-400000.0625
timestamp,ch7,ch2,ch3,ch5,is_pause
7.643498659133911,-400000.0625,-1652.77001953125,-5855.66015625,-400000.0625,-5518.72021484375,-400000.0625,-19582.080078125,-400000.0625
timestamp,ch7,ch2,ch3,ch5,is_pause
timestamp,ch7,ch2,ch3,ch5,is_pause
timestamp,ch7,ch2,ch3,ch5,is_pause
7.681095361709595,-400000.0625,-1649.5699462890625,-5845.1201171875,-400000.0625,-5506.18017578125,-400000.0625,-19578.169921875,-400000.0625
timestamp,ch7,ch2,ch3,ch5,is_pause
7.694824457168579,-400000.0625,-1596.02001953125,-5799.52978515625,-400000.0625,-5448.6298828125,-400000.0625,-19520.859375,-400000.0625
timestamp,ch7,ch2,ch3,ch5,is_pause
7.705302953720093,-400000.0625,-1571.510009765625,-5783.60986328125,-400000.0625,-5421.4501953125,-400000.0625,-19496.5390625,-400000.0625
timestamp,ch7,ch2,ch3,ch5,is_pause
7.716208219528198,-400000.0625,-1611.4200439453125,-5819.419921875,-400000.0625,-5459.4501953125,-400000.0625,-19531.630859375,-400000.0625
timestamp,ch7,ch2,ch3,ch5,is_pause
7.731399774551392,-400000.0625,-1653.47998046875,-5853.31982421875,-400000.0625,-5505.7099609375,-400000.0625,-19581.419921875,-400000.0625
timestamp,ch7,ch2,ch3,ch5,is_pause
7.741978168487549,-400000.0625,-1650.52001953125,-5845.740234375,-400000.0625,-5504.22998046875,-400000.0625,-19572.310546875,-400000.0625
timestamp,ch7,ch2,ch3,ch5,is_pause
7.749691724777222,-400000.0625,-1592.449951171875,-5795.18994140625,-400000.0625,-5455.2998046875,-400000.0625,-19516.380859375,-400000.0625
timestamp,ch7,ch2,ch3,ch5,is_pause
timestamp,ch7,ch2,ch3,ch5,is_pause
7.782015562057495,-400000.0625,-1559.969970703125,-5772.16015625,-400000.0625,-5423.64013671875,-400000.0625,-19489.33984375,-400000.0625
timestamp,ch7,ch2,ch3,ch5,is_pause
7.794543266296387,-400000.0625,-1595.1199951171875,-5807.02001953125,-400000.0625,-5455.58984375,-400000.0625,-19527.390625,-400000.0625
timestamp,ch7,ch2,ch3,ch5,is_pause
7.807579755783081,-400000.0625,-1648.8599853515625,-5853.3701171875,-400000.0625,-5505.89990234375,-400000.0625,-19578.3203125,-400000.0625
timestamp,ch7,ch2,ch3,ch5,is_pause
7.8165504932403564,-400000.0625,-1645.9000244140625,-5845.740234375,-400000.0625,-5500.27001953125,-400000.0625,-19573.740234375,-400000.0625
timestamp,ch7,ch2,ch3,ch5,is_pause
7.828184127807617,-400000.0625,-1595.31005859375,-5797.009765625,-400000.0625,-5447.2001953125,-400000.0625,-19521.2890625,-400000.0625
timestamp,ch7,ch2,ch3,ch5,is_pause
7.840381860733032,-400000.0625,-1559.5899658203125,-5771.68994140625,-400000.0625,-5424.02001953125,-400000.0625,-19488.099609375,-400000.0625
timestamp,ch7,ch2,ch3,ch5,is_pause
7.8485267162323,-400000.0625,-1596.1199951171875,-5808.64013671875,-400000.0625,-5461.06982421875,-400000.0625,-19526.9609375,-400000.0625
timestamp,ch7,ch2,ch3,ch5,is_pause
7.860403776168823,-400000.0625,-1654.9100341796875,-5855.93994140625,-400000.0625,-5511.47998046875,-400000.0625,-19585.470703125,-400000.0625
timestamp,ch7,ch2,ch3,ch5,is_pause
timestamp,ch7,ch2,ch3,ch5,is_pause
timestamp,ch7,ch2,ch3,ch5,is_pause
7.903358697891235,-400000.0625,-1648.0,-5846.740234375,-400000.0625,-5505.509765625,-400000.0625,-19578.55078125,-400000.0625
timestamp,ch7,ch2,ch3,ch5,is_pause
7.912922620773315,-400000.0625,-1592.6800537109375,-5799.10009765625,-400000.0625,-5454.10986328125,-400000.0625,-19518.23046875,-400000.0625
timestamp,ch7,ch2,ch3,ch5,is_pause
7.926912784576416,-400000.0625,-1567.8900146484375,-5779.4599609375,-400000.0625,-5434.0400390625,-400000.0625,-19499.830078125,-400000.0625
timestamp,ch7,ch2,ch3,ch5,is_pause
7.938128709793091,-400000.0625,-1600.739990234375,-5813.97998046875,-400000.0625,-5464.7001953125,-400000.0625,-19534.44921875,-400000.0625
timestamp,ch7,ch2,ch3,ch5,is_pause
7.948369264602661,-400000.0625,-1652.3399658203125,-5858.89990234375,-400000.0625,-5505.7998046875,-400000.0625,-19584.75,-400000.0625
timestamp,ch7,ch2,ch3,ch5,is_pause
7.962132215499878,-400000.0625,-1649.81005859375,-5851.31982421875,-400000.0625,-5498.509765625,-400000.0625,-19581.080078125,-400000.0625
timestamp,ch7,ch2,ch3,ch5,is_pause
timestamp,ch7,ch2,ch3,ch5,is_pause
7.993295192718506,-400000.0625,-1598.9300537109375,-5810.64013671875,-400000.0625,-5450.68017578125,-400000.0625,-19531.869140625,-400000.0625
timestamp,ch7,ch2,ch3,ch5,is_pause
timestamp,ch7,ch2,ch3,ch5,is_pause
8.008883237838745,-400000.0625,-1573.1800537109375,-5788.759765625,-400000.0625,-5425.7900390625,-400000.0625,-19500.640625,-400000.0625
8.017602682113647,-400000.0625,-1602.6500244140625,-5819.0400390625,-400000.0625,-5460.31005859375,-400000.0625,-19535.640625,-400000.0625
timestamp,ch7,ch2,ch3,ch5,is_pause
timestamp,ch7,ch2,ch3,ch5,is_pause
8.034317255020142,-400000.0625,-1653.239990234375,-5860.14013671875,-400000.0625,-5508.18994140625,-400000.0625,-19584.75,-400000.0625
timestamp,ch7,ch2,ch3,ch5,is_pause
8.048102140426636,-400000.0625,-1653.3900146484375,-5856.60986328125,-400000.0625,-5503.0400390625,-400000.0625,-19586.609375,-400000.0625
timestamp,ch7,ch2,ch3,ch5,is_pause
8.060100078582764,-400000.0625,-1599.1199951171875,-5808.4501953125,-400000.0625,-5453.2099609375,-400000.0625,-19533.349609375,-400000.0625
timestamp,ch7,ch2,ch3,ch5,is_pause
8.071182250976562,-400000.0625,-1570.0799560546875,-5784.4599609375,-400000.0625,-5427.5498046875,-400000.0625,-19502.740234375,-400000.0625
timestamp,ch7,ch2,ch3,ch5,is_pause
timestamp,ch7,ch2,ch3,ch5,is_pause
8.106420993804932,-400000.0625,-1594.9300537109375,-5812.97998046875,-400000.0625,-5460.41015625,-400000.0625,-19531.779296875,-400000.0625
timestamp,ch7,ch2,ch3,ch5,is_pause
8.115129709243774,-400000.0625,-1650.52001953125,-5855.7998046875,-400000.0625,-5511.08984375,-400000.0625,-19586.94921875,-400000.0625
timestamp,ch7,ch2,ch3,ch5,is_pause
8.13296627998352,-400000.0625,-1649.6700439453125,-5851.83984375,-400000.0625,-5505.66015625,-400000.0625,-19582.69921875,-400000.0625
timestamp,ch7,ch2,ch3,ch5,is_pause
8.14493703842163,-400000.0625,-1596.02001953125,-5807.16015625,-400000.0625,-5454.02001953125,-400000.0625,-19529.150390625,-400000.0625
timestamp,ch7,ch2,ch3,ch5,is_pause
8.155014753341675,-400000.0625,-1567.7900390625,-5780.75,-400000.0625,-5421.97021484375,-400000.0625,-19502.0703125,-400000.0625
timestamp,ch7,ch2,ch3,ch5,is_pause
8.167445182800293,-400000.0625,-1604.27001953125,-5818.990234375,-400000.0625,-5458.64013671875,-400000.0625,-19537.0703125,-400000.0625
timestamp,ch7,ch2,ch3,ch5,is_pause
8.179747343063354,-400000.0625,-1659.010009765625,-5869.91015625,-400000.0625,-5508.60986328125,-400000.0625,-19595.630859375,-400000.0625
timestamp,ch7,ch2,ch3,ch5,is_pause
timestamp,ch7,ch2,ch3,ch5,is_pause
timestamp,ch7,ch2,ch3,ch5,is_pause
8.217520713806152,-400000.0625,-1653.4300537109375,-5861.330078125,-400000.0625,-5499.60009765625,-400000.0625,-19591.48046875,-400000.0625
timestamp,ch7,ch2,ch3,ch5,is_pause
8.232280015945435,-400000.0625,-1604.4100341796875,-5815.5498046875,-400000.0625,-5453.2099609375,-400000.0625,-19538.740234375,-400000.0625
timestamp,ch7,ch2,ch3,ch5,is_pause
8.245830535888672,-400000.0625,-1574.800048828125,-5792.43017578125,-400000.0625,-5431.02978515625,-400000.0625,-19511.080078125,-400000.0625
timestamp,ch7,ch2,ch3,ch5,is_pause
8.259426832199097,-400000.0625,-1608.280029296875,-5826.56982421875,-400000.0625,-5467.1298828125,-400000.0625,-19544.560546875,-400000.0625
timestamp,ch7,ch2,ch3,ch5,is_pause
timestamp,ch7,ch2,ch3,ch5,is_pause
8.275616884231567,-400000.0625,-1659.8199462890625,-5871.2998046875,-400000.0625,-5513.330078125,-400000.0625,-19600.349609375,-400000.0625
8.283907413482666,-400000.0625,-1656.43994140625,-5862.6201171875,-400000.0625,-5504.22998046875,-400000.0625,-19595.580078125,-400000.0625
timestamp,ch7,ch2,ch3,ch5,is_pause
timestamp,ch7,ch2,ch3,ch5,is_pause
timestamp,ch7,ch2,ch3,ch5,is_pause
timestamp,ch7,ch2,ch3,ch5,is_pause
8.324841499328613,-400000.0625,-1599.5,-5810.740234375,-400000.0625,-5455.58984375,-400000.0625,-19538.740234375,-400000.0625
timestamp,ch7,ch2,ch3,ch5,is_pause
8.336865663528442,-400000.0625,-1570.27001953125,-5787.60986328125,-400000.0625,-5426.02978515625,-400000.0625,-19508.029296875,-400000.0625
timestamp,ch7,ch2,ch3,ch5,is_pause
8.347436428070068,-400000.0625,-1611.1400146484375,-5827.14013671875,-400000.0625,-5464.1298828125,-400000.0625,-19547.419921875,-400000.0625
timestamp,ch7,ch2,ch3,ch5,is_pause
8.357893228530884,-400000.0625,-1665.780029296875,-5872.06005859375,-400000.0625,-5508.9501953125,-400000.0625,-19600.25,-400000.0625
timestamp,ch7,ch2,ch3,ch5,is_pause
8.369525671005249,-400000.0625,-1659.25,-5859.14013671875,-400000.0625,-5504.75,-400000.0625,-19589.900390625,-400000.0625
8.377857685089111,-400000.0625,-1598.9300537109375,-5808.2099609375,-400000.0625,-5457.2099609375,-400000.0625,-19532.060546875,-400000.0625
timestamp,ch7,ch2,ch3,ch5,is_pause
8.389866590499878,-400000.0625,-1574.280029296875,-5789.85009765625,-400000.0625,-5433.60986328125,-400000.0625,-19507.119140625,-400000.0625
timestamp,ch7,ch2,ch3,ch5,is_pause
timestamp,ch7,ch2,ch3,ch5,is_pause
timestamp,ch7,ch2,ch3,ch5,is_pause
8.424690961837769,-400000.0625,-1614.1400146484375,-5830.669921875,-400000.0625,-5468.31982421875,-400000.0625,-19546.83984375,-400000.0625
timestamp,ch7,ch2,ch3,ch5,is_pause
8.43839406967163,-400000.0625,-1662.1099853515625,-5870.52978515625,-400000.0625,-5507.3701171875,-400000.0625,-19593.33984375,-400000.0625
timestamp,ch7,ch2,ch3,ch5,is_pause
8.448187589645386,-400000.0625,-1652.9100341796875,-5856.31982421875,-400000.0625,-5494.64013671875,-400000.0625,-19588.330078125,-400000.0625
timestamp,ch7,ch2,ch3,ch5,is_pause
8.461092710494995,-400000.0625,-1603.7900390625,-5813.22021484375,-400000.0625,-5452.35009765625,-400000.0625,-19538.640625,-400000.0625
timestamp,ch7,ch2,ch3,ch5,is_pause
8.472781658172607,-400000.0625,-1579.949951171875,-5800.10009765625,-400000.0625,-5435.18017578125,-400000.0625,-19510.080078125,-400000.0625
timestamp,ch7,ch2,ch3,ch5,is_pause
8.480936288833618,-400000.0625,-1612.8499755859375,-5833.009765625,-400000.0625,-5466.7998046875,-400000.0625,-19543.890625,-400000.0625
timestamp,ch7,ch2,ch3,ch5,is_pause
8.4920334815979,-400000.0625,-1666.739990234375,-5875.97021484375,-400000.0625,-5515.6201171875,-400000.0625,-19596.150390625,-400000.0625
timestamp,ch7,ch2,ch3,ch5,is_pause
timestamp,ch7,ch2,ch3,ch5,is_pause
timestamp,ch7,ch2,ch3,ch5,is_pause
8.529802799224854,-400000.0625,-1665.3499755859375,-5869.6298828125,-400000.0625,-5510.759765625,-400000.0625,-19593.2890625,-400000.0625
timestamp,ch7,ch2,ch3,ch5,is_pause
8.541927576065063,-400000.0625,-1607.6099853515625,-5821.31982421875,-400000.0625,-5461.5498046875,-400000.0625,-19541.080078125,-400000.0625
timestamp,ch7,ch2,ch3,ch5,is_pause
8.550471067428589,-400000.0625,-1581.6700439453125,-5802.009765625,-400000.0625,-5436.56005859375,-400000.0625,-19511.75,-400000.0625
8.560597896575928,-400000.0625,-1617.3800048828125,-5835.52978515625,-400000.0625,-5466.02978515625,-400000.0625,-19552.810546875,-400000.0625
timestamp,ch7,ch2,ch3,ch5,is_pause
8.572248458862305,-400000.0625,-1663.449951171875,-5874.830078125,-400000.0625,-5507.89990234375,-400000.0625,-19601.970703125,-400000.0625
timestamp,ch7,ch2,ch3,ch5,is_pause
8.580920457839966,-400000.0625,-1655.9599609375,-5859.7998046875,-400000.0625,-5500.35986328125,-400000.0625,-19583.75,-400000.0625
timestamp,ch7,ch2,ch3,ch5,is_pause
8.593821287155151,-400000.0625,-1603.8900146484375,-5813.41015625,-400000.0625,-5450.81982421875,-400000.0625,-19527.630859375,-400000.0625
timestamp,ch7,ch2,ch3,ch5,is_pause
timestamp,ch7,ch2,ch3,ch5,is_pause
timestamp,ch7,ch2,ch3,ch5,is_pause
8.627131462097168,-400000.0625,-1574.4200439453125,-5796.43017578125,-400000.0625,-5432.56005859375,-400000.0625,-19509.560546875,-400000.0625
timestamp,ch7,ch2,ch3,ch5,is_pause
8.642294883728027,-400000.0625,-1620.1500244140625,-5837.68017578125,-400000.0625,-5470.7099609375,-400000.0625,-19548.849609375,-400000.0625
timestamp,ch7,ch2,ch3,ch5,is_pause
8.651145219802856,-400000.0625,-1670.0699462890625,-5877.58984375,-400000.0625,-5519.9599609375,-400000.0625,-19602.73046875,-400000.0625
timestamp,ch7,ch2,ch3,ch5,is_pause
8.666532754898071,-400000.0625,-1655.1500244140625,-5862.56982421875,-400000.0625,-5509.14013671875,-400000.0625,-19588.23046875,-400000.0625
timestamp,ch7,ch2,ch3,ch5,is_pause
8.679319858551025,-400000.0625,-1601.1199951171875,-5816.1298828125,-400000.0625,-5453.58984375,-400000.0625,-19533.58984375,-400000.0625
timestamp,ch7,ch2,ch3,ch5,is_pause
8.691069602966309,-400000.0625,-1571.4599609375,-5794.3798828125,-400000.0625,-5429.1298828125,-400000.0625,-19503.9296875,-400000.0625
timestamp,ch7,ch2,ch3,ch5,is_pause
8.700147867202759,-400000.0625,-1603.7900390625,-5827.85986328125,-400000.0625,-5462.22021484375,-400000.0625,-19538.44921875,-400000.0625
timestamp,ch7,ch2,ch3,ch5,is_pause
timestamp,ch7,ch2,ch3,ch5,is_pause
8.733135223388672,-400000.0625,-1660.969970703125,-5874.72998046875,-400000.0625,-5507.52001953125,-400000.0625,-19593.5703125,-400000.0625
timestamp,ch7,ch2,ch3,ch5,is_pause
8.745354890823364,-400000.0625,-1658.72998046875,-5869.47998046875,-400000.0625,-5506.990234375,-400000.0625,-19591.759765625,-400000.0625
timestamp,ch7,ch2,ch3,ch5,is_pause
8.75764799118042,-400000.0625,-1608.3199462890625,-5822.66015625,-400000.0625,-5461.97998046875,-400000.0625,-19532.779296875,-400000.0625
timestamp,ch7,ch2,ch3,ch5,is_pause
8.770813465118408,-400000.0625,-1580.239990234375,-5800.81982421875,-400000.0625,-5433.31982421875,-400000.0625,-19506.169921875,-400000.0625
timestamp,ch7,ch2,ch3,ch5,is_pause
8.780497074127197,-400000.0625,-1613.0899658203125,-5832.47998046875,-400000.0625,-5463.4599609375,-400000.0625,-19540.740234375,-400000.0625
timestamp,ch7,ch2,ch3,ch5,is_pause
8.795466661453247,-400000.0625,-1662.6800537109375,-5874.68017578125,-400000.0625,-5513.9501953125,-400000.0625,-19589.189453125,-400000.0625
timestamp,ch7,ch2,ch3,ch5,is_pause
8.806053638458252,-400000.0625,-1659.5400390625,-5867.47998046875,-400000.0625,-5505.75,-400000.0625,-19584.470703125,-400000.0625
timestamp,ch7,ch2,ch3,ch5,is_pause
timestamp,ch7,ch2,ch3,ch5,is_pause
8.83715534210205,-400000.0625,-1611.0899658203125,-5825.81005859375,-400000.0625,-5456.72998046875,-400000.0625,-19540.650390625,-400000.0625
timestamp,ch7,ch2,ch3,ch5,is_pause
8.847076654434204,-400000.0625,-1585.050048828125,-5807.10986328125,-400000.0625,-5431.27001953125,-400000.0625,-19511.560546875,-400000.0625
timestamp,ch7,ch2,ch3,ch5,is_pause
8.858246564865112,-400000.0625,-1617.77001953125,-5835.009765625,-400000.0625,-5464.83984375,-400000.0625,-19537.01953125,-400000.0625
timestamp,ch7,ch2,ch3,ch5,is_pause
8.8710298538208,-400000.0625,-1666.4000244140625,-5879.740234375,-400000.0625,-5516.9599609375,-400000.0625,-19587.810546875,-400000.0625
timestamp,ch7,ch2,ch3,ch5,is_pause
8.880511999130249,-400000.0625,-1662.6800537109375,-5873.919921875,-400000.0625,-5514.85986328125,-400000.0625,-19581.080078125,-400000.0625
timestamp,ch7,ch2,ch3,ch5,is_pause
8.894946575164795,-400000.0625,-1613.6199951171875,-5829.47998046875,-400000.0625,-5462.5,-400000.0625,-19525.48046875,-400000.0625
timestamp,ch7,ch2,ch3,ch5,is_pause
8.904255628585815,-400000.0625,-1584.239990234375,-5803.43994140625,-400000.0625,-5431.89013671875,-400000.0625,-19495.580078125,-400000.0625
timestamp,ch7,ch2,ch3,ch5,is_pause
8.913053750991821,-400000.0625,-1619.8599853515625,-5838.009765625,-400000.0625,-5471.990234375,-400000.0625,-19533.44921875,-400000.0625
timestamp,ch7,ch2,ch3,ch5,is_pause
timestamp,ch7,ch2,ch3,ch5,is_pause
8.947572231292725,-400000.0625,-1672.7900390625,-5885.5498046875,-400000.0625,-5520.68017578125,-400000.0625,-19587.759765625,-400000.0625
timestamp,ch7,ch2,ch3,ch5,is_pause
8.96246600151062,-400000.0625,-1660.9200439453125,-5872.77001953125,-400000.0625,-5509.330078125,-400000.0625,-19580.130859375,-400000.0625
timestamp,ch7,ch2,ch3,ch5,is_pause
8.977116346359253,-400000.0625,-1606.6600341796875,-5824.47021484375,-400000.0625,-5457.31005859375,-400000.0625,-19525.76953125,-400000.0625
timestamp,ch7,ch2,ch3,ch5,is_pause
8.98771595954895,-400000.0625,-1579.1400146484375,-5804.58984375,-400000.0625,-5436.9501953125,-400000.0625,-19497.830078125,-400000.0625
timestamp,ch7,ch2,ch3,ch5,is_pause
timestamp,ch7,ch2,ch3,ch5,is_pause
9.010152101516724,-400000.0625,-1619.719970703125,-5843.5400390625,-400000.0625,-5469.75,-400000.0625,-19534.689453125,-400000.0625
timestamp,ch7,ch2,ch3,ch5,is_pause
9.02038025856018,-400000.0625,-1670.31005859375,-5887.41015625,-400000.0625,-5518.009765625,-400000.0625,-19584.7109375,-400000.0625
timestamp,ch7,ch2,ch3,ch5,is_pause
timestamp,ch7,ch2,ch3,ch5,is_pause
9.052985906600952,-400000.0625,-1666.6400146484375,-5877.830078125,-400000.0625,-5512.43017578125,-400000.0625,-19575.9296875,-400000.0625
timestamp,ch7,ch2,ch3,ch5,is_pause
9.065410137176514,-400000.0625,-1616.530029296875,-5833.2900390625,-400000.0625,-5466.990234375,-400000.0625,-19522.240234375,-400000.0625
timestamp,ch7,ch2,ch3,ch5,is_pause
9.075396537780762,-400000.0625,-1587.300048828125,-5814.080078125,-400000.0625,-5446.52978515625,-400000.0625,-19492.720703125,-400000.0625
timestamp,ch7,ch2,ch3,ch5,is_pause
9.087680339813232,-400000.0625,-1629.9200439453125,-5849.41015625,-400000.0625,-5475.6201171875,-400000.0625,-19526.19921875,-400000.0625
timestamp,ch7,ch2,ch3,ch5,is_pause
9.103535413742065,-400000.0625,-1680.3299560546875,-5892.75,-400000.0625,-5517.43994140625,-400000.0625,-19580.650390625,-400000.0625
timestamp,ch7,ch2,ch3,ch5,is_pause
9.112998008728027,-400000.0625,-1677.3199462890625,-5889.18017578125,-400000.0625,-5516.580078125,-400000.0625,-19577.55078125,-400000.0625
timestamp,ch7,ch2,ch3,ch5,is_pause
9.124155521392822,-400000.0625,-1630.3499755859375,-5847.68994140625,-400000.0625,-5473.9501953125,-400000.0625,-19523.810546875,-400000.0625
timestamp,ch7,ch2,ch3,ch5,is_pause
timestamp,ch7,ch2,ch3,ch5,is_pause
timestamp,ch7,ch2,ch3,ch5,is_pause
timestamp,ch7,ch2,ch3,ch5,is_pause
9.16883397102356,-400000.0625,-1596.3599853515625,-5822.7099609375,-400000.0625,-5442.47998046875,-400000.0625,-19491.76953125,-400000.0625
timestamp,ch7,ch2,ch3,ch5,is_pause
9.18192172050476,-400000.0625,-1630.8299560546875,-5852.4599609375,-400000.0625,-5474.52001953125,-400000.0625,-19520.619140625,-400000.0625
timestamp,ch7,ch2,ch3,ch5,is_pause
9.193833589553833,-400000.0625,-1680.949951171875,-5894.27978515625,-400000.0625,-5519.81982421875,-400000.0625,-19571.2109375,-400000.0625
timestamp,ch7,ch2,ch3,ch5,is_pause
9.205254077911377,-400000.0625,-1681.800048828125,-5893.759765625,-400000.0625,-5520.8701171875,-400000.0625,-19568.919921875,-400000.0625
9.214831829071045,-400000.0625,-1629.9200439453125,-5846.02001953125,-400000.0625,-5468.18017578125,-400000.0625,-19513.900390625,-400000.0625
timestamp,ch7,ch2,ch3,ch5,is_pause
timestamp,ch7,ch2,ch3,ch5,is_pause
9.234360218048096,-400000.0625,-1601.0799560546875,-5824.419921875,-400000.0625,-5442.330078125,-400000.0625,-19487.189453125,-400000.0625
timestamp,ch7,ch2,ch3,ch5,is_pause
timestamp,ch7,ch2,ch3,ch5,is_pause
timestamp,ch7,ch2,ch3,ch5,is_pause
9.274893522262573,-400000.0625,-1635.5999755859375,-5860.14013671875,-400000.0625,-5475.27978515625,-400000.0625,-19522.859375,-400000.0625
timestamp,ch7,ch2,ch3,ch5,is_pause
9.28380560874939,-400000.0625,-1690.77001953125,-5905.06005859375,-400000.0625,-5525.4501953125,-400000.0625,-19576.41015625,-400000.0625
timestamp,ch7,ch2,ch3,ch5,is_pause
9.298931360244751,-400000.0625,-1681.7099609375,-5897.9501953125,-400000.0625,-5522.10986328125,-400000.0625,-19568.30078125,-400000.0625
timestamp,ch7,ch2,ch3,ch5,is_pause
9.308316469192505,-400000.0625,-1623.1500244140625,-5845.169921875,-400000.0625,-5463.22021484375,-400000.0625,-19501.44921875,-400000.0625
timestamp,ch7,ch2,ch3,ch5,is_pause
9.318924188613892,-400000.0625,-1594.3499755859375,-5822.330078125,-400000.0625,-5439.18994140625,-400000.0625,-19479.7109375,-400000.0625
timestamp,ch7,ch2,ch3,ch5,is_pause
9.33140516281128,-400000.0625,-1640.1800537109375,-5864.0498046875,-400000.0625,-5478.759765625,-400000.0625,-19521.48046875,-400000.0625
timestamp,ch7,ch2,ch3,ch5,is_pause
9.343218088150024,-400000.0625,-1690.8199462890625,-5910.25,-400000.0625,-5525.68994140625,-400000.0625,-19570.400390625,-400000.0625
timestamp,ch7,ch2,ch3,ch5,is_pause
timestamp,ch7,ch2,ch3,ch5,is_pause
timestamp,ch7,ch2,ch3,ch5,is_pause
9.381016254425049,-400000.0625,-1680.760009765625,-5894.759765625,-400000.0625,-5513.85986328125,-400000.0625,-19555.5703125,-400000.0625
timestamp,ch7,ch2,ch3,ch5,is_pause
9.392759561538696,-400000.0625,-1625.1600341796875,-5846.35986328125,-400000.0625,-5464.1298828125,-400000.0625,-19502.740234375,-400000.0625
timestamp,ch7,ch2,ch3,ch5,is_pause
9.4064781665802,-400000.0625,-1604.75,-5835.580078125,-400000.0625,-5441.89990234375,-400000.0625,-19480.560546875,-400000.0625
timestamp,ch7,ch2,ch3,ch5,is_pause
9.415657043457031,-400000.0625,-1643.3699951171875,-5867.43017578125,-400000.0625,-5477.0498046875,-400000.0625,-19513.69921875,-400000.0625
9.425413370132446,-400000.0625,-1695.72998046875,-5914.93017578125,-400000.0625,-5527.64013671875,-400000.0625,-19564.33984375,-400000.0625
timestamp,ch7,ch2,ch3,ch5,is_pause
timestamp,ch7,ch2,ch3,ch5,is_pause
9.440868139266968,-400000.0625,-1695.1600341796875,-5907.8701171875,-400000.0625,-5523.77978515625,-400000.0625,-19559.859375,-400000.0625
9.449440240859985,-400000.0625,-1650.52001953125,-5852.509765625,-400000.0625,-5467.18017578125,-400000.0625,-19497.439453125,-400000.0625
timestamp,ch7,ch2,ch3,ch5,is_pause
timestamp,ch7,ch2,ch3,ch5,is_pause
timestamp,ch7,ch2,ch3,ch5,is_pause
9.484096765518188,-400000.0625,-1637.1700439453125,-5820.85009765625,-400000.0625,-5439.7099609375,-400000.0625,-19460.009765625,-400000.0625
timestamp,ch7,ch2,ch3,ch5,is_pause
9.501423120498657,-400000.0625,-1683.3299560546875,-5869.68017578125,-400000.0625,-5482.2900390625,-400000.0625,-19498.640625,-400000.0625
timestamp,ch7,ch2,ch3,ch5,is_pause
9.512672901153564,-400000.0625,-1743.8399658203125,-5921.31982421875,-400000.0625,-5528.39990234375,-400000.0625,-19561.630859375,-400000.0625
timestamp,ch7,ch2,ch3,ch5,is_pause
9.524316310882568,-400000.0625,-1721.47998046875,-5889.60986328125,-400000.0625,-5501.22021484375,-400000.0625,-19570.689453125,-400000.0625
timestamp,ch7,ch2,ch3,ch5,is_pause
9.538014888763428,-400000.0625,-1663.4000244140625,-5849.169921875,-400000.0625,-5438.60986328125,-400000.0625,-19524.05078125,-400000.0625
timestamp,ch7,ch2,ch3,ch5,is_pause
9.54665732383728,-400000.0625,-1645.1800537109375,-5847.8798828125,-400000.0625,-5416.97021484375,-400000.0625,-19521.51953125,-400000.0625
timestamp,ch7,ch2,ch3,ch5,is_pause
9.559414148330688,-400000.0625,-1722.0999755859375,-5893.759765625,-400000.0625,-5442.14013671875,-400000.0625,-19577.9296875,-400000.0625
timestamp,ch7,ch2,ch3,ch5,is_pause
timestamp,ch7,ch2,ch3,ch5,is_pause
9.592283725738525,-400000.0625,-1747.56005859375,-5932.14013671875,-400000.0625,-5464.93994140625,-400000.0625,-19636.25,-400000.0625
timestamp,ch7,ch2,ch3,ch5,is_pause
9.603641986846924,-400000.0625,-1745.219970703125,-5939.39013671875,-400000.0625,-5438.18994140625,-400000.0625,-19687.609375,-400000.0625
timestamp,ch7,ch2,ch3,ch5,is_pause
9.612456798553467,-400000.0625,-1740.27001953125,-5910.5400390625,-400000.0625,-5374.43017578125,-400000.0625,-19684.3203125,-400000.0625
timestamp,ch7,ch2,ch3,ch5,is_pause
9.621437072753906,-400000.0625,-1769.3499755859375,-5901.6201171875,-400000.0625,-5333.9501953125,-400000.0625,-19701.2890625,-400000.0625
timestamp,ch7,ch2,ch3,ch5,is_pause
9.636083126068115,-400000.0625,-1863.18994140625,-5945.97021484375,-400000.0625,-5359.27001953125,-400000.0625,-19783.119140625,-400000.0625
timestamp,ch7,ch2,ch3,ch5,is_pause
9.647494077682495,-400000.0625,-1967.2900390625,-5998.56005859375,-400000.0625,-5393.83984375,-400000.0625,-19880.8203125,-400000.0625
timestamp,ch7,ch2,ch3,ch5,is_pause
9.658927202224731,-400000.0625,-2014.5400390625,-6008.669921875,-400000.0625,-5367.85009765625,-400000.0625,-19944.529296875,-400000.0625
9.668393611907959,-400000.0625,-2012.010009765625,-5967.240234375,-400000.0625,-5301.81005859375,-400000.0625,-19937.369140625,-400000.0625
timestamp,ch7,ch2,ch3,ch5,is_pause
timestamp,ch7,ch2,ch3,ch5,is_pause
timestamp,ch7,ch2,ch3,ch5,is_pause
9.70517349243164,-400000.0625,-2019.550048828125,-5940.68017578125,-400000.0625,-5265.7099609375,-400000.0625,-19946.150390625,-400000.0625
timestamp,ch7,ch2,ch3,ch5,is_pause
9.714963436126709,-400000.0625,-2100.22998046875,-5969.0,-400000.0625,-5293.89013671875,-400000.0625,-20014.859375,-400000.0625
timestamp,ch7,ch2,ch3,ch5,is_pause
9.731293201446533,-400000.0625,-2203.800048828125,-6016.58984375,-400000.0625,-5325.64990234375,-400000.0625,-20116.189453125,-400000.0625
timestamp,ch7,ch2,ch3,ch5,is_pause
9.741729021072388,-400000.0625,-2214.429931640625,-5997.08984375,-400000.0625,-5306.669921875,-400000.0625,-20144.0390625,-400000.0625
timestamp,ch7,ch2,ch3,ch5,is_pause
9.749102592468262,-400000.0625,-2162.64990234375,-5927.330078125,-400000.0625,-5247.77978515625,-400000.0625,-20106.560546875,-400000.0625
timestamp,ch7,ch2,ch3,ch5,is_pause
9.763923645019531,-400000.0625,-2136.800048828125,-5888.1298828125,-400000.0625,-5223.22998046875,-400000.0625,-20099.44921875,-400000.0625
timestamp,ch7,ch2,ch3,ch5,is_pause
9.774720668792725,-400000.0625,-2170.0400390625,-5907.97021484375,-400000.0625,-5267.18994140625,-400000.0625,-20158.439453125,-400000.0625
timestamp,ch7,ch2,ch3,ch5,is_pause
timestamp,ch7,ch2,ch3,ch5,is_pause
timestamp,ch7,ch2,ch3,ch5,is_pause
9.811793804168701,-400000.0625,-2210.429931640625,-5939.33984375,-400000.0625,-5320.60009765625,-400000.0625,-20224.619140625,-400000.0625
timestamp,ch7,ch2,ch3,ch5,is_pause
9.821260929107666,-400000.0625,-2182.9599609375,-5910.58984375,-400000.0625,-5314.259765625,-400000.0625,-20230.720703125,-400000.0625
timestamp,ch7,ch2,ch3,ch5,is_pause
9.83726167678833,-400000.0625,-2098.85009765625,-5835.580078125,-400000.0625,-5246.35009765625,-400000.0625,-20180.1796875,-400000.0625
timestamp,ch7,ch2,ch3,ch5,is_pause
9.846807718276978,-400000.0625,-2053.550048828125,-5803.39990234375,-400000.0625,-5223.419921875,-400000.0625,-20164.919921875,-400000.0625
timestamp,ch7,ch2,ch3,ch5,is_pause
9.858287572860718,-400000.0625,-2073.3798828125,-5825.66015625,-400000.0625,-5268.18994140625,-400000.0625,-20209.740234375,-400000.0625
timestamp,ch7,ch2,ch3,ch5,is_pause
9.86937165260315,-400000.0625,-2085.590087890625,-5843.830078125,-400000.0625,-5313.43994140625,-400000.0625,-20259.859375,-400000.0625
timestamp,ch7,ch2,ch3,ch5,is_pause
9.87938666343689,-400000.0625,-2046.199951171875,-5821.7099609375,-400000.0625,-5314.490234375,-400000.0625,-20259.810546875,-400000.0625
timestamp,ch7,ch2,ch3,ch5,is_pause
timestamp,ch7,ch2,ch3,ch5,is_pause
timestamp,ch7,ch2,ch3,ch5,is_pause
9.913844585418701,-400000.0625,-1968.530029296875,-5753.14013671875,-400000.0625,-5273.580078125,-400000.0625,-20198.400390625,-400000.0625
9.923206090927124,-400000.0625,-1912.8800048828125,-5712.4599609375,-400000.0625,-5266.0,-400000.0625,-20165.58984375,-400000.0625
timestamp,ch7,ch2,ch3,ch5,is_pause
9.936732292175293,-400000.0625,-1923.1800537109375,-5741.22021484375,-400000.0625,-5308.10009765625,-400000.0625,-20200.919921875,-400000.0625
timestamp,ch7,ch2,ch3,ch5,is_pause
9.949031114578247,-400000.0625,-1956.93994140625,-5780.89013671875,-400000.0625,-5355.7900390625,-400000.0625,-20254.810546875,-400000.0625
timestamp,ch7,ch2,ch3,ch5,is_pause
9.962864398956299,-400000.0625,-1943.8699951171875,-5764.81982421875,-400000.0625,-5356.64990234375,-400000.0625,-20245.220703125,-400000.0625
timestamp,ch7,ch2,ch3,ch5,is_pause
9.973825454711914,-400000.0625,-1868.43994140625,-5706.5498046875,-400000.0625,-5314.68017578125,-400000.0625,-20185.759765625,-400000.0625
timestamp,ch7,ch2,ch3,ch5,is_pause
9.982299566268921,-400000.0625,-1811.27001953125,-5671.02001953125,-400000.0625,-5292.509765625,-400000.0625,-20144.509765625,-400000.0625
timestamp,ch7,ch2,ch3,ch5,is_pause
timestamp,ch7,ch2,ch3,ch5,is_pause
timestamp,ch7,ch2,ch3,ch5,is_pause
10.022972583770752,-400000.0625,-1833.300048828125,-5698.490234375,-400000.0625,-5335.85986328125,-400000.0625,-20181.939453125,-400000.0625
timestamp,ch7,ch2,ch3,ch5,is_pause
10.037373304367065,-400000.0625,-1858.4300537109375,-5725.580078125,-400000.0625,-5388.31005859375,-400000.0625,-20219.08984375,-400000.0625
timestamp,ch7,ch2,ch3,ch5,is_pause
10.045844078063965,-400000.0625,-1833.43994140625,-5709.64990234375,-400000.0625,-5388.06982421875,-400000.0625,-20205.119140625,-400000.0625
timestamp,ch7,ch2,ch3,ch5,is_pause
10.05572247505188,-400000.0625,-1768.8299560546875,-5655.240234375,-400000.0625,-5336.47998046875,-400000.0625,-20137.9296875,-400000.0625
timestamp,ch7,ch2,ch3,ch5,is_pause
10.067452907562256,-400000.0625,-1724.5799560546875,-5625.009765625,-400000.0625,-5315.35009765625,-400000.0625,-20100.640625,-400000.0625
timestamp,ch7,ch2,ch3,ch5,is_pause
10.077071905136108,-400000.0625,-1752.280029296875,-5660.81982421875,-400000.0625,-5356.06982421875,-400000.0625,-20141.650390625,-400000.0625
timestamp,ch7,ch2,ch3,ch5,is_pause
10.092760562896729,-400000.0625,-1791.050048828125,-5700.68017578125,-400000.0625,-5408.0498046875,-400000.0625,-20186.05078125,-400000.0625
timestamp,ch7,ch2,ch3,ch5,is_pause
timestamp,ch7,ch2,ch3,ch5,is_pause
timestamp,ch7,ch2,ch3,ch5,is_pause
10.132057666778564,-400000.0625,-1771.739990234375,-5682.14013671875,-400000.0625,-5403.60986328125,-400000.0625,-20168.119140625,-400000.0625
timestamp,ch7,ch2,ch3,ch5,is_pause
10.142489910125732,-400000.0625,-1704.4100341796875,-5625.81982421875,-400000.0625,-5359.4599609375,-400000.0625,-20104.509765625,-400000.0625
timestamp,ch7,ch2,ch3,ch5,is_pause
10.15016794204712,-400000.0625,-1659.3499755859375,-5597.740234375,-400000.0625,-5331.7998046875,-400000.0625,-20071.939453125,-400000.0625
timestamp,ch7,ch2,ch3,ch5,is_pause
10.163580656051636,-400000.0625,-1697.1600341796875,-5633.4501953125,-400000.0625,-5369.0,-400000.0625,-20109.470703125,-400000.0625
timestamp,ch7,ch2,ch3,ch5,is_pause
10.174638271331787,-400000.0625,-1748.56005859375,-5680.1298828125,-400000.0625,-5423.97998046875,-400000.0625,-20160.25,-400000.0625
timestamp,ch7,ch2,ch3,ch5,is_pause
10.183841943740845,-400000.0625,-1722.47998046875,-5657.240234375,-400000.0625,-5412.2001953125,-400000.0625,-20141.130859375,-400000.0625
timestamp,ch7,ch2,ch3,ch5,is_pause
10.205384731292725,-400000.0625,-1656.6300048828125,-5600.740234375,-400000.0625,-5356.02978515625,-400000.0625,-20076.75,-400000.0625
timestamp,ch7,ch2,ch3,ch5,is_pause
timestamp,ch7,ch2,ch3,ch5,is_pause
timestamp,ch7,ch2,ch3,ch5,is_pause
timestamp,ch7,ch2,ch3,ch5,is_pause
10.24680757522583,-400000.0625,-1623.72998046875,-5578.85009765625,-400000.0625,-5337.47998046875,-400000.0625,-20056.390625,-400000.0625
timestamp,ch7,ch2,ch3,ch5,is_pause
10.264969825744629,-400000.0625,-1663.969970703125,-5620.10009765625,-400000.0625,-5378.91015625,-400000.0625,-20092.30078125,-400000.0625
timestamp,ch7,ch2,ch3,ch5,is_pause
10.2815682888031,-400000.0625,-1718.52001953125,-5667.64013671875,-400000.0625,-5436.419921875,-400000.0625,-20144.890625,-400000.0625
timestamp,ch7,ch2,ch3,ch5,is_pause
timestamp,ch7,ch2,ch3,ch5,is_pause
10.297497510910034,-400000.0625,-1706.8900146484375,-5651.9501953125,-400000.0625,-5424.2099609375,-400000.0625,-20131.5,-400000.0625
timestamp,ch7,ch2,ch3,ch5,is_pause
10.307701110839844,-400000.0625,-1641.0799560546875,-5596.02001953125,-400000.0625,-5367.9501953125,-400000.0625,-20064.98046875,-400000.0625
timestamp,ch7,ch2,ch3,ch5,is_pause
timestamp,ch7,ch2,ch3,ch5,is_pause
timestamp,ch7,ch2,ch3,ch5,is_pause
10.345197200775146,-400000.0625,-1610.8499755859375,-5578.330078125,-400000.0625,-5347.6298828125,-400000.0625,-20038.69921875,-400000.0625
10.353921890258789,-400000.0625,-1655.47998046875,-5620.33984375,-400000.0625,-5394.169921875,-400000.0625,-20079.7109375,-400000.0625
timestamp,ch7,ch2,ch3,ch5,is_pause
timestamp,ch7,ch2,ch3,ch5,is_pause
10.369961500167847,-400000.0625,-1712.1800537109375,-5668.830078125,-400000.0625,-5444.580078125,-400000.0625,-20131.880859375,-400000.0625
10.378453016281128,-400000.0625,-1703.2099609375,-5659.9599609375,-400000.0625,-5435.7998046875,-400000.0625,-20125.529296875,-400000.0625
timestamp,ch7,ch2,ch3,ch5,is_pause
10.387112855911255,-400000.0625,-1639.219970703125,-5601.97998046875,-400000.0625,-5377.52978515625,-400000.0625,-20065.98046875,-400000.0625
timestamp,ch7,ch2,ch3,ch5,is_pause
10.401894807815552,-400000.0625,-1609.3299560546875,-5579.419921875,-400000.0625,-5350.2099609375,-400000.0625,-20030.640625,-400000.0625
timestamp,ch7,ch2,ch3,ch5,is_pause
10.413344383239746,-400000.0625,-1650.1400146484375,-5620.2900390625,-400000.0625,-5395.75,-400000.0625,-20070.130859375,-400000.0625
timestamp,ch7,ch2,ch3,ch5,is_pause
timestamp,ch7,ch2,ch3,ch5,is_pause
timestamp,ch7,ch2,ch3,ch5,is_pause
10.449012517929077,-400000.0625,-1708.7900390625,-5670.41015625,-400000.0625,-5442.330078125,-400000.0625,-20129.830078125,-400000.0625
timestamp,ch7,ch2,ch3,ch5,is_pause
10.464482545852661,-400000.0625,-1694.489990234375,-5648.89990234375,-400000.0625,-5428.509765625,-400000.0625,-20113.279296875,-400000.0625
timestamp,ch7,ch2,ch3,ch5,is_pause
10.475844383239746,-400000.0625,-1628.1099853515625,-5593.830078125,-400000.0625,-5381.490234375,-400000.0625,-20054.33984375,-400000.0625
timestamp,ch7,ch2,ch3,ch5,is_pause
10.483495473861694,-400000.0625,-1598.02001953125,-5573.60986328125,-400000.0625,-5360.31982421875,-400000.0625,-20026.400390625,-400000.0625
timestamp,ch7,ch2,ch3,ch5,is_pause
10.49957013130188,-400000.0625,-1652.0999755859375,-5619.81005859375,-400000.0625,-5397.60986328125,-400000.0625,-20070.890625,-400000.0625
timestamp,ch7,ch2,ch3,ch5,is_pause
10.509443759918213,-400000.0625,-1707.8399658203125,-5667.64013671875,-400000.0625,-5441.14013671875,-400000.0625,-20130.6796875,-400000.0625
10.516324758529663,-400000.0625,-1691.199951171875,-5650.18994140625,-400000.0625,-5428.02978515625,-400000.0625,-20113.0390625,-400000.0625
timestamp,ch7,ch2,ch3,ch5,is_pause
timestamp,ch7,ch2,ch3,ch5,is_pause
timestamp,ch7,ch2,ch3,ch5,is_pause
10.549151182174683,-400000.0625,-1630.8800048828125,-5598.58984375,-400000.0625,-5370.47021484375,-400000.0625,-20048.330078125,-400000.0625
timestamp,ch7,ch2,ch3,ch5,is_pause
10.564833402633667,-400000.0625,-1605.3699951171875,-5577.85009765625,-400000.0625,-5346.39013671875,-400000.0625,-20025.109375,-400000.0625
timestamp,ch7,ch2,ch3,ch5,is_pause
10.575015306472778,-400000.0625,-1642.8499755859375,-5614.47021484375,-400000.0625,-5395.990234375,-400000.0625,-20066.220703125,-400000.0625
timestamp,ch7,ch2,ch3,ch5,is_pause
10.584478616714478,-400000.0625,-1702.8299560546875,-5665.72998046875,-400000.0625,-5447.52978515625,-400000.0625,-20121.150390625,-400000.0625
timestamp,ch7,ch2,ch3,ch5,is_pause
10.600831508636475,-400000.0625,-1695.489990234375,-5655.9599609375,-400000.0625,-5433.990234375,-400000.0625,-20110.08984375,-400000.0625
timestamp,ch7,ch2,ch3,ch5,is_pause
10.611702680587769,-400000.0625,-1636.219970703125,-5603.89013671875,-400000.0625,-5376.2001953125,-400000.0625,-20048.0,-400000.0625
timestamp,ch7,ch2,ch3,ch5,is_pause
10.62130880355835,-400000.0625,-1602.5999755859375,-5578.08984375,-400000.0625,-5355.7900390625,-400000.0625,-20020.529296875,-400000.0625
timestamp,ch7,ch2,ch3,ch5,is_pause
timestamp,ch7,ch2,ch3,ch5,is_pause
timestamp,ch7,ch2,ch3,ch5,is_pause
10.657544374465942,-400000.0625,-1646.0899658203125,-5617.2900390625,-400000.0625,-5395.89013671875,-400000.0625,-20062.259765625,-400000.0625
timestamp,ch7,ch2,ch3,ch5,is_pause
10.673786640167236,-400000.0625,-1702.8299560546875,-5667.97021484375,-400000.0625,-5442.669921875,-400000.0625,-20113.849609375,-400000.0625
timestamp,ch7,ch2,ch3,ch5,is_pause
10.681941509246826,-400000.0625,-1689.47998046875,-5651.330078125,-400000.0625,-5426.5,-400000.0625,-20094.109375,-400000.0625
timestamp,ch7,ch2,ch3,ch5,is_pause
10.693532943725586,-400000.0625,-1625.010009765625,-5590.33984375,-400000.0625,-5369.0,-400000.0625,-20033.119140625,-400000.0625
timestamp,ch7,ch2,ch3,ch5,is_pause
10.704890966415405,-400000.0625,-1606.0799560546875,-5580.47021484375,-400000.0625,-5357.7900390625,-400000.0625,-20013.720703125,-400000.0625
timestamp,ch7,ch2,ch3,ch5,is_pause
10.714594841003418,-400000.0625,-1649.9000244140625,-5618.669921875,-400000.0625,-5395.64990234375,-400000.0625,-20054.869140625,-400000.0625
10.723602056503296,-400000.0625,-1702.5,-5669.5498046875,-400000.0625,-5441.240234375,-400000.0625,-20112.80078125,-400000.0625
timestamp,ch7,ch2,ch3,ch5,is_pause
timestamp,ch7,ch2,ch3,ch5,is_pause
timestamp,ch7,ch2,ch3,ch5,is_pause
10.756339073181152,-400000.0625,-1695.969970703125,-5659.14990234375,-400000.0625,-5434.66015625,-400000.0625,-20103.83984375,-400000.0625
timestamp,ch7,ch2,ch3,ch5,is_pause
10.768355131149292,-400000.0625,-1634.31005859375,-5603.02978515625,-400000.0625,-5373.669921875,-400000.0625,-20044.900390625,-400000.0625
timestamp,ch7,ch2,ch3,ch5,is_pause
10.779524087905884,-400000.0625,-1603.1300048828125,-5578.47021484375,-400000.0625,-5348.2998046875,-400000.0625,-20010.859375,-400000.0625
timestamp,ch7,ch2,ch3,ch5,is_pause
10.793252944946289,-400000.0625,-1649.3800048828125,-5625.10986328125,-400000.0625,-5389.5,-400000.0625,-20057.630859375,-400000.0625
timestamp,ch7,ch2,ch3,ch5,is_pause
10.804712295532227,-400000.0625,-1705.27001953125,-5673.41015625,-400000.0625,-5442.10009765625,-400000.0625,-20110.66015625,-400000.0625
timestamp,ch7,ch2,ch3,ch5,is_pause
10.81295108795166,-400000.0625,-1691.43994140625,-5656.240234375,-400000.0625,-5438.14013671875,-400000.0625,-20095.259765625,-400000.0625
10.820924282073975,-400000.0625,-1630.1199951171875,-5604.5498046875,-400000.0625,-5381.39013671875,-400000.0625,-20040.509765625,-400000.0625
timestamp,ch7,ch2,ch3,ch5,is_pause
10.833776712417603,-400000.0625,-1605.56005859375,-5585.39013671875,-400000.0625,-5346.25,-400000.0625,-20013.380859375,-400000.0625
timestamp,ch7,ch2,ch3,ch5,is_pause
timestamp,ch7,ch2,ch3,ch5,is_pause
timestamp,ch7,ch2,ch3,ch5,is_pause
10.870404958724976,-400000.0625,-1647.22998046875,-5623.2001953125,-400000.0625,-5387.5,-400000.0625,-20053.060546875,-400000.0625
timestamp,ch7,ch2,ch3,ch5,is_pause
10.880377769470215,-400000.0625,-1703.5999755859375,-5668.64013671875,-400000.0625,-5441.9501953125,-400000.0625,-20109.26953125,-400000.0625
timestamp,ch7,ch2,ch3,ch5,is_pause
10.891835451126099,-400000.0625,-1698.9200439453125,-5660.10986328125,-400000.0625,-5436.22998046875,-400000.0625,-20096.5390625,-400000.0625
timestamp,ch7,ch2,ch3,ch5,is_pause
10.905649185180664,-400000.0625,-1633.1700439453125,-5606.1298828125,-400000.0625,-5379.06005859375,-400000.0625,-20042.51953125,-400000.0625
timestamp,ch7,ch2,ch3,ch5,is_pause
10.914700984954834,-400000.0625,-1601.030029296875,-5576.3701171875,-400000.0625,-5349.5400390625,-400000.0625,-20020.919921875,-400000.0625
timestamp,ch7,ch2,ch3,ch5,is_pause
10.93041443824768,-400000.0625,-1633.4100341796875,-5609.7001953125,-400000.0625,-5392.27001953125,-400000.0625,-20070.130859375,-400000.0625
timestamp,ch7,ch2,ch3,ch5,is_pause
10.942400932312012,-400000.0625,-1674.8900146484375,-5650.330078125,-400000.0625,-5442.0,-400000.0625,-20128.6796875,-400000.0625
timestamp,ch7,ch2,ch3,ch5,is_pause
timestamp,ch7,ch2,ch3,ch5,is_pause
timestamp,ch7,ch2,ch3,ch5,is_pause
10.975419282913208,-400000.0625,-1663.72998046875,-5632.97021484375,-400000.0625,-5430.89013671875,-400000.0625,-20128.8203125,-400000.0625
10.982975959777832,-400000.0625,-1607.6600341796875,-5566.22021484375,-400000.0625,-5369.81005859375,-400000.0625,-20065.830078125,-400000.0625
timestamp,ch7,ch2,ch3,ch5,is_pause
timestamp,ch7,ch2,ch3,ch5,is_pause
11.001766443252563,-400000.0625,-1569.56005859375,-5535.93994140625,-400000.0625,-5349.830078125,-400000.0625,-20038.029296875,-400000.0625
timestamp,ch7,ch2,ch3,ch5,is_pause
11.010525465011597,-400000.0625,-1613.81005859375,-5580.0,-400000.0625,-5388.06982421875,-400000.0625,-20089.630859375,-400000.0625
11.017600774765015,-400000.0625,-1675.4599609375,-5628.8701171875,-400000.0625,-5440.66015625,-400000.0625,-20154.33984375,-400000.0625
timestamp,ch7,ch2,ch3,ch5,is_pause
timestamp,ch7,ch2,ch3,ch5,is_pause
11.036722183227539,-400000.0625,-1653.8599853515625,-5611.0400390625,-400000.0625,-5427.93017578125,-400000.0625,-20140.939453125,-400000.0625
timestamp,ch7,ch2,ch3,ch5,is_pause
11.04561996459961,-400000.0625,-1592.780029296875,-5557.39013671875,-400000.0625,-5368.08984375,-400000.0625,-20076.560546875,-400000.0625
timestamp,ch7,ch2,ch3,ch5,is_pause
timestamp,ch7,ch2,ch3,ch5,is_pause
timestamp,ch7,ch2,ch3,ch5,is_pause
11.082350492477417,-400000.0625,-1571.27001953125,-5535.7900390625,-400000.0625,-5342.6298828125,-400000.0625,-20050.240234375,-400000.0625
timestamp,ch7,ch2,ch3,ch5,is_pause
11.09423542022705,-400000.0625,-1619.199951171875,-5582.91015625,-400000.0625,-5389.4501953125,-400000.0625,-20095.919921875,-400000.0625
timestamp,ch7,ch2,ch3,ch5,is_pause
11.107509136199951,-400000.0625,-1669.7900390625,-5626.8701171875,-400000.0625,-5438.89990234375,-400000.0625,-20149.759765625,-400000.0625
11.115089654922485,-400000.0625,-1662.5400390625,-5614.27978515625,-400000.0625,-5436.52001953125,-400000.0625,-20139.890625,-400000.0625
timestamp,ch7,ch2,ch3,ch5,is_pause
timestamp,ch7,ch2,ch3,ch5,is_pause
11.131147623062134,-400000.0625,-1603.1700439453125,-5558.16015625,-400000.0625,-5383.39990234375,-400000.0625,-20078.0390625,-400000.0625
timestamp,ch7,ch2,ch3,ch5,is_pause
11.1437246799469,-400000.0625,-1574.56005859375,-5537.60986328125,-400000.0625,-5346.2998046875,-400000.0625,-20055.30078125,-400000.0625
timestamp,ch7,ch2,ch3,ch5,is_pause
11.152109146118164,-400000.0625,-1621.9100341796875,-5581.81005859375,-400000.0625,-5381.6298828125,-400000.0625,-20099.9296875,-400000.0625
timestamp,ch7,ch2,ch3,ch5,is_pause
timestamp,ch7,ch2,ch3,ch5,is_pause
11.1826491355896,-400000.0625,-1670.7900390625,-5624.33984375,-400000.0625,-5434.18017578125,-400000.0625,-20153.5703125,-400000.0625
timestamp,ch7,ch2,ch3,ch5,is_pause
11.197284698486328,-400000.0625,-1661.2099609375,-5609.89013671875,-400000.0625,-5426.8798828125,-400000.0625,-20139.55078125,-400000.0625
timestamp,ch7,ch2,ch3,ch5,is_pause
11.209589958190918,-400000.0625,-1595.260009765625,-5558.2099609375,-400000.0625,-5372.72021484375,-400000.0625,-20072.75,-400000.0625
timestamp,ch7,ch2,ch3,ch5,is_pause
11.22079062461853,-400000.0625,-1570.219970703125,-5543.66015625,-400000.0625,-5348.39990234375,-400000.0625,-20054.439453125,-400000.0625
timestamp,ch7,ch2,ch3,ch5,is_pause
11.231757879257202,-400000.0625,-1621.530029296875,-5586.2900390625,-400000.0625,-5387.5498046875,-400000.0625,-20107.130859375,-400000.0625
timestamp,ch7,ch2,ch3,ch5,is_pause
11.246878147125244,-400000.0625,-1663.969970703125,-5624.43994140625,-400000.0625,-5439.18994140625,-400000.0625,-20143.080078125,-400000.0625
timestamp,ch7,ch2,ch3,ch5,is_pause
11.257777452468872,-400000.0625,-1625.06005859375,-5605.56005859375,-400000.0625,-5435.52001953125,-400000.0625,-20103.890625,-400000.0625
timestamp,ch7,ch2,ch3,ch5,is_pause
timestamp,ch7,ch2,ch3,ch5,is_pause
timestamp,ch7,ch2,ch3,ch5,is_pause
11.3009774684906,-400000.0625,-1535.510009765625,-5542.52001953125,-400000.0625,-5379.25,-400000.0625,-20032.7890625,-400000.0625
timestamp,ch7,ch2,ch3,ch5,is_pause
11.310978889465332,-400000.0625,-1487.3499755859375,-5516.47998046875,-400000.0625,-5359.169921875,-400000.0625,-19989.779296875,-400000.0625
timestamp,ch7,ch2,ch3,ch5,is_pause
11.32072901725769,-400000.0625,-1516.3399658203125,-5557.5400390625,-400000.0625,-5411.14990234375,-400000.0625,-20013.94921875,-400000.0625
timestamp,ch7,ch2,ch3,ch5,is_pause
11.338037014007568,-400000.0625,-1546.9100341796875,-5598.02001953125,-400000.0625,-5462.27001953125,-400000.0625,-20052.630859375,-400000.0625
timestamp,ch7,ch2,ch3,ch5,is_pause
11.347826719284058,-400000.0625,-1509.18994140625,-5571.83984375,-400000.0625,-5453.8701171875,-400000.0625,-20024.73046875,-400000.0625
timestamp,ch7,ch2,ch3,ch5,is_pause
11.361522674560547,-400000.0625,-1427.27001953125,-5508.14013671875,-400000.0625,-5399.0400390625,-400000.0625,-19950.439453125,-400000.0625
timestamp,ch7,ch2,ch3,ch5,is_pause
timestamp,ch7,ch2,ch3,ch5,is_pause
timestamp,ch7,ch2,ch3,ch5,is_pause
11.393356800079346,-400000.0625,-1381.5400390625,-5478.0,-400000.0625,-5374.47998046875,-400000.0625,-19906.279296875,-400000.0625
timestamp,ch7,ch2,ch3,ch5,is_pause
11.406240701675415,-400000.0625,-1394.3199462890625,-5504.3701171875,-400000.0625,-5415.8701171875,-400000.0625,-19935.939453125,-400000.0625
11.414367914199829,-400000.0625,-1427.4599609375,-5537.22021484375,-400000.0625,-5468.7998046875,-400000.0625,-19975.380859375,-400000.0625
timestamp,ch7,ch2,ch3,ch5,is_pause
timestamp,ch7,ch2,ch3,ch5,is_pause
11.432888746261597,-400000.0625,-1398.6600341796875,-5511.7099609375,-400000.0625,-5456.8798828125,-400000.0625,-19948.6796875,-400000.0625
timestamp,ch7,ch2,ch3,ch5,is_pause
timestamp,ch7,ch2,ch3,ch5,is_pause
11.469447374343872,-400000.0625,-1326.8499755859375,-5448.490234375,-400000.0625,-5404.81005859375,-400000.0625,-19871.279296875,-400000.0625
timestamp,ch7,ch2,ch3,ch5,is_pause
timestamp,ch7,ch2,ch3,ch5,is_pause
timestamp,ch7,ch2,ch3,ch5,is_pause
timestamp,ch7,ch2,ch3,ch5,is_pause
timestamp,ch7,ch2,ch3,ch5,is_pause
11.533434867858887,-400000.0625,-1296.81005859375,-5422.97021484375,-400000.0625,-5384.2099609375,-400000.0625,-19832.609375,-400000.0625
timestamp,ch7,ch2,ch3,ch5,is_pause
11.548563718795776,-400000.0625,-1332.3800048828125,-5461.5498046875,-400000.0625,-5423.64013671875,-400000.0625,-19871.900390625,-400000.0625
timestamp,ch7,ch2,ch3,ch5,is_pause
timestamp,ch7,ch2,ch3,ch5,is_pause
11.567173957824707,-400000.0625,-1388.5999755859375,-5503.66015625,-400000.0625,-5470.18017578125,-400000.0625,-19924.01953125,-400000.0625
timestamp,ch7,ch2,ch3,ch5,is_pause
11.577444791793823,-400000.0625,-1377.5799560546875,-5486.06005859375,-400000.0625,-5457.8798828125,-400000.0625,-19909.720703125,-400000.0625
timestamp,ch7,ch2,ch3,ch5,is_pause
timestamp,ch7,ch2,ch3,ch5,is_pause
timestamp,ch7,ch2,ch3,ch5,is_pause
11.616953611373901,-400000.0625,-1320.030029296875,-5434.56005859375,-400000.0625,-5401.419921875,-400000.0625,-19847.349609375,-400000.0625
timestamp,ch7,ch2,ch3,ch5,is_pause
11.631109237670898,-400000.0625,-1303.3900146484375,-5422.35009765625,-400000.0625,-5381.72998046875,-400000.0625,-19822.69921875,-400000.0625
timestamp,ch7,ch2,ch3,ch5,is_pause
11.645113468170166,-400000.0625,-1346.449951171875,-5464.169921875,-400000.0625,-5423.68994140625,-400000.0625,-19869.51953125,-400000.0625
timestamp,ch7,ch2,ch3,ch5,is_pause
11.65903377532959,-400000.0625,-1398.280029296875,-5508.47021484375,-400000.0625,-5470.56005859375,-400000.0625,-19922.5,-400000.0625
timestamp,ch7,ch2,ch3,ch5,is_pause
timestamp,ch7,ch2,ch3,ch5,is_pause
11.67321491241455,-400000.0625,-1384.8299560546875,-5490.97021484375,-400000.0625,-5456.68994140625,-400000.0625,-19904.08984375,-400000.0625
11.681752681732178,-400000.0625,-1329.6099853515625,-5439.6201171875,-400000.0625,-5402.60986328125,-400000.0625,-19846.349609375,-400000.0625
timestamp,ch7,ch2,ch3,ch5,is_pause
timestamp,ch7,ch2,ch3,ch5,is_pause
timestamp,ch7,ch2,ch3,ch5,is_pause
11.716262340545654,-400000.0625,-1305.3900146484375,-5421.5,-400000.0625,-5390.1201171875,-400000.0625,-19822.599609375,-400000.0625
timestamp,ch7,ch2,ch3,ch5,is_pause
11.734881401062012,-400000.0625,-1347.0699462890625,-5461.169921875,-400000.0625,-5434.22998046875,-400000.0625,-19865.939453125,-400000.0625
timestamp,ch7,ch2,ch3,ch5,is_pause
11.746776103973389,-400000.0625,-1405.9100341796875,-5509.56982421875,-400000.0625,-5479.2900390625,-400000.0625,-19921.109375,-400000.0625
timestamp,ch7,ch2,ch3,ch5,is_pause
11.760531663894653,-400000.0625,-1391.8900146484375,-5491.919921875,-400000.0625,-5461.5,-400000.0625,-19905.859375,-400000.0625
timestamp,ch7,ch2,ch3,ch5,is_pause
11.771738767623901,-400000.0625,-1328.949951171875,-5436.330078125,-400000.0625,-5405.81005859375,-400000.0625,-19843.630859375,-400000.0625
timestamp,ch7,ch2,ch3,ch5,is_pause
11.78189492225647,-400000.0625,-1303.239990234375,-5418.25,-400000.0625,-5384.06005859375,-400000.0625,-19821.4609375,-400000.0625
timestamp,ch7,ch2,ch3,ch5,is_pause
timestamp,ch7,ch2,ch3,ch5,is_pause
timestamp,ch7,ch2,ch3,ch5,is_pause
11.828328847885132,-400000.0625,-1349.6400146484375,-5461.41015625,-400000.0625,-5429.080078125,-400000.0625,-19867.66015625,-400000.0625
timestamp,ch7,ch2,ch3,ch5,is_pause
11.841027736663818,-400000.0625,-1404.52001953125,-5507.14013671875,-400000.0625,-5477.6201171875,-400000.0625,-19922.44921875,-400000.0625
timestamp,ch7,ch2,ch3,ch5,is_pause
11.8514723777771,-400000.0625,-1389.4599609375,-5488.68017578125,-400000.0625,-5464.02978515625,-400000.0625,-19906.94921875,-400000.0625
timestamp,ch7,ch2,ch3,ch5,is_pause
11.864098072052002,-400000.0625,-1326.8900146484375,-5433.75,-400000.0625,-5409.240234375,-400000.0625,-19847.400390625,-400000.0625
timestamp,ch7,ch2,ch3,ch5,is_pause
11.874742269515991,-400000.0625,-1304.050048828125,-5415.9599609375,-400000.0625,-5385.58984375,-400000.0625,-19821.5,-400000.0625
timestamp,ch7,ch2,ch3,ch5,is_pause
11.884692430496216,-400000.0625,-1349.739990234375,-5456.72998046875,-400000.0625,-5427.5498046875,-400000.0625,-19865.3203125,-400000.0625
timestamp,ch7,ch2,ch3,ch5,is_pause
timestamp,ch7,ch2,ch3,ch5,is_pause
timestamp,ch7,ch2,ch3,ch5,is_pause
11.917057991027832,-400000.0625,-1401.1400146484375,-5498.740234375,-400000.0625,-5475.6201171875,-400000.0625,-19919.349609375,-400000.0625
timestamp,ch7,ch2,ch3,ch5,is_pause
11.930502653121948,-400000.0625,-1384.8299560546875,-5482.77001953125,-400000.0625,-5460.8798828125,-400000.0625,-19902.94921875,-400000.0625
timestamp,ch7,ch2,ch3,ch5,is_pause
11.943455696105957,-400000.0625,-1330.0400390625,-5432.27001953125,-400000.0625,-5409.85986328125,-400000.0625,-19844.630859375,-400000.0625
timestamp,ch7,ch2,ch3,ch5,is_pause
11.951378107070923,-400000.0625,-1302.4300537109375,-5413.33984375,-400000.0625,-5392.35986328125,-400000.0625,-19820.7890625,-400000.0625
timestamp,ch7,ch2,ch3,ch5,is_pause
11.966304302215576,-400000.0625,-1344.6300048828125,-5452.43994140625,-400000.0625,-5433.1298828125,-400000.0625,-19860.26953125,-400000.0625
timestamp,ch7,ch2,ch3,ch5,is_pause
11.97974944114685,-400000.0625,-1398.6600341796875,-5497.41015625,-400000.0625,-5474.3798828125,-400000.0625,-19909.48046875,-400000.0625
timestamp,ch7,ch2,ch3,ch5,is_pause
11.991033554077148,-400000.0625,-1389.1199951171875,-5483.91015625,-400000.0625,-5456.259765625,-400000.0625,-19896.4609375,-400000.0625
timestamp,ch7,ch2,ch3,ch5,is_pause
timestamp,ch7,ch2,ch3,ch5,is_pause
timestamp,ch7,ch2,ch3,ch5,is_pause
12.024909734725952,-400000.0625,-1331.469970703125,-5432.93994140625,-400000.0625,-5403.66015625,-400000.0625,-19840.33984375,-400000.0625
timestamp,ch7,ch2,ch3,ch5,is_pause
12.039676666259766,-400000.0625,-1310.25,-5423.35986328125,-400000.0625,-5389.35986328125,-400000.0625,-19819.689453125,-400000.0625
timestamp,ch7,ch2,ch3,ch5,is_pause
12.048585414886475,-400000.0625,-1356.219970703125,-5462.60009765625,-400000.0625,-5429.7001953125,-400000.0625,-19857.26953125,-400000.0625
timestamp,ch7,ch2,ch3,ch5,is_pause
12.064115047454834,-400000.0625,-1402.760009765625,-5502.60986328125,-400000.0625,-5474.3798828125,-400000.0625,-19901.560546875,-400000.0625
timestamp,ch7,ch2,ch3,ch5,is_pause
12.076845407485962,-400000.0625,-1389.1700439453125,-5486.919921875,-400000.0625,-5455.97021484375,-400000.0625,-19884.640625,-400000.0625
timestamp,ch7,ch2,ch3,ch5,is_pause
12.086248636245728,-400000.0625,-1336.6700439453125,-5436.89990234375,-400000.0625,-5407.91015625,-400000.0625,-19833.140625,-400000.0625
timestamp,ch7,ch2,ch3,ch5,is_pause
12.098249912261963,-400000.0625,-1317.3599853515625,-5423.77978515625,-400000.0625,-5393.1201171875,-400000.0625,-19813.6796875,-400000.0625
timestamp,ch7,ch2,ch3,ch5,is_pause
timestamp,ch7,ch2,ch3,ch5,is_pause
timestamp,ch7,ch2,ch3,ch5,is_pause
12.133386850357056,-400000.0625,-1364.989990234375,-5467.4599609375,-400000.0625,-5434.31982421875,-400000.0625,-19855.9296875,-400000.0625
timestamp,ch7,ch2,ch3,ch5,is_pause
12.143474578857422,-400000.0625,-1417.780029296875,-5506.08984375,-400000.0625,-5479.240234375,-400000.0625,-19894.650390625,-400000.0625
12.151091575622559,-400000.0625,-1397.3199462890625,-5483.77001953125,-400000.0625,-5464.509765625,-400000.0625,-19881.109375,-400000.0625
timestamp,ch7,ch2,ch3,ch5,is_pause
12.164097309112549,-400000.0625,-1332.5699462890625,-5436.47021484375,-400000.0625,-5410.240234375,-400000.0625,-19843.099609375,-400000.0625
timestamp,ch7,ch2,ch3,ch5,is_pause
12.174327850341797,-400000.0625,-1310.8699951171875,-5424.4501953125,-400000.0625,-5391.1201171875,-400000.0625,-19834.279296875,-400000.0625
timestamp,ch7,ch2,ch3,ch5,is_pause
12.18608045578003,-400000.0625,-1359.8900146484375,-5460.41015625,-400000.0625,-5429.7900390625,-400000.0625,-19884.400390625,-400000.0625
timestamp,ch7,ch2,ch3,ch5,is_pause
12.199310779571533,-400000.0625,-1402.18994140625,-5489.06005859375,-400000.0625,-5470.7998046875,-400000.0625,-19934.3203125,-400000.0625
timestamp,ch7,ch2,ch3,ch5,is_pause
timestamp,ch7,ch2,ch3,ch5,is_pause
timestamp,ch7,ch2,ch3,ch5,is_pause
timestamp,ch7,ch2,ch3,ch5,is_pause
12.241162061691284,-400000.0625,-1379.6800537109375,-5463.5498046875,-400000.0625,-5451.10986328125,-400000.0625,-19926.880859375,-400000.0625
12.248924732208252,-400000.0625,-1338.8199462890625,-5421.16015625,-400000.0625,-5412.8701171875,-400000.0625,-19888.55078125,-400000.0625
timestamp,ch7,ch2,ch3,ch5,is_pause
12.263533115386963,-400000.0625,-1335.9100341796875,-5419.68017578125,-400000.0625,-5413.25,-400000.0625,-19895.41015625,-400000.0625
timestamp,ch7,ch2,ch3,ch5,is_pause
12.275777816772461,-400000.0625,-1365.1800537109375,-5442.18994140625,-400000.0625,-5438.85009765625,-400000.0625,-19931.369140625,-400000.0625
timestamp,ch7,ch2,ch3,ch5,is_pause
12.284235954284668,-400000.0625,-1386.02001953125,-5456.8798828125,-400000.0625,-5455.259765625,-400000.0625,-19950.580078125,-400000.0625
timestamp,ch7,ch2,ch3,ch5,is_pause
12.299682855606079,-400000.0625,-1370.6199951171875,-5438.56982421875,-400000.0625,-5437.7998046875,-400000.0625,-19930.029296875,-400000.0625
timestamp,ch7,ch2,ch3,ch5,is_pause
timestamp,ch7,ch2,ch3,ch5,is_pause
timestamp,ch7,ch2,ch3,ch5,is_pause
