time,ch1,ch2,ch3,ch4,ch5,ch6,ch7,ch8
283.42974376678467,-400000.0625,-1647.3299560546875,-9276.6796875,-400000.0625,-8289.33984375,-400000.0625,-24100.259765625,-400000.0625
283.4391314983368,-400000.0625,-1643.75,-9270.669921875,-400000.0625,-8275.7001953125,-400000.0625,-24098.919921875,-400000.0625
283.44465613365173,-400000.0625,-1623.1099853515625,-9249.9697265625,-400000.0625,-8252.7197265625,-400000.0625,-24089.76953125,-400000.0625
283.45334792137146,-400000.0625,-1617.8599853515625,-9239.669921875,-400000.0625,-8241.419921875,-400000.0625,-24083.5703125,-400000.0625
283.4582724571228,-400000.0625,-1637.219970703125,-9259.990234375,-400000.0625,-8255.76953125,-400000.0625,-24104.98046875,-400000.0625
283.4582829475403,-400000.0625,-1656.8199462890625,-9282.919921875,-400000.0625,-8282.66015625,-400000.0625,-24110.609375,-400000.0625
283.45828771591187,-400000.0625,-1643.75,-9269.91015625,-400000.0625,-8276.1298828125,-400000.0625,-24101.16015625,-400000.0625
283.4582920074463,-400000.0625,-1625.489990234375,-9250.9296875,-400000.0625,-8257.6796875,-400000.0625,-24089.76953125,-400000.0625
283.45829582214355,-400000.0625,-1621.9599609375,-9247.01953125,-400000.0625,-8247.5703125,-400000.0625,-24088.669921875,-400000.0625
283.458300113678,-400000.0625,-1635.4599609375,-9263.51953125,-400000.0625,-8263.919921875,-400000.0625,-24097.16015625,-400000.0625
283.4583041667938,-400000.0625,-1645.3699951171875,-9276.2001953125,-400000.0625,-8281.9501953125,-400000.0625,-24107.75,-400000.0625
283.4583079814911,-400000.0625,-1645.8499755859375,-9274.669921875,-400000.0625,-8284.240234375,-400000.0625,-24101.880859375,-400000.0625
283.4583122730255,-400000.0625,-1635.31005859375,-9257.9404296875,-400000.0625,-8255.0498046875,-400000.0625,-24092.19921875,-400000.0625
283.4583158493042,-400000.0625,-1626.43994140625,-9248.7802734375,-400000.0625,-8242.849609375,-400000.0625,-24090.529296875,-400000.0625
283.45831966400146,-400000.0625,-1638.699951171875,-9261.5595703125,-400000.0625,-8254.8603515625,-400000.0625,-24096.109375,-400000.0625
283.45832347869873,-400000.0625,-1653.0999755859375,-9275.33984375,-400000.0625,-8273.3203125,-400000.0625,-24100.689453125,-400000.0625
283.4583275318146,-400000.0625,-1640.6099853515625,-9266.08984375,-400000.0625,-8276.3203125,-400000.0625,-24098.2109375,-400000.0625
283.4583315849304,-400000.0625,-1624.8699951171875,-9249.830078125,-400000.0625,-8259.919921875,-400000.0625,-24082.759765625,-400000.0625
283.4583353996277,-400000.0625,-1618.1500244140625,-9241.2001953125,-400000.0625,-8246.08984375,-400000.0625,-24082.759765625,-400000.0625
283.4583389759064,-400000.0625,-1627.969970703125,-9254.650390625,-400000.0625,-8258.2001953125,-400000.0625,-24091.6796875,-400000.0625
283.45834279060364,-400000.0625,-1633.219970703125,-9261.23046875,-400000.0625,-8261.5400390625,-400000.0625,-24095.25,-400000.0625
283.4583468437195,-400000.0625,-1642.0799560546875,-9267.3798828125,-400000.0625,-8266.9296875,-400000.0625,-24104.55078125,-400000.0625
283.45835065841675,-400000.0625,-1632.550048828125,-9255.509765625,-400000.0625,-8256.7197265625,-400000.0625,-24100.349609375,-400000.0625
283.45835423469543,-400000.0625,-1620.530029296875,-9244.6298828125,-400000.0625,-8245.2802734375,-400000.0625,-24090.2890625,-400000.0625
283.463103055954,-400000.0625,-1633.31005859375,-9256.1298828125,-400000.0625,-8257.8203125,-400000.0625,-24095.490234375,-400000.0625
283.46311235427856,-400000.0625,-1648.469970703125,-9273.91015625,-400000.0625,-8280.419921875,-400000.0625,-24102.400390625,-400000.0625
283.463116645813,-400000.0625,-1644.1800537109375,-9270.7197265625,-400000.0625,-8270.650390625,-400000.0625,-24092.9609375,-400000.0625
283.4631209373474,-400000.0625,-1623.6800537109375,-9248.16015625,-400000.0625,-8247.7099609375,-400000.0625,-24081.23046875,-400000.0625
283.4631245136261,-400000.0625,-1612.22998046875,-9234.0,-400000.0625,-8236.3095703125,-400000.0625,-24073.650390625,-400000.0625
283.46312832832336,-400000.0625,-1622.8699951171875,-9245.830078125,-400000.0625,-8251.3798828125,-400000.0625,-24084.05078125,-400000.0625
283.46313214302063,-400000.0625,-1642.8900146484375,-9264.08984375,-400000.0625,-8271.8896484375,-400000.0625,-24105.029296875,-400000.0625
283.4631359577179,-400000.0625,-1644.56005859375,-9266.7099609375,-400000.0625,-8274.599609375,-400000.0625,-24104.650390625,-400000.0625
283.46314001083374,-400000.0625,-1622.06005859375,-9248.1103515625,-400000.0625,-8249.51953125,-400000.0625,-24094.19921875,-400000.0625
283.46314454078674,-400000.0625,-1609.4200439453125,-9233.4296875,-400000.0625,-8227.73046875,-400000.0625,-24082.900390625,-400000.0625
283.46314811706543,-400000.0625,-1626.5899658203125,-9247.58984375,-400000.0625,-8245.7099609375,-400000.0625,-24086.4296875,-400000.0625
283.4631519317627,-400000.0625,-1657.5799560546875,-9279.7802734375,-400000.0625,-8281.66015625,-400000.0625,-24109.4609375,-400000.0625
283.46315574645996,-400000.0625,-1655.9100341796875,-9277.8203125,-400000.0625,-8283.4296875,-400000.0625,-24110.69921875,-400000.0625
283.46315932273865,-400000.0625,-1638.0799560546875,-9257.9404296875,-400000.0625,-8255.150390625,-400000.0625,-24093.009765625,-400000.0625
283.4631631374359,-400000.0625,-1625.6300048828125,-9243.919921875,-400000.0625,-8241.080078125,-400000.0625,-24088.91015625,-400000.0625
283.4631667137146,-400000.0625,-1634.5999755859375,-9252.3603515625,-400000.0625,-8264.4501953125,-400000.0625,-24095.869140625,-400000.0625
283.46317052841187,-400000.0625,-1643.6099853515625,-9265.849609375,-400000.0625,-8282.08984375,-400000.0625,-24101.880859375,-400000.0625
283.46317434310913,-400000.0625,-1644.0899658203125,-9263.0400390625,-400000.0625,-8265.2099609375,-400000.0625,-24102.310546875,-400000.0625
283.4631779193878,-400000.0625,-1626.2099609375,-9244.9697265625,-400000.0625,-8242.1796875,-400000.0625,-24090.76953125,-400000.0625
283.4631826877594,-400000.0625,-1618.1500244140625,-9236.76953125,-400000.0625,-8242.080078125,-400000.0625,-24079.1796875,-400000.0625
283.46318650245667,-400000.0625,-1630.1600341796875,-9247.5400390625,-400000.0625,-8252.91015625,-400000.0625,-24090.25,-400000.0625
283.4631907939911,-400000.0625,-1641.699951171875,-9261.9404296875,-400000.0625,-8260.6796875,-400000.0625,-24093.33984375,-400000.0625
283.46319484710693,-400000.0625,-1630.6400146484375,-9250.98046875,-400000.0625,-8249.6201171875,-400000.0625,-24086.48046875,-400000.0625
283.4631986618042,-400000.0625,-1621.8199462890625,-9237.8203125,-400000.0625,-8247.900390625,-400000.0625,-24077.75,-400000.0625
283.46320247650146,-400000.0625,-1620.199951171875,-9238.76953125,-400000.0625,-8253.9599609375,-400000.0625,-24088.150390625,-400000.0625
283.4632067680359,-400000.0625,-1634.9300537109375,-9257.169921875,-400000.0625,-8269.259765625,-400000.0625,-24100.259765625,-400000.0625
283.46321082115173,-400000.0625,-1652.530029296875,-9272.6201171875,-400000.0625,-8276.75,-400000.0625,-24112.279296875,-400000.0625
283.4632143974304,-400000.0625,-1648.0,-9268.8603515625,-400000.0625,-8266.0703125,-400000.0625,-24105.220703125,-400000.0625
283.4632182121277,-400000.0625,-1631.02001953125,-9251.5498046875,-400000.0625,-8244.849609375,-400000.0625,-24089.2890625,-400000.0625
283.46322226524353,-400000.0625,-1622.530029296875,-9243.349609375,-400000.0625,-8243.7001953125,-400000.0625,-24087.0,-400000.0625
283.4632260799408,-400000.0625,-1632.97998046875,-9254.8896484375,-400000.0625,-8253.8603515625,-400000.0625,-24093.19921875,-400000.0625
283.46323013305664,-400000.0625,-1647.3299560546875,-9268.9501953125,-400000.0625,-8266.9296875,-400000.0625,-24101.55078125,-400000.0625
283.4632339477539,-400000.0625,-1640.989990234375,-9262.9404296875,-400000.0625,-8263.830078125,-400000.0625,-24102.5,-400000.0625
283.46323800086975,-400000.0625,-1621.06005859375,-9241.25,-400000.0625,-8247.23046875,-400000.0625,-24082.94921875,-400000.0625
283.463241815567,-400000.0625,-1609.22998046875,-9227.3701171875,-400000.0625,-8242.419921875,-400000.0625,-24074.599609375,-400000.0625
283.4632456302643,-400000.0625,-1623.489990234375,-9244.16015625,-400000.0625,-8256.3896484375,-400000.0625,-24078.23046875,-400000.0625
283.46324920654297,-400000.0625,-1640.8900146484375,-9261.66015625,-400000.0625,-8264.259765625,-400000.0625,-24094.390625,-400000.0625
283.46325302124023,-400000.0625,-1637.550048828125,-9255.3603515625,-400000.0625,-8263.490234375,-400000.0625,-24092.33984375,-400000.0625
283.4632568359375,-400000.0625,-1626.010009765625,-9239.3896484375,-400000.0625,-8245.2802734375,-400000.0625,-24083.7109375,-400000.0625
283.4632604122162,-400000.0625,-1613.239990234375,-9229.3798828125,-400000.0625,-8236.9296875,-400000.0625,-24079.470703125,-400000.0625
283.46326422691345,-400000.0625,-1617.3800048828125,-9236.8095703125,-400000.0625,-8250.240234375,-400000.0625,-24083.5703125,-400000.0625
283.4632682800293,-400000.0625,-1641.510009765625,-9261.66015625,-400000.0625,-8271.98046875,-400000.0625,-24105.169921875,-400000.0625
283.463271856308,-400000.0625,-1637.6500244140625,-9257.509765625,-400000.0625,-8261.9697265625,-400000.0625,-24104.41015625,-400000.0625
283.46327567100525,-400000.0625,-1619.8599853515625,-9237.580078125,-400000.0625,-8246.0400390625,-400000.0625,-24080.80078125,-400000.0625
283.4632797241211,-400000.0625,-1607.6600341796875,-9227.51953125,-400000.0625,-8237.9404296875,-400000.0625,-24070.9296875,-400000.0625
283.4632833003998,-400000.0625,-1626.6300048828125,-9244.5400390625,-400000.0625,-8253.2900390625,-400000.0625,-24087.859375,-400000.0625
283.46328687667847,-400000.0625,-1645.0400390625,-9262.990234375,-400000.0625,-8273.98046875,-400000.0625,-24104.0703125,-400000.0625
283.46329069137573,-400000.0625,-1642.0400390625,-9259.080078125,-400000.0625,-8267.169921875,-400000.0625,-24100.970703125,-400000.0625
283.4632942676544,-400000.0625,-1626.06005859375,-9239.2900390625,-400000.0625,-8247.08984375,-400000.0625,-24084.669921875,-400000.0625
283.4632980823517,-400000.0625,-1613.949951171875,-9227.849609375,-400000.0625,-8232.169921875,-400000.0625,-24079.849609375,-400000.0625
283.46330165863037,-400000.0625,-1621.2900390625,-9235.9599609375,-400000.0625,-8245.23046875,-400000.0625,-24091.6796875,-400000.0625
283.46330523490906,-400000.0625,-1636.550048828125,-9253.8798828125,-400000.0625,-8267.5,-400000.0625,-24096.060546875,-400000.0625
283.46330881118774,-400000.0625,-1636.3599853515625,-9255.080078125,-400000.0625,-8261.8203125,-400000.0625,-24102.740234375,-400000.0625
283.46331310272217,-400000.0625,-1615.0,-9229.990234375,-400000.0625,-8243.66015625,-400000.0625,-24083.94921875,-400000.0625
283.46331667900085,-400000.0625,-1609.6600341796875,-9223.4599609375,-400000.0625,-8238.7900390625,-400000.0625,-24078.990234375,-400000.0625
283.4633207321167,-400000.0625,-1636.510009765625,-9251.5498046875,-400000.0625,-8256.099609375,-400000.0625,-24104.169921875,-400000.0625
283.4633250236511,-400000.0625,-1656.9599609375,-9269.51953125,-400000.0625,-8273.080078125,-400000.0625,-24115.279296875,-400000.0625
283.4633285999298,-400000.0625,-1658.300048828125,-9266.900390625,-400000.0625,-8273.650390625,-400000.0625,-24109.890625,-400000.0625
283.4633324146271,-400000.0625,-1631.5,-9241.5302734375,-400000.0625,-8243.1298828125,-400000.0625,-24101.880859375,-400000.0625
283.46333599090576,-400000.0625,-1614.7099609375,-9224.990234375,-400000.0625,-8226.490234375,-400000.0625,-24089.240234375,-400000.0625
283.46333956718445,-400000.0625,-1627.72998046875,-9239.2900390625,-400000.0625,-8247.5703125,-400000.0625,-24095.5390625,-400000.0625
283.46334290504456,-400000.0625,-1643.510009765625,-9258.7998046875,-400000.0625,-8269.9296875,-400000.0625,-24102.2109375,-400000.0625
283.4633467197418,-400000.0625,-1641.4599609375,-9259.1796875,-400000.0625,-8262.9697265625,-400000.0625,-24099.58984375,-400000.0625
283.4633502960205,-400000.0625,-1622.489990234375,-9239.150390625,-400000.0625,-8246.2802734375,-400000.0625,-24091.439453125,-400000.0625
283.4633541107178,-400000.0625,-1612.52001953125,-9228.66015625,-400000.0625,-8235.5,-400000.0625,-24080.140625,-400000.0625
283.46335768699646,-400000.0625,-1628.4000244140625,-9241.73046875,-400000.0625,-8247.7099609375,-400000.0625,-24088.810546875,-400000.0625
283.46867752075195,-400000.0625,-1638.3599853515625,-9254.080078125,-400000.0625,-8258.4404296875,-400000.0625,-24097.30078125,-400000.0625
283.4734990596771,-400000.0625,-1644.22998046875,-9261.3701171875,-400000.0625,-8258.5302734375,-400000.0625,-24097.869140625,-400000.0625
283.47350907325745,-400000.0625,-1631.3599853515625,-9247.01953125,-400000.0625,-8241.3701171875,-400000.0625,-24093.060546875,-400000.0625
283.47351479530334,-400000.0625,-1617.530029296875,-9233.2900390625,-400000.0625,-8238.75,-400000.0625,-24091.2890625,-400000.0625
283.47351908683777,-400000.0625,-1626.43994140625,-9244.58984375,-400000.0625,-8255.48046875,-400000.0625,-24099.349609375,-400000.0625
283.47352361679077,-400000.0625,-1642.4200439453125,-9264.4697265625,-400000.0625,-8269.83984375,-400000.0625,-24110.1796875,-400000.0625
283.4735279083252,-400000.0625,-1638.97998046875,-9257.169921875,-400000.0625,-8262.490234375,-400000.0625,-24105.83984375,-400000.0625
283.47353172302246,-400000.0625,-1626.43994140625,-9238.48046875,-400000.0625,-8242.9404296875,-400000.0625,-24087.619140625,-400000.0625
283.4735355377197,-400000.0625,-1613.4300537109375,-9226.5595703125,-400000.0625,-8230.8798828125,-400000.0625,-24082.0,-400000.0625
283.473539352417,-400000.0625,-1621.8199462890625,-9236.0498046875,-400000.0625,-8240.1796875,-400000.0625,-24093.580078125,-400000.0625
283.47354340553284,-400000.0625,-1642.469970703125,-9256.2197265625,-400000.0625,-8259.76953125,-400000.0625,-24096.970703125,-400000.0625
283.4735472202301,-400000.0625,-1630.68994140625,-9246.6396484375,-400000.0625,-8252.48046875,-400000.0625,-24093.5390625,-400000.0625
283.47355127334595,-400000.0625,-1616.2900390625,-9232.669921875,-400000.0625,-8240.2197265625,-400000.0625,-24090.390625,-400000.0625
283.4735550880432,-400000.0625,-1620.8199462890625,-9233.900390625,-400000.0625,-8239.2197265625,-400000.0625,-24092.8203125,-400000.0625
283.47355937957764,-400000.0625,-1629.72998046875,-9241.919921875,-400000.0625,-8240.75,-400000.0625,-24101.55078125,-400000.0625
283.4735631942749,-400000.0625,-1643.22998046875,-9258.650390625,-400000.0625,-8261.4404296875,-400000.0625,-24115.7109375,-400000.0625
283.47356724739075,-400000.0625,-1637.510009765625,-9253.5,-400000.0625,-8257.2900390625,-400000.0625,-24101.98046875,-400000.0625
283.47357177734375,-400000.0625,-1624.5400390625,-9231.9501953125,-400000.0625,-8233.169921875,-400000.0625,-24091.630859375,-400000.0625
283.4735758304596,-400000.0625,-1613.81005859375,-9223.26953125,-400000.0625,-8226.58984375,-400000.0625,-24084.859375,-400000.0625
283.4735805988312,-400000.0625,-1624.8699951171875,-9235.4296875,-400000.0625,-8244.51953125,-400000.0625,-24092.630859375,-400000.0625
283.473584651947,-400000.0625,-1644.6600341796875,-9256.8896484375,-400000.0625,-8267.01953125,-400000.0625,-24108.650390625,-400000.0625
283.5767343044281,-400000.0625,-1640.6500244140625,-9253.2197265625,-400000.0625,-8260.1103515625,-400000.0625,-24108.26953125,-400000.0625
283.5903558731079,-400000.0625,-1617.2900390625,-9230.1904296875,-400000.0625,-8240.650390625,-400000.0625,-24088.669921875,-400000.0625
283.5947799682617,-400000.0625,-1604.510009765625,-9213.7802734375,-400000.0625,-8223.580078125,-400000.0625,-24072.7890625,-400000.0625
283.59478783607483,-400000.0625,-1628.02001953125,-9235.5302734375,-400000.0625,-8247.849609375,-400000.0625,-24095.109375,-400000.0625
283.5947918891907,-400000.0625,-1646.469970703125,-9258.83984375,-400000.0625,-8267.0703125,-400000.0625,-24106.359375,-400000.0625
283.5947961807251,-400000.0625,-1641.4200439453125,-9251.4501953125,-400000.0625,-8261.16015625,-400000.0625,-24098.490234375,-400000.0625
283.5948004722595,-400000.0625,-1619.3900146484375,-9229.5703125,-400000.0625,-8241.3701171875,-400000.0625,-24086.759765625,-400000.0625
283.5948042869568,-400000.0625,-1609.6600341796875,-9218.650390625,-400000.0625,-8230.0703125,-400000.0625,-24088.580078125,-400000.0625
283.59480810165405,-400000.0625,-1622.6300048828125,-9232.240234375,-400000.0625,-8246.7099609375,-400000.0625,-24101.689453125,-400000.0625
283.5948119163513,-400000.0625,-1640.3699951171875,-9250.740234375,-400000.0625,-8264.259765625,-400000.0625,-24108.7890625,-400000.0625
283.59481549263,-400000.0625,-1640.510009765625,-9249.4501953125,-400000.0625,-8257.3896484375,-400000.0625,-24096.30078125,-400000.0625
283.59481954574585,-400000.0625,-1625.010009765625,-9231.5703125,-400000.0625,-8242.9404296875,-400000.0625,-24083.240234375,-400000.0625
283.5948233604431,-400000.0625,-1612.6199951171875,-9219.080078125,-400000.0625,-8232.6904296875,-400000.0625,-24078.1796875,-400000.0625
283.5948269367218,-400000.0625,-1621.530029296875,-9233.1396484375,-400000.0625,-8241.1298828125,-400000.0625,-24089.91015625,-400000.0625
283.59483075141907,-400000.0625,-1636.550048828125,-9250.98046875,-400000.0625,-8256.580078125,-400000.0625,-24100.740234375,-400000.0625
283.5948350429535,-400000.0625,-1634.4100341796875,-9244.8701171875,-400000.0625,-8254.3896484375,-400000.0625,-24097.640625,-400000.0625
283.5993676185608,-400000.0625,-1606.27001953125,-9215.4501953125,-400000.0625,-8229.6904296875,-400000.0625,-24076.509765625,-400000.0625
283.6046209335327,-400000.0625,-1598.5999755859375,-9211.01953125,-400000.0625,-8226.4404296875,-400000.0625,-24076.609375,-400000.0625
283.6098756790161,-400000.0625,-1622.6300048828125,-9236.4296875,-400000.0625,-8244.7099609375,-400000.0625,-24098.16015625,-400000.0625
283.6151030063629,-400000.0625,-1637.6500244140625,-9253.2197265625,-400000.0625,-8256.8203125,-400000.0625,-24103.01953125,-400000.0625
283.62005639076233,-400000.0625,-1633.219970703125,-9249.0703125,-400000.0625,-8261.8701171875,-400000.0625,-24100.58984375,-400000.0625
283.6200649738312,-400000.0625,-1614.239990234375,-9225.8896484375,-400000.0625,-8242.6103515625,-400000.0625,-24084.4296875,-400000.0625
283.620069026947,-400000.0625,-1596.2099609375,-9209.2001953125,-400000.0625,-8222.4404296875,-400000.0625,-24068.01953125,-400000.0625
283.6200726032257,-400000.0625,-1612.8499755859375,-9226.7001953125,-400000.0625,-8245.849609375,-400000.0625,-24083.900390625,-400000.0625
283.6200761795044,-400000.0625,-1635.1700439453125,-9247.1103515625,-400000.0625,-8266.9697265625,-400000.0625,-24100.5390625,-400000.0625
283.62008023262024,-400000.0625,-1629.1099853515625,-9239.91015625,-400000.0625,-8255.76953125,-400000.0625,-24092.76953125,-400000.0625
283.6200838088989,-400000.0625,-1608.800048828125,-9217.259765625,-400000.0625,-8229.1103515625,-400000.0625,-24078.560546875,-400000.0625
283.6200866699219,-400000.0625,-1599.3599853515625,-9206.25,-400000.0625,-8217.5302734375,-400000.0625,-24075.3203125,-400000.0625
283.620090007782,-400000.0625,-1619.010009765625,-9227.5595703125,-400000.0625,-8239.7001953125,-400000.0625,-24087.150390625,-400000.0625
283.6200933456421,-400000.0625,-1637.97998046875,-9251.01953125,-400000.0625,-8261.5400390625,-400000.0625,-24103.220703125,-400000.0625
283.6200966835022,-400000.0625,-1633.3599853515625,-9247.2998046875,-400000.0625,-8261.0595703125,-400000.0625,-24096.490234375,-400000.0625
283.6201000213623,-400000.0625,-1606.22998046875,-9214.2099609375,-400000.0625,-8234.5498046875,-400000.0625,-24072.83984375,-400000.0625
283.6629021167755,-400000.0625,-1595.449951171875,-9202.8203125,-400000.0625,-8224.6796875,-400000.0625,-24072.130859375,-400000.0625
283.66921973228455,-400000.0625,-1615.3800048828125,-9223.7998046875,-400000.0625,-8238.26953125,-400000.0625,-24086.5703125,-400000.0625
283.6739387512207,-400000.0625,-1634.5999755859375,-9240.099609375,-400000.0625,-8254.48046875,-400000.0625,-24099.44921875,-400000.0625
283.6739478111267,-400000.0625,-1629.68994140625,-9238.76953125,-400000.0625,-8257.490234375,-400000.0625,-24096.009765625,-400000.0625
283.6739525794983,-400000.0625,-1615.52001953125,-9224.0302734375,-400000.0625,-8240.990234375,-400000.0625,-24088.580078125,-400000.0625
283.67395639419556,-400000.0625,-1602.27001953125,-9208.73046875,-400000.0625,-8226.9697265625,-400000.0625,-24075.080078125,-400000.0625
283.6739616394043,-400000.0625,-1612.0,-9219.3095703125,-400000.0625,-8227.4404296875,-400000.0625,-24087.529296875,-400000.0625
283.6739659309387,-400000.0625,-1631.260009765625,-9241.3896484375,-400000.0625,-8251.1396484375,-400000.0625,-24096.869140625,-400000.0625
283.6739695072174,-400000.0625,-1628.9200439453125,-9240.9599609375,-400000.0625,-8255.91015625,-400000.0625,-24092.8203125,-400000.0625
283.6739733219147,-400000.0625,-1605.219970703125,-9216.6396484375,-400000.0625,-8235.5498046875,-400000.0625,-24071.890625,-400000.0625
283.67397689819336,-400000.0625,-1588.25,-9195.3798828125,-400000.0625,-8219.0,-400000.0625,-24071.9296875,-400000.0625
283.67398047447205,-400000.0625,-1597.5999755859375,-9204.91015625,-400000.0625,-8227.9697265625,-400000.0625,-24069.599609375,-400000.0625
283.6739842891693,-400000.0625,-1625.9200439453125,-9234.759765625,-400000.0625,-8255.0498046875,-400000.0625,-24093.009765625,-400000.0625
283.673987865448,-400000.0625,-1627.25,-9237.9599609375,-400000.0625,-8252.4296875,-400000.0625,-24099.310546875,-400000.0625
283.6739914417267,-400000.0625,-1615.6700439453125,-9222.4599609375,-400000.0625,-8226.2001953125,-400000.0625,-24088.240234375,-400000.0625
283.67399501800537,-400000.0625,-1601.5999755859375,-9207.5400390625,-400000.0625,-8218.8603515625,-400000.0625,-24075.75,-400000.0625
283.7267074584961,-400000.0625,-1612.5699462890625,-9223.080078125,-400000.0625,-8238.41015625,-400000.0625,-24084.279296875,-400000.0625
283.74092507362366,-400000.0625,-1631.6400146484375,-9241.6796875,-400000.0625,-8254.4296875,-400000.0625,-24095.349609375,-400000.0625
283.7456965446472,-400000.0625,-1630.5899658203125,-9237.669921875,-400000.0625,-8247.0,-400000.0625,-24094.30078125,-400000.0625
283.74570512771606,-400000.0625,-1607.0400390625,-9212.919921875,-400000.0625,-8232.4501953125,-400000.0625,-24078.419921875,-400000.0625
283.7457094192505,-400000.0625,-1595.6400146484375,-9201.5302734375,-400000.0625,-8219.8203125,-400000.0625,-24069.119140625,-400000.0625
283.74571347236633,-400000.0625,-1607.75,-9214.8798828125,-400000.0625,-8229.830078125,-400000.0625,-24079.66015625,-400000.0625
283.7457172870636,-400000.0625,-1627.25,-9235.33984375,-400000.0625,-8245.08984375,-400000.0625,-24091.91015625,-400000.0625
283.74572134017944,-400000.0625,-1626.8699951171875,-9236.669921875,-400000.0625,-8255.580078125,-400000.0625,-24085.619140625,-400000.0625
283.7457251548767,-400000.0625,-1606.800048828125,-9214.9296875,-400000.0625,-8230.9697265625,-400000.0625,-24073.83984375,-400000.0625
283.7457287311554,-400000.0625,-1583.8599853515625,-9187.7001953125,-400000.0625,-8200.2197265625,-400000.0625,-24059.390625,-400000.0625
283.74573254585266,-400000.0625,-1606.510009765625,-9209.8701171875,-400000.0625,-8220.8603515625,-400000.0625,-24074.029296875,-400000.0625
283.7457363605499,-400000.0625,-1628.68994140625,-9233.1396484375,-400000.0625,-8247.5703125,-400000.0625,-24088.810546875,-400000.0625
283.7457411289215,-400000.0625,-1631.68994140625,-9236.0498046875,-400000.0625,-8253.5302734375,-400000.0625,-24093.8203125,-400000.0625
283.7457447052002,-400000.0625,-1612.0899658203125,-9219.1201171875,-400000.0625,-8237.740234375,-400000.0625,-24087.380859375,-400000.0625
283.7457492351532,-400000.0625,-1596.5899658203125,-9203.0498046875,-400000.0625,-8224.490234375,-400000.0625,-24072.4609375,-400000.0625
283.74575304985046,-400000.0625,-1610.3299560546875,-9214.740234375,-400000.0625,-8241.080078125,-400000.0625,-24078.80078125,-400000.0625
283.7972044944763,-400000.0625,-1630.3499755859375,-9232.8603515625,-400000.0625,-8253.8095703125,-400000.0625,-24086.05078125,-400000.0625
283.80255579948425,-400000.0625,-1631.260009765625,-9233.900390625,-400000.0625,-8247.0400390625,-400000.0625,-24084.51953125,-400000.0625
283.8075668811798,-400000.0625,-1607.0400390625,-9211.259765625,-400000.0625,-8225.349609375,-400000.0625,-24076.130859375,-400000.0625
283.8116888999939,-400000.0625,-1595.449951171875,-9195.6103515625,-400000.0625,-8213.7099609375,-400000.0625,-24068.55078125,-400000.0625
283.81169748306274,-400000.0625,-1609.52001953125,-9210.25,-400000.0625,-8232.8798828125,-400000.0625,-24073.69921875,-400000.0625
283.81170201301575,-400000.0625,-1631.1199951171875,-9234.48046875,-400000.0625,-8245.330078125,-400000.0625,-24088.810546875,-400000.0625
283.81170654296875,-400000.0625,-1636.5999755859375,-9235.3798828125,-400000.0625,-8241.23046875,-400000.0625,-24090.25,-400000.0625
283.81171131134033,-400000.0625,-1616.4300537109375,-9214.740234375,-400000.0625,-8229.7802734375,-400000.0625,-24080.330078125,-400000.0625
283.81171560287476,-400000.0625,-1596.780029296875,-9195.1904296875,-400000.0625,-8207.0400390625,-400000.0625,-24060.25,-400000.0625
283.8117196559906,-400000.0625,-1611.9000244140625,-9209.4404296875,-400000.0625,-8218.3798828125,-400000.0625,-24067.5,-400000.0625
283.8117241859436,-400000.0625,-1646.1400146484375,-9243.5400390625,-400000.0625,-8254.669921875,-400000.0625,-24095.630859375,-400000.0625
283.811728477478,-400000.0625,-1653.719970703125,-9246.73046875,-400000.0625,-8257.8203125,-400000.0625,-24095.970703125,-400000.0625
283.8117322921753,-400000.0625,-1637.75,-9223.2197265625,-400000.0625,-8234.8798828125,-400000.0625,-24080.609375,-400000.0625
283.8117365837097,-400000.0625,-1624.06005859375,-9206.8203125,-400000.0625,-8214.51953125,-400000.0625,-24074.990234375,-400000.0625
283.811740398407,-400000.0625,-1634.5999755859375,-9216.7900390625,-400000.0625,-8218.9599609375,-400000.0625,-24094.919921875,-400000.0625
283.8117444515228,-400000.0625,-1663.8299560546875,-9241.2001953125,-400000.0625,-8233.8798828125,-400000.0625,-24109.220703125,-400000.0625
283.8644652366638,-400000.0625,-1672.4100341796875,-9246.919921875,-400000.0625,-8238.26953125,-400000.0625,-24109.80078125,-400000.0625
283.87834000587463,-400000.0625,-1658.1099853515625,-9229.2802734375,-400000.0625,-8220.009765625,-400000.0625,-24099.2109375,-400000.0625
283.8835458755493,-400000.0625,-1644.56005859375,-9216.6396484375,-400000.0625,-8213.08984375,-400000.0625,-24094.6796875,-400000.0625
283.88862013816833,-400000.0625,-1671.510009765625,-9238.009765625,-400000.0625,-8232.169921875,-400000.0625,-24103.7890625,-400000.0625
283.8931813240051,-400000.0625,-1701.6400146484375,-9257.1298828125,-400000.0625,-8237.2197265625,-400000.0625,-24115.1796875,-400000.0625
283.89319014549255,-400000.0625,-1680.469970703125,-9242.2001953125,-400000.0625,-8225.5400390625,-400000.0625,-24106.83984375,-400000.0625
283.893194437027,-400000.0625,-1665.449951171875,-9229.7099609375,-400000.0625,-8221.2001953125,-400000.0625,-24102.98046875,-400000.0625
283.8931987285614,-400000.0625,-1664.9200439453125,-9224.3701171875,-400000.0625,-8215.9501953125,-400000.0625,-24105.359375,-400000.0625
283.8932030200958,-400000.0625,-1681.280029296875,-9237.0498046875,-400000.0625,-8224.150390625,-400000.0625,-24120.140625,-400000.0625
283.89320707321167,-400000.0625,-1699.68994140625,-9252.3095703125,-400000.0625,-8236.650390625,-400000.0625,-24133.640625,-400000.0625
283.8932123184204,-400000.0625,-1707.5999755859375,-9259.26953125,-400000.0625,-8245.08984375,-400000.0625,-24140.220703125,-400000.0625
283.8932161331177,-400000.0625,-1698.300048828125,-9235.759765625,-400000.0625,-8221.33984375,-400000.0625,-24128.33984375,-400000.0625
283.8932204246521,-400000.0625,-1686.050048828125,-9220.7900390625,-400000.0625,-8209.66015625,-400000.0625,-24121.48046875,-400000.0625
283.89322447776794,-400000.0625,-1716.0400390625,-9235.7197265625,-400000.0625,-8223.919921875,-400000.0625,-24138.41015625,-400000.0625
283.8932285308838,-400000.0625,-1749.6099853515625,-9256.7900390625,-400000.0625,-8235.4599609375,-400000.0625,-24152.5703125,-400000.0625
283.8932321071625,-400000.0625,-1743.3599853515625,-9255.26953125,-400000.0625,-8227.0595703125,-400000.0625,-24154.859375,-400000.0625
283.9487409591675,-400000.0625,-1742.030029296875,-9240.8701171875,-400000.0625,-8208.1796875,-400000.0625,-24152.470703125,-400000.0625
283.9539432525635,-400000.0625,-1736.1199951171875,-9229.3798828125,-400000.0625,-8193.4501953125,-400000.0625,-24149.279296875,-400000.0625
283.958993434906,-400000.0625,-1743.699951171875,-9236.6201171875,-400000.0625,-8194.0703125,-400000.0625,-24155.4296875,-400000.0625
283.9634883403778,-400000.0625,-1785.56005859375,-9271.099609375,-400000.0625,-8223.150390625,-400000.0625,-24183.130859375,-400000.0625
283.96349596977234,-400000.0625,-1798.1500244140625,-9276.4404296875,-400000.0625,-8229.2099609375,-400000.0625,-24186.330078125,-400000.0625
283.9635007381439,-400000.0625,-1792.719970703125,-9262.2802734375,-400000.0625,-8213.1396484375,-400000.0625,-24178.130859375,-400000.0625
283.9635043144226,-400000.0625,-1782.699951171875,-9250.6904296875,-400000.0625,-8201.41015625,-400000.0625,-24168.01953125,-400000.0625
283.96350836753845,-400000.0625,-1793.4300537109375,-9260.66015625,-400000.0625,-8212.2802734375,-400000.0625,-24170.44921875,-400000.0625
283.9635126590729,-400000.0625,-1814.030029296875,-9280.01953125,-400000.0625,-8225.490234375,-400000.0625,-24183.560546875,-400000.0625
283.9635167121887,-400000.0625,-1818.22998046875,-9282.830078125,-400000.0625,-8227.349609375,-400000.0625,-24183.990234375,-400000.0625
283.963520526886,-400000.0625,-1804.8800048828125,-9266.4697265625,-400000.0625,-8214.7099609375,-400000.0625,-24172.5,-400000.0625
283.96352434158325,-400000.0625,-1793.050048828125,-9254.7001953125,-400000.0625,-8199.259765625,-400000.0625,-24162.33984375,-400000.0625
283.9635283946991,-400000.0625,-1804.72998046875,-9268.900390625,-400000.0625,-8208.3203125,-400000.0625,-24177.359375,-400000.0625
283.96353220939636,-400000.0625,-1820.3699951171875,-9283.73046875,-400000.0625,-8224.3896484375,-400000.0625,-24183.0390625,-400000.0625
283.9635362625122,-400000.0625,-1816.3699951171875,-9279.1103515625,-400000.0625,-8214.0,-400000.0625,-24176.509765625,-400000.0625
283.96354031562805,-400000.0625,-1809.0699462890625,-9269.240234375,-400000.0625,-8201.4599609375,-400000.0625,-24175.169921875,-400000.0625
284.0136544704437,-400000.0625,-1804.2099609375,-9263.23046875,-400000.0625,-8194.7802734375,-400000.0625,-24171.44921875,-400000.0625
284.02634954452515,-400000.0625,-1814.56005859375,-9274.580078125,-400000.0625,-8211.419921875,-400000.0625,-24180.080078125,-400000.0625
284.03062868118286,-400000.0625,-1837.4000244140625,-9298.23046875,-400000.0625,-8234.0302734375,-400000.0625,-24189.810546875,-400000.0625
284.03063678741455,-400000.0625,-1832.9100341796875,-9296.23046875,-400000.0625,-8229.8798828125,-400000.0625,-24178.359375,-400000.0625
284.03064131736755,-400000.0625,-1807.02001953125,-9269.5703125,-400000.0625,-8216.1904296875,-400000.0625,-24161.48046875,-400000.0625
284.03064608573914,-400000.0625,-1788.22998046875,-9252.98046875,-400000.0625,-8201.41015625,-400000.0625,-24148.509765625,-400000.0625
284.03065037727356,-400000.0625,-1800.5899658203125,-9266.849609375,-400000.0625,-8212.759765625,-400000.0625,-24161.19921875,-400000.0625
284.030654668808,-400000.0625,-1823.3800048828125,-9288.83984375,-400000.0625,-8220.33984375,-400000.0625,-24170.740234375,-400000.0625
284.0306589603424,-400000.0625,-1808.739990234375,-9277.76953125,-400000.0625,-8206.9404296875,-400000.0625,-24159.76953125,-400000.0625
284.03066325187683,-400000.0625,-1797.2900390625,-9263.23046875,-400000.0625,-8204.2197265625,-400000.0625,-24152.7109375,-400000.0625
284.03066849708557,-400000.0625,-1803.260009765625,-9268.0498046875,-400000.0625,-8212.66015625,-400000.0625,-24163.25,-400000.0625
284.03067231178284,-400000.0625,-1811.4100341796875,-9274.4404296875,-400000.0625,-8218.9599609375,-400000.0625,-24166.6796875,-400000.0625
284.03067684173584,-400000.0625,-1828.0,-9291.1298828125,-400000.0625,-8225.5400390625,-400000.0625,-24174.5,-400000.0625
284.0306808948517,-400000.0625,-1816.8499755859375,-9291.8896484375,-400000.0625,-8219.8203125,-400000.0625,-24169.01953125,-400000.0625
284.03068447113037,-400000.0625,-1797.719970703125,-9267.900390625,-400000.0625,-8202.0302734375,-400000.0625,-24160.48046875,-400000.0625
284.0306885242462,-400000.0625,-1784.3199462890625,-9249.16015625,-400000.0625,-8197.2099609375,-400000.0625,-24147.69921875,-400000.0625
284.0555100440979,-400000.0625,-1798.72998046875,-9258.080078125,-400000.0625,-8212.9501953125,-400000.0625,-24152.94921875,-400000.0625
284.0606529712677,-400000.0625,-1821.760009765625,-9275.7197265625,-400000.0625,-8229.400390625,-400000.0625,-24167.970703125,-400000.0625
284.0652070045471,-400000.0625,-1838.3499755859375,-9267.669921875,-400000.0625,-8216.91015625,-400000.0625,-24160.91015625,-400000.0625
284.0652198791504,-400000.0625,-1805.969970703125,-9254.41015625,-400000.0625,-8196.740234375,-400000.0625,-24153.619140625,-400000.0625
284.06522512435913,-400000.0625,-1804.4000244140625,-9248.259765625,-400000.0625,-8191.58984375,-400000.0625,-24151.189453125,-400000.0625
284.06522941589355,-400000.0625,-1820.22998046875,-9266.6201171875,-400000.0625,-8208.3203125,-400000.0625,-24161.150390625,-400000.0625
284.0652332305908,-400000.0625,-1854.989990234375,-9305.5302734375,-400000.0625,-8225.25,-400000.0625,-24184.470703125,-400000.0625
284.0652379989624,-400000.0625,-1871.4000244140625,-9290.41015625,-400000.0625,-8222.150390625,-400000.0625,-24177.029296875,-400000.0625
284.0652425289154,-400000.0625,-1859.3800048828125,-9250.169921875,-400000.0625,-8192.01953125,-400000.0625,-24168.830078125,-400000.0625
284.06524682044983,-400000.0625,-1862.050048828125,-9242.5400390625,-400000.0625,-8172.1298828125,-400000.0625,-24173.44921875,-400000.0625
284.06525135040283,-400000.0625,-1883.699951171875,-9270.240234375,-400000.0625,-8188.919921875,-400000.0625,-24199.109375,-400000.0625
284.0652561187744,-400000.0625,-1933.2900390625,-9302.240234375,-400000.0625,-8205.080078125,-400000.0625,-24224.51953125,-400000.0625
284.0652606487274,-400000.0625,-1957.0799560546875,-9307.669921875,-400000.0625,-8213.8095703125,-400000.0625,-24222.0390625,-400000.0625
284.0652656555176,-400000.0625,-1968.239990234375,-9292.169921875,-400000.0625,-8187.68017578125,-400000.0625,-24222.419921875,-400000.0625
284.065269947052,-400000.0625,-1985.8800048828125,-9272.0498046875,-400000.0625,-8161.68994140625,-400000.0625,-24225.05078125,-400000.0625
284.06527519226074,-400000.0625,-2027.93994140625,-9313.0595703125,-400000.0625,-8163.740234375,-400000.0625,-24248.4609375,-400000.0625
284.1106655597687,-400000.0625,-2086.929931640625,-9337.8603515625,-400000.0625,-8169.3701171875,-400000.0625,-24272.970703125,-400000.0625
284.11710000038147,-400000.0625,-2120.590087890625,-9345.48046875,-400000.0625,-8165.8798828125,-400000.0625,-24282.55078125,-400000.0625
284.1305961608887,-400000.0625,-2146.820068359375,-9334.66015625,-400000.0625,-8140.52001953125,-400000.0625,-24296.330078125,-400000.0625
284.13610100746155,-400000.0625,-2161.840087890625,-9315.1103515625,-400000.0625,-8121.97021484375,-400000.0625,-24297.529296875,-400000.0625
284.1408610343933,-400000.0625,-2166.27001953125,-9312.2998046875,-400000.0625,-8117.14990234375,-400000.0625,-24300.439453125,-400000.0625
284.14087104797363,-400000.0625,-2205.0400390625,-9319.58984375,-400000.0625,-8127.5,-400000.0625,-24318.890625,-400000.0625
284.14087557792664,-400000.0625,-2233.64990234375,-9335.4697265625,-400000.0625,-8129.169921875,-400000.0625,-24325.419921875,-400000.0625
284.1408796310425,-400000.0625,-2243.469970703125,-9307.7197265625,-400000.0625,-8100.60986328125,-400000.0625,-24313.599609375,-400000.0625
284.14088320732117,-400000.0625,-2221.580078125,-9279.2001953125,-400000.0625,-8078.0498046875,-400000.0625,-24299.619140625,-400000.0625
284.14088702201843,-400000.0625,-2241.330078125,-9295.1796875,-400000.0625,-8094.1201171875,-400000.0625,-24311.44921875,-400000.0625
284.1408910751343,-400000.0625,-2279.7099609375,-9313.6796875,-400000.0625,-8111.72021484375,-400000.0625,-24323.080078125,-400000.0625
284.14089465141296,-400000.0625,-2287.719970703125,-9307.0498046875,-400000.0625,-8101.31982421875,-400000.0625,-24326.140625,-400000.0625
284.14089822769165,-400000.0625,-2272.419921875,-9269.9501953125,-400000.0625,-8069.3701171875,-400000.0625,-24305.490234375,-400000.0625
284.1409020423889,-400000.0625,-2262.070068359375,-9246.2099609375,-400000.0625,-8042.669921875,-400000.0625,-24286.080078125,-400000.0625
284.14090752601624,-400000.0625,-2294.72998046875,-9271.150390625,-400000.0625,-8062.60009765625,-400000.0625,-24305.8203125,-400000.0625
284.1409115791321,-400000.0625,-2316.0,-9298.900390625,-400000.0625,-8096.27001953125,-400000.0625,-24325.900390625,-400000.0625
284.1765193939209,-400000.0625,-2318.18994140625,-9303.1396484375,-400000.0625,-8098.41015625,-400000.0625,-24330.08984375,-400000.0625
284.181800365448,-400000.0625,-2305.169921875,-9271.8603515625,-400000.0625,-8072.81005859375,-400000.0625,-24315.0703125,-400000.0625
284.1867537498474,-400000.0625,-2289.389892578125,-9261.3701171875,-400000.0625,-8059.93017578125,-400000.0625,-24305.390625,-400000.0625
284.18676352500916,-400000.0625,-2305.360107421875,-9277.009765625,-400000.0625,-8067.080078125,-400000.0625,-24312.7890625,-400000.0625
284.186767578125,-400000.0625,-2331.35009765625,-9290.41015625,-400000.0625,-8085.81982421875,-400000.0625,-24323.849609375,-400000.0625
284.1867718696594,-400000.0625,-2325.199951171875,-9282.01953125,-400000.0625,-8084.10986328125,-400000.0625,-24309.830078125,-400000.0625
284.1867756843567,-400000.0625,-2306.64990234375,-9276.9599609375,-400000.0625,-8067.89013671875,-400000.0625,-24294.05078125,-400000.0625
284.18677973747253,-400000.0625,-2290.919921875,-9262.5595703125,-400000.0625,-8058.35986328125,-400000.0625,-24285.1796875,-400000.0625
284.1867837905884,-400000.0625,-2303.219970703125,-9275.490234375,-400000.0625,-8065.64990234375,-400000.0625,-24303.150390625,-400000.0625
284.18678736686707,-400000.0625,-2333.159912109375,-9299.7998046875,-400000.0625,-8082.9599609375,-400000.0625,-24308.779296875,-400000.0625
284.18679118156433,-400000.0625,-2324.14990234375,-9287.7900390625,-400000.0625,-8074.3798828125,-400000.0625,-24291.470703125,-400000.0625
284.1867949962616,-400000.0625,-2302.550048828125,-9270.8603515625,-400000.0625,-8059.169921875,-400000.0625,-24279.220703125,-400000.0625
284.18679881095886,-400000.0625,-2290.820068359375,-9265.08984375,-400000.0625,-8050.77978515625,-400000.0625,-24271.8203125,-400000.0625
284.1868028640747,-400000.0625,-2295.919921875,-9279.73046875,-400000.0625,-8067.7001953125,-400000.0625,-24279.220703125,-400000.0625
284.18680691719055,-400000.0625,-2308.4599609375,-9304.91015625,-400000.0625,-8108.89990234375,-400000.0625,-24285.83984375,-400000.0625
284.1868109703064,-400000.0625,-2296.070068359375,-9308.0498046875,-400000.0625,-8115.10009765625,-400000.0625,-24280.55078125,-400000.0625
284.2853481769562,-400000.0625,-2261.2099609375,-9286.3603515625,-400000.0625,-8095.06982421875,-400000.0625,-24254.1796875,-400000.0625
284.3009738922119,-400000.0625,-2224.5400390625,-9275.76953125,-400000.0625,-8082.580078125,-400000.0625,-24232.390625,-400000.0625
284.3060665130615,-400000.0625,-2217.47998046875,-9297.4697265625,-400000.0625,-8111.3798828125,-400000.0625,-24234.580078125,-400000.0625
284.31062865257263,-400000.0625,-2222.8701171875,-9322.9296875,-400000.0625,-8141.18017578125,-400000.0625,-24238.44921875,-400000.0625
284.3106367588043,-400000.0625,-2203.27001953125,-9326.509765625,-400000.0625,-8138.85009765625,-400000.0625,-24228.4296875,-400000.0625
284.31064105033875,-400000.0625,-2144.18994140625,-9302.51953125,-400000.0625,-8124.919921875,-400000.0625,-24202.16015625,-400000.0625
284.3106451034546,-400000.0625,-2109.47998046875,-9293.75,-400000.0625,-8121.919921875,-400000.0625,-24186.759765625,-400000.0625
284.31064891815186,-400000.0625,-2120.969970703125,-9320.830078125,-400000.0625,-8155.72998046875,-400000.0625,-24204.16015625,-400000.0625
284.31065249443054,-400000.0625,-2120.639892578125,-9346.919921875,-400000.0625,-8191.490234375,-400000.0625,-24212.169921875,-400000.0625
284.3106565475464,-400000.0625,-2100.659912109375,-9350.9697265625,-400000.0625,-8199.5498046875,-400000.0625,-24215.509765625,-400000.0625
284.3106601238251,-400000.0625,-2061.219970703125,-9335.1396484375,-400000.0625,-8184.2900390625,-400000.0625,-24202.060546875,-400000.0625
284.3106641769409,-400000.0625,-2027.56005859375,-9321.259765625,-400000.0625,-8180.0,-400000.0625,-24185.849609375,-400000.0625
284.31066846847534,-400000.0625,-2017.31005859375,-9330.26953125,-400000.0625,-8192.919921875,-400000.0625,-24192.810546875,-400000.0625
284.3106722831726,-400000.0625,-2020.8800048828125,-9351.0595703125,-400000.0625,-8215.7099609375,-400000.0625,-24203.01953125,-400000.0625
284.3106758594513,-400000.0625,-2008.530029296875,-9350.349609375,-400000.0625,-8223.8701171875,-400000.0625,-24197.580078125,-400000.0625
284.3106801509857,-400000.0625,-1977.489990234375,-9327.75,-400000.0625,-8206.1298828125,-400000.0625,-24180.890625,-400000.0625
284.3165092468262,-400000.0625,-1953.3199462890625,-9314.009765625,-400000.0625,-8195.1201171875,-400000.0625,-24173.359375,-400000.0625
284.3219621181488,-400000.0625,-1950.97998046875,-9324.41015625,-400000.0625,-8212.3798828125,-400000.0625,-24176.310546875,-400000.0625
284.32712626457214,-400000.0625,-1947.449951171875,-9332.2802734375,-400000.0625,-8232.3095703125,-400000.0625,-24176.650390625,-400000.0625
284.3324956893921,-400000.0625,-1935.530029296875,-9328.3701171875,-400000.0625,-8231.0703125,-400000.0625,-24166.630859375,-400000.0625
284.3379137516022,-400000.0625,-1915.31005859375,-9316.2998046875,-400000.0625,-8217.91015625,-400000.0625,-24158.669921875,-400000.0625
284.3426995277405,-400000.0625,-1897.9100341796875,-9304.9501953125,-400000.0625,-8220.76953125,-400000.0625,-24151.23046875,-400000.0625
284.3427109718323,-400000.0625,-1900.3900146484375,-9312.76953125,-400000.0625,-8230.5,-400000.0625,-24156.099609375,-400000.0625
284.34271574020386,-400000.0625,-1907.9200439453125,-9328.7998046875,-400000.0625,-8243.6103515625,-400000.0625,-24160.099609375,-400000.0625
284.3427197933197,-400000.0625,-1906.199951171875,-9330.9404296875,-400000.0625,-8259.1103515625,-400000.0625,-24160.439453125,-400000.0625
284.34272384643555,-400000.0625,-1882.4100341796875,-9310.76953125,-400000.0625,-8244.4697265625,-400000.0625,-24141.740234375,-400000.0625
284.3427276611328,-400000.0625,-1860.239990234375,-9293.3203125,-400000.0625,-8222.33984375,-400000.0625,-24121.529296875,-400000.0625
284.3427312374115,-400000.0625,-1863.4300537109375,-9301.5703125,-400000.0625,-8226.25,-400000.0625,-24127.150390625,-400000.0625
284.34273505210876,-400000.0625,-1871.010009765625,-9315.58984375,-400000.0625,-8251.240234375,-400000.0625,-24128.439453125,-400000.0625
284.34273886680603,-400000.0625,-1864.5799560546875,-9309.580078125,-400000.0625,-8244.08984375,-400000.0625,-24120.94921875,-400000.0625
284.3427426815033,-400000.0625,-1853.75,-9298.51953125,-400000.0625,-8227.6796875,-400000.0625,-24115.330078125,-400000.0625
284.342746257782,-400000.0625,-1848.4599609375,-9296.23046875,-400000.0625,-8229.58984375,-400000.0625,-24120.240234375,-400000.0625
284.3717293739319,-400000.0625,-1855.8499755859375,-9306.4296875,-400000.0625,-8236.7001953125,-400000.0625,-24126.580078125,-400000.0625
284.3770272731781,-400000.0625,-1861.0999755859375,-9315.1103515625,-400000.0625,-8247.66015625,-400000.0625,-24125.669921875,-400000.0625
284.38176822662354,-400000.0625,-1858.18994140625,-9316.400390625,-400000.0625,-8248.900390625,-400000.0625,-24128.009765625,-400000.0625
284.38177847862244,-400000.0625,-1840.5,-9301.0,-400000.0625,-8235.3095703125,-400000.0625,-24113.130859375,-400000.0625
284.38178300857544,-400000.0625,-1829.239990234375,-9288.7900390625,-400000.0625,-8223.8701171875,-400000.0625,-24100.740234375,-400000.0625
284.38178730010986,-400000.0625,-1829.199951171875,-9294.650390625,-400000.0625,-8236.7001953125,-400000.0625,-24108.599609375,-400000.0625
284.38179183006287,-400000.0625,-1844.68994140625,-9316.7802734375,-400000.0625,-8261.2998046875,-400000.0625,-24113.23046875,-400000.0625
284.3817961215973,-400000.0625,-1848.6500244140625,-9317.830078125,-400000.0625,-8246.0400390625,-400000.0625,-24107.75,-400000.0625
284.38180017471313,-400000.0625,-1825.949951171875,-9296.1796875,-400000.0625,-8224.8701171875,-400000.0625,-24101.779296875,-400000.0625
284.38180446624756,-400000.0625,-1816.989990234375,-9289.3603515625,-400000.0625,-8232.6396484375,-400000.0625,-24100.0703125,-400000.0625
284.3818085193634,-400000.0625,-1833.43994140625,-9308.5302734375,-400000.0625,-8246.0400390625,-400000.0625,-24105.119140625,-400000.0625
284.38181257247925,-400000.0625,-1840.6400146484375,-9321.830078125,-400000.0625,-8255.009765625,-400000.0625,-24117.279296875,-400000.0625
284.3818168640137,-400000.0625,-1835.199951171875,-9319.5,-400000.0625,-8263.2998046875,-400000.0625,-24109.130859375,-400000.0625
284.38182067871094,-400000.0625,-1817.510009765625,-9303.08984375,-400000.0625,-8239.3203125,-400000.0625,-24094.16015625,-400000.0625
284.3818247318268,-400000.0625,-1810.3599853515625,-9296.3701171875,-400000.0625,-8221.2001953125,-400000.0625,-24093.6796875,-400000.0625
284.38182854652405,-400000.0625,-1814.0799560546875,-9300.66015625,-400000.0625,-8239.599609375,-400000.0625,-24094.390625,-400000.0625
284.4331376552582,-400000.0625,-1828.6199951171875,-9313.73046875,-400000.0625,-8264.400390625,-400000.0625,-24098.58984375,-400000.0625
284.44702529907227,-400000.0625,-1833.6300048828125,-9324.26953125,-400000.0625,-8271.7900390625,-400000.0625,-24094.25,-400000.0625
284.45185828208923,-400000.0625,-1817.3199462890625,-9310.099609375,-400000.0625,-8245.08984375,-400000.0625,-24084.330078125,-400000.0625
284.4518687725067,-400000.0625,-1800.199951171875,-9301.7099609375,-400000.0625,-8228.4501953125,-400000.0625,-24078.419921875,-400000.0625
284.45187306404114,-400000.0625,-1799.8699951171875,-9311.009765625,-400000.0625,-8234.5498046875,-400000.0625,-24080.369140625,-400000.0625
284.4518780708313,-400000.0625,-1808.1199951171875,-9320.7802734375,-400000.0625,-8251.0,-400000.0625,-24093.109375,-400000.0625
284.45188307762146,-400000.0625,-1825.52001953125,-9332.08984375,-400000.0625,-8261.9697265625,-400000.0625,-24092.439453125,-400000.0625
284.4518904685974,-400000.0625,-1817.1300048828125,-9324.3603515625,-400000.0625,-8265.830078125,-400000.0625,-24089.669921875,-400000.0625
284.4518949985504,-400000.0625,-1801.9200439453125,-9311.150390625,-400000.0625,-8247.4697265625,-400000.0625,-24079.470703125,-400000.0625
284.45189905166626,-400000.0625,-1806.3499755859375,-9317.6904296875,-400000.0625,-8252.1904296875,-400000.0625,-24084.240234375,-400000.0625
284.45190358161926,-400000.0625,-1818.93994140625,-9334.4697265625,-400000.0625,-8272.7001953125,-400000.0625,-24094.25,-400000.0625
284.4519076347351,-400000.0625,-1824.6700439453125,-9339.3798828125,-400000.0625,-8273.8896484375,-400000.0625,-24094.349609375,-400000.0625
284.45191168785095,-400000.0625,-1809.9300537109375,-9323.5,-400000.0625,-8253.3798828125,-400000.0625,-24085.94921875,-400000.0625
284.4519155025482,-400000.0625,-1791.5699462890625,-9306.099609375,-400000.0625,-8238.3603515625,-400000.0625,-24075.080078125,-400000.0625
284.4519193172455,-400000.0625,-1804.8299560546875,-9318.5400390625,-400000.0625,-8247.9501953125,-400000.0625,-24083.470703125,-400000.0625
284.45192289352417,-400000.0625,-1820.1400146484375,-9337.3798828125,-400000.0625,-8259.1103515625,-400000.0625,-24094.5390625,-400000.0625
284.5078864097595,-400000.0625,-1818.6099853515625,-9338.08984375,-400000.0625,-8268.01953125,-400000.0625,-24095.779296875,-400000.0625
284.5130491256714,-400000.0625,-1801.1099853515625,-9319.5,-400000.0625,-8256.48046875,-400000.0625,-24085.140625,-400000.0625
284.51856446266174,-400000.0625,-1781.1300048828125,-9296.7001953125,-400000.0625,-8225.7802734375,-400000.0625,-24065.0703125,-400000.0625
284.52281498908997,-400000.0625,-1796.8199462890625,-9314.73046875,-400000.0625,-8239.83984375,-400000.0625,-24080.80078125,-400000.0625
284.52282428741455,-400000.0625,-1824.52001953125,-9343.6298828125,-400000.0625,-8276.990234375,-400000.0625,-24105.689453125,-400000.0625
284.5228292942047,-400000.0625,-1829.199951171875,-9348.4404296875,-400000.0625,-8281.990234375,-400000.0625,-24104.359375,-400000.0625
284.52283358573914,-400000.0625,-1813.3599853515625,-9328.599609375,-400000.0625,-8263.6796875,-400000.0625,-24086.720703125,-400000.0625
284.522837638855,-400000.0625,-1795.3399658203125,-9311.25,-400000.0625,-8247.849609375,-400000.0625,-24075.029296875,-400000.0625
284.5228419303894,-400000.0625,-1801.9200439453125,-9322.2197265625,-400000.0625,-8253.8603515625,-400000.0625,-24085.48046875,-400000.0625
284.52284574508667,-400000.0625,-1817.75,-9339.759765625,-400000.0625,-8264.7802734375,-400000.0625,-24092.529296875,-400000.0625
284.52284955978394,-400000.0625,-1820.0400390625,-9341.5302734375,-400000.0625,-8264.830078125,-400000.0625,-24098.58984375,-400000.0625
284.52285408973694,-400000.0625,-1802.6800537109375,-9324.3095703125,-400000.0625,-8238.7001953125,-400000.0625,-24092.009765625,-400000.0625
284.5228590965271,-400000.0625,-1783.510009765625,-9310.580078125,-400000.0625,-8232.169921875,-400000.0625,-24081.94921875,-400000.0625
284.52286291122437,-400000.0625,-1793.47998046875,-9322.01953125,-400000.0625,-8248.4296875,-400000.0625,-24084.94921875,-400000.0625
284.5228669643402,-400000.0625,-1818.510009765625,-9345.150390625,-400000.0625,-8267.01953125,-400000.0625,-24095.73046875,-400000.0625
284.52287101745605,-400000.0625,-1817.6600341796875,-9345.009765625,-400000.0625,-8270.6904296875,-400000.0625,-24092.580078125,-400000.0625
284.5628819465637,-400000.0625,-1791.0999755859375,-9321.8798828125,-400000.0625,-8252.1396484375,-400000.0625,-24074.3203125,-400000.0625
284.5767629146576,-400000.0625,-1791.18994140625,-9320.0703125,-400000.0625,-8243.7998046875,-400000.0625,-24078.849609375,-400000.0625
284.58226799964905,-400000.0625,-1808.5999755859375,-9338.0,-400000.0625,-8255.669921875,-400000.0625,-24096.25,-400000.0625
284.58785104751587,-400000.0625,-1823.949951171875,-9353.830078125,-400000.0625,-8270.740234375,-400000.0625,-24104.41015625,-400000.0625
284.5926721096039,-400000.0625,-1827.530029296875,-9357.599609375,-400000.0625,-8267.58984375,-400000.0625,-24097.44921875,-400000.0625
284.5926818847656,-400000.0625,-1813.1700439453125,-9343.33984375,-400000.0625,-8257.099609375,-400000.0625,-24091.91015625,-400000.0625
284.59268712997437,-400000.0625,-1797.9100341796875,-9330.080078125,-400000.0625,-8248.3798828125,-400000.0625,-24091.720703125,-400000.0625
284.5926914215088,-400000.0625,-1809.0699462890625,-9343.240234375,-400000.0625,-8261.400390625,-400000.0625,-24095.630859375,-400000.0625
284.59269547462463,-400000.0625,-1827.5699462890625,-9361.7900390625,-400000.0625,-8276.849609375,-400000.0625,-24100.970703125,-400000.0625
284.5926992893219,-400000.0625,-1820.3699951171875,-9357.259765625,-400000.0625,-8269.6904296875,-400000.0625,-24095.58984375,-400000.0625
284.59270334243774,-400000.0625,-1804.780029296875,-9337.1904296875,-400000.0625,-8255.76953125,-400000.0625,-24083.859375,-400000.0625
284.5927073955536,-400000.0625,-1796.010009765625,-9325.98046875,-400000.0625,-8239.5595703125,-400000.0625,-24075.419921875,-400000.0625
284.5927109718323,-400000.0625,-1802.02001953125,-9335.23046875,-400000.0625,-8247.6103515625,-400000.0625,-24077.75,-400000.0625
284.5927150249481,-400000.0625,-1827.530029296875,-9362.509765625,-400000.0625,-8277.7001953125,-400000.0625,-24100.640625,-400000.0625
284.5927188396454,-400000.0625,-1835.5400390625,-9370.1904296875,-400000.0625,-8283.1904296875,-400000.0625,-24110.080078125,-400000.0625
284.59272289276123,-400000.0625,-1817.8499755859375,-9353.919921875,-400000.0625,-8268.6904296875,-400000.0625,-24097.349609375,-400000.0625
284.6604001522064,-400000.0625,-1804.0699462890625,-9338.669921875,-400000.0625,-8250.4296875,-400000.0625,-24087.4296875,-400000.0625
284.6658537387848,-400000.0625,-1815.3699951171875,-9348.8203125,-400000.0625,-8256.009765625,-400000.0625,-24091.529296875,-400000.0625
284.6789529323578,-400000.0625,-1827.6700439453125,-9364.5595703125,-400000.0625,-8273.9404296875,-400000.0625,-24106.599609375,-400000.0625
284.6845757961273,-400000.0625,-1822.5699462890625,-9360.740234375,-400000.0625,-8280.3701171875,-400000.0625,-24092.25,-400000.0625
284.68949818611145,-400000.0625,-1809.97998046875,-9344.099609375,-400000.0625,-8269.169921875,-400000.0625,-24082.94921875,-400000.0625
284.6895077228546,-400000.0625,-1794.8599853515625,-9334.990234375,-400000.0625,-8245.759765625,-400000.0625,-24075.83984375,-400000.0625
284.6895122528076,-400000.0625,-1806.550048828125,-9344.0498046875,-400000.0625,-8252.240234375,-400000.0625,-24082.619140625,-400000.0625
284.68951630592346,-400000.0625,-1819.800048828125,-9359.0703125,-400000.0625,-8270.2197265625,-400000.0625,-24091.8203125,-400000.0625
284.6895203590393,-400000.0625,-1829.0,-9370.759765625,-400000.0625,-8277.7998046875,-400000.0625,-24103.01953125,-400000.0625
284.689523935318,-400000.0625,-1815.1300048828125,-9355.6904296875,-400000.0625,-8260.0595703125,-400000.0625,-24090.390625,-400000.0625
284.6895275115967,-400000.0625,-1801.969970703125,-9340.2900390625,-400000.0625,-8250.8095703125,-400000.0625,-24087.380859375,-400000.0625
284.68953108787537,-400000.0625,-1809.7900390625,-9347.76953125,-400000.0625,-8263.01953125,-400000.0625,-24085.330078125,-400000.0625
284.6895351409912,-400000.0625,-1824.81005859375,-9364.9404296875,-400000.0625,-8278.75,-400000.0625,-24087.48046875,-400000.0625
284.6895389556885,-400000.0625,-1827.0999755859375,-9371.08984375,-400000.0625,-8289.2900390625,-400000.0625,-24089.630859375,-400000.0625
284.6895432472229,-400000.0625,-1810.97998046875,-9354.400390625,-400000.0625,-8265.9296875,-400000.0625,-24081.189453125,-400000.0625
284.68954730033875,-400000.0625,-1808.5,-9340.8603515625,-400000.0625,-8239.83984375,-400000.0625,-24080.5703125,-400000.0625
284.68955183029175,-400000.0625,-1806.8800048828125,-9340.1904296875,-400000.0625,-8246.9501953125,-400000.0625,-24082.08984375,-400000.0625
284.68955636024475,-400000.0625,-1798.3900146484375,-9352.259765625,-400000.0625,-8266.740234375,-400000.0625,-24089.009765625,-400000.0625
284.6895616054535,-400000.0625,-1827.0999755859375,-9368.51953125,-400000.0625,-8277.5595703125,-400000.0625,-24096.970703125,-400000.0625
284.68956542015076,-400000.0625,-1814.4100341796875,-9351.2998046875,-400000.0625,-8256.8203125,-400000.0625,-24080.470703125,-400000.0625
284.68956899642944,-400000.0625,-1801.8199462890625,-9342.1904296875,-400000.0625,-8241.4599609375,-400000.0625,-24069.83984375,-400000.0625
284.6895728111267,-400000.0625,-1820.949951171875,-9359.6904296875,-400000.0625,-8260.2001953125,-400000.0625,-24075.83984375,-400000.0625
284.689576625824,-400000.0625,-1827.3399658203125,-9375.6201171875,-400000.0625,-8274.0302734375,-400000.0625,-24083.240234375,-400000.0625
284.6895806789398,-400000.0625,-1832.9100341796875,-9379.8203125,-400000.0625,-8279.51953125,-400000.0625,-24087.0,-400000.0625
284.68958473205566,-400000.0625,-1820.52001953125,-9360.169921875,-400000.0625,-8262.919921875,-400000.0625,-24079.330078125,-400000.0625
284.6944651603699,-400000.0625,-1806.3499755859375,-9344.33984375,-400000.0625,-8251.1396484375,-400000.0625,-24069.310546875,-400000.0625
284.69447469711304,-400000.0625,-1810.5999755859375,-9351.830078125,-400000.0625,-8253.4296875,-400000.0625,-24069.259765625,-400000.0625
284.6944797039032,-400000.0625,-1821.5699462890625,-9363.9404296875,-400000.0625,-8262.01953125,-400000.0625,-24072.26953125,-400000.0625
284.69448375701904,-400000.0625,-1820.7099609375,-9363.2197265625,-400000.0625,-8261.58984375,-400000.0625,-24065.640625,-400000.0625
284.6944878101349,-400000.0625,-1816.4599609375,-9359.8896484375,-400000.0625,-8264.16015625,-400000.0625,-24073.3203125,-400000.0625
284.69449186325073,-400000.0625,-1805.8800048828125,-9349.7802734375,-400000.0625,-8263.58984375,-400000.0625,-24074.029296875,-400000.0625
284.6944959163666,-400000.0625,-1811.5,-9356.7900390625,-400000.0625,-8265.7802734375,-400000.0625,-24078.990234375,-400000.0625
284.7517259120941,-400000.0625,-1835.6800537109375,-9379.669921875,-400000.0625,-8275.75,-400000.0625,-24093.109375,-400000.0625
284.7569205760956,-400000.0625,-1833.9599609375,-9376.3798828125,-400000.0625,-8280.08984375,-400000.0625,-24093.25,-400000.0625
284.7616517543793,-400000.0625,-1817.800048828125,-9359.6904296875,-400000.0625,-8263.58984375,-400000.0625,-24079.609375,-400000.0625
284.761661529541,-400000.0625,-1803.9200439453125,-9341.9599609375,-400000.0625,-8239.9404296875,-400000.0625,-24065.2109375,-400000.0625
284.7616665363312,-400000.0625,-1809.550048828125,-9351.7802734375,-400000.0625,-8247.5703125,-400000.0625,-24069.119140625,-400000.0625
284.76167035102844,-400000.0625,-1828.18994140625,-9373.48046875,-400000.0625,-8268.3095703125,-400000.0625,-24079.1796875,-400000.0625
284.76167464256287,-400000.0625,-1833.8699951171875,-9376.6201171875,-400000.0625,-8276.3203125,-400000.0625,-24082.140625,-400000.0625
284.7616789340973,-400000.0625,-1825.6199951171875,-9365.75,-400000.0625,-8270.6904296875,-400000.0625,-24086.5703125,-400000.0625
284.76168274879456,-400000.0625,-1826.8599853515625,-9353.01953125,-400000.0625,-8261.7802734375,-400000.0625,-24083.189453125,-400000.0625
284.7616865634918,-400000.0625,-1830.8599853515625,-9351.73046875,-400000.0625,-8262.16015625,-400000.0625,-24096.25,-400000.0625
284.7616901397705,-400000.0625,-1823.469970703125,-9365.66015625,-400000.0625,-8272.740234375,-400000.0625,-24112.130859375,-400000.0625
284.76169419288635,-400000.0625,-1816.27001953125,-9359.2197265625,-400000.0625,-8272.83984375,-400000.0625,-24111.609375,-400000.0625
284.76169896125793,-400000.0625,-1804.1600341796875,-9337.330078125,-400000.0625,-8248.1396484375,-400000.0625,-24114.94921875,-400000.0625
284.7617030143738,-400000.0625,-1785.7099609375,-9312.4404296875,-400000.0625,-8236.41015625,-400000.0625,-24110.560546875,-400000.0625
284.7617070674896,-400000.0625,-1804.5400390625,-9312.150390625,-400000.0625,-8249.3798828125,-400000.0625,-24136.259765625,-400000.0625
284.7617108821869,-400000.0625,-1799.9200439453125,-9319.5,-400000.0625,-8256.099609375,-400000.0625,-24160.009765625,-400000.0625
284.81930804252625,-400000.0625,-1788.9000244140625,-9316.400390625,-400000.0625,-8254.150390625,-400000.0625,-24154.94921875,-400000.0625
284.83359694480896,-400000.0625,-1776.31005859375,-9292.1298828125,-400000.0625,-8237.080078125,-400000.0625,-24154.7109375,-400000.0625
284.8389320373535,-400000.0625,-1770.2099609375,-9286.259765625,-400000.0625,-8230.7802734375,-400000.0625,-24157.0,-400000.0625
284.8434000015259,-400000.0625,-1781.75,-9292.1298828125,-400000.0625,-8241.75,-400000.0625,-24168.400390625,-400000.0625
284.84340834617615,-400000.0625,-1802.5400390625,-9311.150390625,-400000.0625,-8261.490234375,-400000.0625,-24177.7890625,-400000.0625
284.84341263771057,-400000.0625,-1806.969970703125,-9314.73046875,-400000.0625,-8264.1103515625,-400000.0625,-24175.169921875,-400000.0625
284.843416929245,-400000.0625,-1788.4300537109375,-9295.23046875,-400000.0625,-8245.1396484375,-400000.0625,-24162.099609375,-400000.0625
284.84342098236084,-400000.0625,-1770.8299560546875,-9279.4404296875,-400000.0625,-8233.01953125,-400000.0625,-24149.849609375,-400000.0625
284.8434250354767,-400000.0625,-1777.3199462890625,-9288.259765625,-400000.0625,-8243.4697265625,-400000.0625,-24156.380859375,-400000.0625
284.84342885017395,-400000.0625,-1803.969970703125,-9313.73046875,-400000.0625,-8267.8798828125,-400000.0625,-24174.44921875,-400000.0625
284.8434326648712,-400000.0625,-1807.0699462890625,-9318.0703125,-400000.0625,-8270.3095703125,-400000.0625,-24173.44921875,-400000.0625
284.8434362411499,-400000.0625,-1787.469970703125,-9298.2802734375,-400000.0625,-8244.5595703125,-400000.0625,-24161.76953125,-400000.0625
284.84344005584717,-400000.0625,-1767.5400390625,-9276.8203125,-400000.0625,-8224.6796875,-400000.0625,-24142.41015625,-400000.0625
284.84344363212585,-400000.0625,-1782.0799560546875,-9290.1201171875,-400000.0625,-8240.6103515625,-400000.0625,-24156.48046875,-400000.0625
284.8434474468231,-400000.0625,-1809.550048828125,-9316.0595703125,-400000.0625,-8262.4404296875,-400000.0625,-24174.55078125,-400000.0625
284.84345149993896,-400000.0625,-1804.5,-9312.919921875,-400000.0625,-8261.7802734375,-400000.0625,-24170.5,-400000.0625
284.8808391094208,-400000.0625,-1784.8499755859375,-9292.599609375,-400000.0625,-8245.9501953125,-400000.0625,-24163.33984375,-400000.0625
284.88646125793457,-400000.0625,-1774.449951171875,-9282.919921875,-400000.0625,-8237.26953125,-400000.0625,-24155.94921875,-400000.0625
284.89119601249695,-400000.0625,-1780.699951171875,-9293.1796875,-400000.0625,-8250.0,-400000.0625,-24166.919921875,-400000.0625
284.89120531082153,-400000.0625,-1798.9599609375,-9309.6298828125,-400000.0625,-8259.6298828125,-400000.0625,-24176.4609375,-400000.0625
284.89120984077454,-400000.0625,-1801.5400390625,-9310.5302734375,-400000.0625,-8257.8203125,-400000.0625,-24171.880859375,-400000.0625
284.8912136554718,-400000.0625,-1786.1400146484375,-9296.849609375,-400000.0625,-8253.7197265625,-400000.0625,-24158.810546875,-400000.0625
284.89121747016907,-400000.0625,-1776.31005859375,-9286.599609375,-400000.0625,-8238.169921875,-400000.0625,-24149.0390625,-400000.0625
284.89122128486633,-400000.0625,-1777.739990234375,-9291.0302734375,-400000.0625,-8233.0703125,-400000.0625,-24149.08984375,-400000.0625
284.8912250995636,-400000.0625,-1789.9000244140625,-9307.7197265625,-400000.0625,-8259.73046875,-400000.0625,-24160.099609375,-400000.0625
284.89122891426086,-400000.0625,-1802.4000244140625,-9317.58984375,-400000.0625,-8271.26953125,-400000.0625,-24165.8203125,-400000.0625
284.8912343978882,-400000.0625,-1792.5699462890625,-9304.330078125,-400000.0625,-8260.1103515625,-400000.0625,-24162.490234375,-400000.0625
284.89123797416687,-400000.0625,-1775.31005859375,-9286.740234375,-400000.0625,-8243.3701171875,-400000.0625,-24157.529296875,-400000.0625
284.89124155044556,-400000.0625,-1786.0400390625,-9296.419921875,-400000.0625,-8244.5595703125,-400000.0625,-24153.4296875,-400000.0625
284.8912453651428,-400000.0625,-1801.72998046875,-9312.5400390625,-400000.0625,-8260.349609375,-400000.0625,-24165.58984375,-400000.0625
284.8912489414215,-400000.0625,-1798.72998046875,-9313.3896484375,-400000.0625,-8264.490234375,-400000.0625,-24162.19921875,-400000.0625
284.8912527561188,-400000.0625,-1782.3199462890625,-9293.990234375,-400000.0625,-8256.150390625,-400000.0625,-24151.900390625,-400000.0625
284.95605850219727,-400000.0625,-1767.8299560546875,-9276.25,-400000.0625,-8240.7998046875,-400000.0625,-24142.83984375,-400000.0625
284.9699821472168,-400000.0625,-1775.260009765625,-9285.16015625,-400000.0625,-8245.900390625,-400000.0625,-24146.419921875,-400000.0625
284.97484850883484,-400000.0625,-1789.9000244140625,-9302.8603515625,-400000.0625,-8263.400390625,-400000.0625,-24163.76953125,-400000.0625
284.9748589992523,-400000.0625,-1795.8599853515625,-9306.1904296875,-400000.0625,-8260.009765625,-400000.0625,-24172.259765625,-400000.0625
284.9748635292053,-400000.0625,-1779.1800537109375,-9285.740234375,-400000.0625,-8236.4599609375,-400000.0625,-24148.1796875,-400000.0625
284.9748680591583,-400000.0625,-1764.43994140625,-9272.669921875,-400000.0625,-8221.2001953125,-400000.0625,-24142.98046875,-400000.0625
284.97487211227417,-400000.0625,-1785.989990234375,-9296.1796875,-400000.0625,-8247.0,-400000.0625,-24161.439453125,-400000.0625
284.97487592697144,-400000.0625,-1801.5400390625,-9313.580078125,-400000.0625,-8270.3603515625,-400000.0625,-24169.880859375,-400000.0625
284.9748797416687,-400000.0625,-1803.72998046875,-9315.400390625,-400000.0625,-8277.1298828125,-400000.0625,-24171.400390625,-400000.0625
284.9748833179474,-400000.0625,-1787.949951171875,-9296.080078125,-400000.0625,-8253.5302734375,-400000.0625,-24161.720703125,-400000.0625
284.9748868942261,-400000.0625,-1770.31005859375,-9278.919921875,-400000.0625,-8228.73046875,-400000.0625,-24152.189453125,-400000.0625
284.97489047050476,-400000.0625,-1777.27001953125,-9284.5,-400000.0625,-8235.7900390625,-400000.0625,-24151.0390625,-400000.0625
284.97489404678345,-400000.0625,-1803.5899658203125,-9309.6298828125,-400000.0625,-8261.8203125,-400000.0625,-24168.30078125,-400000.0625
284.97489762306213,-400000.0625,-1806.5,-9313.6298828125,-400000.0625,-8264.830078125,-400000.0625,-24172.689453125,-400000.0625
284.9749104976654,-400000.0625,-1790.8599853515625,-9296.3701171875,-400000.0625,-8243.7001953125,-400000.0625,-24159.529296875,-400000.0625
284.97491455078125,-400000.0625,-1773.8299560546875,-9277.919921875,-400000.0625,-8230.8798828125,-400000.0625,-24144.029296875,-400000.0625
285.0454695224762,-400000.0625,-1775.31005859375,-9282.830078125,-400000.0625,-8244.08984375,-400000.0625,-24147.369140625,-400000.0625
285.05079889297485,-400000.0625,-1781.22998046875,-9290.169921875,-400000.0625,-8255.91015625,-400000.0625,-24148.509765625,-400000.0625
285.05543780326843,-400000.0625,-1789.52001953125,-9297.66015625,-400000.0625,-8257.8203125,-400000.0625,-24157.0,-400000.0625
285.05544686317444,-400000.0625,-1785.3699951171875,-9293.3701171875,-400000.0625,-8249.7099609375,-400000.0625,-24160.33984375,-400000.0625
285.0554509162903,-400000.0625,-1772.0699462890625,-9278.8203125,-400000.0625,-8235.599609375,-400000.0625,-24146.75,-400000.0625
285.0554552078247,-400000.0625,-1778.8900146484375,-9284.58984375,-400000.0625,-8235.0703125,-400000.0625,-24152.08984375,-400000.0625
285.055459022522,-400000.0625,-1794.77001953125,-9303.1396484375,-400000.0625,-8255.4404296875,-400000.0625,-24167.779296875,-400000.0625
285.05546283721924,-400000.0625,-1795.3900146484375,-9304.330078125,-400000.0625,-8259.1103515625,-400000.0625,-24171.55078125,-400000.0625
285.0554666519165,-400000.0625,-1779.5999755859375,-9284.5,-400000.0625,-8243.1298828125,-400000.0625,-24156.619140625,-400000.0625
285.0554702281952,-400000.0625,-1768.4000244140625,-9270.5302734375,-400000.0625,-8232.8798828125,-400000.0625,-24147.849609375,-400000.0625
285.0554738044739,-400000.0625,-1778.5999755859375,-9281.0595703125,-400000.0625,-8232.6396484375,-400000.0625,-24151.380859375,-400000.0625
285.0554778575897,-400000.0625,-1792.8599853515625,-9298.0400390625,-400000.0625,-8248.23046875,-400000.0625,-24166.58984375,-400000.0625
285.05548214912415,-400000.0625,-1791.9100341796875,-9295.75,-400000.0625,-8253.6201171875,-400000.0625,-24164.30078125,-400000.0625
285.0554859638214,-400000.0625,-1774.030029296875,-9275.490234375,-400000.0625,-8236.5,-400000.0625,-24147.1796875,-400000.0625
285.0554895401001,-400000.0625,-1769.8800048828125,-9272.150390625,-400000.0625,-8231.9296875,-400000.0625,-24147.3203125,-400000.0625
285.0554938316345,-400000.0625,-1779.030029296875,-9282.6904296875,-400000.0625,-8242.419921875,-400000.0625,-24157.380859375,-400000.0625
285.08105874061584,-400000.0625,-1797.719970703125,-9305.759765625,-400000.0625,-8261.6298828125,-400000.0625,-24173.2109375,-400000.0625
285.09482288360596,-400000.0625,-1801.5400390625,-9310.8203125,-400000.0625,-8262.01953125,-400000.0625,-24174.55078125,-400000.0625
285.1004583835602,-400000.0625,-1783.93994140625,-9288.98046875,-400000.0625,-8240.8896484375,-400000.0625,-24161.390625,-400000.0625
285.10481309890747,-400000.0625,-1762.199951171875,-9267.6201171875,-400000.0625,-8224.2998046875,-400000.0625,-24152.470703125,-400000.0625
285.1048216819763,-400000.0625,-1770.68994140625,-9277.8701171875,-400000.0625,-8229.6904296875,-400000.0625,-24149.849609375,-400000.0625
285.1048262119293,-400000.0625,-1797.719970703125,-9299.0400390625,-400000.0625,-8252.3798828125,-400000.0625,-24166.16015625,-400000.0625
285.10483050346375,-400000.0625,-1799.43994140625,-9299.759765625,-400000.0625,-8262.490234375,-400000.0625,-24167.970703125,-400000.0625
285.104834318161,-400000.0625,-1768.6400146484375,-9277.2001953125,-400000.0625,-8234.599609375,-400000.0625,-24150.609375,-400000.0625
285.1048378944397,-400000.0625,-1753.4300537109375,-9261.4697265625,-400000.0625,-8211.9501953125,-400000.0625,-24139.599609375,-400000.0625
285.10484170913696,-400000.0625,-1767.969970703125,-9272.3896484375,-400000.0625,-8222.76953125,-400000.0625,-24137.01953125,-400000.0625
285.10484552383423,-400000.0625,-1794.8599853515625,-9304.51953125,-400000.0625,-8256.91015625,-400000.0625,-24163.6796875,-400000.0625
285.1048495769501,-400000.0625,-1800.8199462890625,-9314.6298828125,-400000.0625,-8264.349609375,-400000.0625,-24167.919921875,-400000.0625
285.10485339164734,-400000.0625,-1785.56005859375,-9297.66015625,-400000.0625,-8239.2197265625,-400000.0625,-24152.0,-400000.0625
285.1048574447632,-400000.0625,-1776.5999755859375,-9282.5400390625,-400000.0625,-8234.8798828125,-400000.0625,-24146.369140625,-400000.0625
285.10486125946045,-400000.0625,-1779.75,-9287.740234375,-400000.0625,-8242.3203125,-400000.0625,-24144.369140625,-400000.0625
285.1048650741577,-400000.0625,-1793.050048828125,-9304.2900390625,-400000.0625,-8252.33984375,-400000.0625,-24156.91015625,-400000.0625
285.1472747325897,-400000.0625,-1798.1099853515625,-9309.3896484375,-400000.0625,-8252.1396484375,-400000.0625,-24164.19921875,-400000.0625
285.15278363227844,-400000.0625,-1778.4100341796875,-9289.41015625,-400000.0625,-8237.7900390625,-400000.0625,-24153.0390625,-400000.0625
285.15730023384094,-400000.0625,-1756.760009765625,-9266.3798828125,-400000.0625,-8222.9599609375,-400000.0625,-24136.98046875,-400000.0625
285.1573107242584,-400000.0625,-1774.1700439453125,-9280.0595703125,-400000.0625,-8235.9296875,-400000.0625,-24145.560546875,-400000.0625
285.15731477737427,-400000.0625,-1799.1500244140625,-9309.009765625,-400000.0625,-8262.830078125,-400000.0625,-24170.58984375,-400000.0625
285.1573181152344,-400000.0625,-1801.43994140625,-9310.580078125,-400000.0625,-8257.76953125,-400000.0625,-24169.73046875,-400000.0625
285.15732169151306,-400000.0625,-1788.0400390625,-9294.1298828125,-400000.0625,-8240.75,-400000.0625,-24156.140625,-400000.0625
285.15732502937317,-400000.0625,-1770.449951171875,-9275.6298828125,-400000.0625,-8220.240234375,-400000.0625,-24150.330078125,-400000.0625
285.15732860565186,-400000.0625,-1775.7900390625,-9283.0703125,-400000.0625,-8227.9697265625,-400000.0625,-24157.619140625,-400000.0625
285.15733194351196,-400000.0625,-1794.530029296875,-9303.08984375,-400000.0625,-8252.669921875,-400000.0625,-24157.5703125,-400000.0625
285.15733766555786,-400000.0625,-1793.9599609375,-9303.48046875,-400000.0625,-8254.0,-400000.0625,-24159.2890625,-400000.0625
285.15734100341797,-400000.0625,-1777.739990234375,-9285.7802734375,-400000.0625,-8237.8896484375,-400000.0625,-24153.330078125,-400000.0625
285.1573443412781,-400000.0625,-1767.43994140625,-9270.7197265625,-400000.0625,-8225.490234375,-400000.0625,-24147.509765625,-400000.0625
285.1573476791382,-400000.0625,-1777.219970703125,-9277.580078125,-400000.0625,-8232.7900390625,-400000.0625,-24154.810546875,-400000.0625
285.15735149383545,-400000.0625,-1793.3800048828125,-9295.6103515625,-400000.0625,-8245.51953125,-400000.0625,-24162.30078125,-400000.0625
285.1573555469513,-400000.0625,-1791.530029296875,-9294.4599609375,-400000.0625,-8244.23046875,-400000.0625,-24162.150390625,-400000.0625
285.2004976272583,-400000.0625,-1786.0899658203125,-9287.6396484375,-400000.0625,-8241.6103515625,-400000.0625,-24159.009765625,-400000.0625
285.2135474681854,-400000.0625,-1780.3699951171875,-9281.349609375,-400000.0625,-8231.6396484375,-400000.0625,-24156.91015625,-400000.0625
285.21872329711914,-400000.0625,-1785.3699951171875,-9287.740234375,-400000.0625,-8229.7802734375,-400000.0625,-24158.099609375,-400000.0625
285.223295211792,-400000.0625,-1799.43994140625,-9305.759765625,-400000.0625,-8245.1796875,-400000.0625,-24165.349609375,-400000.0625
285.22330689430237,-400000.0625,-1800.3900146484375,-9306.2900390625,-400000.0625,-8252.759765625,-400000.0625,-24162.150390625,-400000.0625
285.22331142425537,-400000.0625,-1783.6600341796875,-9288.98046875,-400000.0625,-8241.509765625,-400000.0625,-24159.4296875,-400000.0625
285.22331523895264,-400000.0625,-1773.9300537109375,-9275.8701171875,-400000.0625,-8226.5400390625,-400000.0625,-24149.94921875,-400000.0625
285.2233190536499,-400000.0625,-1783.0899658203125,-9287.5498046875,-400000.0625,-8232.8798828125,-400000.0625,-24157.0,-400000.0625
285.22332310676575,-400000.0625,-1798.43994140625,-9300.8095703125,-400000.0625,-8245.08984375,-400000.0625,-24167.970703125,-400000.0625
285.2233271598816,-400000.0625,-1802.300048828125,-9305.5302734375,-400000.0625,-8252.7197265625,-400000.0625,-24166.6796875,-400000.0625
285.22333121299744,-400000.0625,-1783.6600341796875,-9290.080078125,-400000.0625,-8236.2197265625,-400000.0625,-24150.759765625,-400000.0625
285.2233352661133,-400000.0625,-1768.9200439453125,-9273.8603515625,-400000.0625,-8214.240234375,-400000.0625,-24147.609375,-400000.0625
285.2233395576477,-400000.0625,-1768.6800537109375,-9275.6298828125,-400000.0625,-8214.900390625,-400000.0625,-24143.650390625,-400000.0625
285.22334694862366,-400000.0625,-1798.489990234375,-9302.5703125,-400000.0625,-8241.1298828125,-400000.0625,-24163.490234375,-400000.0625
285.2233510017395,-400000.0625,-1808.8299560546875,-9314.009765625,-400000.0625,-8253.4296875,-400000.0625,-24179.80078125,-400000.0625
285.22335505485535,-400000.0625,-1789.239990234375,-9292.3203125,-400000.0625,-8236.0302734375,-400000.0625,-24166.6796875,-400000.0625
285.26285696029663,-400000.0625,-1778.1700439453125,-9281.8701171875,-400000.0625,-8224.919921875,-400000.0625,-24157.529296875,-400000.0625
285.2682058811188,-400000.0625,-1792.47998046875,-9295.66015625,-400000.0625,-8233.740234375,-400000.0625,-24164.970703125,-400000.0625
285.272917509079,-400000.0625,-1817.6600341796875,-9311.9599609375,-400000.0625,-8251.9501953125,-400000.0625,-24176.080078125,-400000.0625
285.27292704582214,-400000.0625,-1809.0699462890625,-9308.2001953125,-400000.0625,-8257.6796875,-400000.0625,-24177.119140625,-400000.0625
285.2729318141937,-400000.0625,-1781.3199462890625,-9287.6904296875,-400000.0625,-8235.98046875,-400000.0625,-24173.169921875,-400000.0625
285.27293634414673,-400000.0625,-1768.4000244140625,-9269.330078125,-400000.0625,-8220.240234375,-400000.0625,-24166.869140625,-400000.0625
285.27294063568115,-400000.0625,-1767.8699951171875,-9264.849609375,-400000.0625,-8214.669921875,-400000.0625,-24165.439453125,-400000.0625
285.27294421195984,-400000.0625,-1789.0,-9281.830078125,-400000.0625,-8230.73046875,-400000.0625,-24184.990234375,-400000.0625
285.27294874191284,-400000.0625,-1803.449951171875,-9299.0400390625,-400000.0625,-8255.4404296875,-400000.0625,-24194.529296875,-400000.0625
285.2729527950287,-400000.0625,-1790.239990234375,-9286.599609375,-400000.0625,-8252.5302734375,-400000.0625,-24194.19921875,-400000.0625
285.27295660972595,-400000.0625,-1771.02001953125,-9263.1796875,-400000.0625,-8229.830078125,-400000.0625,-24183.369140625,-400000.0625
285.2729606628418,-400000.0625,-1778.4100341796875,-9269.5703125,-400000.0625,-8231.6904296875,-400000.0625,-24183.1796875,-400000.0625
285.2729651927948,-400000.0625,-1802.25,-9294.4599609375,-400000.0625,-8246.759765625,-400000.0625,-24199.19921875,-400000.0625
285.27296900749207,-400000.0625,-1807.1199951171875,-9301.5703125,-400000.0625,-8249.669921875,-400000.0625,-24199.5390625,-400000.0625
285.27297258377075,-400000.0625,-1787.280029296875,-9281.6796875,-400000.0625,-8234.6396484375,-400000.0625,-24195.19921875,-400000.0625
285.27297616004944,-400000.0625,-1773.5999755859375,-9262.7099609375,-400000.0625,-8224.6298828125,-400000.0625,-24184.0390625,-400000.0625
285.32677364349365,-400000.0625,-1783.6099853515625,-9272.669921875,-400000.0625,-8228.01953125,-400000.0625,-24187.94921875,-400000.0625
285.3413224220276,-400000.0625,-1795.719970703125,-9290.169921875,-400000.0625,-8239.080078125,-400000.0625,-24191.05078125,-400000.0625
285.34616470336914,-400000.0625,-1803.449951171875,-9295.66015625,-400000.0625,-8244.3203125,-400000.0625,-24191.91015625,-400000.0625
285.3461740016937,-400000.0625,-1791.0999755859375,-9278.8203125,-400000.0625,-8230.1103515625,-400000.0625,-24187.419921875,-400000.0625
285.3461787700653,-400000.0625,-1758.6199951171875,-9248.16015625,-400000.0625,-8207.3701171875,-400000.0625,-24170.880859375,-400000.0625
285.34618282318115,-400000.0625,-1770.0699462890625,-9261.1796875,-400000.0625,-8218.240234375,-400000.0625,-24184.900390625,-400000.0625
285.3461866378784,-400000.0625,-1809.97998046875,-9298.08984375,-400000.0625,-8246.08984375,-400000.0625,-24208.359375,-400000.0625
285.34619069099426,-400000.0625,-1817.75,-9307.7197265625,-400000.0625,-8258.009765625,-400000.0625,-24206.58984375,-400000.0625
285.3461945056915,-400000.0625,-1802.6400146484375,-9293.26953125,-400000.0625,-8247.66015625,-400000.0625,-24192.669921875,-400000.0625
285.3461983203888,-400000.0625,-1782.27001953125,-9272.91015625,-400000.0625,-8228.58984375,-400000.0625,-24179.3203125,-400000.0625
285.3462018966675,-400000.0625,-1787.8499755859375,-9281.25,-400000.0625,-8235.650390625,-400000.0625,-24182.3203125,-400000.0625
285.34620547294617,-400000.0625,-1809.550048828125,-9305.1904296875,-400000.0625,-8258.490234375,-400000.0625,-24189.900390625,-400000.0625
285.34620928764343,-400000.0625,-1817.0799560546875,-9314.1103515625,-400000.0625,-8266.740234375,-400000.0625,-24197.390625,-400000.0625
285.3462131023407,-400000.0625,-1798.9200439453125,-9293.0302734375,-400000.0625,-8241.6103515625,-400000.0625,-24187.900390625,-400000.0625
285.34621691703796,-400000.0625,-1782.510009765625,-9270.9599609375,-400000.0625,-8226.490234375,-400000.0625,-24179.130859375,-400000.0625
285.34622049331665,-400000.0625,-1791.8599853515625,-9281.01953125,-400000.0625,-8236.41015625,-400000.0625,-24179.939453125,-400000.0625
285.42273592948914,-400000.0625,-1816.1300048828125,-9308.9599609375,-400000.0625,-8247.3798828125,-400000.0625,-24188.51953125,-400000.0625
285.4282383918762,-400000.0625,-1826.0,-9315.5400390625,-400000.0625,-8257.25,-400000.0625,-24198.630859375,-400000.0625
285.4418897628784,-400000.0625,-1801.300048828125,-9295.7001953125,-400000.0625,-8239.509765625,-400000.0625,-24189.810546875,-400000.0625
285.44675397872925,-400000.0625,-1790.47998046875,-9288.1201171875,-400000.0625,-8230.5,-400000.0625,-24181.939453125,-400000.0625
285.4467635154724,-400000.0625,-1799.6300048828125,-9298.6103515625,-400000.0625,-8244.4697265625,-400000.0625,-24188.859375,-400000.0625
285.4467680454254,-400000.0625,-1810.030029296875,-9313.2001953125,-400000.0625,-8261.8701171875,-400000.0625,-24201.58984375,-400000.0625
285.44677233695984,-400000.0625,-1821.5699462890625,-9322.599609375,-400000.0625,-8266.740234375,-400000.0625,-24200.390625,-400000.0625
285.4467761516571,-400000.0625,-1807.97998046875,-9304.5703125,-400000.0625,-8250.4296875,-400000.0625,-24183.08984375,-400000.0625
285.4467797279358,-400000.0625,-1789.8599853515625,-9288.8798828125,-400000.0625,-8239.8896484375,-400000.0625,-24172.640625,-400000.0625
285.4467833042145,-400000.0625,-1799.199951171875,-9300.1904296875,-400000.0625,-8246.1396484375,-400000.0625,-24175.0703125,-400000.0625
285.44678711891174,-400000.0625,-1812.4599609375,-9316.2998046875,-400000.0625,-8252.5302734375,-400000.0625,-24188.0,-400000.0625
285.446790933609,-400000.0625,-1821.1400146484375,-9323.650390625,-400000.0625,-8259.5400390625,-400000.0625,-24197.720703125,-400000.0625
285.4467945098877,-400000.0625,-1810.550048828125,-9308.4296875,-400000.0625,-8253.2900390625,-400000.0625,-24184.51953125,-400000.0625
285.4467980861664,-400000.0625,-1790.0,-9291.9404296875,-400000.0625,-8231.3095703125,-400000.0625,-24177.890625,-400000.0625
285.44680190086365,-400000.0625,-1798.010009765625,-9297.419921875,-400000.0625,-8233.1201171875,-400000.0625,-24169.970703125,-400000.0625
285.44680547714233,-400000.0625,-1814.75,-9315.830078125,-400000.0625,-8251.8603515625,-400000.0625,-24186.759765625,-400000.0625
285.4655821323395,-400000.0625,-1824.469970703125,-9327.080078125,-400000.0625,-8265.5400390625,-400000.0625,-24203.30078125,-400000.0625
285.4709997177124,-400000.0625,-1816.93994140625,-9316.2099609375,-400000.0625,-8255.7197265625,-400000.0625,-24201.009765625,-400000.0625
285.4757070541382,-400000.0625,-1803.8800048828125,-9299.849609375,-400000.0625,-8234.9296875,-400000.0625,-24194.76953125,-400000.0625
285.4757170677185,-400000.0625,-1803.449951171875,-9300.4697265625,-400000.0625,-8234.1201171875,-400000.0625,-24197.919921875,-400000.0625
285.47572112083435,-400000.0625,-1819.75,-9318.8798828125,-400000.0625,-8253.4296875,-400000.0625,-24207.310546875,-400000.0625
285.4757249355316,-400000.0625,-1831.1500244140625,-9325.740234375,-400000.0625,-8264.58984375,-400000.0625,-24209.310546875,-400000.0625
285.47572898864746,-400000.0625,-1814.4100341796875,-9310.9599609375,-400000.0625,-8253.0498046875,-400000.0625,-24195.8203125,-400000.0625
285.47573256492615,-400000.0625,-1800.6300048828125,-9299.3701171875,-400000.0625,-8231.9697265625,-400000.0625,-24188.380859375,-400000.0625
285.4757363796234,-400000.0625,-1807.02001953125,-9307.91015625,-400000.0625,-8231.3095703125,-400000.0625,-24196.2890625,-400000.0625
285.47574043273926,-400000.0625,-1827.050048828125,-9323.83984375,-400000.0625,-8255.580078125,-400000.0625,-24207.880859375,-400000.0625
285.4757442474365,-400000.0625,-1839.5400390625,-9332.849609375,-400000.0625,-8268.2099609375,-400000.0625,-24211.83984375,-400000.0625
285.47574830055237,-400000.0625,-1818.469970703125,-9314.2998046875,-400000.0625,-8246.419921875,-400000.0625,-24198.109375,-400000.0625
285.47575187683105,-400000.0625,-1800.3499755859375,-9292.26953125,-400000.0625,-8221.8701171875,-400000.0625,-24179.029296875,-400000.0625
285.47575545310974,-400000.0625,-1817.4200439453125,-9307.8095703125,-400000.0625,-8236.740234375,-400000.0625,-24195.8203125,-400000.0625
285.47575879096985,-400000.0625,-1836.1600341796875,-9331.3701171875,-400000.0625,-8266.2099609375,-400000.0625,-24215.080078125,-400000.0625
285.4757626056671,-400000.0625,-1835.43994140625,-9330.849609375,-400000.0625,-8267.2099609375,-400000.0625,-24221.900390625,-400000.0625
285.5193204879761,-400000.0625,-1821.0899658203125,-9315.2998046875,-400000.0625,-8254.8603515625,-400000.0625,-24210.599609375,-400000.0625
285.52447962760925,-400000.0625,-1804.02001953125,-9302.1904296875,-400000.0625,-8240.7998046875,-400000.0625,-24187.94921875,-400000.0625
285.52964448928833,-400000.0625,-1812.3599853515625,-9310.2900390625,-400000.0625,-8249.4697265625,-400000.0625,-24189.05078125,-400000.0625
285.54257106781006,-400000.0625,-1827.1400146484375,-9326.169921875,-400000.0625,-8262.490234375,-400000.0625,-24197.919921875,-400000.0625
285.54765129089355,-400000.0625,-1823.3299560546875,-9325.0302734375,-400000.0625,-8263.5400390625,-400000.0625,-24203.490234375,-400000.0625
285.5525395870209,-400000.0625,-1807.0699462890625,-9309.25,-400000.0625,-8255.4404296875,-400000.0625,-24196.76953125,-400000.0625
285.55254912376404,-400000.0625,-1793.77001953125,-9297.08984375,-400000.0625,-8242.1796875,-400000.0625,-24192.4296875,-400000.0625
285.55255365371704,-400000.0625,-1806.5,-9310.5302734375,-400000.0625,-8250.1904296875,-400000.0625,-24197.630859375,-400000.0625
285.5525577068329,-400000.0625,-1825.050048828125,-9327.599609375,-400000.0625,-8266.6396484375,-400000.0625,-24204.880859375,-400000.0625
285.5525622367859,-400000.0625,-1829.0999755859375,-9330.7998046875,-400000.0625,-8262.9697265625,-400000.0625,-24204.0703125,-400000.0625
285.55256605148315,-400000.0625,-1803.780029296875,-9304.330078125,-400000.0625,-8238.1298828125,-400000.0625,-24187.08984375,-400000.0625
285.5525698661804,-400000.0625,-1792.3399658203125,-9291.9404296875,-400000.0625,-8232.169921875,-400000.0625,-24178.4609375,-400000.0625
285.552574634552,-400000.0625,-1807.6400146484375,-9310.6796875,-400000.0625,-8246.66015625,-400000.0625,-24195.48046875,-400000.0625
285.5525789260864,-400000.0625,-1824.81005859375,-9330.7001953125,-400000.0625,-8257.2001953125,-400000.0625,-24213.26953125,-400000.0625
285.5525827407837,-400000.0625,-1835.9200439453125,-9337.08984375,-400000.0625,-8264.16015625,-400000.0625,-24214.83984375,-400000.0625
285.5525870323181,-400000.0625,-1818.469970703125,-9320.6904296875,-400000.0625,-8249.0,-400000.0625,-24200.630859375,-400000.0625
285.5867455005646,-400000.0625,-1799.6800537109375,-9299.6103515625,-400000.0625,-8236.8896484375,-400000.0625,-24187.759765625,-400000.0625
285.5921461582184,-400000.0625,-1801.1600341796875,-9304.240234375,-400000.0625,-8248.0400390625,-400000.0625,-24189.330078125,-400000.0625
285.5973656177521,-400000.0625,-1824.0,-9326.1298828125,-400000.0625,-8262.01953125,-400000.0625,-24200.73046875,-400000.0625
285.60195684432983,-400000.0625,-1833.199951171875,-9337.7099609375,-400000.0625,-8262.73046875,-400000.0625,-24209.119140625,-400000.0625
285.60196590423584,-400000.0625,-1818.22998046875,-9324.26953125,-400000.0625,-8249.3798828125,-400000.0625,-24197.060546875,-400000.0625
285.6019699573517,-400000.0625,-1803.8800048828125,-9306.6201171875,-400000.0625,-8238.1298828125,-400000.0625,-24186.7109375,-400000.0625
285.6019732952118,-400000.0625,-1805.02001953125,-9309.3896484375,-400000.0625,-8240.3203125,-400000.0625,-24190.189453125,-400000.0625
285.6019768714905,-400000.0625,-1814.1300048828125,-9321.4501953125,-400000.0625,-8253.099609375,-400000.0625,-24194.720703125,-400000.0625
285.601979970932,-400000.0625,-1814.7900390625,-9322.3603515625,-400000.0625,-8258.4404296875,-400000.0625,-24192.529296875,-400000.0625
285.6019835472107,-400000.0625,-1800.5899658203125,-9303.48046875,-400000.0625,-8244.08984375,-400000.0625,-24177.3203125,-400000.0625
285.6019868850708,-400000.0625,-1798.25,-9301.4296875,-400000.0625,-8234.4501953125,-400000.0625,-24172.689453125,-400000.0625
285.6019902229309,-400000.0625,-1812.219970703125,-9315.6796875,-400000.0625,-8245.08984375,-400000.0625,-24185.900390625,-400000.0625
285.60199332237244,-400000.0625,-1841.969970703125,-9345.6298828125,-400000.0625,-8268.3095703125,-400000.0625,-24206.640625,-400000.0625
285.60199642181396,-400000.0625,-1852.1300048828125,-9356.9296875,-400000.0625,-8278.7001953125,-400000.0625,-24202.44921875,-400000.0625
285.60200023651123,-400000.0625,-1821.800048828125,-9338.0,-400000.0625,-8258.0595703125,-400000.0625,-24195.390625,-400000.0625
285.6020030975342,-400000.0625,-1807.7900390625,-9322.5,-400000.0625,-8239.7900390625,-400000.0625,-24189.7109375,-400000.0625
285.66375732421875,-400000.0625,-1815.1300048828125,-9327.26953125,-400000.0625,-8250.330078125,-400000.0625,-24176.650390625,-400000.0625
285.67733812332153,-400000.0625,-1836.489990234375,-9355.5,-400000.0625,-8264.8798828125,-400000.0625,-24180.69921875,-400000.0625
285.68189311027527,-400000.0625,-1840.8299560546875,-9366.3203125,-400000.0625,-8264.349609375,-400000.0625,-24168.880859375,-400000.0625
285.6819062232971,-400000.0625,-1823.4300537109375,-9352.2998046875,-400000.0625,-8252.91015625,-400000.0625,-24150.470703125,-400000.0625
285.6819107532501,-400000.0625,-1809.9300537109375,-9340.7197265625,-400000.0625,-8244.7998046875,-400000.0625,-24138.689453125,-400000.0625
285.68191504478455,-400000.0625,-1811.219970703125,-9339.759765625,-400000.0625,-8238.3603515625,-400000.0625,-24129.73046875,-400000.0625
285.6819188594818,-400000.0625,-1833.8199462890625,-9362.75,-400000.0625,-8261.2998046875,-400000.0625,-24144.939453125,-400000.0625
285.68192291259766,-400000.0625,-1845.97998046875,-9381.2998046875,-400000.0625,-8285.3798828125,-400000.0625,-24165.970703125,-400000.0625
285.6819272041321,-400000.0625,-1835.8699951171875,-9368.7099609375,-400000.0625,-8272.98046875,-400000.0625,-24161.19921875,-400000.0625
285.68193078041077,-400000.0625,-1824.9000244140625,-9352.2998046875,-400000.0625,-8255.33984375,-400000.0625,-24152.380859375,-400000.0625
285.6819348335266,-400000.0625,-1824.280029296875,-9357.8798828125,-400000.0625,-8253.5302734375,-400000.0625,-24147.609375,-400000.0625
285.6819384098053,-400000.0625,-1840.5,-9375.0498046875,-400000.0625,-8262.6796875,-400000.0625,-24157.859375,-400000.0625
285.68194246292114,-400000.0625,-1848.93994140625,-9381.490234375,-400000.0625,-8271.98046875,-400000.0625,-24160.19921875,-400000.0625
285.68194603919983,-400000.0625,-1828.5799560546875,-9361.41015625,-400000.0625,-8256.2900390625,-400000.0625,-24148.990234375,-400000.0625
285.6819496154785,-400000.0625,-1813.699951171875,-9343.8203125,-400000.0625,-8234.5,-400000.0625,-24135.259765625,-400000.0625
285.6819534301758,-400000.0625,-1826.8599853515625,-9355.400390625,-400000.0625,-8241.26953125,-400000.0625,-24136.16015625,-400000.0625
285.71166944503784,-400000.0625,-1834.77001953125,-9364.7998046875,-400000.0625,-8257.8701171875,-400000.0625,-24145.939453125,-400000.0625
285.7172496318817,-400000.0625,-1828.4300537109375,-9367.1298828125,-400000.0625,-8258.33984375,-400000.0625,-24145.83984375,-400000.0625
285.722234249115,-400000.0625,-1820.9000244140625,-9360.98046875,-400000.0625,-8253.0498046875,-400000.0625,-24136.880859375,-400000.0625
285.7222468852997,-400000.0625,-1815.989990234375,-9352.259765625,-400000.0625,-8249.6201171875,-400000.0625,-24153.0390625,-400000.0625
285.72225308418274,-400000.0625,-1827.5699462890625,-9361.83984375,-400000.0625,-8258.009765625,-400000.0625,-24155.240234375,-400000.0625
285.7222578525543,-400000.0625,-1846.1199951171875,-9380.5302734375,-400000.0625,-8270.0703125,-400000.0625,-24155.619140625,-400000.0625
285.72711634635925,-400000.0625,-1855.469970703125,-9386.9697265625,-400000.0625,-8269.740234375,-400000.0625,-24153.7109375,-400000.0625
285.727126121521,-400000.0625,-1839.4000244140625,-9373.48046875,-400000.0625,-8259.25,-400000.0625,-24143.26953125,-400000.0625
285.727130651474,-400000.0625,-1829.4300537109375,-9359.5498046875,-400000.0625,-8242.6103515625,-400000.0625,-24146.0390625,-400000.0625
285.72713446617126,-400000.0625,-1827.4300537109375,-9364.7998046875,-400000.0625,-8243.1298828125,-400000.0625,-24152.0390625,-400000.0625
285.7271387577057,-400000.0625,-1843.550048828125,-9383.2998046875,-400000.0625,-8261.73046875,-400000.0625,-24151.140625,-400000.0625
285.72714281082153,-400000.0625,-1843.3599853515625,-9377.48046875,-400000.0625,-8260.6298828125,-400000.0625,-24147.080078125,-400000.0625
285.7271468639374,-400000.0625,-1831.6300048828125,-9363.7001953125,-400000.0625,-8243.66015625,-400000.0625,-24140.0703125,-400000.0625
285.7271509170532,-400000.0625,-1807.739990234375,-9345.6796875,-400000.0625,-8224.6298828125,-400000.0625,-24141.26953125,-400000.0625
285.72715497016907,-400000.0625,-1811.0799560546875,-9350.490234375,-400000.0625,-8235.41015625,-400000.0625,-24136.689453125,-400000.0625
285.7271590232849,-400000.0625,-1844.02001953125,-9375.2900390625,-400000.0625,-8262.73046875,-400000.0625,-24151.849609375,-400000.0625
285.79944133758545,-400000.0625,-1854.56005859375,-9389.349609375,-400000.0625,-8277.26953125,-400000.0625,-24158.529296875,-400000.0625
285.81274151802063,-400000.0625,-1830.530029296875,-9371.330078125,-400000.0625,-8260.009765625,-400000.0625,-24145.4609375,-400000.0625
285.81814408302307,-400000.0625,-1814.56005859375,-9348.6298828125,-400000.0625,-8241.509765625,-400000.0625,-24145.890625,-400000.0625
285.82273030281067,-400000.0625,-1823.949951171875,-9360.080078125,-400000.0625,-8239.080078125,-400000.0625,-24147.23046875,-400000.0625
285.822740316391,-400000.0625,-1843.68994140625,-9389.400390625,-400000.0625,-8260.349609375,-400000.0625,-24153.470703125,-400000.0625
285.8227446079254,-400000.0625,-1839.6400146484375,-9385.16015625,-400000.0625,-8265.0703125,-400000.0625,-24155.5703125,-400000.0625
285.82274889945984,-400000.0625,-1832.2900390625,-9369.7998046875,-400000.0625,-8246.4697265625,-400000.0625,-24148.1796875,-400000.0625
285.8227527141571,-400000.0625,-1817.800048828125,-9350.16015625,-400000.0625,-8227.8701171875,-400000.0625,-24135.349609375,-400000.0625
285.8227562904358,-400000.0625,-1804.300048828125,-9347.9599609375,-400000.0625,-8233.4501953125,-400000.0625,-24138.220703125,-400000.0625
285.82276010513306,-400000.0625,-1820.0400390625,-9366.7998046875,-400000.0625,-8252.0,-400000.0625,-24141.509765625,-400000.0625
285.82276368141174,-400000.0625,-1843.7900390625,-9389.400390625,-400000.0625,-8272.9296875,-400000.0625,-24163.8203125,-400000.0625
285.82276725769043,-400000.0625,-1851.800048828125,-9388.830078125,-400000.0625,-8266.5,-400000.0625,-24151.189453125,-400000.0625
285.82277178764343,-400000.0625,-1837.2099609375,-9367.0400390625,-400000.0625,-8243.509765625,-400000.0625,-24139.83984375,-400000.0625
285.8227756023407,-400000.0625,-1824.469970703125,-9366.7998046875,-400000.0625,-8246.66015625,-400000.0625,-24151.140625,-400000.0625
285.82277941703796,-400000.0625,-1841.0699462890625,-9385.919921875,-400000.0625,-8264.349609375,-400000.0625,-24165.19921875,-400000.0625
285.8227834701538,-400000.0625,-1846.4100341796875,-9392.0703125,-400000.0625,-8266.830078125,-400000.0625,-24169.970703125,-400000.0625
285.8642158508301,-400000.0625,-1842.739990234375,-9379.2900390625,-400000.0625,-8252.099609375,-400000.0625,-24154.140625,-400000.0625
285.8693594932556,-400000.0625,-1823.3800048828125,-9360.98046875,-400000.0625,-8234.259765625,-400000.0625,-24141.26953125,-400000.0625
285.8740544319153,-400000.0625,-1812.030029296875,-9359.0703125,-400000.0625,-8241.1298828125,-400000.0625,-24155.720703125,-400000.0625
285.874064207077,-400000.0625,-1834.72998046875,-9378.9599609375,-400000.0625,-8265.7802734375,-400000.0625,-24160.669921875,-400000.0625
285.87406849861145,-400000.0625,-1849.030029296875,-9385.4404296875,-400000.0625,-8275.080078125,-400000.0625,-24153.5703125,-400000.0625
285.8740727901459,-400000.0625,-1832.06005859375,-9364.1796875,-400000.0625,-8244.7099609375,-400000.0625,-24128.33984375,-400000.0625
285.87407660484314,-400000.0625,-1816.0799560546875,-9355.98046875,-400000.0625,-8234.599609375,-400000.0625,-24153.240234375,-400000.0625
285.8740801811218,-400000.0625,-1832.3900146484375,-9374.3798828125,-400000.0625,-8250.8095703125,-400000.0625,-24171.2109375,-400000.0625
285.8740839958191,-400000.0625,-1849.989990234375,-9391.830078125,-400000.0625,-8273.41015625,-400000.0625,-24183.75,-400000.0625
285.87408804893494,-400000.0625,-1860.239990234375,-9410.7197265625,-400000.0625,-8277.3701171875,-400000.0625,-24179.1796875,-400000.0625
285.8740921020508,-400000.0625,-1829.8599853515625,-9385.8701171875,-400000.0625,-8258.0595703125,-400000.0625,-24155.4296875,-400000.0625
285.87409567832947,-400000.0625,-1808.31005859375,-9360.41015625,-400000.0625,-8231.5,-400000.0625,-24144.1796875,-400000.0625
285.8740997314453,-400000.0625,-1822.760009765625,-9365.990234375,-400000.0625,-8243.990234375,-400000.0625,-24148.1796875,-400000.0625
285.8741035461426,-400000.0625,-1835.06005859375,-9387.8798828125,-400000.0625,-8264.919921875,-400000.0625,-24160.240234375,-400000.0625
285.87410712242126,-400000.0625,-1843.260009765625,-9393.5,-400000.0625,-8265.9296875,-400000.0625,-24166.16015625,-400000.0625
285.8741111755371,-400000.0625,-1834.8199462890625,-9382.2998046875,-400000.0625,-8254.3896484375,-400000.0625,-24163.5390625,-400000.0625
285.9053339958191,-400000.0625,-1824.6700439453125,-9371.7099609375,-400000.0625,-8242.3203125,-400000.0625,-24138.44921875,-400000.0625
285.9185993671417,-400000.0625,-1814.0799560546875,-9365.419921875,-400000.0625,-8240.1298828125,-400000.0625,-24150.759765625,-400000.0625
285.9232792854309,-400000.0625,-1834.9200439453125,-9385.7802734375,-400000.0625,-8255.099609375,-400000.0625,-24155.5703125,-400000.0625
285.92328929901123,-400000.0625,-1836.25,-9386.8701171875,-400000.0625,-8252.669921875,-400000.0625,-24160.19921875,-400000.0625
285.92329359054565,-400000.0625,-1824.5699462890625,-9371.66015625,-400000.0625,-8242.66015625,-400000.0625,-24139.029296875,-400000.0625
285.9232976436615,-400000.0625,-1817.6099853515625,-9366.66015625,-400000.0625,-8243.990234375,-400000.0625,-24142.080078125,-400000.0625
285.92330145835876,-400000.0625,-1820.800048828125,-9372.3798828125,-400000.0625,-8246.9501953125,-400000.0625,-24159.720703125,-400000.0625
285.92330527305603,-400000.0625,-1844.68994140625,-9391.3603515625,-400000.0625,-8264.259765625,-400000.0625,-24169.830078125,-400000.0625
285.92330861091614,-400000.0625,-1858.6600341796875,-9397.9404296875,-400000.0625,-8269.740234375,-400000.0625,-24158.529296875,-400000.0625
285.923312664032,-400000.0625,-1807.3599853515625,-9361.3203125,-400000.0625,-8238.1298828125,-400000.0625,-24163.9609375,-400000.0625
285.92331647872925,-400000.0625,-1799.9200439453125,-9347.3896484375,-400000.0625,-8223.73046875,-400000.0625,-24161.630859375,-400000.0625
285.9233202934265,-400000.0625,-1812.550048828125,-9351.73046875,-400000.0625,-8219.8603515625,-400000.0625,-24160.9609375,-400000.0625
285.9233238697052,-400000.0625,-1825.0899658203125,-9367.900390625,-400000.0625,-8239.4599609375,-400000.0625,-24169.779296875,-400000.0625
285.92332768440247,-400000.0625,-1828.77001953125,-9365.3701171875,-400000.0625,-8244.7998046875,-400000.0625,-24174.740234375,-400000.0625
285.92333126068115,-400000.0625,-1815.8399658203125,-9350.6796875,-400000.0625,-8227.6396484375,-400000.0625,-24166.970703125,-400000.0625
285.9233777523041,-400000.0625,-1804.4000244140625,-9344.2900390625,-400000.0625,-8220.3896484375,-400000.0625,-24171.259765625,-400000.0625
285.9667549133301,-400000.0625,-1819.0899658203125,-9355.58984375,-400000.0625,-8226.490234375,-400000.0625,-24163.109375,-400000.0625
285.97191071510315,-400000.0625,-1835.5799560546875,-9371.900390625,-400000.0625,-8241.26953125,-400000.0625,-24173.119140625,-400000.0625
285.97686195373535,-400000.0625,-1841.739990234375,-9374.8603515625,-400000.0625,-8246.4697265625,-400000.0625,-24181.849609375,-400000.0625
285.97687244415283,-400000.0625,-1823.22998046875,-9355.2099609375,-400000.0625,-8225.0595703125,-400000.0625,-24178.939453125,-400000.0625
285.97687697410583,-400000.0625,-1812.0799560546875,-9341.5302734375,-400000.0625,-8208.7998046875,-400000.0625,-24162.720703125,-400000.0625
285.97688150405884,-400000.0625,-1813.699951171875,-9346.8203125,-400000.0625,-8212.3798828125,-400000.0625,-24169.30078125,-400000.0625
285.9768853187561,-400000.0625,-1832.77001953125,-9362.75,-400000.0625,-8233.01953125,-400000.0625,-24181.23046875,-400000.0625
285.97688937187195,-400000.0625,-1835.3900146484375,-9362.75,-400000.0625,-8240.7998046875,-400000.0625,-24184.419921875,-400000.0625
285.97689294815063,-400000.0625,-1810.260009765625,-9344.580078125,-400000.0625,-8222.6796875,-400000.0625,-24166.869140625,-400000.0625
285.9768967628479,-400000.0625,-1792.2900390625,-9329.83984375,-400000.0625,-8201.7001953125,-400000.0625,-24157.9609375,-400000.0625
285.9769003391266,-400000.0625,-1810.4100341796875,-9342.150390625,-400000.0625,-8207.7001953125,-400000.0625,-24157.240234375,-400000.0625
285.97690415382385,-400000.0625,-1831.2900390625,-9362.2197265625,-400000.0625,-8228.58984375,-400000.0625,-24165.869140625,-400000.0625
285.9769079685211,-400000.0625,-1830.9599609375,-9365.23046875,-400000.0625,-8233.1201171875,-400000.0625,-24172.640625,-400000.0625
285.9769117832184,-400000.0625,-1812.27001953125,-9348.349609375,-400000.0625,-8219.7197265625,-400000.0625,-24160.240234375,-400000.0625
285.97691559791565,-400000.0625,-1798.1099853515625,-9333.4697265625,-400000.0625,-8204.75,-400000.0625,-24152.51953125,-400000.0625
285.98187923431396,-400000.0625,-1806.0699462890625,-9341.33984375,-400000.0625,-8208.7001953125,-400000.0625,-24159.05078125,-400000.0625
286.03431844711304,-400000.0625,-1809.219970703125,-9345.33984375,-400000.0625,-8221.580078125,-400000.0625,-24169.970703125,-400000.0625
286.04770493507385,-400000.0625,-1816.8499755859375,-9357.2197265625,-400000.0625,-8235.0703125,-400000.0625,-24169.16015625,-400000.0625
286.0525448322296,-400000.0625,-1817.56005859375,-9353.5,-400000.0625,-8230.4501953125,-400000.0625,-24164.30078125,-400000.0625
286.05255460739136,-400000.0625,-1802.02001953125,-9337.6201171875,-400000.0625,-8218.3798828125,-400000.0625,-24157.48046875,-400000.0625
286.05255913734436,-400000.0625,-1805.02001953125,-9347.5400390625,-400000.0625,-8226.490234375,-400000.0625,-24158.76953125,-400000.0625
286.0525631904602,-400000.0625,-1826.4300537109375,-9365.990234375,-400000.0625,-8241.080078125,-400000.0625,-24164.6796875,-400000.0625
286.05256700515747,-400000.0625,-1832.77001953125,-9368.849609375,-400000.0625,-8245.7998046875,-400000.0625,-24175.220703125,-400000.0625
286.0525710582733,-400000.0625,-1817.1800537109375,-9353.6904296875,-400000.0625,-8229.349609375,-400000.0625,-24162.720703125,-400000.0625
286.05257511138916,-400000.0625,-1801.1600341796875,-9340.7197265625,-400000.0625,-8213.330078125,-400000.0625,-24151.66015625,-400000.0625
286.052579164505,-400000.0625,-1812.510009765625,-9351.6396484375,-400000.0625,-8223.490234375,-400000.0625,-24147.509765625,-400000.0625
286.05258297920227,-400000.0625,-1832.43994140625,-9373.7099609375,-400000.0625,-8244.51953125,-400000.0625,-24155.810546875,-400000.0625
286.05258679389954,-400000.0625,-1845.6500244140625,-9381.490234375,-400000.0625,-8255.33984375,-400000.0625,-24165.19921875,-400000.0625
286.0525908470154,-400000.0625,-1830.9599609375,-9358.650390625,-400000.0625,-8242.23046875,-400000.0625,-24168.44921875,-400000.0625
286.05259466171265,-400000.0625,-1796.199951171875,-9336.9501953125,-400000.0625,-8214.1904296875,-400000.0625,-24157.529296875,-400000.0625
286.05259823799133,-400000.0625,-1803.8800048828125,-9347.1103515625,-400000.0625,-8222.0595703125,-400000.0625,-24158.0,-400000.0625
286.0526022911072,-400000.0625,-1825.8599853515625,-9363.3203125,-400000.0625,-8247.08984375,-400000.0625,-24167.919921875,-400000.0625
286.1392123699188,-400000.0625,-1820.52001953125,-9362.7001953125,-400000.0625,-8240.75,-400000.0625,-24163.8203125,-400000.0625
286.1524806022644,-400000.0625,-1812.030029296875,-9346.2998046875,-400000.0625,-8221.5302734375,-400000.0625,-24158.76953125,-400000.0625
286.1575391292572,-400000.0625,-1816.93994140625,-9339.51953125,-400000.0625,-8220.8203125,-400000.0625,-24169.30078125,-400000.0625
286.1621217727661,-400000.0625,-1824.949951171875,-9355.259765625,-400000.0625,-8231.1201171875,-400000.0625,-24179.939453125,-400000.0625
286.1621301174164,-400000.0625,-1840.0699462890625,-9373.240234375,-400000.0625,-8249.4296875,-400000.0625,-24183.0390625,-400000.0625
286.1621344089508,-400000.0625,-1837.8699951171875,-9373.1904296875,-400000.0625,-8248.900390625,-400000.0625,-24188.94921875,-400000.0625
286.16213870048523,-400000.0625,-1822.280029296875,-9353.7802734375,-400000.0625,-8229.2998046875,-400000.0625,-24168.6796875,-400000.0625
286.1621425151825,-400000.0625,-1810.739990234375,-9341.099609375,-400000.0625,-8217.91015625,-400000.0625,-24160.099609375,-400000.0625
286.1621460914612,-400000.0625,-1816.1300048828125,-9346.8203125,-400000.0625,-8226.349609375,-400000.0625,-24162.490234375,-400000.0625
286.16214966773987,-400000.0625,-1827.81005859375,-9365.849609375,-400000.0625,-8241.1298828125,-400000.0625,-24170.830078125,-400000.0625
286.16215562820435,-400000.0625,-1837.780029296875,-9374.5703125,-400000.0625,-8244.1298828125,-400000.0625,-24177.69921875,-400000.0625
286.16215920448303,-400000.0625,-1826.239990234375,-9363.3701171875,-400000.0625,-8234.9296875,-400000.0625,-24167.490234375,-400000.0625
286.1621627807617,-400000.0625,-1805.5899658203125,-9340.6201171875,-400000.0625,-8210.330078125,-400000.0625,-24165.58984375,-400000.0625
286.1621663570404,-400000.0625,-1815.800048828125,-9346.6298828125,-400000.0625,-8212.900390625,-400000.0625,-24171.58984375,-400000.0625
286.16217017173767,-400000.0625,-1829.239990234375,-9367.75,-400000.0625,-8236.0302734375,-400000.0625,-24166.58984375,-400000.0625
286.16217374801636,-400000.0625,-1823.0899658203125,-9363.7998046875,-400000.0625,-8239.990234375,-400000.0625,-24179.509765625,-400000.0625
286.1621775627136,-400000.0625,-1811.3599853515625,-9347.6796875,-400000.0625,-8225.25,-400000.0625,-24161.529296875,-400000.0625
286.16218090057373,-400000.0625,-1788.81005859375,-9323.650390625,-400000.0625,-8202.650390625,-400000.0625,-24148.130859375,-400000.0625
286.162184715271,-400000.0625,-1783.22998046875,-9318.16015625,-400000.0625,-8197.5,-400000.0625,-24146.75,-400000.0625
286.1621882915497,-400000.0625,-1816.8900146484375,-9354.259765625,-400000.0625,-8233.41015625,-400000.0625,-24168.779296875,-400000.0625
286.16219186782837,-400000.0625,-1827.9599609375,-9362.7001953125,-400000.0625,-8240.2197265625,-400000.0625,-24188.189453125,-400000.0625
286.16219568252563,-400000.0625,-1814.93994140625,-9348.16015625,-400000.0625,-8227.4404296875,-400000.0625,-24176.98046875,-400000.0625
286.1621994972229,-400000.0625,-1798.72998046875,-9332.75,-400000.0625,-8206.3701171875,-400000.0625,-24163.439453125,-400000.0625
286.162202835083,-400000.0625,-1803.2099609375,-9333.4697265625,-400000.0625,-8208.4697265625,-400000.0625,-24172.599609375,-400000.0625
286.1622066497803,-400000.0625,-1817.0799560546875,-9350.58984375,-400000.0625,-8233.169921875,-400000.0625,-24175.119140625,-400000.0625
286.16221022605896,-400000.0625,-1823.4300537109375,-9357.41015625,-400000.0625,-8231.1201171875,-400000.0625,-24170.9296875,-400000.0625
286.1622140407562,-400000.0625,-1812.7900390625,-9345.6298828125,-400000.0625,-8215.1904296875,-400000.0625,-24173.689453125,-400000.0625
286.16221809387207,-400000.0625,-1793.3800048828125,-9328.4599609375,-400000.0625,-8209.5595703125,-400000.0625,-24154.08984375,-400000.0625
286.16222167015076,-400000.0625,-1799.199951171875,-9337.759765625,-400000.0625,-8213.4697265625,-400000.0625,-24157.859375,-400000.0625
286.16222524642944,-400000.0625,-1818.6099853515625,-9354.6904296875,-400000.0625,-8227.25,-400000.0625,-24166.779296875,-400000.0625
286.1622292995453,-400000.0625,-1823.18994140625,-9354.9697265625,-400000.0625,-8235.5,-400000.0625,-24175.7890625,-400000.0625
286.162232875824,-400000.0625,-1807.449951171875,-9341.099609375,-400000.0625,-8226.5400390625,-400000.0625,-24168.259765625,-400000.0625
286.22778153419495,-400000.0625,-1786.52001953125,-9322.01953125,-400000.0625,-8202.1201171875,-400000.0625,-24146.369140625,-400000.0625
286.23277378082275,-400000.0625,-1790.760009765625,-9325.3603515625,-400000.0625,-8204.4599609375,-400000.0625,-24150.369140625,-400000.0625
286.23278403282166,-400000.0625,-1810.5,-9349.009765625,-400000.0625,-8227.8701171875,-400000.0625,-24158.669921875,-400000.0625
286.23278880119324,-400000.0625,-1819.3199462890625,-9352.73046875,-400000.0625,-8233.1201171875,-400000.0625,-24158.859375,-400000.0625
286.2327928543091,-400000.0625,-1801.72998046875,-9336.4697265625,-400000.0625,-8223.8203125,-400000.0625,-24152.23046875,-400000.0625
286.23811173439026,-400000.0625,-1792.050048828125,-9329.1298828125,-400000.0625,-8214.08984375,-400000.0625,-24149.80078125,-400000.0625
286.2426998615265,-400000.0625,-1804.780029296875,-9338.9501953125,-400000.0625,-8219.7197265625,-400000.0625,-24155.51953125,-400000.0625
286.2519955635071,-400000.0625,-1810.739990234375,-9354.0703125,-400000.0625,-8237.9404296875,-400000.0625,-24157.810546875,-400000.0625
286.25636863708496,-400000.0625,-1821.3800048828125,-9365.4599609375,-400000.0625,-8237.080078125,-400000.0625,-24171.880859375,-400000.0625
286.2563774585724,-400000.0625,-1822.5699462890625,-9357.4501953125,-400000.0625,-8228.58984375,-400000.0625,-24168.880859375,-400000.0625
286.25638151168823,-400000.0625,-1809.1700439453125,-9335.8095703125,-400000.0625,-8217.2900390625,-400000.0625,-24156.240234375,-400000.0625
286.25638484954834,-400000.0625,-1798.8199462890625,-9336.0400390625,-400000.0625,-8214.0498046875,-400000.0625,-24160.33984375,-400000.0625
286.25638818740845,-400000.0625,-1812.219970703125,-9355.98046875,-400000.0625,-8228.7802734375,-400000.0625,-24175.9296875,-400000.0625
286.25639152526855,-400000.0625,-1823.1400146484375,-9364.5595703125,-400000.0625,-8240.6103515625,-400000.0625,-24180.69921875,-400000.0625
286.25639486312866,-400000.0625,-1810.1199951171875,-9343.099609375,-400000.0625,-8228.58984375,-400000.0625,-24166.060546875,-400000.0625
286.25639843940735,-400000.0625,-1792.719970703125,-9319.58984375,-400000.0625,-8213.1396484375,-400000.0625,-24172.830078125,-400000.0625
286.3027548789978,-400000.0625,-1796.5799560546875,-9324.6904296875,-400000.0625,-8215.51953125,-400000.0625,-24180.369140625,-400000.0625
286.3084046840668,-400000.0625,-1815.510009765625,-9345.9599609375,-400000.0625,-8235.0302734375,-400000.0625,-24195.48046875,-400000.0625
286.31287956237793,-400000.0625,-1824.9000244140625,-9353.6396484375,-400000.0625,-8249.330078125,-400000.0625,-24188.08984375,-400000.0625
286.31288719177246,-400000.0625,-1806.8299560546875,-9335.0400390625,-400000.0625,-8230.349609375,-400000.0625,-24167.73046875,-400000.0625
286.31289172172546,-400000.0625,-1802.5400390625,-9330.3701171875,-400000.0625,-8224.1103515625,-400000.0625,-24179.029296875,-400000.0625
286.31289529800415,-400000.0625,-1811.31005859375,-9344.099609375,-400000.0625,-8233.8798828125,-400000.0625,-24184.80078125,-400000.0625
286.31289935112,-400000.0625,-1830.9100341796875,-9363.83984375,-400000.0625,-8255.2900390625,-400000.0625,-24200.779296875,-400000.0625
286.31290316581726,-400000.0625,-1843.449951171875,-9371.1396484375,-400000.0625,-8261.6298828125,-400000.0625,-24203.640625,-400000.0625
286.3129069805145,-400000.0625,-1829.0999755859375,-9353.4501953125,-400000.0625,-8239.83984375,-400000.0625,-24195.669921875,-400000.0625
286.31291103363037,-400000.0625,-1806.31005859375,-9332.6103515625,-400000.0625,-8217.0,-400000.0625,-24177.740234375,-400000.0625
286.3129150867462,-400000.0625,-1808.7900390625,-9336.9501953125,-400000.0625,-8224.5400390625,-400000.0625,-24187.279296875,-400000.0625
286.31291913986206,-400000.0625,-1831.719970703125,-9359.9296875,-400000.0625,-8247.0,-400000.0625,-24195.630859375,-400000.0625
286.3129231929779,-400000.0625,-1839.1600341796875,-9370.900390625,-400000.0625,-8257.8203125,-400000.0625,-24198.150390625,-400000.0625
286.31292700767517,-400000.0625,-1823.7099609375,-9358.5498046875,-400000.0625,-8251.6201171875,-400000.0625,-24180.1796875,-400000.0625
286.31293058395386,-400000.0625,-1805.969970703125,-9338.0498046875,-400000.0625,-8231.01953125,-400000.0625,-24173.310546875,-400000.0625
286.3129346370697,-400000.0625,-1813.4599609375,-9342.2900390625,-400000.0625,-8226.919921875,-400000.0625,-24182.369140625,-400000.0625
286.3553857803345,-400000.0625,-1841.969970703125,-9371.0400390625,-400000.0625,-8249.2802734375,-400000.0625,-24196.009765625,-400000.0625
286.3696150779724,-400000.0625,-1846.0799560546875,-9385.490234375,-400000.0625,-8257.490234375,-400000.0625,-24196.6796875,-400000.0625
286.3741683959961,-400000.0625,-1836.010009765625,-9372.0400390625,-400000.0625,-8249.900390625,-400000.0625,-24174.55078125,-400000.0625
286.37417697906494,-400000.0625,-1820.1400146484375,-9362.3603515625,-400000.0625,-8234.9296875,-400000.0625,-24156.669921875,-400000.0625
286.3741807937622,-400000.0625,-1818.699951171875,-9375.5302734375,-400000.0625,-8234.6904296875,-400000.0625,-24151.66015625,-400000.0625
286.3741846084595,-400000.0625,-1842.5,-9407.9501953125,-400000.0625,-8255.48046875,-400000.0625,-24149.279296875,-400000.0625
286.3741879463196,-400000.0625,-1860.4300537109375,-9439.900390625,-400000.0625,-8281.330078125,-400000.0625,-24142.939453125,-400000.0625
286.3741910457611,-400000.0625,-1850.93994140625,-9434.419921875,-400000.0625,-8271.740234375,-400000.0625,-24126.9609375,-400000.0625
286.3741943836212,-400000.0625,-1840.8800048828125,-9421.830078125,-400000.0625,-8254.099609375,-400000.0625,-24097.16015625,-400000.0625
286.3741977214813,-400000.0625,-1837.6800537109375,-9429.8896484375,-400000.0625,-8257.25,-400000.0625,-24097.970703125,-400000.0625
286.37420105934143,-400000.0625,-1868.530029296875,-9459.6396484375,-400000.0625,-8280.849609375,-400000.0625,-24110.650390625,-400000.0625
286.37420439720154,-400000.0625,-1875.68994140625,-9466.7900390625,-400000.0625,-8291.8701171875,-400000.0625,-24115.7109375,-400000.0625
286.37420773506165,-400000.0625,-1852.3699951171875,-9445.8603515625,-400000.0625,-8272.0302734375,-400000.0625,-24101.98046875,-400000.0625
286.37421107292175,-400000.0625,-1836.6800537109375,-9425.4501953125,-400000.0625,-8250.8603515625,-400000.0625,-24095.630859375,-400000.0625
286.3742141723633,-400000.0625,-1841.5899658203125,-9428.8798828125,-400000.0625,-8256.7197265625,-400000.0625,-24093.580078125,-400000.0625
286.37421774864197,-400000.0625,-1868.77001953125,-9455.2998046875,-400000.0625,-8278.75,-400000.0625,-24101.44921875,-400000.0625
286.41538763046265,-400000.0625,-1874.260009765625,-9467.169921875,-400000.0625,-8289.2001953125,-400000.0625,-24110.80078125,-400000.0625
286.4212419986725,-400000.0625,-1859.6199951171875,-9454.009765625,-400000.0625,-8276.23046875,-400000.0625,-24107.26953125,-400000.0625
286.4274830818176,-400000.0625,-1846.5999755859375,-9435.1298828125,-400000.0625,-8256.91015625,-400000.0625,-24097.2109375,-400000.0625
286.4329445362091,-400000.0625,-1843.260009765625,-9436.990234375,-400000.0625,-8254.580078125,-400000.0625,-24098.689453125,-400000.0625
286.43833804130554,-400000.0625,-1860.3299560546875,-9450.6796875,-400000.0625,-8270.169921875,-400000.0625,-24111.69921875,-400000.0625
286.44357109069824,-400000.0625,-1878.5999755859375,-9468.3203125,-400000.0625,-8282.6103515625,-400000.0625,-24117.5703125,-400000.0625
286.4494957923889,-400000.0625,-1868.9200439453125,-9456.9697265625,-400000.0625,-8276.509765625,-400000.0625,-24109.990234375,-400000.0625
286.4546911716461,-400000.0625,-1854.0400390625,-9440.51953125,-400000.0625,-8266.16015625,-400000.0625,-24104.880859375,-400000.0625
286.4593243598938,-400000.0625,-1855.3699951171875,-9442.8603515625,-400000.0625,-8268.830078125,-400000.0625,-24097.490234375,-400000.0625
286.4678909778595,-400000.0625,-1870.8199462890625,-9458.6396484375,-400000.0625,-8283.08984375,-400000.0625,-24118.240234375,-400000.0625
286.4725606441498,-400000.0625,-1884.0799560546875,-9471.0400390625,-400000.0625,-8294.33984375,-400000.0625,-24122.33984375,-400000.0625
286.47257018089294,-400000.0625,-1874.300048828125,-9462.169921875,-400000.0625,-8281.6103515625,-400000.0625,-24114.7109375,-400000.0625
286.47257447242737,-400000.0625,-1848.75,-9441.900390625,-400000.0625,-8261.5400390625,-400000.0625,-24092.630859375,-400000.0625
286.4725785255432,-400000.0625,-1856.0400390625,-9447.1904296875,-400000.0625,-8267.259765625,-400000.0625,-24094.439453125,-400000.0625
286.4725823402405,-400000.0625,-1876.260009765625,-9468.5595703125,-400000.0625,-8286.5703125,-400000.0625,-24110.69921875,-400000.0625
286.4725863933563,-400000.0625,-1882.219970703125,-9473.0400390625,-400000.0625,-8295.8701171875,-400000.0625,-24120.48046875,-400000.0625
286.5130114555359,-400000.0625,-1875.8299560546875,-9459.830078125,-400000.0625,-8287.1396484375,-400000.0625,-24117.140625,-400000.0625
286.5186758041382,-400000.0625,-1850.56005859375,-9437.509765625,-400000.0625,-8263.2998046875,-400000.0625,-24093.8203125,-400000.0625
286.52333521842957,-400000.0625,-1842.449951171875,-9437.3701171875,-400000.0625,-8265.5,-400000.0625,-24099.5390625,-400000.0625
286.5233452320099,-400000.0625,-1862.47998046875,-9457.8798828125,-400000.0625,-8283.849609375,-400000.0625,-24113.849609375,-400000.0625
286.52335000038147,-400000.0625,-1870.06005859375,-9464.83984375,-400000.0625,-8285.48046875,-400000.0625,-24109.369140625,-400000.0625
286.5233542919159,-400000.0625,-1860.0,-9456.01953125,-400000.0625,-8275.6103515625,-400000.0625,-24110.029296875,-400000.0625
286.52335810661316,-400000.0625,-1849.75,-9443.4697265625,-400000.0625,-8268.01953125,-400000.0625,-24101.9296875,-400000.0625
286.5233623981476,-400000.0625,-1855.949951171875,-9446.0,-400000.0625,-8280.51953125,-400000.0625,-24097.779296875,-400000.0625
286.52336621284485,-400000.0625,-1871.6800537109375,-9459.5,-400000.0625,-8301.16015625,-400000.0625,-24120.759765625,-400000.0625
286.5233705043793,-400000.0625,-1882.8900146484375,-9472.08984375,-400000.0625,-8303.400390625,-400000.0625,-24120.380859375,-400000.0625
286.5233750343323,-400000.0625,-1864.5799560546875,-9462.6396484375,-400000.0625,-8284.330078125,-400000.0625,-24113.23046875,-400000.0625
286.5233790874481,-400000.0625,-1845.8800048828125,-9434.26953125,-400000.0625,-8268.1201171875,-400000.0625,-24106.55078125,-400000.0625
286.5233824253082,-400000.0625,-1853.280029296875,-9437.7099609375,-400000.0625,-8271.4599609375,-400000.0625,-24102.259765625,-400000.0625
286.5233864784241,-400000.0625,-1877.550048828125,-9470.8896484375,-400000.0625,-8295.25,-400000.0625,-24120.330078125,-400000.0625
286.52339220046997,-400000.0625,-1881.8900146484375,-9478.3798828125,-400000.0625,-8301.830078125,-400000.0625,-24127.8203125,-400000.0625
286.52339577674866,-400000.0625,-1877.1700439453125,-9463.650390625,-400000.0625,-8286.8095703125,-400000.0625,-24119.240234375,-400000.0625
286.5491864681244,-400000.0625,-1857.949951171875,-9446.33984375,-400000.0625,-8268.4501953125,-400000.0625,-24110.83984375,-400000.0625
286.5545701980591,-400000.0625,-1858.52001953125,-9447.7197265625,-400000.0625,-8274.7001953125,-400000.0625,-24115.609375,-400000.0625
286.5596935749054,-400000.0625,-1876.2099609375,-9470.509765625,-400000.0625,-8289.6201171875,-400000.0625,-24123.099609375,-400000.0625
286.57311964035034,-400000.0625,-1884.219970703125,-9480.5703125,-400000.0625,-8293.5302734375,-400000.0625,-24125.630859375,-400000.0625
286.57844948768616,-400000.0625,-1870.1099853515625,-9459.6904296875,-400000.0625,-8276.990234375,-400000.0625,-24112.279296875,-400000.0625
286.5838768482208,-400000.0625,-1854.0899658203125,-9442.8603515625,-400000.0625,-8261.400390625,-400000.0625,-24110.990234375,-400000.0625
286.588684797287,-400000.0625,-1868.1099853515625,-9455.490234375,-400000.0625,-8274.8896484375,-400000.0625,-24126.869140625,-400000.0625
286.58869552612305,-400000.0625,-1886.75,-9479.240234375,-400000.0625,-8302.5498046875,-400000.0625,-24133.0703125,-400000.0625
286.58870005607605,-400000.0625,-1892.280029296875,-9484.669921875,-400000.0625,-8306.26953125,-400000.0625,-24134.2109375,-400000.0625
286.58870458602905,-400000.0625,-1879.31005859375,-9468.1298828125,-400000.0625,-8288.2900390625,-400000.0625,-24130.349609375,-400000.0625
286.5887086391449,-400000.0625,-1857.3800048828125,-9446.7197265625,-400000.0625,-8271.9296875,-400000.0625,-24118.94921875,-400000.0625
286.58871245384216,-400000.0625,-1861.3800048828125,-9450.25,-400000.0625,-8271.740234375,-400000.0625,-24107.75,-400000.0625
286.5887179374695,-400000.0625,-1872.72998046875,-9468.9404296875,-400000.0625,-8288.76953125,-400000.0625,-24118.0390625,-400000.0625
286.5887219905853,-400000.0625,-1881.0799560546875,-9479.330078125,-400000.0625,-8294.8203125,-400000.0625,-24122.529296875,-400000.0625
286.5887260437012,-400000.0625,-1878.68994140625,-9467.4599609375,-400000.0625,-8286.91015625,-400000.0625,-24107.7890625,-400000.0625
