time,ch1,ch2,ch3,ch4,ch5
timestamp,ch7,ch2,ch3,ch5,is_pause
timestamp,ch7,ch2,ch3,ch5,is_pause
timestamp,ch7,ch2,ch3,ch5,is_pause
timestamp,ch7,ch2,ch3,ch5,is_pause
timestamp,ch7,ch2,ch3,ch5,is_pause
0.0715630054473877,-400000.0625,-3828.860107421875,-3874.39990234375,-400000.0625,-2804.7099609375,-400000.0625,-11493.16015625,-400000.0625
0.07187485694885254,-400000.0625,-3925.85009765625,-3975.199951171875,-400000.0625,-2886.010009765625,-400000.0625,-11574.5595703125,-400000.0625
0.07192468643188477,-400000.0625,-3916.219970703125,-3968.3798828125,-400000.0625,-2872.56005859375,-400000.0625,-11554.9599609375,-400000.0625
0.07195353507995605,-400000.0625,-3817.510009765625,-3878.39990234375,-400000.0625,-2784.820068359375,-400000.0625,-11453.5302734375,-400000.0625
0.07197785377502441,-400000.0625,-3775.97998046875,-3839.449951171875,-400000.0625,-2740.18994140625,-400000.0625,-11411.6201171875,-400000.0625
0.07200002670288086,-400000.0625,-3848.739990234375,-3905.5400390625,-400000.0625,-2803.56005859375,-400000.0625,-11480.669921875,-400000.0625
0.0720205307006836,-400000.0625,-3938.6298828125,-3988.4599609375,-400000.0625,-2886.580078125,-400000.0625,-11566.8798828125,-400000.0625
0.07204127311706543,-400000.0625,-3925.3701171875,-3974.06005859375,-400000.0625,-2873.989990234375,-400000.0625,-11555.150390625,-400000.0625
0.07206130027770996,-400000.0625,-3826.330078125,-3884.080078125,-400000.0625,-2784.110107421875,-400000.0625,-11460.349609375,-400000.0625
0.07208132743835449,-400000.0625,-3779.97998046875,-3838.159912109375,-400000.0625,-2740.719970703125,-400000.0625,-11410.91015625,-400000.0625
0.07210159301757812,-400000.0625,-3844.830078125,-3901.050048828125,-400000.0625,-2800.27001953125,-400000.0625,-11476.23046875,-400000.0625
0.07212162017822266,-400000.0625,-3932.669921875,-3984.1201171875,-400000.0625,-2884.580078125,-400000.0625,-11564.349609375,-400000.0625
0.07214188575744629,-400000.0625,-3920.219970703125,-3969.47998046875,-400000.0625,-2872.89990234375,-400000.0625,-11548.7099609375,-400000.0625
0.07216095924377441,-400000.0625,-3821.419921875,-3874.639892578125,-400000.0625,-2781.010009765625,-400000.0625,-11451.6298828125,-400000.0625
0.07218050956726074,-400000.0625,-3773.97998046875,-3827.429931640625,-400000.0625,-2737.139892578125,-400000.0625,-11405.08984375,-400000.0625
0.07220029830932617,-400000.0625,-3838.39990234375,-3893.330078125,-400000.0625,-2803.139892578125,-400000.0625,-11467.0302734375,-400000.0625
timestamp,ch7,ch2,ch3,ch5,is_pause
timestamp,ch7,ch2,ch3,ch5,is_pause
0.11030316352844238,-400000.0625,-3929.570068359375,-3980.8798828125,-400000.0625,-2887.340087890625,-400000.0625,-11560.73046875,-400000.0625
0.11048603057861328,-400000.0625,-3925.56005859375,-3974.919921875,-400000.0625,-2874.090087890625,-400000.0625,-11556.33984375,-400000.0625
0.11051416397094727,-400000.0625,-3826.47998046875,-3878.550048828125,-400000.0625,-2781.820068359375,-400000.0625,-11457.7802734375,-400000.0625
0.11053776741027832,-400000.0625,-3775.219970703125,-3828.050048828125,-400000.0625,-2740.719970703125,-400000.0625,-11401.75,-400000.0625
0.11055994033813477,-400000.0625,-3840.489990234375,-3891.89990234375,-400000.0625,-2797.64990234375,-400000.0625,-11471.75,-400000.0625
timestamp,ch7,ch2,ch3,ch5,is_pause
0.12389302253723145,-400000.0625,-3931.760009765625,-3980.2099609375,-400000.0625,-2879.909912109375,-400000.0625,-11563.8701171875,-400000.0625
0.12405228614807129,-400000.0625,-3924.419921875,-3971.77001953125,-400000.0625,-2873.75,-400000.0625,-11552.2900390625,-400000.0625
0.12407875061035156,-400000.0625,-3825.7099609375,-3876.919921875,-400000.0625,-2787.830078125,-400000.0625,-11455.6298828125,-400000.0625
0.12414002418518066,-400000.0625,-3772.590087890625,-3826.570068359375,-400000.0625,-2736.280029296875,-400000.0625,-11402.0400390625,-400000.0625
0.1241750717163086,-400000.0625,-3841.969970703125,-3892.22998046875,-400000.0625,-2800.4599609375,-400000.0625,-11466.599609375,-400000.0625
0.12418627738952637,-400000.0625,-3936.820068359375,-3983.02001953125,-400000.0625,-2889.489990234375,-400000.0625,-11558.9599609375,-400000.0625
0.12419581413269043,-400000.0625,-3928.469970703125,-3978.489990234375,-400000.0625,-2882.10009765625,-400000.0625,-11552.6201171875,-400000.0625
0.12420463562011719,-400000.0625,-3825.52001953125,-3882.60009765625,-400000.0625,-2782.6298828125,-400000.0625,-11459.1103515625,-400000.0625
0.12421298027038574,-400000.0625,-3770.780029296875,-3828.2900390625,-400000.0625,-2728.800048828125,-400000.0625,-11402.4697265625,-400000.0625
0.12423133850097656,-400000.0625,-3836.25,-3888.75,-400000.0625,-2794.080078125,-400000.0625,-11465.3603515625,-400000.0625
0.12424015998840332,-400000.0625,-3926.1298828125,-3975.43994140625,-400000.0625,-2883.719970703125,-400000.0625,-11557.099609375,-400000.0625
timestamp,ch7,ch2,ch3,ch5,is_pause
timestamp,ch7,ch2,ch3,ch5,is_pause
timestamp,ch7,ch2,ch3,ch5,is_pause
timestamp,ch7,ch2,ch3,ch5,is_pause
timestamp,ch7,ch2,ch3,ch5,is_pause
timestamp,ch7,ch2,ch3,ch5,is_pause
0.2041151523590088,-400000.0625,-3931.239990234375,-3977.06005859375,-400000.0625,-2880.909912109375,-400000.0625,-11553.8603515625,-400000.0625
0.20436406135559082,-400000.0625,-3845.550048828125,-3886.409912109375,-400000.0625,-2789.35009765625,-400000.0625,-11461.259765625,-400000.0625
0.20438408851623535,-400000.0625,-3792.330078125,-3834.199951171875,-400000.0625,-2740.10009765625,-400000.0625,-11404.6103515625,-400000.0625
0.20439362525939941,-400000.0625,-3849.550048828125,-3900.47998046875,-400000.0625,-2800.419921875,-400000.0625,-11467.080078125,-400000.0625
0.2044079303741455,-400000.0625,-3944.639892578125,-3997.610107421875,-400000.0625,-2875.760009765625,-400000.0625,-11558.6796875,-400000.0625
0.20441627502441406,-400000.0625,-3939.199951171875,-3993.889892578125,-400000.0625,-2867.989990234375,-400000.0625,-11550.2802734375,-400000.0625
0.20442438125610352,-400000.0625,-3844.070068359375,-3900.719970703125,-400000.0625,-2789.070068359375,-400000.0625,-11448.580078125,-400000.0625
0.20443344116210938,-400000.0625,-3795.0,-3850.030029296875,-400000.0625,-2743.530029296875,-400000.0625,-11400.1796875,-400000.0625
0.20444107055664062,-400000.0625,-3864.669921875,-3911.449951171875,-400000.0625,-2795.320068359375,-400000.0625,-11465.0302734375,-400000.0625
0.20444893836975098,-400000.0625,-3960.800048828125,-4002.760009765625,-400000.0625,-2882.18994140625,-400000.0625,-11556.76953125,-400000.0625
0.20445704460144043,-400000.0625,-3953.030029296875,-3996.179931640625,-400000.0625,-2877.280029296875,-400000.0625,-11547.1904296875,-400000.0625
0.20447993278503418,-400000.0625,-3852.800048828125,-3900.340087890625,-400000.0625,-2791.449951171875,-400000.0625,-11454.6796875,-400000.0625
0.20448851585388184,-400000.0625,-3797.340087890625,-3844.68994140625,-400000.0625,-2737.330078125,-400000.0625,-11394.7900390625,-400000.0625
0.2044963836669922,-400000.0625,-3863.6201171875,-3907.35009765625,-400000.0625,-2793.97998046875,-400000.0625,-11462.6904296875,-400000.0625
0.20450448989868164,-400000.0625,-3961.610107421875,-4004.2900390625,-400000.0625,-2886.199951171875,-400000.0625,-11566.1201171875,-400000.0625
0.204512357711792,-400000.0625,-3956.889892578125,-3998.89990234375,-400000.0625,-2877.81005859375,-400000.0625,-11560.16015625,-400000.0625
timestamp,ch7,ch2,ch3,ch5,is_pause
timestamp,ch7,ch2,ch3,ch5,is_pause
timestamp,ch7,ch2,ch3,ch5,is_pause
0.24541091918945312,-400000.0625,-3858.18994140625,-3907.300048828125,-400000.0625,-2785.489990234375,-400000.0625,-11460.830078125,-400000.0625
0.25130653381347656,-400000.0625,-3809.7900390625,-3858.659912109375,-400000.0625,-2741.3798828125,-400000.0625,-11411.2900390625,-400000.0625
timestamp,ch7,ch2,ch3,ch5,is_pause
0.2686138153076172,-400000.0625,-3872.820068359375,-3917.64990234375,-400000.0625,-2798.64990234375,-400000.0625,-11474.900390625,-400000.0625
timestamp,ch7,ch2,ch3,ch5,is_pause
0.2825143337249756,-400000.0625,-3963.949951171875,-4007.820068359375,-400000.0625,-2881.81005859375,-400000.0625,-11566.1201171875,-400000.0625
timestamp,ch7,ch2,ch3,ch5,is_pause
0.3004443645477295,-400000.0625,-3954.4599609375,-3996.469970703125,-400000.0625,-2879.139892578125,-400000.0625,-11555.5302734375,-400000.0625
timestamp,ch7,ch2,ch3,ch5,is_pause
0.31378602981567383,-400000.0625,-3856.419921875,-3901.239990234375,-400000.0625,-2789.35009765625,-400000.0625,-11461.4501953125,-400000.0625
timestamp,ch7,ch2,ch3,ch5,is_pause
0.3279387950897217,-400000.0625,-3802.489990234375,-3850.219970703125,-400000.0625,-2741.6201171875,-400000.0625,-11403.509765625,-400000.0625
timestamp,ch7,ch2,ch3,ch5,is_pause
0.3441343307495117,-400000.0625,-3863.909912109375,-3911.590087890625,-400000.0625,-2800.320068359375,-400000.0625,-11467.080078125,-400000.0625
timestamp,ch7,ch2,ch3,ch5,is_pause
0.3638896942138672,-400000.0625,-3960.56005859375,-4004.719970703125,-400000.0625,-2886.6298828125,-400000.0625,-11564.58984375,-400000.0625
timestamp,ch7,ch2,ch3,ch5,is_pause
timestamp,ch7,ch2,ch3,ch5,is_pause
timestamp,ch7,ch2,ch3,ch5,is_pause
0.4103076457977295,-400000.0625,-3956.840087890625,-3998.179931640625,-400000.0625,-2875.139892578125,-400000.0625,-11560.0595703125,-400000.0625
0.4207265377044678,-400000.0625,-3857.280029296875,-3902.909912109375,-400000.0625,-2782.8701171875,-400000.0625,-11463.8798828125,-400000.0625
timestamp,ch7,ch2,ch3,ch5,is_pause
0.43236231803894043,-400000.0625,-3810.360107421875,-3855.75,-400000.0625,-2741.719970703125,-400000.0625,-11411.669921875,-400000.0625
timestamp,ch7,ch2,ch3,ch5,is_pause
timestamp,ch7,ch2,ch3,ch5,is_pause
0.4584834575653076,-400000.0625,-3872.919921875,-3917.070068359375,-400000.0625,-2806.949951171875,-400000.0625,-11473.75,-400000.0625
timestamp,ch7,ch2,ch3,ch5,is_pause
0.47368502616882324,-400000.0625,-3964.139892578125,-4005.530029296875,-400000.0625,-2889.969970703125,-400000.0625,-11563.349609375,-400000.0625
timestamp,ch7,ch2,ch3,ch5,is_pause
timestamp,ch7,ch2,ch3,ch5,is_pause
0.5107049942016602,-400000.0625,-3954.60009765625,-3995.0400390625,-400000.0625,-2876.429931640625,-400000.0625,-11555.2001953125,-400000.0625
timestamp,ch7,ch2,ch3,ch5,is_pause
0.5296471118927002,-400000.0625,-3858.469970703125,-3901.909912109375,-400000.0625,-2790.02001953125,-400000.0625,-11460.259765625,-400000.0625
timestamp,ch7,ch2,ch3,ch5,is_pause
0.5438580513000488,-400000.0625,-3802.39990234375,-3847.889892578125,-400000.0625,-2738.429931640625,-400000.0625,-11406.51953125,-400000.0625
timestamp,ch7,ch2,ch3,ch5,is_pause
0.557560920715332,-400000.0625,-3868.580078125,-3913.360107421875,-400000.0625,-2800.27001953125,-400000.0625,-11472.7998046875,-400000.0625
timestamp,ch7,ch2,ch3,ch5,is_pause
0.5866003036499023,-400000.0625,-3957.3701171875,-4003.47998046875,-400000.0625,-2888.72998046875,-400000.0625,-11561.5400390625,-400000.0625
timestamp,ch7,ch2,ch3,ch5,is_pause
timestamp,ch7,ch2,ch3,ch5,is_pause
timestamp,ch7,ch2,ch3,ch5,is_pause
0.6387124061584473,-400000.0625,-3938.909912109375,-3983.070068359375,-400000.0625,-2877.239990234375,-400000.0625,-11556.150390625,-400000.0625
timestamp,ch7,ch2,ch3,ch5,is_pause
0.6499536037445068,-400000.0625,-3829.47998046875,-3879.260009765625,-400000.0625,-2784.199951171875,-400000.0625,-11470.3203125,-400000.0625
timestamp,ch7,ch2,ch3,ch5,is_pause
0.6674239635467529,-400000.0625,-3758.760009765625,-3813.840087890625,-400000.0625,-2729.85009765625,-400000.0625,-11417.9599609375,-400000.0625
timestamp,ch7,ch2,ch3,ch5,is_pause
0.6836769580841064,-400000.0625,-3803.110107421875,-3861.6201171875,-400000.0625,-2791.449951171875,-400000.0625,-11487.4404296875,-400000.0625
timestamp,ch7,ch2,ch3,ch5,is_pause
0.6972813606262207,-400000.0625,-3878.070068359375,-3934.570068359375,-400000.0625,-2883.239990234375,-400000.0625,-11584.5703125,-400000.0625
timestamp,ch7,ch2,ch3,ch5,is_pause
timestamp,ch7,ch2,ch3,ch5,is_pause
0.7349638938903809,-400000.0625,-3854.56005859375,-3914.550048828125,-400000.0625,-2874.330078125,-400000.0625,-11590.4296875,-400000.0625
timestamp,ch7,ch2,ch3,ch5,is_pause
timestamp,ch7,ch2,ch3,ch5,is_pause
0.7590382099151611,-400000.0625,-3738.8798828125,-3805.2099609375,-400000.0625,-2781.110107421875,-400000.0625,-11499.599609375,-400000.0625
timestamp,ch7,ch2,ch3,ch5,is_pause
0.7752413749694824,-400000.0625,-3667.929931640625,-3736.590087890625,-400000.0625,-2730.080078125,-400000.0625,-11447.2900390625,-400000.0625
0.7840237617492676,-400000.0625,-3725.9599609375,-3784.419921875,-400000.0625,-2789.31005859375,-400000.0625,-11509.9404296875,-400000.0625
timestamp,ch7,ch2,ch3,ch5,is_pause
0.7969908714294434,-400000.0625,-3813.080078125,-3867.669921875,-400000.0625,-2877.330078125,-400000.0625,-11609.509765625,-400000.0625
timestamp,ch7,ch2,ch3,ch5,is_pause
0.8110551834106445,-400000.0625,-3807.739990234375,-3858.81005859375,-400000.0625,-2876.81005859375,-400000.0625,-11611.6103515625,-400000.0625
timestamp,ch7,ch2,ch3,ch5,is_pause
timestamp,ch7,ch2,ch3,ch5,is_pause
0.8478405475616455,-400000.0625,-3708.550048828125,-3760.050048828125,-400000.0625,-2787.2099609375,-400000.0625,-11518.580078125,-400000.0625
timestamp,ch7,ch2,ch3,ch5,is_pause
0.8626203536987305,-400000.0625,-3646.56005859375,-3702.780029296875,-400000.0625,-2731.85009765625,-400000.0625,-11463.98046875,-400000.0625
timestamp,ch7,ch2,ch3,ch5,is_pause
0.8769025802612305,-400000.0625,-3709.889892578125,-3764.43994140625,-400000.0625,-2787.72998046875,-400000.0625,-11524.0595703125,-400000.0625
timestamp,ch7,ch2,ch3,ch5,is_pause
0.8897571563720703,-400000.0625,-3810.68994140625,-3859.330078125,-400000.0625,-2874.0400390625,-400000.0625,-11616.990234375,-400000.0625
timestamp,ch7,ch2,ch3,ch5,is_pause
0.9036669731140137,-400000.0625,-3804.02001953125,-3853.75,-400000.0625,-2869.800048828125,-400000.0625,-11612.509765625,-400000.0625
0.9125852584838867,-400000.0625,-3703.97998046875,-3758.3798828125,-400000.0625,-2782.389892578125,-400000.0625,-11516.8603515625,-400000.0625
timestamp,ch7,ch2,ch3,ch5,is_pause
timestamp,ch7,ch2,ch3,ch5,is_pause
timestamp,ch7,ch2,ch3,ch5,is_pause
0.9542474746704102,-400000.0625,-3649.429931640625,-3702.550048828125,-400000.0625,-2730.320068359375,-400000.0625,-11457.6396484375,-400000.0625
timestamp,ch7,ch2,ch3,ch5,is_pause
0.9651415348052979,-400000.0625,-3712.800048828125,-3764.72998046875,-400000.0625,-2786.639892578125,-400000.0625,-11516.7197265625,-400000.0625
timestamp,ch7,ch2,ch3,ch5,is_pause
0.9801769256591797,-400000.0625,-3810.219970703125,-3855.75,-400000.0625,-2878.52001953125,-400000.0625,-11610.83984375,-400000.0625
timestamp,ch7,ch2,ch3,ch5,is_pause
0.9948539733886719,-400000.0625,-3803.35009765625,-3848.409912109375,-400000.0625,-2874.280029296875,-400000.0625,-11604.740234375,-400000.0625
timestamp,ch7,ch2,ch3,ch5,is_pause
1.0084259510040283,-400000.0625,-3703.639892578125,-3752.280029296875,-400000.0625,-2781.43994140625,-400000.0625,-11507.849609375,-400000.0625
1.0166139602661133,-400000.0625,-3655.239990234375,-3704.409912109375,-400000.0625,-2731.22998046875,-400000.0625,-11456.25,-400000.0625
timestamp,ch7,ch2,ch3,ch5,is_pause
timestamp,ch7,ch2,ch3,ch5,is_pause
timestamp,ch7,ch2,ch3,ch5,is_pause
1.0620357990264893,-400000.0625,-3716.52001953125,-3764.010009765625,-400000.0625,-2788.02001953125,-400000.0625,-11518.8095703125,-400000.0625
timestamp,ch7,ch2,ch3,ch5,is_pause
1.0783908367156982,-400000.0625,-3810.929931640625,-3852.510009765625,-400000.0625,-2874.89990234375,-400000.0625,-11611.4599609375,-400000.0625
timestamp,ch7,ch2,ch3,ch5,is_pause
1.0935451984405518,-400000.0625,-3807.639892578125,-3846.550048828125,-400000.0625,-2866.699951171875,-400000.0625,-11607.599609375,-400000.0625
timestamp,ch7,ch2,ch3,ch5,is_pause
1.104295015335083,-400000.0625,-3709.93994140625,-3753.469970703125,-400000.0625,-2777.050048828125,-400000.0625,-11514.0498046875,-400000.0625
timestamp,ch7,ch2,ch3,ch5,is_pause
1.1154146194458008,-400000.0625,-3656.530029296875,-3700.780029296875,-400000.0625,-2726.219970703125,-400000.0625,-11456.349609375,-400000.0625
1.1247727870941162,-400000.0625,-3717.22998046875,-3760.77001953125,-400000.0625,-2785.8701171875,-400000.0625,-11516.669921875,-400000.0625
timestamp,ch7,ch2,ch3,ch5,is_pause
timestamp,ch7,ch2,ch3,ch5,is_pause
timestamp,ch7,ch2,ch3,ch5,is_pause
timestamp,ch7,ch2,ch3,ch5,is_pause
1.1715927124023438,-400000.0625,-3812.889892578125,-3852.320068359375,-400000.0625,-2873.85009765625,-400000.0625,-11610.7998046875,-400000.0625
1.1802613735198975,-400000.0625,-3807.35009765625,-3845.639892578125,-400000.0625,-2866.840087890625,-400000.0625,-11609.4599609375,-400000.0625
timestamp,ch7,ch2,ch3,ch5,is_pause
1.1962471008300781,-400000.0625,-3708.7900390625,-3751.7099609375,-400000.0625,-2776.18994140625,-400000.0625,-11511.66015625,-400000.0625
timestamp,ch7,ch2,ch3,ch5,is_pause
1.2112879753112793,-400000.0625,-3655.909912109375,-3700.830078125,-400000.0625,-2735.139892578125,-400000.0625,-11456.4404296875,-400000.0625
timestamp,ch7,ch2,ch3,ch5,is_pause
1.2224621772766113,-400000.0625,-3713.0400390625,-3754.7099609375,-400000.0625,-2796.1298828125,-400000.0625,-11517.7197265625,-400000.0625
timestamp,ch7,ch2,ch3,ch5,is_pause
1.2388861179351807,-400000.0625,-3811.31005859375,-3848.64990234375,-400000.0625,-2878.949951171875,-400000.0625,-11609.5595703125,-400000.0625
timestamp,ch7,ch2,ch3,ch5,is_pause
timestamp,ch7,ch2,ch3,ch5,is_pause
1.2821545600891113,-400000.0625,-3810.97998046875,-3847.030029296875,-400000.0625,-2869.320068359375,-400000.0625,-11606.41015625,-400000.0625
timestamp,ch7,ch2,ch3,ch5,is_pause
1.2969787120819092,-400000.0625,-3711.56005859375,-3752.090087890625,-400000.0625,-2772.89990234375,-400000.0625,-11512.849609375,-400000.0625
timestamp,ch7,ch2,ch3,ch5,is_pause
1.3079960346221924,-400000.0625,-3657.10009765625,-3698.43994140625,-400000.0625,-2725.60009765625,-400000.0625,-11453.2998046875,-400000.0625
1.3225879669189453,-400000.0625,-3721.050048828125,-3760.77001953125,-400000.0625,-2788.260009765625,-400000.0625,-11516.2900390625,-400000.0625
timestamp,ch7,ch2,ch3,ch5,is_pause
1.3334143161773682,-400000.0625,-3815.699951171875,-3854.0400390625,-400000.0625,-2877.280029296875,-400000.0625,-11611.9404296875,-400000.0625
timestamp,ch7,ch2,ch3,ch5,is_pause
1.348581075668335,-400000.0625,-3812.409912109375,-3850.080078125,-400000.0625,-2875.139892578125,-400000.0625,-11608.169921875,-400000.0625
timestamp,ch7,ch2,ch3,ch5,is_pause
timestamp,ch7,ch2,ch3,ch5,is_pause
timestamp,ch7,ch2,ch3,ch5,is_pause
1.3946154117584229,-400000.0625,-3715.89990234375,-3756.3798828125,-400000.0625,-2786.300048828125,-400000.0625,-11512.5703125,-400000.0625
timestamp,ch7,ch2,ch3,ch5,is_pause
1.4068684577941895,-400000.0625,-3657.43994140625,-3698.72998046875,-400000.0625,-2733.610107421875,-400000.0625,-11452.009765625,-400000.0625
timestamp,ch7,ch2,ch3,ch5,is_pause
1.4201467037200928,-400000.0625,-3714.1298828125,-3754.429931640625,-400000.0625,-2786.639892578125,-400000.0625,-11510.900390625,-400000.0625
timestamp,ch7,ch2,ch3,ch5,is_pause
1.4387874603271484,-400000.0625,-3811.070068359375,-3848.64990234375,-400000.0625,-2873.469970703125,-400000.0625,-11607.1201171875,-400000.0625
timestamp,ch7,ch2,ch3,ch5,is_pause
1.4517345428466797,-400000.0625,-3812.1201171875,-3847.929931640625,-400000.0625,-2871.85009765625,-400000.0625,-11607.8896484375,-400000.0625
timestamp,ch7,ch2,ch3,ch5,is_pause
timestamp,ch7,ch2,ch3,ch5,is_pause
timestamp,ch7,ch2,ch3,ch5,is_pause
timestamp,ch7,ch2,ch3,ch5,is_pause
1.5056169033050537,-400000.0625,-3721.330078125,-3758.2900390625,-400000.0625,-2787.449951171875,-400000.0625,-11516.9501953125,-400000.0625
1.5180389881134033,-400000.0625,-3665.02001953125,-3704.31005859375,-400000.0625,-2733.7099609375,-400000.0625,-11460.6396484375,-400000.0625
timestamp,ch7,ch2,ch3,ch5,is_pause
1.532050609588623,-400000.0625,-3718.7099609375,-3758.81005859375,-400000.0625,-2784.39990234375,-400000.0625,-11517.8603515625,-400000.0625
timestamp,ch7,ch2,ch3,ch5,is_pause
1.549238681793213,-400000.0625,-3812.739990234375,-3849.080078125,-400000.0625,-2874.469970703125,-400000.0625,-11611.1298828125,-400000.0625
timestamp,ch7,ch2,ch3,ch5,is_pause
1.5732903480529785,-400000.0625,-3814.409912109375,-3848.409912109375,-400000.0625,-2876.89990234375,-400000.0625,-11608.8896484375,-400000.0625
timestamp,ch7,ch2,ch3,ch5,is_pause
timestamp,ch7,ch2,ch3,ch5,is_pause
timestamp,ch7,ch2,ch3,ch5,is_pause
timestamp,ch7,ch2,ch3,ch5,is_pause
1.635941505432129,-400000.0625,-3716.659912109375,-3755.280029296875,-400000.0625,-2786.679931640625,-400000.0625,-11517.6201171875,-400000.0625
timestamp,ch7,ch2,ch3,ch5,is_pause
1.651731252670288,-400000.0625,-3659.43994140625,-3701.8798828125,-400000.0625,-2737.52001953125,-400000.0625,-11459.58984375,-400000.0625
timestamp,ch7,ch2,ch3,ch5,is_pause
1.6647608280181885,-400000.0625,-3725.0,-3763.25,-400000.0625,-2793.360107421875,-400000.0625,-11518.3798828125,-400000.0625
timestamp,ch7,ch2,ch3,ch5,is_pause
1.6795310974121094,-400000.0625,-3815.60009765625,-3850.320068359375,-400000.0625,-2875.139892578125,-400000.0625,-11610.1298828125,-400000.0625
timestamp,ch7,ch2,ch3,ch5,is_pause
timestamp,ch7,ch2,ch3,ch5,is_pause
timestamp,ch7,ch2,ch3,ch5,is_pause
1.721923589706421,-400000.0625,-3809.7900390625,-3844.1201171875,-400000.0625,-2870.889892578125,-400000.0625,-11604.830078125,-400000.0625
timestamp,ch7,ch2,ch3,ch5,is_pause
1.7325148582458496,-400000.0625,-3713.800048828125,-3751.56005859375,-400000.0625,-2785.25,-400000.0625,-11510.330078125,-400000.0625
1.744002103805542,-400000.0625,-3651.669921875,-3694.389892578125,-400000.0625,-2731.280029296875,-400000.0625,-11452.490234375,-400000.0625
timestamp,ch7,ch2,ch3,ch5,is_pause
1.7593162059783936,-400000.0625,-3713.800048828125,-3753.89990234375,-400000.0625,-2791.02001953125,-400000.0625,-11515.2802734375,-400000.0625
timestamp,ch7,ch2,ch3,ch5,is_pause
1.7723760604858398,-400000.0625,-3808.02001953125,-3845.5,-400000.0625,-2882.340087890625,-400000.0625,-11611.26953125,-400000.0625
timestamp,ch7,ch2,ch3,ch5,is_pause
1.7882275581359863,-400000.0625,-3805.590087890625,-3842.639892578125,-400000.0625,-2878.81005859375,-400000.0625,-11610.5595703125,-400000.0625
timestamp,ch7,ch2,ch3,ch5,is_pause
timestamp,ch7,ch2,ch3,ch5,is_pause
timestamp,ch7,ch2,ch3,ch5,is_pause
1.8301856517791748,-400000.0625,-3716.139892578125,-3754.22998046875,-400000.0625,-2790.550048828125,-400000.0625,-11513.330078125,-400000.0625
timestamp,ch7,ch2,ch3,ch5,is_pause
1.8460040092468262,-400000.0625,-3656.199951171875,-3697.35009765625,-400000.0625,-2733.330078125,-400000.0625,-11457.9697265625,-400000.0625
timestamp,ch7,ch2,ch3,ch5,is_pause
1.8579754829406738,-400000.0625,-3714.1298828125,-3752.89990234375,-400000.0625,-2789.68994140625,-400000.0625,-11514.1904296875,-400000.0625
1.8704941272735596,-400000.0625,-3813.60009765625,-3849.1298828125,-400000.0625,-2877.280029296875,-400000.0625,-11610.7998046875,-400000.0625
timestamp,ch7,ch2,ch3,ch5,is_pause
1.8860607147216797,-400000.0625,-3812.409912109375,-3848.1201171875,-400000.0625,-2874.989990234375,-400000.0625,-11611.7998046875,-400000.0625
timestamp,ch7,ch2,ch3,ch5,is_pause
1.8981428146362305,-400000.0625,-3713.320068359375,-3752.760009765625,-400000.0625,-2788.070068359375,-400000.0625,-11514.2802734375,-400000.0625
timestamp,ch7,ch2,ch3,ch5,is_pause
timestamp,ch7,ch2,ch3,ch5,is_pause
1.9377915859222412,-400000.0625,-3656.43994140625,-3700.8798828125,-400000.0625,-2739.909912109375,-400000.0625,-11458.259765625,-400000.0625
timestamp,ch7,ch2,ch3,ch5,is_pause
timestamp,ch7,ch2,ch3,ch5,is_pause
1.9568746089935303,-400000.0625,-3718.469970703125,-3758.0,-400000.0625,-2790.929931640625,-400000.0625,-11519.6201171875,-400000.0625
1.9683263301849365,-400000.0625,-3816.610107421875,-3850.169921875,-400000.0625,-2874.89990234375,-400000.0625,-11611.0302734375,-400000.0625
timestamp,ch7,ch2,ch3,ch5,is_pause
1.980591058731079,-400000.0625,-3818.989990234375,-3852.889892578125,-400000.0625,-2877.6201171875,-400000.0625,-11616.1796875,-400000.0625
timestamp,ch7,ch2,ch3,ch5,is_pause
1.9964525699615479,-400000.0625,-3723.570068359375,-3760.9599609375,-400000.0625,-2793.739990234375,-400000.0625,-11520.4296875,-400000.0625
timestamp,ch7,ch2,ch3,ch5,is_pause
2.0137839317321777,-400000.0625,-3661.010009765625,-3701.68994140625,-400000.0625,-2740.9599609375,-400000.0625,-11455.349609375,-400000.0625
timestamp,ch7,ch2,ch3,ch5,is_pause
timestamp,ch7,ch2,ch3,ch5,is_pause
timestamp,ch7,ch2,ch3,ch5,is_pause
2.0649900436401367,-400000.0625,-3716.330078125,-3755.330078125,-400000.0625,-2786.110107421875,-400000.0625,-11510.900390625,-400000.0625
timestamp,ch7,ch2,ch3,ch5,is_pause
2.08034610748291,-400000.0625,-3813.699951171875,-3846.60009765625,-400000.0625,-2875.570068359375,-400000.0625,-11608.4599609375,-400000.0625
timestamp,ch7,ch2,ch3,ch5,is_pause
2.0961482524871826,-400000.0625,-3815.840087890625,-3844.550048828125,-400000.0625,-2877.570068359375,-400000.0625,-11608.5498046875,-400000.0625
timestamp,ch7,ch2,ch3,ch5,is_pause
2.110776662826538,-400000.0625,-3724.6201171875,-3753.139892578125,-400000.0625,-2789.929931640625,-400000.0625,-11516.240234375,-400000.0625
timestamp,ch7,ch2,ch3,ch5,is_pause
2.1272921562194824,-400000.0625,-3667.360107421875,-3694.72998046875,-400000.0625,-2739.0,-400000.0625,-11458.490234375,-400000.0625
timestamp,ch7,ch2,ch3,ch5,is_pause
timestamp,ch7,ch2,ch3,ch5,is_pause
timestamp,ch7,ch2,ch3,ch5,is_pause
2.173109531402588,-400000.0625,-3710.93994140625,-3739.5,-400000.0625,-2788.39990234375,-400000.0625,-11519.150390625,-400000.0625
timestamp,ch7,ch2,ch3,ch5,is_pause
2.192922592163086,-400000.0625,-3798.77001953125,-3827.860107421875,-400000.0625,-2869.800048828125,-400000.0625,-11620.8095703125,-400000.0625
timestamp,ch7,ch2,ch3,ch5,is_pause
timestamp,ch7,ch2,ch3,ch5,is_pause
2.2106995582580566,-400000.0625,-3793.10009765625,-3821.85009765625,-400000.0625,-2870.320068359375,-400000.0625,-11633.919921875,-400000.0625
timestamp,ch7,ch2,ch3,ch5,is_pause
2.2278523445129395,-400000.0625,-3687.669921875,-3718.0,-400000.0625,-2784.43994140625,-400000.0625,-11548.5703125,-400000.0625
timestamp,ch7,ch2,ch3,ch5,is_pause
timestamp,ch7,ch2,ch3,ch5,is_pause
timestamp,ch7,ch2,ch3,ch5,is_pause
2.2803449630737305,-400000.0625,-3620.10009765625,-3647.760009765625,-400000.0625,-2725.4599609375,-400000.0625,-11494.4501953125,-400000.0625
timestamp,ch7,ch2,ch3,ch5,is_pause
2.2955448627471924,-400000.0625,-3670.550048828125,-3694.340087890625,-400000.0625,-2780.14990234375,-400000.0625,-11566.4501953125,-400000.0625
timestamp,ch7,ch2,ch3,ch5,is_pause
2.308495283126831,-400000.0625,-3762.340087890625,-3777.4599609375,-400000.0625,-2865.360107421875,-400000.0625,-11677.0302734375,-400000.0625
timestamp,ch7,ch2,ch3,ch5,is_pause
2.3177008628845215,-400000.0625,-3761.340087890625,-3768.25,-400000.0625,-2861.60009765625,-400000.0625,-11683.849609375,-400000.0625
2.332813024520874,-400000.0625,-3664.06005859375,-3671.97998046875,-400000.0625,-2777.77001953125,-400000.0625,-11604.1201171875,-400000.0625
timestamp,ch7,ch2,ch3,ch5,is_pause
timestamp,ch7,ch2,ch3,ch5,is_pause
timestamp,ch7,ch2,ch3,ch5,is_pause
2.3838768005371094,-400000.0625,-3604.60009765625,-3611.280029296875,-400000.0625,-2723.739990234375,-400000.0625,-11552.759765625,-400000.0625
timestamp,ch7,ch2,ch3,ch5,is_pause
timestamp,ch7,ch2,ch3,ch5,is_pause
2.402765989303589,-400000.0625,-3665.35009765625,-3661.159912109375,-400000.0625,-2777.669921875,-400000.0625,-11614.75,-400000.0625
2.4131581783294678,-400000.0625,-3764.489990234375,-3752.89990234375,-400000.0625,-2868.219970703125,-400000.0625,-11717.5595703125,-400000.0625
timestamp,ch7,ch2,ch3,ch5,is_pause
2.4297900199890137,-400000.0625,-3763.10009765625,-3752.85009765625,-400000.0625,-2864.169921875,-400000.0625,-11719.5595703125,-400000.0625
timestamp,ch7,ch2,ch3,ch5,is_pause
2.4451589584350586,-400000.0625,-3669.1201171875,-3660.43994140625,-400000.0625,-2777.580078125,-400000.0625,-11623.8095703125,-400000.0625
timestamp,ch7,ch2,ch3,ch5,is_pause
timestamp,ch7,ch2,ch3,ch5,is_pause
2.4838178157806396,-400000.0625,-3609.179931640625,-3600.64990234375,-400000.0625,-2724.929931640625,-400000.0625,-11565.259765625,-400000.0625
timestamp,ch7,ch2,ch3,ch5,is_pause
2.502601146697998,-400000.0625,-3662.489990234375,-3652.530029296875,-400000.0625,-2769.419921875,-400000.0625,-11618.23046875,-400000.0625
timestamp,ch7,ch2,ch3,ch5,is_pause
2.51617169380188,-400000.0625,-3763.14990234375,-3748.610107421875,-400000.0625,-2861.550048828125,-400000.0625,-11711.41015625,-400000.0625
timestamp,ch7,ch2,ch3,ch5,is_pause
2.529585361480713,-400000.0625,-3764.340087890625,-3747.93994140625,-400000.0625,-2865.97998046875,-400000.0625,-11711.4599609375,-400000.0625
timestamp,ch7,ch2,ch3,ch5,is_pause
2.5422136783599854,-400000.0625,-3668.360107421875,-3655.909912109375,-400000.0625,-2779.199951171875,-400000.0625,-11614.0400390625,-400000.0625
2.5540611743927,-400000.0625,-3607.4599609375,-3597.1201171875,-400000.0625,-2722.449951171875,-400000.0625,-11557.5302734375,-400000.0625
timestamp,ch7,ch2,ch3,ch5,is_pause
timestamp,ch7,ch2,ch3,ch5,is_pause
timestamp,ch7,ch2,ch3,ch5,is_pause
timestamp,ch7,ch2,ch3,ch5,is_pause
2.6183218955993652,-400000.0625,-3662.43994140625,-3652.139892578125,-400000.0625,-2776.14990234375,-400000.0625,-11615.3701171875,-400000.0625
timestamp,ch7,ch2,ch3,ch5,is_pause
2.631526470184326,-400000.0625,-3760.340087890625,-3745.60009765625,-400000.0625,-2867.4599609375,-400000.0625,-11711.0703125,-400000.0625
timestamp,ch7,ch2,ch3,ch5,is_pause
2.642206907272339,-400000.0625,-3766.72998046875,-3749.85009765625,-400000.0625,-2866.27001953125,-400000.0625,-11714.080078125,-400000.0625
timestamp,ch7,ch2,ch3,ch5,is_pause
2.6534574031829834,-400000.0625,-3672.550048828125,-3657.530029296875,-400000.0625,-2783.199951171875,-400000.0625,-11619.3798828125,-400000.0625
timestamp,ch7,ch2,ch3,ch5,is_pause
2.67427659034729,-400000.0625,-3611.179931640625,-3599.5,-400000.0625,-2731.659912109375,-400000.0625,-11557.3896484375,-400000.0625
timestamp,ch7,ch2,ch3,ch5,is_pause
timestamp,ch7,ch2,ch3,ch5,is_pause
2.715481758117676,-400000.0625,-3667.2099609375,-3652.530029296875,-400000.0625,-2777.77001953125,-400000.0625,-11614.990234375,-400000.0625
timestamp,ch7,ch2,ch3,ch5,is_pause
2.7304046154022217,-400000.0625,-3759.18994140625,-3739.60009765625,-400000.0625,-2866.27001953125,-400000.0625,-11705.01953125,-400000.0625
timestamp,ch7,ch2,ch3,ch5,is_pause
2.746203899383545,-400000.0625,-3759.10009765625,-3739.60009765625,-400000.0625,-2869.080078125,-400000.0625,-11708.98046875,-400000.0625
timestamp,ch7,ch2,ch3,ch5,is_pause
2.759359359741211,-400000.0625,-3667.639892578125,-3654.0,-400000.0625,-2786.590087890625,-400000.0625,-11614.2802734375,-400000.0625
timestamp,ch7,ch2,ch3,ch5,is_pause
2.769864797592163,-400000.0625,-3605.1298828125,-3594.489990234375,-400000.0625,-2729.889892578125,-400000.0625,-11553.6201171875,-400000.0625
2.778501272201538,-400000.0625,-3660.25,-3645.22998046875,-400000.0625,-2779.389892578125,-400000.0625,-11604.169921875,-400000.0625
timestamp,ch7,ch2,ch3,ch5,is_pause
timestamp,ch7,ch2,ch3,ch5,is_pause
timestamp,ch7,ch2,ch3,ch5,is_pause
2.8141424655914307,-400000.0625,-3753.469970703125,-3736.39990234375,-400000.0625,-2865.169921875,-400000.0625,-11695.8203125,-400000.0625
timestamp,ch7,ch2,ch3,ch5,is_pause
2.8279130458831787,-400000.0625,-3752.570068359375,-3737.2099609375,-400000.0625,-2862.60009765625,-400000.0625,-11701.5400390625,-400000.0625
timestamp,ch7,ch2,ch3,ch5,is_pause
2.840090274810791,-400000.0625,-3663.72998046875,-3649.81005859375,-400000.0625,-2785.02001953125,-400000.0625,-11609.0302734375,-400000.0625
2.8495113849639893,-400000.0625,-3598.360107421875,-3588.010009765625,-400000.0625,-2733.659912109375,-400000.0625,-11544.2802734375,-400000.0625
timestamp,ch7,ch2,ch3,ch5,is_pause
2.8646397590637207,-400000.0625,-3653.239990234375,-3639.1298828125,-400000.0625,-2782.77001953125,-400000.0625,-11598.400390625,-400000.0625
timestamp,ch7,ch2,ch3,ch5,is_pause
2.879422664642334,-400000.0625,-3750.1298828125,-3730.110107421875,-400000.0625,-2871.419921875,-400000.0625,-11693.5703125,-400000.0625
timestamp,ch7,ch2,ch3,ch5,is_pause
timestamp,ch7,ch2,ch3,ch5,is_pause
2.9180572032928467,-400000.0625,-3752.280029296875,-3732.489990234375,-400000.0625,-2874.659912109375,-400000.0625,-11695.2001953125,-400000.0625
timestamp,ch7,ch2,ch3,ch5,is_pause
2.932098865509033,-400000.0625,-3658.919921875,-3641.4599609375,-400000.0625,-2783.8701171875,-400000.0625,-11605.1201171875,-400000.0625
timestamp,ch7,ch2,ch3,ch5,is_pause
2.9427599906921387,-400000.0625,-3591.489990234375,-3576.330078125,-400000.0625,-2724.030029296875,-400000.0625,-11538.98046875,-400000.0625
timestamp,ch7,ch2,ch3,ch5,is_pause
2.9553980827331543,-400000.0625,-3641.1298828125,-3625.580078125,-400000.0625,-2774.760009765625,-400000.0625,-11587.8095703125,-400000.0625
timestamp,ch7,ch2,ch3,ch5,is_pause
2.9715816974639893,-400000.0625,-3740.639892578125,-3720.6201171875,-400000.0625,-2865.27001953125,-400000.0625,-11685.1298828125,-400000.0625
timestamp,ch7,ch2,ch3,ch5,is_pause
2.982542037963867,-400000.0625,-3745.030029296875,-3726.10009765625,-400000.0625,-2868.27001953125,-400000.0625,-11688.7099609375,-400000.0625
timestamp,ch7,ch2,ch3,ch5,is_pause
timestamp,ch7,ch2,ch3,ch5,is_pause
timestamp,ch7,ch2,ch3,ch5,is_pause
3.023911237716675,-400000.0625,-3649.330078125,-3631.639892578125,-400000.0625,-2785.969970703125,-400000.0625,-11594.580078125,-400000.0625
timestamp,ch7,ch2,ch3,ch5,is_pause
3.0349535942077637,-400000.0625,-3588.25,-3575.85009765625,-400000.0625,-2734.469970703125,-400000.0625,-11536.5498046875,-400000.0625
3.0463814735412598,-400000.0625,-3646.800048828125,-3632.929931640625,-400000.0625,-2785.72998046875,-400000.0625,-11593.9599609375,-400000.0625
timestamp,ch7,ch2,ch3,ch5,is_pause
3.060602903366089,-400000.0625,-3741.360107421875,-3723.0,-400000.0625,-2866.550048828125,-400000.0625,-11688.419921875,-400000.0625
timestamp,ch7,ch2,ch3,ch5,is_pause
3.073517322540283,-400000.0625,-3743.360107421875,-3724.14990234375,-400000.0625,-2870.27001953125,-400000.0625,-11692.9501953125,-400000.0625
timestamp,ch7,ch2,ch3,ch5,is_pause
3.0853846073150635,-400000.0625,-3647.85009765625,-3634.830078125,-400000.0625,-2787.590087890625,-400000.0625,-11601.5400390625,-400000.0625
timestamp,ch7,ch2,ch3,ch5,is_pause
timestamp,ch7,ch2,ch3,ch5,is_pause
timestamp,ch7,ch2,ch3,ch5,is_pause
3.126504421234131,-400000.0625,-3583.0,-3570.889892578125,-400000.0625,-2731.320068359375,-400000.0625,-11533.169921875,-400000.0625
timestamp,ch7,ch2,ch3,ch5,is_pause
3.1401829719543457,-400000.0625,-3634.830078125,-3623.580078125,-400000.0625,-2782.679931640625,-400000.0625,-11585.51953125,-400000.0625
timestamp,ch7,ch2,ch3,ch5,is_pause
3.1500155925750732,-400000.0625,-3740.840087890625,-3725.10009765625,-400000.0625,-2877.18994140625,-400000.0625,-11690.330078125,-400000.0625
timestamp,ch7,ch2,ch3,ch5,is_pause
3.1652212142944336,-400000.0625,-3745.1298828125,-3727.530029296875,-400000.0625,-2880.570068359375,-400000.0625,-11696.150390625,-400000.0625
timestamp,ch7,ch2,ch3,ch5,is_pause
3.1777029037475586,-400000.0625,-3647.0400390625,-3635.60009765625,-400000.0625,-2793.550048828125,-400000.0625,-11600.9697265625,-400000.0625
3.1904680728912354,-400000.0625,-3580.18994140625,-3573.989990234375,-400000.0625,-2732.3701171875,-400000.0625,-11534.5498046875,-400000.0625
timestamp,ch7,ch2,ch3,ch5,is_pause
timestamp,ch7,ch2,ch3,ch5,is_pause
timestamp,ch7,ch2,ch3,ch5,is_pause
3.239856481552124,-400000.0625,-3635.97998046875,-3627.6298828125,-400000.0625,-2780.10009765625,-400000.0625,-11588.76953125,-400000.0625
timestamp,ch7,ch2,ch3,ch5,is_pause
3.258241653442383,-400000.0625,-3737.5,-3722.530029296875,-400000.0625,-2865.60009765625,-400000.0625,-11689.759765625,-400000.0625
timestamp,ch7,ch2,ch3,ch5,is_pause
3.273580312728882,-400000.0625,-3743.27001953125,-3724.429931640625,-400000.0625,-2869.27001953125,-400000.0625,-11700.580078125,-400000.0625
timestamp,ch7,ch2,ch3,ch5,is_pause
3.288257122039795,-400000.0625,-3653.10009765625,-3638.739990234375,-400000.0625,-2787.110107421875,-400000.0625,-11613.7998046875,-400000.0625
timestamp,ch7,ch2,ch3,ch5,is_pause
3.300750494003296,-400000.0625,-3595.780029296875,-3585.14990234375,-400000.0625,-2728.56005859375,-400000.0625,-11550.6201171875,-400000.0625
timestamp,ch7,ch2,ch3,ch5,is_pause
timestamp,ch7,ch2,ch3,ch5,is_pause
timestamp,ch7,ch2,ch3,ch5,is_pause
3.3428478240966797,-400000.0625,-3659.300048828125,-3620.340087890625,-400000.0625,-2778.820068359375,-400000.0625,-11599.58984375,-400000.0625
timestamp,ch7,ch2,ch3,ch5,is_pause
3.3578596115112305,-400000.0625,-3768.300048828125,-3725.389892578125,-400000.0625,-2862.550048828125,-400000.0625,-11717.26953125,-400000.0625
3.3690106868743896,-400000.0625,-3795.0,-3696.389892578125,-400000.0625,-2866.030029296875,-400000.0625,-11677.2197265625,-400000.0625
timestamp,ch7,ch2,ch3,ch5,is_pause
3.3898403644561768,-400000.0625,-3718.280029296875,-3643.889892578125,-400000.0625,-2777.340087890625,-400000.0625,-11597.2099609375,-400000.0625
timestamp,ch7,ch2,ch3,ch5,is_pause
3.403062582015991,-400000.0625,-3676.840087890625,-3587.9599609375,-400000.0625,-2713.35009765625,-400000.0625,-11621.669921875,-400000.0625
timestamp,ch7,ch2,ch3,ch5,is_pause
timestamp,ch7,ch2,ch3,ch5,is_pause
timestamp,ch7,ch2,ch3,ch5,is_pause
3.456329822540283,-400000.0625,-3713.27001953125,-3632.97998046875,-400000.0625,-2758.5,-400000.0625,-11671.6396484375,-400000.0625
timestamp,ch7,ch2,ch3,ch5,is_pause
timestamp,ch7,ch2,ch3,ch5,is_pause
3.474064588546753,-400000.0625,-3820.1298828125,-3801.199951171875,-400000.0625,-2843.090087890625,-400000.0625,-11805.2001953125,-400000.0625
timestamp,ch7,ch2,ch3,ch5,is_pause
3.4909067153930664,-400000.0625,-3888.510009765625,-3868.389892578125,-400000.0625,-2832.64990234375,-400000.0625,-11743.740234375,-400000.0625
timestamp,ch7,ch2,ch3,ch5,is_pause
3.506822109222412,-400000.0625,-3849.7900390625,-3759.18994140625,-400000.0625,-2744.719970703125,-400000.0625,-11599.16015625,-400000.0625
timestamp,ch7,ch2,ch3,ch5,is_pause
timestamp,ch7,ch2,ch3,ch5,is_pause
timestamp,ch7,ch2,ch3,ch5,is_pause
3.549558639526367,-400000.0625,-3850.889892578125,-3660.389892578125,-400000.0625,-2665.7099609375,-400000.0625,-11537.509765625,-400000.0625
timestamp,ch7,ch2,ch3,ch5,is_pause
3.5706043243408203,-400000.0625,-3982.39990234375,-3787.0400390625,-400000.0625,-2695.22998046875,-400000.0625,-11601.259765625,-400000.0625
timestamp,ch7,ch2,ch3,ch5,is_pause
timestamp,ch7,ch2,ch3,ch5,is_pause
3.6017508506774902,-400000.0625,-4131.7001953125,-3925.3701171875,-400000.0625,-2779.820068359375,-400000.0625,-11686.4697265625,-400000.0625
3.6119823455810547,-400000.0625,-4213.47998046875,-3975.6298828125,-400000.0625,-2748.8701171875,-400000.0625,-11687.3798828125,-400000.0625
timestamp,ch7,ch2,ch3,ch5,is_pause
timestamp,ch7,ch2,ch3,ch5,is_pause
timestamp,ch7,ch2,ch3,ch5,is_pause
timestamp,ch7,ch2,ch3,ch5,is_pause
3.662097215652466,-400000.0625,-4172.0400390625,-3831.580078125,-400000.0625,-2635.77001953125,-400000.0625,-11360.599609375,-400000.0625
timestamp,ch7,ch2,ch3,ch5,is_pause
3.6751394271850586,-400000.0625,-4152.5400390625,-3787.570068359375,-400000.0625,-2574.300048828125,-400000.0625,-11200.0,-400000.0625
timestamp,ch7,ch2,ch3,ch5,is_pause
3.689197301864624,-400000.0625,-4246.330078125,-3856.659912109375,-400000.0625,-2619.550048828125,-400000.0625,-11221.26953125,-400000.0625
timestamp,ch7,ch2,ch3,ch5,is_pause
3.7062463760375977,-400000.0625,-4393.14990234375,-4008.340087890625,-400000.0625,-2700.139892578125,-400000.0625,-11223.7001953125,-400000.0625
timestamp,ch7,ch2,ch3,ch5,is_pause
3.721437692642212,-400000.0625,-4410.97998046875,-3970.669921875,-400000.0625,-2718.159912109375,-400000.0625,-11138.5400390625,-400000.0625
timestamp,ch7,ch2,ch3,ch5,is_pause
timestamp,ch7,ch2,ch3,ch5,is_pause
timestamp,ch7,ch2,ch3,ch5,is_pause
3.772171974182129,-400000.0625,-4324.47998046875,-3868.530029296875,-400000.0625,-2621.4599609375,-400000.0625,-10908.9404296875,-400000.0625
timestamp,ch7,ch2,ch3,ch5,is_pause
3.787285089492798,-400000.0625,-4292.919921875,-3815.4599609375,-400000.0625,-2574.43994140625,-400000.0625,-10725.9296875,-400000.0625
timestamp,ch7,ch2,ch3,ch5,is_pause
timestamp,ch7,ch2,ch3,ch5,is_pause
3.8072190284729004,-400000.0625,-4363.81982421875,-3842.2099609375,-400000.0625,-2623.64990234375,-400000.0625,-10681.73046875,-400000.0625
3.8171944618225098,-400000.0625,-4530.9501953125,-3965.239990234375,-400000.0625,-2710.820068359375,-400000.0625,-10713.3896484375,-400000.0625
timestamp,ch7,ch2,ch3,ch5,is_pause
3.83479380607605,-400000.0625,-4509.5400390625,-3959.85009765625,-400000.0625,-2730.510009765625,-400000.0625,-10591.75,-400000.0625
timestamp,ch7,ch2,ch3,ch5,is_pause
timestamp,ch7,ch2,ch3,ch5,is_pause
timestamp,ch7,ch2,ch3,ch5,is_pause
3.877195358276367,-400000.0625,-4423.240234375,-3891.659912109375,-400000.0625,-2607.8701171875,-400000.0625,-10330.919921875,-400000.0625
timestamp,ch7,ch2,ch3,ch5,is_pause
3.89323353767395,-400000.0625,-4371.68994140625,-3827.52001953125,-400000.0625,-2551.7900390625,-400000.0625,-10167.740234375,-400000.0625
timestamp,ch7,ch2,ch3,ch5,is_pause
3.9105186462402344,-400000.0625,-4405.5,-3858.89990234375,-400000.0625,-2609.35009765625,-400000.0625,-10077.330078125,-400000.0625
timestamp,ch7,ch2,ch3,ch5,is_pause
3.924565315246582,-400000.0625,-4515.27001953125,-3935.239990234375,-400000.0625,-2695.610107421875,-400000.0625,-10012.8701171875,-400000.0625
timestamp,ch7,ch2,ch3,ch5,is_pause
3.9385805130004883,-400000.0625,-4537.06005859375,-3941.820068359375,-400000.0625,-2699.89990234375,-400000.0625,-9935.08984375,-400000.0625
timestamp,ch7,ch2,ch3,ch5,is_pause
timestamp,ch7,ch2,ch3,ch5,is_pause
3.981391429901123,-400000.0625,-4416.56005859375,-3842.590087890625,-400000.0625,-2618.739990234375,-400000.0625,-9762.8603515625,-400000.0625
timestamp,ch7,ch2,ch3,ch5,is_pause
3.9970552921295166,-400000.0625,-4343.7001953125,-3793.18994140625,-400000.0625,-2548.889892578125,-400000.0625,-9579.759765625,-400000.0625
timestamp,ch7,ch2,ch3,ch5,is_pause
4.012190580368042,-400000.0625,-4399.39990234375,-3864.14990234375,-400000.0625,-2588.93994140625,-400000.0625,-9532.2099609375,-400000.0625
timestamp,ch7,ch2,ch3,ch5,is_pause
4.026819944381714,-400000.0625,-4537.6298828125,-3970.340087890625,-400000.0625,-2677.110107421875,-400000.0625,-9581.419921875,-400000.0625
timestamp,ch7,ch2,ch3,ch5,is_pause
4.042839288711548,-400000.0625,-4537.919921875,-3980.5400390625,-400000.0625,-2677.6298828125,-400000.0625,-9545.1796875,-400000.0625
timestamp,ch7,ch2,ch3,ch5,is_pause
timestamp,ch7,ch2,ch3,ch5,is_pause
timestamp,ch7,ch2,ch3,ch5,is_pause
4.090426921844482,-400000.0625,-4439.740234375,-3895.3798828125,-400000.0625,-2587.3701171875,-400000.0625,-9419.6298828125,-400000.0625
4.101818084716797,-400000.0625,-4383.3701171875,-3855.280029296875,-400000.0625,-2530.860107421875,-400000.0625,-9347.0595703125,-400000.0625
timestamp,ch7,ch2,ch3,ch5,is_pause
timestamp,ch7,ch2,ch3,ch5,is_pause
4.12120509147644,-400000.0625,-4443.60009765625,-3922.610107421875,-400000.0625,-2577.5,-400000.0625,-9401.1298828125,-400000.0625
4.132195949554443,-400000.0625,-4535.10009765625,-4021.739990234375,-400000.0625,-2667.47998046875,-400000.0625,-9511.7099609375,-400000.0625
timestamp,ch7,ch2,ch3,ch5,is_pause
4.146981954574585,-400000.0625,-4518.83984375,-4029.320068359375,-400000.0625,-2670.47998046875,-400000.0625,-9543.849609375,-400000.0625
timestamp,ch7,ch2,ch3,ch5,is_pause
timestamp,ch7,ch2,ch3,ch5,is_pause
timestamp,ch7,ch2,ch3,ch5,is_pause
4.192810773849487,-400000.0625,-4407.4501953125,-3939.580078125,-400000.0625,-2584.889892578125,-400000.0625,-9487.2001953125,-400000.0625
timestamp,ch7,ch2,ch3,ch5,is_pause
4.206853866577148,-400000.0625,-4317.18994140625,-3870.06005859375,-400000.0625,-2532.340087890625,-400000.0625,-9459.16015625,-400000.0625
timestamp,ch7,ch2,ch3,ch5,is_pause
4.220655202865601,-400000.0625,-4347.3701171875,-3915.739990234375,-400000.0625,-2584.7900390625,-400000.0625,-9554.9599609375,-400000.0625
timestamp,ch7,ch2,ch3,ch5,is_pause
4.231161117553711,-400000.0625,-4425.669921875,-4008.340087890625,-400000.0625,-2679.8701171875,-400000.0625,-9694.0498046875,-400000.0625
timestamp,ch7,ch2,ch3,ch5,is_pause
4.251108169555664,-400000.0625,-4403.02001953125,-4004.429931640625,-400000.0625,-2696.1298828125,-400000.0625,-9743.5498046875,-400000.0625
timestamp,ch7,ch2,ch3,ch5,is_pause
timestamp,ch7,ch2,ch3,ch5,is_pause
timestamp,ch7,ch2,ch3,ch5,is_pause
4.295639276504517,-400000.0625,-4264.5,-3886.409912109375,-400000.0625,-2620.75,-400000.0625,-9697.0595703125,-400000.0625
timestamp,ch7,ch2,ch3,ch5,is_pause
4.3130176067352295,-400000.0625,-4159.39990234375,-3801.110107421875,-400000.0625,-2565.18994140625,-400000.0625,-9684.6103515625,-400000.0625
timestamp,ch7,ch2,ch3,ch5,is_pause
4.327332019805908,-400000.0625,-4203.3701171875,-3858.610107421875,-400000.0625,-2617.64990234375,-400000.0625,-9811.9296875,-400000.0625
timestamp,ch7,ch2,ch3,ch5,is_pause
4.3437395095825195,-400000.0625,-4274.7001953125,-3940.340087890625,-400000.0625,-2723.60009765625,-400000.0625,-9981.5400390625,-400000.0625
timestamp,ch7,ch2,ch3,ch5,is_pause
4.364464282989502,-400000.0625,-4240.31982421875,-3928.0400390625,-400000.0625,-2747.580078125,-400000.0625,-10054.16015625,-400000.0625
timestamp,ch7,ch2,ch3,ch5,is_pause
timestamp,ch7,ch2,ch3,ch5,is_pause
timestamp,ch7,ch2,ch3,ch5,is_pause
4.411277770996094,-400000.0625,-4116.39013671875,-3831.719970703125,-400000.0625,-2672.669921875,-400000.0625,-10027.599609375,-400000.0625
timestamp,ch7,ch2,ch3,ch5,is_pause
4.429509162902832,-400000.0625,-4018.780029296875,-3750.7099609375,-400000.0625,-2622.320068359375,-400000.0625,-10012.33984375,-400000.0625
timestamp,ch7,ch2,ch3,ch5,is_pause
4.44523549079895,-400000.0625,-4026.179931640625,-3778.4599609375,-400000.0625,-2682.070068359375,-400000.0625,-10103.5595703125,-400000.0625
timestamp,ch7,ch2,ch3,ch5,is_pause
4.459850788116455,-400000.0625,-4089.97998046875,-3855.320068359375,-400000.0625,-2791.68994140625,-400000.0625,-10251.5703125,-400000.0625
timestamp,ch7,ch2,ch3,ch5,is_pause
timestamp,ch7,ch2,ch3,ch5,is_pause
4.482003688812256,-400000.0625,-4085.919921875,-3856.800048828125,-400000.0625,-2797.1298828125,-400000.0625,-10309.5498046875,-400000.0625
timestamp,ch7,ch2,ch3,ch5,is_pause
timestamp,ch7,ch2,ch3,ch5,is_pause
timestamp,ch7,ch2,ch3,ch5,is_pause
4.5327534675598145,-400000.0625,-3976.6298828125,-3757.52001953125,-400000.0625,-2716.919921875,-400000.0625,-10252.669921875,-400000.0625
timestamp,ch7,ch2,ch3,ch5,is_pause
4.550373077392578,-400000.0625,-3880.550048828125,-3676.409912109375,-400000.0625,-2667.860107421875,-400000.0625,-10215.08984375,-400000.0625
timestamp,ch7,ch2,ch3,ch5,is_pause
timestamp,ch7,ch2,ch3,ch5,is_pause
4.579290151596069,-400000.0625,-3905.25,-3705.260009765625,-400000.0625,-2721.739990234375,-400000.0625,-10282.419921875,-400000.0625
timestamp,ch7,ch2,ch3,ch5,is_pause
timestamp,ch7,ch2,ch3,ch5,is_pause
4.607249736785889,-400000.0625,-3977.010009765625,-3776.68994140625,-400000.0625,-2818.679931640625,-400000.0625,-10387.5595703125,-400000.0625
timestamp,ch7,ch2,ch3,ch5,is_pause
timestamp,ch7,ch2,ch3,ch5,is_pause
timestamp,ch7,ch2,ch3,ch5,is_pause
4.658846139907837,-400000.0625,-3961.280029296875,-3769.300048828125,-400000.0625,-2843.0,-400000.0625,-10412.599609375,-400000.0625
timestamp,ch7,ch2,ch3,ch5,is_pause
4.6738600730896,-400000.0625,-3867.389892578125,-3682.179931640625,-400000.0625,-2766.659912109375,-400000.0625,-10347.7001953125,-400000.0625
4.684511184692383,-400000.0625,-3795.2900390625,-3613.81005859375,-400000.0625,-2706.6201171875,-400000.0625,-10305.5498046875,-400000.0625
timestamp,ch7,ch2,ch3,ch5,is_pause
timestamp,ch7,ch2,ch3,ch5,is_pause
4.7032647132873535,-400000.0625,-3831.199951171875,-3653.81005859375,-400000.0625,-2753.449951171875,-400000.0625,-10371.58984375,-400000.0625
4.715656280517578,-400000.0625,-3916.409912109375,-3738.169921875,-400000.0625,-2850.340087890625,-400000.0625,-10478.01953125,-400000.0625
timestamp,ch7,ch2,ch3,ch5,is_pause
timestamp,ch7,ch2,ch3,ch5,is_pause
timestamp,ch7,ch2,ch3,ch5,is_pause
4.765295743942261,-400000.0625,-3913.739990234375,-3735.8798828125,-400000.0625,-2870.659912109375,-400000.0625,-10497.3798828125,-400000.0625
timestamp,ch7,ch2,ch3,ch5,is_pause
4.7798895835876465,-400000.0625,-3804.8701171875,-3636.929931640625,-400000.0625,-2796.510009765625,-400000.0625,-10413.169921875,-400000.0625
timestamp,ch7,ch2,ch3,ch5,is_pause
timestamp,ch7,ch2,ch3,ch5,is_pause
4.802454233169556,-400000.0625,-3725.2900390625,-3565.550048828125,-400000.0625,-2737.090087890625,-400000.0625,-10346.990234375,-400000.0625
timestamp,ch7,ch2,ch3,ch5,is_pause
4.816225528717041,-400000.0625,-3764.530029296875,-3606.3701171875,-400000.0625,-2785.590087890625,-400000.0625,-10399.2998046875,-400000.0625
timestamp,ch7,ch2,ch3,ch5,is_pause
timestamp,ch7,ch2,ch3,ch5,is_pause
timestamp,ch7,ch2,ch3,ch5,is_pause
4.859533786773682,-400000.0625,-3855.89990234375,-3694.820068359375,-400000.0625,-2880.050048828125,-400000.0625,-10505.73046875,-400000.0625
timestamp,ch7,ch2,ch3,ch5,is_pause
4.876721143722534,-400000.0625,-3856.22998046875,-3698.72998046875,-400000.0625,-2894.1201171875,-400000.0625,-10520.169921875,-400000.0625
timestamp,ch7,ch2,ch3,ch5,is_pause
4.892509698867798,-400000.0625,-3758.6201171875,-3608.889892578125,-400000.0625,-2815.909912109375,-400000.0625,-10437.58984375,-400000.0625
timestamp,ch7,ch2,ch3,ch5,is_pause
4.912086725234985,-400000.0625,-3678.699951171875,-3532.7900390625,-400000.0625,-2753.590087890625,-400000.0625,-10369.01953125,-400000.0625
timestamp,ch7,ch2,ch3,ch5,is_pause
4.933285713195801,-400000.0625,-3713.85009765625,-3570.080078125,-400000.0625,-2797.169921875,-400000.0625,-10422.7998046875,-400000.0625
timestamp,ch7,ch2,ch3,ch5,is_pause
timestamp,ch7,ch2,ch3,ch5,is_pause
timestamp,ch7,ch2,ch3,ch5,is_pause
4.971220970153809,-400000.0625,-3814.60009765625,-3665.919921875,-400000.0625,-2888.159912109375,-400000.0625,-10530.0400390625,-400000.0625
timestamp,ch7,ch2,ch3,ch5,is_pause
4.986423969268799,-400000.0625,-3826.330078125,-3683.0400390625,-400000.0625,-2897.7900390625,-400000.0625,-10547.5,-400000.0625
timestamp,ch7,ch2,ch3,ch5,is_pause
4.99843430519104,-400000.0625,-3732.919921875,-3590.06005859375,-400000.0625,-2818.5400390625,-400000.0625,-10464.3798828125,-400000.0625
timestamp,ch7,ch2,ch3,ch5,is_pause
5.019426345825195,-400000.0625,-3654.050048828125,-3515.860107421875,-400000.0625,-2754.739990234375,-400000.0625,-10405.73046875,-400000.0625
timestamp,ch7,ch2,ch3,ch5,is_pause
5.034536600112915,-400000.0625,-3710.56005859375,-3572.75,-400000.0625,-2798.800048828125,-400000.0625,-10459.8095703125,-400000.0625
timestamp,ch7,ch2,ch3,ch5,is_pause
timestamp,ch7,ch2,ch3,ch5,is_pause
timestamp,ch7,ch2,ch3,ch5,is_pause
5.078971862792969,-400000.0625,-3807.39990234375,-3665.260009765625,-400000.0625,-2894.8798828125,-400000.0625,-10555.83984375,-400000.0625
timestamp,ch7,ch2,ch3,ch5,is_pause
5.093234539031982,-400000.0625,-3833.489990234375,-3657.679931640625,-400000.0625,-2894.39990234375,-400000.0625,-10567.08984375,-400000.0625
timestamp,ch7,ch2,ch3,ch5,is_pause
5.108016490936279,-400000.0625,-3801.6298828125,-3609.510009765625,-400000.0625,-2820.5400390625,-400000.0625,-10509.2099609375,-400000.0625
timestamp,ch7,ch2,ch3,ch5,is_pause
5.123337984085083,-400000.0625,-3645.469970703125,-3540.56005859375,-400000.0625,-2756.830078125,-400000.0625,-10424.08984375,-400000.0625
timestamp,ch7,ch2,ch3,ch5,is_pause
5.136357069015503,-400000.0625,-3770.5400390625,-3559.919921875,-400000.0625,-2774.909912109375,-400000.0625,-10466.6201171875,-400000.0625
timestamp,ch7,ch2,ch3,ch5,is_pause
timestamp,ch7,ch2,ch3,ch5,is_pause
timestamp,ch7,ch2,ch3,ch5,is_pause
5.182197332382202,-400000.0625,-3852.93994140625,-3676.030029296875,-400000.0625,-2863.739990234375,-400000.0625,-10577.5400390625,-400000.0625
timestamp,ch7,ch2,ch3,ch5,is_pause
5.197760581970215,-400000.0625,-3888.610107421875,-3724.6201171875,-400000.0625,-2860.449951171875,-400000.0625,-10605.240234375,-400000.0625
timestamp,ch7,ch2,ch3,ch5,is_pause
5.21743106842041,-400000.0625,-3849.169921875,-3654.239990234375,-400000.0625,-2777.199951171875,-400000.0625,-10543.6796875,-400000.0625
timestamp,ch7,ch2,ch3,ch5,is_pause
5.229038238525391,-400000.0625,-3788.89990234375,-3646.949951171875,-400000.0625,-2708.860107421875,-400000.0625,-10474.01953125,-400000.0625
5.240789413452148,-400000.0625,-3915.169921875,-3709.320068359375,-400000.0625,-2726.27001953125,-400000.0625,-10478.3095703125,-400000.0625
timestamp,ch7,ch2,ch3,ch5,is_pause
timestamp,ch7,ch2,ch3,ch5,is_pause
timestamp,ch7,ch2,ch3,ch5,is_pause
5.285274267196655,-400000.0625,-4080.820068359375,-3794.3798828125,-400000.0625,-2791.02001953125,-400000.0625,-10582.73046875,-400000.0625
timestamp,ch7,ch2,ch3,ch5,is_pause
5.2987940311431885,-400000.0625,-4164.5498046875,-3842.590087890625,-400000.0625,-2787.070068359375,-400000.0625,-10570.099609375,-400000.0625
timestamp,ch7,ch2,ch3,ch5,is_pause
5.313959121704102,-400000.0625,-4164.7001953125,-3758.0,-400000.0625,-2685.260009765625,-400000.0625,-10481.169921875,-400000.0625
timestamp,ch7,ch2,ch3,ch5,is_pause
5.3325207233428955,-400000.0625,-4071.429931640625,-3799.820068359375,-400000.0625,-2607.43994140625,-400000.0625,-10388.0400390625,-400000.0625
timestamp,ch7,ch2,ch3,ch5,is_pause
5.34959864616394,-400000.0625,-4157.06982421875,-3828.860107421875,-400000.0625,-2645.919921875,-400000.0625,-10353.9501953125,-400000.0625
timestamp,ch7,ch2,ch3,ch5,is_pause
timestamp,ch7,ch2,ch3,ch5,is_pause
timestamp,ch7,ch2,ch3,ch5,is_pause
5.396028518676758,-400000.0625,-4289.2001953125,-3910.2099609375,-400000.0625,-2719.68994140625,-400000.0625,-10456.990234375,-400000.0625
timestamp,ch7,ch2,ch3,ch5,is_pause
timestamp,ch7,ch2,ch3,ch5,is_pause
5.4178125858306885,-400000.0625,-4306.75,-3899.239990234375,-400000.0625,-2737.6201171875,-400000.0625,-10360.2900390625,-400000.0625
5.5655059814453125,-400000.0625,-1455.8800048828125,-1597.0699462890625,-400000.0625,-2999.639892578125,-400000.0625,-5129.91015625,-400000.0625
5.688517093658447,-400000.0625,-843.1400146484375,-1434.1400146484375,-400000.0625,-2889.590087890625,-400000.0625,-5636.169921875,-400000.0625
5.744617938995361,-400000.0625,-539.5900268554688,-1323.989990234375,-400000.0625,-2755.590087890625,-400000.0625,-5833.85986328125,-400000.0625
5.865912675857544,-400000.0625,-998.3499755859375,-1474.3800048828125,-400000.0625,-2900.7900390625,-400000.0625,-5295.60986328125,-400000.0625
5.9350666999816895,-400000.0625,-851.6799926757812,-1486.72998046875,-400000.0625,-2965.68994140625,-400000.0625,-5974.14990234375,-400000.0625
6.187170505523682,-400000.0625,-797.8400268554688,-1264.8599853515625,-400000.0625,-2763.93994140625,-400000.0625,-6684.8798828125,-400000.0625
6.325141429901123,-400000.0625,-1024.3900146484375,-1429.030029296875,-400000.0625,-2843.0,-400000.0625,-7077.97998046875,-400000.0625
6.4407477378845215,-400000.0625,-1090.050048828125,-1480.8199462890625,-400000.0625,-2739.81005859375,-400000.0625,-7173.2998046875,-400000.0625
6.506923675537109,-400000.0625,-1146.8399658203125,-1518.9599609375,-400000.0625,-2732.610107421875,-400000.0625,-7296.66015625,-400000.0625
6.5845420360565186,-400000.0625,-1321.27001953125,-1665.260009765625,-400000.0625,-2836.179931640625,-400000.0625,-7525.02001953125,-400000.0625
6.667166233062744,-400000.0625,-1232.530029296875,-1534.93994140625,-400000.0625,-2726.1298828125,-400000.0625,-7632.259765625,-400000.0625
6.758594751358032,-400000.0625,-1261.1400146484375,-1531.8900146484375,-400000.0625,-2666.18994140625,-400000.0625,-7769.72998046875,-400000.0625
6.83582067489624,-400000.0625,-1528.3599853515625,-1761.2900390625,-400000.0625,-2818.110107421875,-400000.0625,-8126.64013671875,-400000.0625
6.888465642929077,-400000.0625,-1527.68994140625,-1762.489990234375,-400000.0625,-2810.860107421875,-400000.0625,-8140.60986328125,-400000.0625
6.954461097717285,-400000.0625,-1534.699951171875,-1781.4200439453125,-400000.0625,-2735.89990234375,-400000.0625,-8109.18994140625,-400000.0625
7.0897462368011475,-400000.0625,-1800.3499755859375,-2077.010009765625,-400000.0625,-2830.080078125,-400000.0625,-8238.83984375,-400000.0625
7.208255767822266,-400000.0625,-1748.22998046875,-1993.800048828125,-400000.0625,-2803.419921875,-400000.0625,-8566.91015625,-400000.0625
7.286951541900635,-400000.0625,-1709.030029296875,-1886.93994140625,-400000.0625,-2732.56005859375,-400000.0625,-8659.7001953125,-400000.0625
7.338883638381958,-400000.0625,-1678.7099609375,-1838.489990234375,-400000.0625,-2647.72998046875,-400000.0625,-8667.849609375,-400000.0625
7.408132314682007,-400000.0625,-1722.77001953125,-1871.6800537109375,-400000.0625,-2652.409912109375,-400000.0625,-8749.4404296875,-400000.0625
7.470853567123413,-400000.0625,-1803.2099609375,-1941.4000244140625,-400000.0625,-2686.02001953125,-400000.0625,-8876.1796875,-400000.0625
7.593464374542236,-400000.0625,-2046.06005859375,-2164.169921875,-400000.0625,-2815.06005859375,-400000.0625,-9180.740234375,-400000.0625
7.762572765350342,-400000.0625,-1947.97998046875,-2061.889892578125,-400000.0625,-2671.18994140625,-400000.0625,-9162.0,-400000.0625
7.982020378112793,-400000.0625,-2306.219970703125,-2514.64990234375,-400000.0625,-2803.330078125,-400000.0625,-9296.1796875,-400000.0625
8.039765119552612,-400000.0625,-2267.97998046875,-2486.0400390625,-400000.0625,-2745.199951171875,-400000.0625,-9279.2998046875,-400000.0625
8.139779329299927,-400000.0625,-2295.5400390625,-2520.85009765625,-400000.0625,-2745.719970703125,-400000.0625,-9328.5595703125,-400000.0625
8.23475170135498,-400000.0625,-2517.409912109375,-2748.43994140625,-400000.0625,-2893.39990234375,-400000.0625,-9567.98046875,-400000.0625
8.436888694763184,-400000.0625,-2453.85009765625,-2712.679931640625,-400000.0625,-2760.030029296875,-400000.0625,-9586.8095703125,-400000.0625
8.502227306365967,-400000.0625,-2646.72998046875,-2904.699951171875,-400000.0625,-2910.89990234375,-400000.0625,-9802.2900390625,-400000.0625
8.55994200706482,-400000.0625,-2667.669921875,-2933.169921875,-400000.0625,-2905.659912109375,-400000.0625,-9829.8603515625,-400000.0625
8.614560842514038,-400000.0625,-2532.669921875,-2816.389892578125,-400000.0625,-2758.840087890625,-400000.0625,-9713.599609375,-400000.0625
8.686191082000732,-400000.0625,-2559.610107421875,-2851.110107421875,-400000.0625,-2758.4599609375,-400000.0625,-9750.0302734375,-400000.0625
8.809541940689087,-400000.0625,-2696.989990234375,-3007.56005859375,-400000.0625,-2851.389892578125,-400000.0625,-9905.91015625,-400000.0625
8.902014255523682,-400000.0625,-2621.7900390625,-2945.469970703125,-400000.0625,-2760.97998046875,-400000.0625,-9845.3095703125,-400000.0625
8.937195062637329,-400000.0625,-2749.010009765625,-3075.1201171875,-400000.0625,-2855.969970703125,-400000.0625,-9970.0,-400000.0625
9.002132415771484,-400000.0625,-2614.929931640625,-2966.639892578125,-400000.0625,-2744.909912109375,-400000.0625,-9978.3896484375,-400000.0625
9.063064575195312,-400000.0625,-2693.219970703125,-3092.0,-400000.0625,-2834.610107421875,-400000.0625,-10112.7197265625,-400000.0625
9.21478271484375,-400000.0625,-2818.35009765625,-3215.360107421875,-400000.0625,-2906.659912109375,-400000.0625,-10232.259765625,-400000.0625
9.25710415840149,-400000.0625,-2773.909912109375,-3186.320068359375,-400000.0625,-2853.489990234375,-400000.0625,-10201.3095703125,-400000.0625
9.33690595626831,-400000.0625,-2543.969970703125,-2960.72998046875,-400000.0625,-2736.949951171875,-400000.0625,-10247.330078125,-400000.0625
9.390017032623291,-400000.0625,-2546.260009765625,-2947.6201171875,-400000.0625,-2723.64990234375,-400000.0625,-10272.2197265625,-400000.0625
9.511940956115723,-400000.0625,-2716.969970703125,-3098.35009765625,-400000.0625,-2834.510009765625,-400000.0625,-10433.7197265625,-400000.0625
9.64112901687622,-400000.0625,-2643.8701171875,-3032.590087890625,-400000.0625,-2740.860107421875,-400000.0625,-10354.9501953125,-400000.0625
9.830899715423584,-400000.0625,-2808.050048828125,-3204.199951171875,-400000.0625,-2846.10009765625,-400000.0625,-10520.3203125,-400000.0625
9.903085947036743,-400000.0625,-2822.2099609375,-3211.929931640625,-400000.0625,-2842.139892578125,-400000.0625,-10548.01953125,-400000.0625
10.029897928237915,-400000.0625,-2824.35009765625,-3215.7900390625,-400000.0625,-2811.14990234375,-400000.0625,-10517.7900390625,-400000.0625
10.103460788726807,-400000.0625,-2917.530029296875,-3309.43994140625,-400000.0625,-2895.780029296875,-400000.0625,-10620.7900390625,-400000.0625
10.159687042236328,-400000.0625,-2901.360107421875,-3291.419921875,-400000.0625,-2851.199951171875,-400000.0625,-10605.2900390625,-400000.0625
10.215730667114258,-400000.0625,-2903.800048828125,-3298.7099609375,-400000.0625,-2857.449951171875,-400000.0625,-10611.3896484375,-400000.0625
10.350752592086792,-400000.0625,-2811.6201171875,-3211.1201171875,-400000.0625,-2757.8798828125,-400000.0625,-10545.7802734375,-400000.0625
10.409533500671387,-400000.0625,-2870.699951171875,-3265.52001953125,-400000.0625,-2806.949951171875,-400000.0625,-10607.5302734375,-400000.0625
10.487246751785278,-400000.0625,-2944.989990234375,-3340.47998046875,-400000.0625,-2872.610107421875,-400000.0625,-10658.0302734375,-400000.0625
10.542089462280273,-400000.0625,-2951.429931640625,-3354.5,-400000.0625,-2872.419921875,-400000.0625,-10672.1396484375,-400000.0625
10.598662853240967,-400000.0625,-2809.719970703125,-3212.97998046875,-400000.0625,-2737.570068359375,-400000.0625,-10524.5595703125,-400000.0625
10.727739334106445,-400000.0625,-2908.85009765625,-3305.719970703125,-400000.0625,-2803.179931640625,-400000.0625,-10644.8701171875,-400000.0625
10.992660522460938,-400000.0625,-2896.5,-3321.699951171875,-400000.0625,-2798.840087890625,-400000.0625,-10641.2900390625,-400000.0625
11.120802164077759,-400000.0625,-2915.570068359375,-3332.949951171875,-400000.0625,-2797.030029296875,-400000.0625,-10650.400390625,-400000.0625
11.187938928604126,-400000.0625,-3029.43994140625,-3435.659912109375,-400000.0625,-2900.409912109375,-400000.0625,-10757.5400390625,-400000.0625
11.239667177200317,-400000.0625,-2932.97998046875,-3338.10009765625,-400000.0625,-2804.22998046875,-400000.0625,-10663.3701171875,-400000.0625
11.305835247039795,-400000.0625,-2876.18994140625,-3294.419921875,-400000.0625,-2754.39990234375,-400000.0625,-10610.490234375,-400000.0625
11.462028503417969,-400000.0625,-3065.780029296875,-3469.89990234375,-400000.0625,-2899.97998046875,-400000.0625,-10787.150390625,-400000.0625
11.494981527328491,-400000.0625,-2927.159912109375,-3319.31005859375,-400000.0625,-2797.219970703125,-400000.0625,-10742.2802734375,-400000.0625
11.560997486114502,-400000.0625,-2876.22998046875,-3145.409912109375,-400000.0625,-2772.429931640625,-400000.0625,-10909.7001953125,-400000.0625
11.691146612167358,-400000.0625,-2901.1298828125,-3155.659912109375,-400000.0625,-2784.5400390625,-400000.0625,-10921.0498046875,-400000.0625
11.754060983657837,-400000.0625,-2845.47998046875,-3105.35009765625,-400000.0625,-2728.510009765625,-400000.0625,-10865.3095703125,-400000.0625
11.820698976516724,-400000.0625,-2865.510009765625,-3117.93994140625,-400000.0625,-2731.419921875,-400000.0625,-10876.900390625,-400000.0625
11.942604541778564,-400000.0625,-3129.820068359375,-3168.06005859375,-400000.0625,-2628.139892578125,-400000.0625,-11025.0,-400000.0625
12.007375717163086,-400000.0625,-3227.22998046875,-3354.260009765625,-400000.0625,-2821.639892578125,-400000.0625,-11135.2001953125,-400000.0625
12.070881366729736,-400000.0625,-3125.10009765625,-3334.949951171875,-400000.0625,-2882.2900390625,-400000.0625,-11087.509765625,-400000.0625
12.17127537727356,-400000.0625,-3082.3701171875,-3311.010009765625,-400000.0625,-2895.68994140625,-400000.0625,-11072.919921875,-400000.0625
12.268479585647583,-400000.0625,-2893.969970703125,-3203.820068359375,-400000.0625,-2748.35009765625,-400000.0625,-10848.8095703125,-400000.0625
12.390071868896484,-400000.0625,-3027.820068359375,-3467.889892578125,-400000.0625,-2945.659912109375,-400000.0625,-10811.9501953125,-400000.0625
12.45847225189209,-400000.0625,-3036.1201171875,-3469.419921875,-400000.0625,-2955.43994140625,-400000.0625,-10809.9501953125,-400000.0625
12.787428855895996,-400000.0625,-3216.510009765625,-3594.68994140625,-400000.0625,-2945.800048828125,-400000.0625,-10921.48046875,-400000.0625
12.840367078781128,-400000.0625,-3117.989990234375,-3503.89990234375,-400000.0625,-2868.699951171875,-400000.0625,-10837.8896484375,-400000.0625
12.932090520858765,-400000.0625,-3088.52001953125,-3473.81005859375,-400000.0625,-2805.760009765625,-400000.0625,-10730.740234375,-400000.0625
12.982065916061401,-400000.0625,-3315.739990234375,-3712.610107421875,-400000.0625,-2831.550048828125,-400000.0625,-10699.6103515625,-400000.0625
13.096955299377441,-400000.0625,-3359.989990234375,-3758.050048828125,-400000.0625,-2895.639892578125,-400000.0625,-10754.6298828125,-400000.0625
13.16086220741272,-400000.0625,-3201.530029296875,-3633.449951171875,-400000.0625,-2810.429931640625,-400000.0625,-10681.919921875,-400000.0625
13.262502908706665,-400000.0625,-3004.360107421875,-3461.929931640625,-400000.0625,-2814.199951171875,-400000.0625,-10705.849609375,-400000.0625
13.414533138275146,-400000.0625,-3140.02001953125,-3598.550048828125,-400000.0625,-2984.760009765625,-400000.0625,-10854.669921875,-400000.0625
13.487107276916504,-400000.0625,-2970.030029296875,-3432.320068359375,-400000.0625,-2824.969970703125,-400000.0625,-10687.2099609375,-400000.0625
timestamp,ch7,ch2,ch3,ch5,is_pause
13.543467044830322,-400000.0625,-2978.3701171875,-3437.570068359375,-400000.0625,-2834.030029296875,-400000.0625,-10684.2099609375,-400000.0625
13.57801628112793,-400000.0625,-2994.969970703125,-3456.35009765625,-400000.0625,-2855.35009765625,-400000.0625,-10703.7998046875,-400000.0625
13.586351871490479,-400000.0625,-3100.72998046875,-3557.35009765625,-400000.0625,-2946.6201171875,-400000.0625,-10809.6103515625,-400000.0625
13.60037350654602,-400000.0625,-3148.1298828125,-3602.840087890625,-400000.0625,-2986.860107421875,-400000.0625,-10855.009765625,-400000.0625
13.62163758277893,-400000.0625,-3069.5,-3526.969970703125,-400000.0625,-2915.760009765625,-400000.0625,-10775.7099609375,-400000.0625
13.6401526927948,-400000.0625,-2965.02001953125,-3425.68994140625,-400000.0625,-2831.030029296875,-400000.0625,-10682.6298828125,-400000.0625
13.651177406311035,-400000.0625,-2974.219970703125,-3437.570068359375,-400000.0625,-2846.340087890625,-400000.0625,-10705.5703125,-400000.0625
13.678264856338501,-400000.0625,-3074.8798828125,-3535.219970703125,-400000.0625,-2943.090087890625,-400000.0625,-10816.580078125,-400000.0625
13.686984062194824,-400000.0625,-3119.56005859375,-3574.800048828125,-400000.0625,-2980.0400390625,-400000.0625,-10867.5498046875,-400000.0625
13.697121620178223,-400000.0625,-3040.889892578125,-3494.68994140625,-400000.0625,-2907.3701171875,-400000.0625,-10795.5498046875,-400000.0625
13.706422090530396,-400000.0625,-2941.510009765625,-3399.659912109375,-400000.0625,-2820.830078125,-400000.0625,-10708.759765625,-400000.0625
13.714054584503174,-400000.0625,-2960.5400390625,-3415.06005859375,-400000.0625,-2845.0,-400000.0625,-10729.080078125,-400000.0625
13.723664045333862,-400000.0625,-3065.72998046875,-3515.14990234375,-400000.0625,-2942.280029296875,-400000.0625,-10834.599609375,-400000.0625
13.735857725143433,-400000.0625,-3112.840087890625,-3561.639892578125,-400000.0625,-2985.3798828125,-400000.0625,-10881.51953125,-400000.0625
13.74457836151123,-400000.0625,-3032.06005859375,-3482.909912109375,-400000.0625,-2917.909912109375,-400000.0625,-10808.66015625,-400000.0625
13.752865314483643,-400000.0625,-2936.169921875,-3394.409912109375,-400000.0625,-2831.550048828125,-400000.0625,-10710.8095703125,-400000.0625
13.781955003738403,-400000.0625,-2951.909912109375,-3409.340087890625,-400000.0625,-2844.860107421875,-400000.0625,-10727.83984375,-400000.0625
13.791871547698975,-400000.0625,-3056.47998046875,-3510.0,-400000.0625,-2943.89990234375,-400000.0625,-10833.1201171875,-400000.0625
13.802528619766235,-400000.0625,-3110.60009765625,-3557.43994140625,-400000.0625,-2977.659912109375,-400000.0625,-10878.849609375,-400000.0625
13.811354637145996,-400000.0625,-3037.31005859375,-3485.6298828125,-400000.0625,-2908.949951171875,-400000.0625,-10807.08984375,-400000.0625
13.823217153549194,-400000.0625,-2937.97998046875,-3393.93994140625,-400000.0625,-2827.219970703125,-400000.0625,-10713.8203125,-400000.0625
13.83513855934143,-400000.0625,-2959.389892578125,-3411.77001953125,-400000.0625,-2842.81005859375,-400000.0625,-10729.83984375,-400000.0625
13.84591293334961,-400000.0625,-3068.5400390625,-3514.6201171875,-400000.0625,-2941.889892578125,-400000.0625,-10834.9296875,-400000.0625
13.8548583984375,-400000.0625,-3114.219970703125,-3559.39990234375,-400000.0625,-2988.14990234375,-400000.0625,-10885.4296875,-400000.0625
13.88425064086914,-400000.0625,-3040.1201171875,-3484.919921875,-400000.0625,-2923.35009765625,-400000.0625,-10812.0,-400000.0625
13.896241903305054,-400000.0625,-2945.760009765625,-3397.800048828125,-400000.0625,-2834.840087890625,-400000.0625,-10717.9697265625,-400000.0625
13.90523648262024,-400000.0625,-2966.7900390625,-3417.639892578125,-400000.0625,-2841.760009765625,-400000.0625,-10736.1796875,-400000.0625
13.913265466690063,-400000.0625,-3078.7900390625,-3522.159912109375,-400000.0625,-2937.169921875,-400000.0625,-10848.1396484375,-400000.0625
13.92186164855957,-400000.0625,-3128.239990234375,-3569.1298828125,-400000.0625,-2981.0,-400000.0625,-10891.76953125,-400000.0625
13.936761140823364,-400000.0625,-3053.469970703125,-3498.360107421875,-400000.0625,-2917.47998046875,-400000.0625,-10813.759765625,-400000.0625
13.945360898971558,-400000.0625,-2954.2900390625,-3401.469970703125,-400000.0625,-2829.889892578125,-400000.0625,-10717.3896484375,-400000.0625
13.953581809997559,-400000.0625,-2968.409912109375,-3417.300048828125,-400000.0625,-2850.489990234375,-400000.0625,-10729.5498046875,-400000.0625
13.963674068450928,-400000.0625,-3075.219970703125,-3520.919921875,-400000.0625,-2945.7099609375,-400000.0625,-10833.169921875,-400000.0625
13.98946475982666,-400000.0625,-3124.570068359375,-3564.449951171875,-400000.0625,-2984.47998046875,-400000.0625,-10884.7197265625,-400000.0625
14.00150752067566,-400000.0625,-3048.320068359375,-3491.449951171875,-400000.0625,-2915.530029296875,-400000.0625,-10808.7998046875,-400000.0625
14.010319232940674,-400000.0625,-2952.429931640625,-3400.280029296875,-400000.0625,-2830.840087890625,-400000.0625,-10716.2998046875,-400000.0625
14.01802682876587,-400000.0625,-2973.889892578125,-3419.5,-400000.0625,-2847.10009765625,-400000.0625,-10732.990234375,-400000.0625
14.027782201766968,-400000.0625,-3080.419921875,-3522.110107421875,-400000.0625,-2945.0400390625,-400000.0625,-10838.9404296875,-400000.0625
14.038094520568848,-400000.0625,-3127.14990234375,-3566.60009765625,-400000.0625,-2987.340087890625,-400000.0625,-10885.759765625,-400000.0625
14.046199321746826,-400000.0625,-3052.139892578125,-3493.7900390625,-400000.0625,-2923.06005859375,-400000.0625,-10808.1396484375,-400000.0625
14.055238246917725,-400000.0625,-2956.719970703125,-3402.419921875,-400000.0625,-2833.840087890625,-400000.0625,-10712.2001953125,-400000.0625
14.065410137176514,-400000.0625,-2967.550048828125,-3414.820068359375,-400000.0625,-2846.340087890625,-400000.0625,-10722.58984375,-400000.0625
14.09420371055603,-400000.0625,-3077.840087890625,-3520.5400390625,-400000.0625,-2946.89990234375,-400000.0625,-10832.2197265625,-400000.0625
14.105706691741943,-400000.0625,-3132.340087890625,-3569.169921875,-400000.0625,-2987.9599609375,-400000.0625,-10885.1904296875,-400000.0625
14.113811016082764,-400000.0625,-3050.89990234375,-3492.68994140625,-400000.0625,-2914.18994140625,-400000.0625,-10814.240234375,-400000.0625
14.123613119125366,-400000.0625,-2956.25,-3398.699951171875,-400000.0625,-2821.639892578125,-400000.0625,-10718.7802734375,-400000.0625
14.135023832321167,-400000.0625,-2974.610107421875,-3417.02001953125,-400000.0625,-2842.52001953125,-400000.0625,-10732.509765625,-400000.0625
14.145001649856567,-400000.0625,-3084.090087890625,-3519.8701171875,-400000.0625,-2947.6201171875,-400000.0625,-10838.3701171875,-400000.0625
14.157702445983887,-400000.0625,-3129.860107421875,-3566.27001953125,-400000.0625,-2986.10009765625,-400000.0625,-10888.2001953125,-400000.0625
14.16835618019104,-400000.0625,-3058.2900390625,-3498.219970703125,-400000.0625,-2915.909912109375,-400000.0625,-10816.76953125,-400000.0625
14.1969313621521,-400000.0625,-2961.35009765625,-3402.7099609375,-400000.0625,-2828.030029296875,-400000.0625,-10718.8701171875,-400000.0625
14.213245391845703,-400000.0625,-2971.739990234375,-3415.06005859375,-400000.0625,-2847.14990234375,-400000.0625,-10727.740234375,-400000.0625
14.224641561508179,-400000.0625,-3080.800048828125,-3520.820068359375,-400000.0625,-2945.85009765625,-400000.0625,-10834.740234375,-400000.0625
14.237509489059448,-400000.0625,-3134.300048828125,-3570.75,-400000.0625,-2986.3798828125,-400000.0625,-10889.150390625,-400000.0625
14.245412349700928,-400000.0625,-3057.10009765625,-3495.7900390625,-400000.0625,-2915.429931640625,-400000.0625,-10811.759765625,-400000.0625
14.258661985397339,-400000.0625,-2955.199951171875,-3396.989990234375,-400000.0625,-2826.739990234375,-400000.0625,-10712.2001953125,-400000.0625
14.26962685585022,-400000.0625,-2969.7900390625,-3411.77001953125,-400000.0625,-2843.7099609375,-400000.0625,-10734.3701171875,-400000.0625
14.29689335823059,-400000.0625,-3078.889892578125,-3516.9599609375,-400000.0625,-2940.419921875,-400000.0625,-10838.0302734375,-400000.0625
14.306849241256714,-400000.0625,-3132.389892578125,-3567.510009765625,-400000.0625,-2986.429931640625,-400000.0625,-10892.25,-400000.0625
14.314752101898193,-400000.0625,-3061.530029296875,-3500.3701171875,-400000.0625,-2920.77001953125,-400000.0625,-10827.259765625,-400000.0625
14.324782609939575,-400000.0625,-2964.449951171875,-3404.139892578125,-400000.0625,-2828.5,-400000.0625,-10729.5,-400000.0625
14.33443021774292,-400000.0625,-2973.75,-3415.919921875,-400000.0625,-2839.139892578125,-400000.0625,-10747.2900390625,-400000.0625
14.342883348464966,-400000.0625,-3081.27001953125,-3522.159912109375,-400000.0625,-2939.64990234375,-400000.0625,-10848.900390625,-400000.0625
14.350310325622559,-400000.0625,-3123.139892578125,-3563.39990234375,-400000.0625,-2991.43994140625,-400000.0625,-10871.509765625,-400000.0625
14.3607177734375,-400000.0625,-3051.89990234375,-3486.5400390625,-400000.0625,-2922.820068359375,-400000.0625,-10800.2197265625,-400000.0625
14.371263265609741,-400000.0625,-2958.489990234375,-3399.93994140625,-400000.0625,-2831.320068359375,-400000.0625,-10710.33984375,-400000.0625
14.401836156845093,-400000.0625,-2977.659912109375,-3420.159912109375,-400000.0625,-2835.320068359375,-400000.0625,-10740.66015625,-400000.0625
14.41106915473938,-400000.0625,-3087.6201171875,-3529.60009765625,-400000.0625,-2934.070068359375,-400000.0625,-10867.01953125,-400000.0625
14.418797254562378,-400000.0625,-3149.75,-3580.3798828125,-400000.0625,-2986.77001953125,-400000.0625,-10908.2197265625,-400000.0625
14.430368185043335,-400000.0625,-3092.9599609375,-3519.14990234375,-400000.0625,-2922.820068359375,-400000.0625,-10903.9296875,-400000.0625
14.439475297927856,-400000.0625,-3008.1298828125,-3401.22998046875,-400000.0625,-2839.760009765625,-400000.0625,-10738.2802734375,-400000.0625
14.447927236557007,-400000.0625,-2987.909912109375,-3459.409912109375,-400000.0625,-2842.239990234375,-400000.0625,-10762.5498046875,-400000.0625
14.456865310668945,-400000.0625,-3148.409912109375,-3641.080078125,-400000.0625,-2938.080078125,-400000.0625,-10910.990234375,-400000.0625
14.467877388000488,-400000.0625,-3215.60009765625,-3678.1298828125,-400000.0625,-2996.919921875,-400000.0625,-10963.0595703125,-400000.0625
14.476932048797607,-400000.0625,-3190.85009765625,-3487.300048828125,-400000.0625,-2908.52001953125,-400000.0625,-10773.0400390625,-400000.0625
14.507623434066772,-400000.0625,-3060.14990234375,-3484.5400390625,-400000.0625,-2785.159912109375,-400000.0625,-10620.400390625,-400000.0625
14.515422105789185,-400000.0625,-3126.909912109375,-3593.590087890625,-400000.0625,-2846.81005859375,-400000.0625,-10685.490234375,-400000.0625
14.527885913848877,-400000.0625,-3203.14990234375,-3570.699951171875,-400000.0625,-2894.739990234375,-400000.0625,-10631.990234375,-400000.0625
14.538796186447144,-400000.0625,-3324.989990234375,-3691.909912109375,-400000.0625,-2940.659912109375,-400000.0625,-10636.66015625,-400000.0625
14.548480033874512,-400000.0625,-3238.6298828125,-3597.070068359375,-400000.0625,-2870.56005859375,-400000.0625,-10492.990234375,-400000.0625
14.559464693069458,-400000.0625,-3169.110107421875,-3554.679931640625,-400000.0625,-2790.39990234375,-400000.0625,-10307.169921875,-400000.0625
14.569642066955566,-400000.0625,-3096.43994140625,-3582.330078125,-400000.0625,-2761.7900390625,-400000.0625,-10229.7802734375,-400000.0625
14.579780340194702,-400000.0625,-3207.969970703125,-3698.780029296875,-400000.0625,-2821.39990234375,-400000.0625,-10173.849609375,-400000.0625
14.632224321365356,-400000.0625,-3219.800048828125,-3838.8701171875,-400000.0625,-2869.699951171875,-400000.0625,-10132.83984375,-400000.0625
14.657257318496704,-400000.0625,-3020.860107421875,-3699.489990234375,-400000.0625,-2804.949951171875,-400000.0625,-9817.650390625,-400000.0625
14.671806335449219,-400000.0625,-2747.06005859375,-3512.760009765625,-400000.0625,-2697.800048828125,-400000.0625,-9524.0595703125,-400000.0625
14.680965900421143,-400000.0625,-2707.580078125,-3589.25,-400000.0625,-2714.35009765625,-400000.0625,-9411.5302734375,-400000.0625
14.716222286224365,-400000.0625,-2702.669921875,-3652.6201171875,-400000.0625,-2807.429931640625,-400000.0625,-9340.5302734375,-400000.0625
14.730498552322388,-400000.0625,-2543.02001953125,-3695.389892578125,-400000.0625,-2857.260009765625,-400000.0625,-9263.9501953125,-400000.0625
14.742448091506958,-400000.0625,-2425.719970703125,-3607.179931640625,-400000.0625,-2800.510009765625,-400000.0625,-9050.75,-400000.0625
14.75118613243103,-400000.0625,-2205.7099609375,-3544.429931640625,-400000.0625,-2740.81005859375,-400000.0625,-8818.6298828125,-400000.0625
14.767978429794312,-400000.0625,-2114.110107421875,-3486.6298828125,-400000.0625,-2739.3798828125,-400000.0625,-8746.48046875,-400000.0625
14.777819871902466,-400000.0625,-2114.010009765625,-3547.760009765625,-400000.0625,-2829.840087890625,-400000.0625,-8608.0595703125,-400000.0625
14.786980152130127,-400000.0625,-2160.60009765625,-3612.22998046875,-400000.0625,-2896.739990234375,-400000.0625,-8632.3701171875,-400000.0625
14.81745171546936,-400000.0625,-2096.75,-3567.64990234375,-400000.0625,-2821.780029296875,-400000.0625,-8466.6298828125,-400000.0625
14.831836462020874,-400000.0625,-1722.4300537109375,-3409.580078125,-400000.0625,-2707.340087890625,-400000.0625,-8312.66015625,-400000.0625
14.84213399887085,-400000.0625,-1614.0,-3411.389892578125,-400000.0625,-2764.27001953125,-400000.0625,-8190.72998046875,-400000.0625
14.850233793258667,-400000.0625,-1642.56005859375,-3503.510009765625,-400000.0625,-2875.570068359375,-400000.0625,-8248.4296875,-400000.0625
14.868292808532715,-400000.0625,-1595.8299560546875,-3545.860107421875,-400000.0625,-2921.8701171875,-400000.0625,-8285.8603515625,-400000.0625
14.87671184539795,-400000.0625,-1523.3499755859375,-3479.81005859375,-400000.0625,-2852.389892578125,-400000.0625,-8215.0498046875,-400000.0625
14.884902715682983,-400000.0625,-1528.9300537109375,-3390.840087890625,-400000.0625,-2769.280029296875,-400000.0625,-8108.240234375,-400000.0625
14.896815538406372,-400000.0625,-1613.81005859375,-3407.909912109375,-400000.0625,-2794.739990234375,-400000.0625,-8113.72021484375,-400000.0625
14.925875663757324,-400000.0625,-1789.050048828125,-3506.280029296875,-400000.0625,-2898.030029296875,-400000.0625,-8259.3896484375,-400000.0625
14.938258171081543,-400000.0625,-1938.010009765625,-3563.830078125,-400000.0625,-2946.469970703125,-400000.0625,-8345.2197265625,-400000.0625
14.94587755203247,-400000.0625,-2035.3299560546875,-3496.840087890625,-400000.0625,-2884.719970703125,-400000.0625,-8314.1298828125,-400000.0625
14.95797610282898,-400000.0625,-2072.050048828125,-3416.110107421875,-400000.0625,-2787.35009765625,-400000.0625,-8274.990234375,-400000.0625
14.97061276435852,-400000.0625,-2161.7900390625,-3436.3798828125,-400000.0625,-2794.60009765625,-400000.0625,-8338.3095703125,-400000.0625
14.97892951965332,-400000.0625,-2298.8798828125,-3536.27001953125,-400000.0625,-2891.25,-400000.0625,-8484.650390625,-400000.0625
14.98764681816101,-400000.0625,-2398.969970703125,-3592.35009765625,-400000.0625,-2940.0400390625,-400000.0625,-8582.8798828125,-400000.0625
14.999642133712769,-400000.0625,-2387.7099609375,-3525.830078125,-400000.0625,-2871.1298828125,-400000.0625,-8562.900390625,-400000.0625
15.02840542793274,-400000.0625,-2366.590087890625,-3431.699951171875,-400000.0625,-2776.81005859375,-400000.0625,-8518.5498046875,-400000.0625
15.037209510803223,-400000.0625,-2450.22998046875,-3433.659912109375,-400000.0625,-2780.8701171875,-400000.0625,-8576.919921875,-400000.0625
15.046891212463379,-400000.0625,-2631.330078125,-3539.090087890625,-400000.0625,-2880.909912109375,-400000.0625,-8744.0498046875,-400000.0625
15.058521032333374,-400000.0625,-2755.68994140625,-3596.159912109375,-400000.0625,-2942.89990234375,-400000.0625,-8873.5595703125,-400000.0625
15.07064151763916,-400000.0625,-2734.0400390625,-3518.010009765625,-400000.0625,-2880.429931640625,-400000.0625,-8874.6103515625,-400000.0625
15.078914165496826,-400000.0625,-2670.909912109375,-3411.47998046875,-400000.0625,-2796.75,-400000.0625,-8847.669921875,-400000.0625
15.086430549621582,-400000.0625,-2711.9599609375,-3414.010009765625,-400000.0625,-2811.6201171875,-400000.0625,-8930.259765625,-400000.0625
15.097274541854858,-400000.0625,-2846.47998046875,-3511.330078125,-400000.0625,-2914.860107421875,-400000.0625,-9117.41015625,-400000.0625
15.105044841766357,-400000.0625,-2919.14990234375,-3554.06005859375,-400000.0625,-2959.820068359375,-400000.0625,-9254.1201171875,-400000.0625
15.136024475097656,-400000.0625,-2868.030029296875,-3476.330078125,-400000.0625,-2890.780029296875,-400000.0625,-9258.3203125,-400000.0625
15.14392638206482,-400000.0625,-2771.89990234375,-3365.659912109375,-400000.0625,-2807.7099609375,-400000.0625,-9222.169921875,-400000.0625
15.151253700256348,-400000.0625,-2782.919921875,-3366.22998046875,-400000.0625,-2830.550048828125,-400000.0625,-9289.599609375,-400000.0625
15.167038917541504,-400000.0625,-2893.590087890625,-3465.4599609375,-400000.0625,-2928.639892578125,-400000.0625,-9454.1103515625,-400000.0625
15.178164958953857,-400000.0625,-2943.22998046875,-3515.199951171875,-400000.0625,-2970.31005859375,-400000.0625,-9557.0595703125,-400000.0625
15.18984317779541,-400000.0625,-2861.830078125,-3432.800048828125,-400000.0625,-2911.659912109375,-400000.0625,-9524.2998046875,-400000.0625
15.20326280593872,-400000.0625,-2742.0,-3319.8798828125,-400000.0625,-2830.550048828125,-400000.0625,-9455.919921875,-400000.0625
15.212057113647461,-400000.0625,-2728.56005859375,-3318.409912109375,-400000.0625,-2835.3701171875,-400000.0625,-9494.58984375,-400000.0625
15.242367029190063,-400000.0625,-2813.239990234375,-3412.06005859375,-400000.0625,-2922.14990234375,-400000.0625,-9624.91015625,-400000.0625
timestamp,ch7,ch2,ch3,ch5,is_pause
15.255595207214355,-400000.0625,-2845.81005859375,-3456.68994140625,-400000.0625,-2974.840087890625,-400000.0625,-9704.400390625,-400000.0625
15.276163339614868,-400000.0625,-2742.0,-3375.6298828125,-400000.0625,-2915.81005859375,-400000.0625,-9654.5703125,-400000.0625
15.288559436798096,-400000.0625,-2619.550048828125,-3268.47998046875,-400000.0625,-2828.929931640625,-400000.0625,-9574.26953125,-400000.0625
15.30541443824768,-400000.0625,-2602.860107421875,-3265.10009765625,-400000.0625,-2836.0400390625,-400000.0625,-9606.3603515625,-400000.0625
15.314802408218384,-400000.0625,-2701.429931640625,-3362.510009765625,-400000.0625,-2932.219970703125,-400000.0625,-9722.6201171875,-400000.0625
15.345839977264404,-400000.0625,-2764.320068359375,-3412.489990234375,-400000.0625,-2986.669921875,-400000.0625,-9802.2900390625,-400000.0625
15.354070901870728,-400000.0625,-2682.5400390625,-3324.93994140625,-400000.0625,-2920.10009765625,-400000.0625,-9743.7900390625,-400000.0625
15.374104261398315,-400000.0625,-2592.659912109375,-3225.659912109375,-400000.0625,-2826.68994140625,-400000.0625,-9652.4296875,-400000.0625
15.382003784179688,-400000.0625,-2610.780029296875,-3247.8798828125,-400000.0625,-2831.169921875,-400000.0625,-9691.0498046875,-400000.0625
15.393145561218262,-400000.0625,-2659.320068359375,-3333.949951171875,-400000.0625,-2917.6201171875,-400000.0625,-9808.01953125,-400000.0625
15.40414309501648,-400000.0625,-2849.050048828125,-3437.330078125,-400000.0625,-2977.56005859375,-400000.0625,-9907.580078125,-400000.0625
15.411872625350952,-400000.0625,-2704.18994140625,-3391.409912109375,-400000.0625,-2915.2900390625,-400000.0625,-9865.759765625,-400000.0625
15.419005155563354,-400000.0625,-2604.679931640625,-3270.9599609375,-400000.0625,-2806.949951171875,-400000.0625,-9685.6103515625,-400000.0625
15.452919721603394,-400000.0625,-2503.5400390625,-3253.4599609375,-400000.0625,-2791.97998046875,-400000.0625,-9675.1201171875,-400000.0625
15.467149257659912,-400000.0625,-2451.610107421875,-3388.5,-400000.0625,-2888.5400390625,-400000.0625,-9756.66015625,-400000.0625
15.47536563873291,-400000.0625,-2339.739990234375,-3501.1298828125,-400000.0625,-2943.1298828125,-400000.0625,-9763.5302734375,-400000.0625
15.482645750045776,-400000.0625,-2229.31005859375,-3500.179931640625,-400000.0625,-2832.27001953125,-400000.0625,-9665.7802734375,-400000.0625
15.49848484992981,-400000.0625,-2071.6201171875,-3340.340087890625,-400000.0625,-2731.85009765625,-400000.0625,-9457.490234375,-400000.0625
15.507133960723877,-400000.0625,-1895.3800048828125,-3329.610107421875,-400000.0625,-2721.929931640625,-400000.0625,-9387.58984375,-400000.0625
15.514909267425537,-400000.0625,-2029.93994140625,-3501.27001953125,-400000.0625,-2826.8798828125,-400000.0625,-9494.16015625,-400000.0625
15.525501489639282,-400000.0625,-2205.52001953125,-3549.340087890625,-400000.0625,-2863.60009765625,-400000.0625,-9370.4697265625,-400000.0625
15.548832893371582,-400000.0625,-2204.659912109375,-3485.780029296875,-400000.0625,-2776.6201171875,-400000.0625,-9259.8896484375,-400000.0625
15.559775829315186,-400000.0625,-1889.8499755859375,-3325.699951171875,-400000.0625,-2700.659912109375,-400000.0625,-9052.5595703125,-400000.0625
15.570014476776123,-400000.0625,-1732.5899658203125,-3388.97998046875,-400000.0625,-2722.219970703125,-400000.0625,-8990.33984375,-400000.0625
15.578850507736206,-400000.0625,-1765.8199462890625,-3497.080078125,-400000.0625,-2819.72998046875,-400000.0625,-8972.3603515625,-400000.0625
15.587015151977539,-400000.0625,-1710.1300048828125,-3442.909912109375,-400000.0625,-2875.139892578125,-400000.0625,-8822.58984375,-400000.0625
15.604933738708496,-400000.0625,-1714.0400390625,-3396.080078125,-400000.0625,-2814.010009765625,-400000.0625,-8696.8896484375,-400000.0625
15.613284349441528,-400000.0625,-1649.9000244140625,-3270.580078125,-400000.0625,-2724.929931640625,-400000.0625,-8558.9404296875,-400000.0625
15.62531304359436,-400000.0625,-1752.3800048828125,-3304.77001953125,-400000.0625,-2754.5,-400000.0625,-8408.8798828125,-400000.0625
15.641096353530884,-400000.0625,-1838.72998046875,-3379.300048828125,-400000.0625,-2828.260009765625,-400000.0625,-8346.83984375,-400000.0625
15.668030738830566,-400000.0625,-2028.27001953125,-3410.43994140625,-400000.0625,-2913.570068359375,-400000.0625,-8393.150390625,-400000.0625
15.677160024642944,-400000.0625,-2086.2099609375,-3316.260009765625,-400000.0625,-2874.52001953125,-400000.0625,-8281.759765625,-400000.0625
15.684836149215698,-400000.0625,-1929.469970703125,-3256.989990234375,-400000.0625,-2739.47998046875,-400000.0625,-8058.64013671875,-400000.0625
15.697736501693726,-400000.0625,-1939.8699951171875,-3218.97998046875,-400000.0625,-2778.820068359375,-400000.0625,-7932.14013671875,-400000.0625
15.706902027130127,-400000.0625,-1936.6700439453125,-3194.669921875,-400000.0625,-2872.989990234375,-400000.0625,-7909.8701171875,-400000.0625
15.714627504348755,-400000.0625,-2067.139892578125,-3264.3798828125,-400000.0625,-2945.85009765625,-400000.0625,-7961.080078125,-400000.0625
15.723469495773315,-400000.0625,-1998.6199951171875,-3185.989990234375,-400000.0625,-2882.2900390625,-400000.0625,-7747.41015625,-400000.0625
15.73470139503479,-400000.0625,-1892.5699462890625,-3112.169921875,-400000.0625,-2789.830078125,-400000.0625,-7515.240234375,-400000.0625
15.743242502212524,-400000.0625,-1895.52001953125,-3068.5400390625,-400000.0625,-2797.080078125,-400000.0625,-7467.93994140625,-400000.0625
15.77074122428894,-400000.0625,-2103.949951171875,-3104.5400390625,-400000.0625,-2903.080078125,-400000.0625,-7547.08984375,-400000.0625
15.778540849685669,-400000.0625,-2210.7099609375,-3192.469970703125,-400000.0625,-2956.580078125,-400000.0625,-7505.75,-400000.0625
15.78889775276184,-400000.0625,-2141.669921875,-3117.699951171875,-400000.0625,-2904.510009765625,-400000.0625,-7410.14990234375,-400000.0625
15.802385330200195,-400000.0625,-2103.81005859375,-3045.610107421875,-400000.0625,-2802.469970703125,-400000.0625,-7292.93994140625,-400000.0625
15.810831546783447,-400000.0625,-2201.1298828125,-3029.199951171875,-400000.0625,-2785.110107421875,-400000.0625,-7271.10009765625,-400000.0625
15.81907606124878,-400000.0625,-2279.469970703125,-3078.320068359375,-400000.0625,-2920.199951171875,-400000.0625,-7307.6298828125,-400000.0625
15.830254793167114,-400000.0625,-2272.56005859375,-3126.669921875,-400000.0625,-2988.10009765625,-400000.0625,-7320.68994140625,-400000.0625
15.838599443435669,-400000.0625,-2229.550048828125,-3089.760009765625,-400000.0625,-2920.47998046875,-400000.0625,-7281.68994140625,-400000.0625
15.84610652923584,-400000.0625,-2138.280029296875,-2990.909912109375,-400000.0625,-2821.02001953125,-400000.0625,-7211.5,-400000.0625
15.877395391464233,-400000.0625,-2127.219970703125,-2994.919921875,-400000.0625,-2824.969970703125,-400000.0625,-7125.66015625,-400000.0625
15.88493299484253,-400000.0625,-2266.1201171875,-3063.969970703125,-400000.0625,-2930.5,-400000.0625,-7214.8798828125,-400000.0625
15.896057844161987,-400000.0625,-2449.93994140625,-3131.43994140625,-400000.0625,-2990.77001953125,-400000.0625,-7296.0400390625,-400000.0625
15.904613494873047,-400000.0625,-2472.830078125,-3088.89990234375,-400000.0625,-2924.300048828125,-400000.0625,-7254.169921875,-400000.0625
15.913137912750244,-400000.0625,-2438.590087890625,-3040.409912109375,-400000.0625,-2821.39990234375,-400000.0625,-7188.27001953125,-400000.0625
15.92569899559021,-400000.0625,-2461.6201171875,-3005.169921875,-400000.0625,-2830.699951171875,-400000.0625,-7184.1201171875,-400000.0625
15.935370445251465,-400000.0625,-2562.47998046875,-3112.409912109375,-400000.0625,-2926.489990234375,-400000.0625,-7307.81982421875,-400000.0625
15.94408106803894,-400000.0625,-2621.97998046875,-3201.2900390625,-400000.0625,-2989.239990234375,-400000.0625,-7415.490234375,-400000.0625
15.951818704605103,-400000.0625,-2542.5,-3147.4599609375,-400000.0625,-2932.739990234375,-400000.0625,-7389.58984375,-400000.0625
15.984222650527954,-400000.0625,-2432.010009765625,-3057.580078125,-400000.0625,-2832.030029296875,-400000.0625,-7328.83984375,-400000.0625
15.99491000175476,-400000.0625,-2431.43994140625,-3072.1201171875,-400000.0625,-2841.7099609375,-400000.0625,-7375.72021484375,-400000.0625
16.003689527511597,-400000.0625,-2513.97998046875,-3175.8798828125,-400000.0625,-2946.419921875,-400000.0625,-7516.10009765625,-400000.0625
16.011595249176025,-400000.0625,-2564.47998046875,-3233.9599609375,-400000.0625,-3011.56005859375,-400000.0625,-7619.18994140625,-400000.0625
16.01857566833496,-400000.0625,-2508.02001953125,-3173.68994140625,-400000.0625,-2954.47998046875,-400000.0625,-7608.41015625,-400000.0625
16.02934455871582,-400000.0625,-2406.739990234375,-3072.360107421875,-400000.0625,-2865.550048828125,-400000.0625,-7555.14990234375,-400000.0625
16.03909468650818,-400000.0625,-2401.2099609375,-3070.2099609375,-400000.0625,-2865.080078125,-400000.0625,-7615.22998046875,-400000.0625
16.04712152481079,-400000.0625,-2499.389892578125,-3166.389892578125,-400000.0625,-2955.8701171875,-400000.0625,-7781.83984375,-400000.0625
16.056504249572754,-400000.0625,-2517.93994140625,-3226.139892578125,-400000.0625,-3016.659912109375,-400000.0625,-7921.89013671875,-400000.0625
16.082370281219482,-400000.0625,-2421.669921875,-3152.75,-400000.0625,-2956.77001953125,-400000.0625,-7928.0400390625,-400000.0625
16.094412565231323,-400000.0625,-2306.889892578125,-3033.2099609375,-400000.0625,-2863.360107421875,-400000.0625,-7896.27978515625,-400000.0625
16.10482144355774,-400000.0625,-2302.550048828125,-3021.0,-400000.0625,-2861.68994140625,-400000.0625,-7974.85986328125,-400000.0625
16.113452196121216,-400000.0625,-2398.010009765625,-3109.030029296875,-400000.0625,-2957.72998046875,-400000.0625,-8160.740234375,-400000.0625
16.12846326828003,-400000.0625,-2446.60009765625,-3157.090087890625,-400000.0625,-3015.330078125,-400000.0625,-8308.080078125,-400000.0625
16.13941764831543,-400000.0625,-2367.449951171875,-3080.179931640625,-400000.0625,-2945.85009765625,-400000.0625,-8318.66015625,-400000.0625
16.14804983139038,-400000.0625,-2250.77001953125,-2962.449951171875,-400000.0625,-2847.47998046875,-400000.0625,-8277.66015625,-400000.0625
16.15945839881897,-400000.0625,-2240.989990234375,-2948.860107421875,-400000.0625,-2848.10009765625,-400000.0625,-8342.080078125,-400000.0625
16.1847140789032,-400000.0625,-2345.659912109375,-3041.219970703125,-400000.0625,-2918.530029296875,-400000.0625,-8505.73046875,-400000.0625
16.197829246520996,-400000.0625,-2410.080078125,-3095.77001953125,-400000.0625,-2975.4599609375,-400000.0625,-8620.7900390625,-400000.0625
16.205979347229004,-400000.0625,-2342.93994140625,-3022.2900390625,-400000.0625,-2917.389892578125,-400000.0625,-8598.6103515625,-400000.0625
16.21357035636902,-400000.0625,-2221.5400390625,-2904.030029296875,-400000.0625,-2830.169921875,-400000.0625,-8530.0,-400000.0625
16.22517204284668,-400000.0625,-2210.669921875,-2895.590087890625,-400000.0625,-2836.280029296875,-400000.0625,-8562.0400390625,-400000.0625
16.23901391029358,-400000.0625,-2307.840087890625,-2990.8701171875,-400000.0625,-2928.31005859375,-400000.0625,-8697.509765625,-400000.0625
16.2492835521698,-400000.0625,-2357.43994140625,-3039.219970703125,-400000.0625,-2994.199951171875,-400000.0625,-8791.2099609375,-400000.0625
16.263776063919067,-400000.0625,-2275.800048828125,-2960.39990234375,-400000.0625,-2937.97998046875,-400000.0625,-8753.830078125,-400000.0625
16.30232262611389,-400000.0625,-2157.159912109375,-2848.860107421875,-400000.0625,-2841.18994140625,-400000.0625,-8667.330078125,-400000.0625
16.311434745788574,-400000.0625,-2147.47998046875,-2842.139892578125,-400000.0625,-2835.56005859375,-400000.0625,-8691.41015625,-400000.0625
16.320875644683838,-400000.0625,-2245.7099609375,-2938.60009765625,-400000.0625,-2927.39990234375,-400000.0625,-8821.490234375,-400000.0625
16.33074450492859,-400000.0625,-2303.360107421875,-2994.010009765625,-400000.0625,-2988.199951171875,-400000.0625,-8909.080078125,-400000.0625
16.341015100479126,-400000.0625,-2230.409912109375,-2926.72998046875,-400000.0625,-2930.929931640625,-400000.0625,-8860.6396484375,-400000.0625
16.3491268157959,-400000.0625,-2117.43994140625,-2816.820068359375,-400000.0625,-2836.0400390625,-400000.0625,-8769.4697265625,-400000.0625
16.364080667495728,-400000.0625,-2107.10009765625,-2810.669921875,-400000.0625,-2839.139892578125,-400000.0625,-8787.58984375,-400000.0625
16.393105268478394,-400000.0625,-2201.889892578125,-2902.169921875,-400000.0625,-2937.169921875,-400000.0625,-8908.0302734375,-400000.0625
16.404348850250244,-400000.0625,-2261.02001953125,-2954.669921875,-400000.0625,-2991.9599609375,-400000.0625,-8982.330078125,-400000.0625
16.41236710548401,-400000.0625,-2196.169921875,-2887.9599609375,-400000.0625,-2926.639892578125,-400000.0625,-8927.1103515625,-400000.0625
16.425600051879883,-400000.0625,-2088.39990234375,-2778.239990234375,-400000.0625,-2826.39990234375,-400000.0625,-8835.3603515625,-400000.0625
16.44001007080078,-400000.0625,-2088.070068359375,-2771.659912109375,-400000.0625,-2824.969970703125,-400000.0625,-8848.3798828125,-400000.0625
16.449869394302368,-400000.0625,-2194.60009765625,-2870.510009765625,-400000.0625,-2920.199951171875,-400000.0625,-8963.349609375,-400000.0625
16.466005325317383,-400000.0625,-2263.02001953125,-2930.31005859375,-400000.0625,-2983.3798828125,-400000.0625,-9042.3095703125,-400000.0625
16.49433708190918,-400000.0625,-2200.030029296875,-2864.68994140625,-400000.0625,-2929.31005859375,-400000.0625,-8996.8203125,-400000.0625
16.504634141921997,-400000.0625,-2100.3701171875,-2761.4599609375,-400000.0625,-2839.800048828125,-400000.0625,-8904.599609375,-400000.0625
16.513157844543457,-400000.0625,-2098.610107421875,-2755.449951171875,-400000.0625,-2838.659912109375,-400000.0625,-8910.849609375,-400000.0625
16.526728868484497,-400000.0625,-2204.179931640625,-2856.590087890625,-400000.0625,-2927.830078125,-400000.0625,-9027.669921875,-400000.0625
16.537978649139404,-400000.0625,-2282.0,-2923.780029296875,-400000.0625,-2984.6201171875,-400000.0625,-9114.080078125,-400000.0625
16.545955657958984,-400000.0625,-2230.260009765625,-2864.169921875,-400000.0625,-2928.919921875,-400000.0625,-9075.6396484375,-400000.0625
16.5543429851532,-400000.0625,-2124.739990234375,-2757.8798828125,-400000.0625,-2830.360107421875,-400000.0625,-8978.75,-400000.0625
16.563380002975464,-400000.0625,-2120.300048828125,-2752.39990234375,-400000.0625,-2830.219970703125,-400000.0625,-8985.330078125,-400000.0625
16.571608304977417,-400000.0625,-2226.2099609375,-2850.14990234375,-400000.0625,-2925.6298828125,-400000.0625,-9098.580078125,-400000.0625
16.599419116973877,-400000.0625,-2295.300048828125,-2909.7099609375,-400000.0625,-2990.909912109375,-400000.0625,-9173.919921875,-400000.0625
16.611339569091797,-400000.0625,-2233.4599609375,-2843.949951171875,-400000.0625,-2936.219970703125,-400000.0625,-9119.3203125,-400000.0625
16.629064321517944,-400000.0625,-2131.179931640625,-2740.719970703125,-400000.0625,-2844.760009765625,-400000.0625,-9022.669921875,-400000.0625
16.642470359802246,-400000.0625,-2134.280029296875,-2740.669921875,-400000.0625,-2841.570068359375,-400000.0625,-9031.490234375,-400000.0625
16.65015196800232,-400000.0625,-2241.800048828125,-2841.429931640625,-400000.0625,-2928.590087890625,-400000.0625,-9150.98046875,-400000.0625
16.662957668304443,-400000.0625,-2311.85009765625,-2904.3701171875,-400000.0625,-2990.719970703125,-400000.0625,-9225.8896484375,-400000.0625
16.67189383506775,-400000.0625,-2253.389892578125,-2844.139892578125,-400000.0625,-2938.4599609375,-400000.0625,-9175.58984375,-400000.0625
16.70181393623352,-400000.0625,-2150.010009765625,-2739.860107421875,-400000.0625,-2837.52001953125,-400000.0625,-9082.83984375,-400000.0625
16.710254907608032,-400000.0625,-2153.590087890625,-2738.2900390625,-400000.0625,-2836.510009765625,-400000.0625,-9091.1904296875,-400000.0625
16.717783451080322,-400000.0625,-2260.070068359375,-2834.75,-400000.0625,-2930.590087890625,-400000.0625,-9196.6201171875,-400000.0625
16.72906756401062,-400000.0625,-2333.449951171875,-2910.18994140625,-400000.0625,-2986.3798828125,-400000.0625,-9261.23046875,-400000.0625
16.74153971672058,-400000.0625,-2283.81005859375,-2864.97998046875,-400000.0625,-2930.739990234375,-400000.0625,-9205.2001953125,-400000.0625
16.749201774597168,-400000.0625,-2183.679931640625,-2770.570068359375,-400000.0625,-2837.800048828125,-400000.0625,-9103.6298828125,-400000.0625
16.759508848190308,-400000.0625,-2182.43994140625,-2771.52001953125,-400000.0625,-2838.75,-400000.0625,-9099.6298828125,-400000.0625
16.770288467407227,-400000.0625,-2292.010009765625,-2880.570068359375,-400000.0625,-2930.929931640625,-400000.0625,-9208.0595703125,-400000.0625
16.77851128578186,-400000.0625,-2370.929931640625,-2957.389892578125,-400000.0625,-2993.06005859375,-400000.0625,-9278.7802734375,-400000.0625
16.807963848114014,-400000.0625,-2321.820068359375,-2905.510009765625,-400000.0625,-2936.219970703125,-400000.0625,-9225.23046875,-400000.0625
16.815342664718628,-400000.0625,-2218.530029296875,-2801.469970703125,-400000.0625,-2839.52001953125,-400000.0625,-9125.3798828125,-400000.0625
16.824946403503418,-400000.0625,-2216.199951171875,-2798.080078125,-400000.0625,-2838.139892578125,-400000.0625,-9128.51953125,-400000.0625
16.834521532058716,-400000.0625,-2320.530029296875,-2899.97998046875,-400000.0625,-2933.68994140625,-400000.0625,-9241.150390625,-400000.0625
16.84250831604004,-400000.0625,-2392.050048828125,-2968.64990234375,-400000.0625,-2991.199951171875,-400000.0625,-9320.2099609375,-400000.0625
16.849777936935425,-400000.0625,-2336.219970703125,-2911.52001953125,-400000.0625,-2936.550048828125,-400000.0625,-9275.25,-400000.0625
16.860254287719727,-400000.0625,-2232.27001953125,-2810.860107421875,-400000.0625,-2844.52001953125,-400000.0625,-9180.740234375,-400000.0625
16.868592739105225,-400000.0625,-2235.1298828125,-2809.3798828125,-400000.0625,-2838.090087890625,-400000.0625,-9185.650390625,-400000.0625
16.877522468566895,-400000.0625,-2346.1298828125,-2915.81005859375,-400000.0625,-2933.68994140625,-400000.0625,-9296.5595703125,-400000.0625
16.88482975959778,-400000.0625,-2420.090087890625,-2984.81005859375,-400000.0625,-2997.590087890625,-400000.0625,-9377.580078125,-400000.0625
16.913196325302124,-400000.0625,-2359.820068359375,-2926.5400390625,-400000.0625,-2942.93994140625,-400000.0625,-9327.7001953125,-400000.0625
16.923152923583984,-400000.0625,-2255.72998046875,-2823.929931640625,-400000.0625,-2843.330078125,-400000.0625,-9232.7099609375,-400000.0625
16.931642055511475,-400000.0625,-2253.77001953125,-2818.300048828125,-400000.0625,-2840.469970703125,-400000.0625,-9236.3798828125,-400000.0625
16.939839839935303,-400000.0625,-2356.10009765625,-2916.3798828125,-400000.0625,-2932.739990234375,-400000.0625,-9345.7197265625,-400000.0625
16.947260856628418,-400000.0625,-2431.110107421875,-2983.949951171875,-400000.0625,-2998.5,-400000.0625,-9426.3095703125,-400000.0625
16.956843614578247,-400000.0625,-2378.56005859375,-2930.590087890625,-400000.0625,-2948.860107421875,-400000.0625,-9376.3798828125,-400000.0625
16.966885328292847,-400000.0625,-2277.949951171875,-2831.080078125,-400000.0625,-2853.72998046875,-400000.0625,-9275.2001953125,-400000.0625
16.974863529205322,-400000.0625,-2272.219970703125,-2825.68994140625,-400000.0625,-2851.6298828125,-400000.0625,-9276.2001953125,-400000.0625
16.98207449913025,-400000.0625,-2383.179931640625,-2930.31005859375,-400000.0625,-2943.7099609375,-400000.0625,-9389.4501953125,-400000.0625
16.996195554733276,-400000.0625,-2458.6201171875,-3002.830078125,-400000.0625,-2997.489990234375,-400000.0625,-9474.7998046875,-400000.0625
17.02306056022644,-400000.0625,-2408.5,-2947.6201171875,-400000.0625,-2944.22998046875,-400000.0625,-9433.4599609375,-400000.0625
17.034164667129517,-400000.0625,-2304.030029296875,-2847.530029296875,-400000.0625,-2848.820068359375,-400000.0625,-9333.900390625,-400000.0625
17.04311203956604,-400000.0625,-2300.02001953125,-2845.3798828125,-400000.0625,-2846.239990234375,-400000.0625,-9330.5595703125,-400000.0625
17.050509214401245,-400000.0625,-2406.409912109375,-2944.659912109375,-400000.0625,-2942.610107421875,-400000.0625,-9442.6201171875,-400000.0625
17.06714105606079,-400000.0625,-2484.85009765625,-3017.469970703125,-400000.0625,-3008.27001953125,-400000.0625,-9525.8203125,-400000.0625
17.075841665267944,-400000.0625,-2426.199951171875,-2966.39990234375,-400000.0625,-2962.590087890625,-400000.0625,-9475.51953125,-400000.0625
17.083187580108643,-400000.0625,-2321.429931640625,-2862.639892578125,-400000.0625,-2863.97998046875,-400000.0625,-9375.759765625,-400000.0625
17.09402060508728,-400000.0625,-2319.6201171875,-2859.830078125,-400000.0625,-2846.860107421875,-400000.0625,-9381.0595703125,-400000.0625
17.103822231292725,-400000.0625,-2426.14990234375,-2961.590087890625,-400000.0625,-2937.75,-400000.0625,-9489.349609375,-400000.0625
17.12908101081848,-400000.0625,-2504.300048828125,-3036.97998046875,-400000.0625,-3001.8798828125,-400000.0625,-9566.1201171875,-400000.0625
17.138615369796753,-400000.0625,-2450.22998046875,-2978.610107421875,-400000.0625,-2946.81005859375,-400000.0625,-9519.6298828125,-400000.0625
17.14754629135132,-400000.0625,-2341.320068359375,-2870.419921875,-400000.0625,-2854.489990234375,-400000.0625,-9417.4404296875,-400000.0625
17.15959930419922,-400000.0625,-2332.02001953125,-2862.639892578125,-400000.0625,-2852.679931640625,-400000.0625,-9409.9501953125,-400000.0625
17.169493198394775,-400000.0625,-2437.159912109375,-2963.2099609375,-400000.0625,-2940.3701171875,-400000.0625,-9519.0498046875,-400000.0625
17.17733883857727,-400000.0625,-2517.3701171875,-3044.179931640625,-400000.0625,-3005.169921875,-400000.0625,-9608.599609375,-400000.0625
17.184269428253174,-400000.0625,-2465.43994140625,-2993.6298828125,-400000.0625,-2951.77001953125,-400000.0625,-9564.1103515625,-400000.0625
17.196739196777344,-400000.0625,-2361.580078125,-2891.2099609375,-400000.0625,-2855.489990234375,-400000.0625,-9464.650390625,-400000.0625
17.204676866531372,-400000.0625,-2358.719970703125,-2887.340087890625,-400000.0625,-2846.81005859375,-400000.0625,-9466.740234375,-400000.0625
17.239188194274902,-400000.0625,-2460.719970703125,-2987.580078125,-400000.0625,-2939.219970703125,-400000.0625,-9574.4599609375,-400000.0625
17.247806072235107,-400000.0625,-2540.2099609375,-3060.909912109375,-400000.0625,-3004.27001953125,-400000.0625,-9654.08984375,-400000.0625
17.2611825466156,-400000.0625,-2489.090087890625,-3008.800048828125,-400000.0625,-2950.719970703125,-400000.0625,-9607.169921875,-400000.0625
17.270700216293335,-400000.0625,-2381.85009765625,-2907.93994140625,-400000.0625,-2858.35009765625,-400000.0625,-9509.759765625,-400000.0625
17.278446674346924,-400000.0625,-2377.080078125,-2903.60009765625,-400000.0625,-2856.969970703125,-400000.0625,-9507.7001953125,-400000.0625
17.287084817886353,-400000.0625,-2482.510009765625,-3003.260009765625,-400000.0625,-2948.330078125,-400000.0625,-9613.9404296875,-400000.0625
17.30267024040222,-400000.0625,-2558.989990234375,-3078.699951171875,-400000.0625,-3007.75,-400000.0625,-9692.9599609375,-400000.0625
17.31084895133972,-400000.0625,-2503.35009765625,-3023.429931640625,-400000.0625,-2952.429931640625,-400000.0625,-9645.75,-400000.0625
17.34303593635559,-400000.0625,-2395.72998046875,-2918.909912109375,-400000.0625,-2853.300048828125,-400000.0625,-9548.2802734375,-400000.0625
17.353636026382446,-400000.0625,-2388.909912109375,-2912.090087890625,-400000.0625,-2843.3798828125,-400000.0625,-9544.7998046875,-400000.0625
17.36328125,-400000.0625,-2492.7099609375,-3012.989990234375,-400000.0625,-2934.070068359375,-400000.0625,-9651.4697265625,-400000.0625
17.373734951019287,-400000.0625,-2568.2900390625,-3083.659912109375,-400000.0625,-3003.5,-400000.0625,-9733.3896484375,-400000.0625
17.38251233100891,-400000.0625,-2513.840087890625,-3031.5400390625,-400000.0625,-2959.110107421875,-400000.0625,-9683.7998046875,-400000.0625
17.393047332763672,-400000.0625,-2412.3701171875,-2933.360107421875,-400000.0625,-2862.550048828125,-400000.0625,-9581.2802734375,-400000.0625
17.403275966644287,-400000.0625,-2407.60009765625,-2930.590087890625,-400000.0625,-2846.429931640625,-400000.0625,-9585.3798828125,-400000.0625
17.412103414535522,-400000.0625,-2508.260009765625,-3029.969970703125,-400000.0625,-2933.360107421875,-400000.0625,-9691.91015625,-400000.0625
17.445035696029663,-400000.0625,-2585.510009765625,-3104.5400390625,-400000.0625,-3002.830078125,-400000.0625,-9770.9697265625,-400000.0625
17.45275855064392,-400000.0625,-2536.199951171875,-3053.139892578125,-400000.0625,-2956.06005859375,-400000.0625,-9723.1396484375,-400000.0625
17.467355966567993,-400000.0625,-2429.06005859375,-2948.860107421875,-400000.0625,-2852.820068359375,-400000.0625,-9621.48046875,-400000.0625
17.476056337356567,-400000.0625,-2419.22998046875,-2943.85009765625,-400000.0625,-2842.7099609375,-400000.0625,-9622.0,-400000.0625
17.48397183418274,-400000.0625,-2520.800048828125,-3040.889892578125,-400000.0625,-2940.56005859375,-400000.0625,-9727.5703125,-400000.0625
17.496325731277466,-400000.0625,-2597.239990234375,-3114.27001953125,-400000.0625,-3012.510009765625,-400000.0625,-9804.6298828125,-400000.0625
17.5046067237854,-400000.0625,-2551.7900390625,-3069.969970703125,-400000.0625,-2956.010009765625,-400000.0625,-9762.5703125,-400000.0625
17.513073921203613,-400000.0625,-2453.419921875,-2974.080078125,-400000.0625,-2854.110107421875,-400000.0625,-9664.2998046875,-400000.0625
17.541598558425903,-400000.0625,-2437.72998046875,-2959.06005859375,-400000.0625,-2843.429931640625,-400000.0625,-9655.4296875,-400000.0625
17.54913592338562,-400000.0625,-2540.39990234375,-3057.18994140625,-400000.0625,-2940.699951171875,-400000.0625,-9757.7099609375,-400000.0625
17.559621572494507,-400000.0625,-2615.550048828125,-3129.47998046875,-400000.0625,-3013.469970703125,-400000.0625,-9837.25,-400000.0625
17.56748080253601,-400000.0625,-2559.22998046875,-3077.320068359375,-400000.0625,-2963.159912109375,-400000.0625,-9788.2802734375,-400000.0625
17.57554841041565,-400000.0625,-2456.280029296875,-2978.75,-400000.0625,-2864.169921875,-400000.0625,-9689.6201171875,-400000.0625
17.582841634750366,-400000.0625,-2448.3701171875,-2974.320068359375,-400000.0625,-2852.72998046875,-400000.0625,-9689.6201171875,-400000.0625
17.597915410995483,-400000.0625,-2547.550048828125,-3071.7900390625,-400000.0625,-2942.22998046875,-400000.0625,-9795.0,-400000.0625
17.608989477157593,-400000.0625,-2623.64990234375,-3141.449951171875,-400000.0625,-3004.030029296875,-400000.0625,-9874.8701171875,-400000.0625
17.62097454071045,-400000.0625,-2573.780029296875,-3094.77001953125,-400000.0625,-2958.06005859375,-400000.0625,-9828.08984375,-400000.0625
17.655812740325928,-400000.0625,-2472.830078125,-2997.969970703125,-400000.0625,-2863.60009765625,-400000.0625,-9728.8603515625,-400000.0625
17.666808605194092,-400000.0625,-2466.8701171875,-2996.02001953125,-400000.0625,-2856.2099609375,-400000.0625,-9725.240234375,-400000.0625
17.676012992858887,-400000.0625,-2567.010009765625,-3091.2900390625,-400000.0625,-2950.050048828125,-400000.0625,-9829.4697265625,-400000.0625
17.683542728424072,-400000.0625,-2643.489990234375,-3163.429931640625,-400000.0625,-3019.860107421875,-400000.0625,-9904.91015625,-400000.0625
17.69396185874939,-400000.0625,-2590.659912109375,-3111.64990234375,-400000.0625,-2960.010009765625,-400000.0625,-9856.3203125,-400000.0625
17.70715618133545,-400000.0625,-2483.56005859375,-3009.56005859375,-400000.0625,-2857.260009765625,-400000.0625,-9757.0,-400000.0625
17.714661836624146,-400000.0625,-2479.219970703125,-3006.27001953125,-400000.0625,-2851.340087890625,-400000.0625,-9754.5595703125,-400000.0625
17.72751760482788,-400000.0625,-2584.31005859375,-3107.60009765625,-400000.0625,-2953.580078125,-400000.0625,-9861.759765625,-400000.0625
17.755176305770874,-400000.0625,-2650.360107421875,-3171.489990234375,-400000.0625,-3019.669921875,-400000.0625,-9947.4404296875,-400000.0625
17.765474319458008,-400000.0625,-2583.64990234375,-3111.320068359375,-400000.0625,-2966.2099609375,-400000.0625,-9907.2001953125,-400000.0625
17.774019956588745,-400000.0625,-2474.590087890625,-3004.4599609375,-400000.0625,-2866.219970703125,-400000.0625,-9811.740234375,-400000.0625
17.781824588775635,-400000.0625,-2453.949951171875,-2986.239990234375,-400000.0625,-2855.35009765625,-400000.0625,-9813.41015625,-400000.0625
17.791663885116577,-400000.0625,-2541.590087890625,-3074.68994140625,-400000.0625,-2946.330078125,-400000.0625,-9922.169921875,-400000.0625
17.8040714263916,-400000.0625,-2613.260009765625,-3140.1201171875,-400000.0625,-3022.389892578125,-400000.0625,-10009.7197265625,-400000.0625
17.815907955169678,-400000.0625,-2557.85009765625,-3082.89990234375,-400000.0625,-2972.889892578125,-400000.0625,-9973.669921875,-400000.0625
17.8274827003479,-400000.0625,-2443.929931640625,-2976.989990234375,-400000.0625,-2858.260009765625,-400000.0625,-9886.2197265625,-400000.0625
17.83708119392395,-400000.0625,-2432.010009765625,-2960.43994140625,-400000.0625,-2847.10009765625,-400000.0625,-9885.5,-400000.0625
17.864018201828003,-400000.0625,-2540.35009765625,-3058.530029296875,-400000.0625,-2945.22998046875,-400000.0625,-9988.6904296875,-400000.0625
17.87203025817871,-400000.0625,-2611.35009765625,-3126.47998046875,-400000.0625,-3011.93994140625,-400000.0625,-10070.419921875,-400000.0625
17.879415035247803,-400000.0625,-2558.52001953125,-3078.27001953125,-400000.0625,-2966.02001953125,-400000.0625,-10023.599609375,-400000.0625
17.88874101638794,-400000.0625,-2451.93994140625,-2977.93994140625,-400000.0625,-2869.889892578125,-400000.0625,-9922.3095703125,-400000.0625
17.89898705482483,-400000.0625,-2435.8798828125,-2961.02001953125,-400000.0625,-2852.5400390625,-400000.0625,-9909.8203125,-400000.0625
17.907531023025513,-400000.0625,-2535.010009765625,-3055.47998046875,-400000.0625,-2944.090087890625,-400000.0625,-10008.5302734375,-400000.0625
17.91494059562683,-400000.0625,-2620.64990234375,-3137.06005859375,-400000.0625,-3008.320068359375,-400000.0625,-10098.0302734375,-400000.0625
17.928158283233643,-400000.0625,-2573.35009765625,-3091.81005859375,-400000.0625,-2960.25,-400000.0625,-10056.6396484375,-400000.0625
17.9376802444458,-400000.0625,-2465.110107421875,-2987.2900390625,-400000.0625,-2865.7900390625,-400000.0625,-9949.73046875,-400000.0625
17.964195489883423,-400000.0625,-2448.800048828125,-2972.320068359375,-400000.0625,-2853.389892578125,-400000.0625,-9937.0498046875,-400000.0625
17.9730806350708,-400000.0625,-2551.3701171875,-3069.1201171875,-400000.0625,-2941.699951171875,-400000.0625,-10036.759765625,-400000.0625
17.981313705444336,-400000.0625,-2632.0,-3144.219970703125,-400000.0625,-3006.7900390625,-400000.0625,-10115.91015625,-400000.0625
17.99426007270813,-400000.0625,-2585.7900390625,-3100.969970703125,-400000.0625,-2965.97998046875,-400000.0625,-10073.3798828125,-400000.0625
18.00328516960144,-400000.0625,-2483.64990234375,-3002.260009765625,-400000.0625,-2869.419921875,-400000.0625,-9970.240234375,-400000.0625
18.011597394943237,-400000.0625,-2470.300048828125,-2989.199951171875,-400000.0625,-2852.25,-400000.0625,-9962.849609375,-400000.0625
18.020837783813477,-400000.0625,-2566.909912109375,-3083.93994140625,-400000.0625,-2941.889892578125,-400000.0625,-10061.740234375,-400000.0625
18.03303861618042,-400000.0625,-2639.47998046875,-3155.659912109375,-400000.0625,-3018.0,-400000.0625,-10135.3701171875,-400000.0625
18.041409730911255,-400000.0625,-2587.60009765625,-3104.969970703125,-400000.0625,-2974.1298828125,-400000.0625,-10088.9697265625,-400000.0625
18.071534156799316,-400000.0625,-2484.889892578125,-3002.830078125,-400000.0625,-2865.739990234375,-400000.0625,-9986.349609375,-400000.0625
18.07962703704834,-400000.0625,-2476.02001953125,-2993.679931640625,-400000.0625,-2852.77001953125,-400000.0625,-9977.6796875,-400000.0625
18.092080116271973,-400000.0625,-2576.919921875,-3093.429931640625,-400000.0625,-2940.85009765625,-400000.0625,-10079.8095703125,-400000.0625
18.10545825958252,-400000.0625,-2651.60009765625,-3163.14990234375,-400000.0625,-3008.56005859375,-400000.0625,-10156.8203125,-400000.0625
18.11353826522827,-400000.0625,-2601.909912109375,-3112.7900390625,-400000.0625,-2969.68994140625,-400000.0625,-10110.08984375,-400000.0625
18.126943349838257,-400000.0625,-2502.580078125,-3018.239990234375,-400000.0625,-2872.179931640625,-400000.0625,-10011.9599609375,-400000.0625
18.13867211341858,-400000.0625,-2490.81005859375,-3006.7900390625,-400000.0625,-2861.260009765625,-400000.0625,-10003.4697265625,-400000.0625
18.146594047546387,-400000.0625,-2588.56005859375,-3103.35009765625,-400000.0625,-2947.090087890625,-400000.0625,-10107.1796875,-400000.0625
18.17269539833069,-400000.0625,-2668.330078125,-3183.7900390625,-400000.0625,-3013.330078125,-400000.0625,-10190.76953125,-400000.0625
18.180484294891357,-400000.0625,-2619.699951171875,-3136.06005859375,-400000.0625,-2960.5400390625,-400000.0625,-10147.5302734375,-400000.0625
18.188977479934692,-400000.0625,-2509.929931640625,-3031.969970703125,-400000.0625,-2866.169921875,-400000.0625,-10041.0,-400000.0625
18.199302911758423,-400000.0625,-2497.47998046875,-3021.10009765625,-400000.0625,-2858.110107421875,-400000.0625,-10023.6396484375,-400000.0625
18.208599090576172,-400000.0625,-2591.179931640625,-3112.64990234375,-400000.0625,-2942.56005859375,-400000.0625,-10124.1103515625,-400000.0625
18.216699361801147,-400000.0625,-2666.860107421875,-3182.4599609375,-400000.0625,-3014.989990234375,-400000.0625,-10203.0302734375,-400000.0625
18.232606172561646,-400000.0625,-2623.610107421875,-3139.780029296875,-400000.0625,-2969.64990234375,-400000.0625,-10161.8798828125,-400000.0625
18.241034507751465,-400000.0625,-2522.22998046875,-3041.840087890625,-400000.0625,-2873.22998046875,-400000.0625,-10061.0703125,-400000.0625
18.248552560806274,-400000.0625,-2506.830078125,-3026.580078125,-400000.0625,-2857.300048828125,-400000.0625,-10050.9697265625,-400000.0625
18.47654438018799,-400000.0625,-2922.9599609375,-3428.889892578125,-400000.0625,-2890.5400390625,-400000.0625,-10702.4697265625,-400000.0625
18.537084102630615,-400000.0625,-2904.840087890625,-3407.760009765625,-400000.0625,-2863.840087890625,-400000.0625,-10677.669921875,-400000.0625
18.679678201675415,-400000.0625,-2970.7900390625,-3455.5,-400000.0625,-2943.419921875,-400000.0625,-10810.419921875,-400000.0625
18.854504346847534,-400000.0625,-3083.659912109375,-3548.2900390625,-400000.0625,-3024.909912109375,-400000.0625,-10915.0400390625,-400000.0625
18.98618721961975,-400000.0625,-3024.199951171875,-3482.25,-400000.0625,-2957.010009765625,-400000.0625,-10846.849609375,-400000.0625
19.170352697372437,-400000.0625,-2956.679931640625,-3414.389892578125,-400000.0625,-2883.050048828125,-400000.0625,-10779.48046875,-400000.0625
19.239526748657227,-400000.0625,-3128.909912109375,-3580.949951171875,-400000.0625,-3036.639892578125,-400000.0625,-10941.080078125,-400000.0625
19.303555011749268,-400000.0625,-2964.639892578125,-3417.830078125,-400000.0625,-2876.659912109375,-400000.0625,-10789.6796875,-400000.0625
19.43685269355774,-400000.0625,-2985.570068359375,-3432.080078125,-400000.0625,-2892.110107421875,-400000.0625,-10806.3701171875,-400000.0625
19.570327758789062,-400000.0625,-3091.669921875,-3526.449951171875,-400000.0625,-2981.570068359375,-400000.0625,-10911.990234375,-400000.0625
19.636637687683105,-400000.0625,-3093.340087890625,-3524.02001953125,-400000.0625,-2978.800048828125,-400000.0625,-10913.23046875,-400000.0625
19.75194764137268,-400000.0625,-3106.449951171875,-3533.4599609375,-400000.0625,-2982.239990234375,-400000.0625,-10918.759765625,-400000.0625
19.921506643295288,-400000.0625,-3180.68994140625,-3601.4599609375,-400000.0625,-3041.7900390625,-400000.0625,-10990.7197265625,-400000.0625
