time,ch1,ch2,ch3,ch4,ch5,ch6,ch7,ch8
177.5523989200592,-400000.0625,10497.7099609375,2218.199951171875,-400000.0625,-2358.530029296875,-400000.0625,6349.14013671875,-400000.0625
177.55912327766418,-400000.0625,10505.25,2228.449951171875,-400000.0625,-2355.9599609375,-400000.0625,6355.47998046875,-400000.0625
177.56556844711304,-400000.0625,10497.3798828125,2217.25,-400000.0625,-2369.68994140625,-400000.0625,6348.18017578125,-400000.0625
177.5760657787323,-400000.0625,10488.8896484375,2209.469970703125,-400000.0625,-2390.47998046875,-400000.0625,6337.5498046875,-400000.0625
177.5854721069336,-400000.0625,10491.66015625,2213.340087890625,-400000.0625,-2404.639892578125,-400000.0625,6338.5,-400000.0625
177.59296679496765,-400000.0625,10502.5302734375,2220.580078125,-400000.0625,-2408.4599609375,-400000.0625,6352.85009765625,-400000.0625
177.60084533691406,-400000.0625,10507.6298828125,2225.5400390625,-400000.0625,-2384.85009765625,-400000.0625,6362.14990234375,-400000.0625
177.60809206962585,-400000.0625,10501.2001953125,2220.14990234375,-400000.0625,-2367.68994140625,-400000.0625,6351.89990234375,-400000.0625
177.61464834213257,-400000.0625,10491.6103515625,2211.860107421875,-400000.0625,-2380.56005859375,-400000.0625,6341.27001953125,-400000.0625
177.6219618320465,-400000.0625,10494.51953125,2214.47998046875,-400000.0625,-2380.989990234375,-400000.0625,6343.60009765625,-400000.0625
177.6279706954956,-400000.0625,10507.2001953125,2226.5,-400000.0625,-2359.580078125,-400000.0625,6354.2900390625,-400000.0625
177.63514590263367,-400000.0625,10516.2197265625,2234.169921875,-400000.0625,-2372.60009765625,-400000.0625,6364.2998046875,-400000.0625
177.64739203453064,-400000.0625,10508.490234375,2225.35009765625,-400000.0625,-2397.8701171875,-400000.0625,6357.6201171875,-400000.0625
177.65479803085327,-400000.0625,10484.650390625,2205.090087890625,-400000.0625,-2396.919921875,-400000.0625,6340.60009765625,-400000.0625
177.66081619262695,-400000.0625,10487.8896484375,2210.3798828125,-400000.0625,-2371.360107421875,-400000.0625,6334.02001953125,-400000.0625
177.66701555252075,-400000.0625,10502.76953125,2221.969970703125,-400000.0625,-2366.590087890625,-400000.0625,6346.27001953125,-400000.0625
177.67334175109863,-400000.0625,10508.009765625,2226.969970703125,-400000.0625,-2371.8798828125,-400000.0625,6357.91015625,-400000.0625
177.6792118549347,-400000.0625,10504.4404296875,2225.35009765625,-400000.0625,-2383.760009765625,-400000.0625,6349.27978515625,-400000.0625
177.68693208694458,-400000.0625,10497.330078125,2213.2900390625,-400000.0625,-2392.14990234375,-400000.0625,6334.58984375,-400000.0625
177.69274234771729,-400000.0625,10496.1904296875,2211.860107421875,-400000.0625,-2398.2099609375,-400000.0625,6340.31005859375,-400000.0625
177.69843673706055,-400000.0625,10506.5400390625,2223.300048828125,-400000.0625,-2391.909912109375,-400000.0625,6354.81005859375,-400000.0625
177.70494937896729,-400000.0625,10511.490234375,2230.31005859375,-400000.0625,-2377.080078125,-400000.0625,6351.0400390625,-400000.0625
177.7106864452362,-400000.0625,10499.8603515625,2217.669921875,-400000.0625,-2370.360107421875,-400000.0625,6345.18017578125,-400000.0625
177.71705389022827,-400000.0625,10487.9404296875,2204.22998046875,-400000.0625,-2391.14990234375,-400000.0625,6333.35009765625,-400000.0625
177.72462582588196,-400000.0625,10489.509765625,2204.75,-400000.0625,-2391.14990234375,-400000.0625,6331.97021484375,-400000.0625
177.73042559623718,-400000.0625,10497.48046875,2216.860107421875,-400000.0625,-2388.949951171875,-400000.0625,6344.89013671875,-400000.0625
177.73896741867065,-400000.0625,10505.580078125,2226.260009765625,-400000.0625,-2378.320068359375,-400000.0625,6353.3798828125,-400000.0625
177.75123739242554,-400000.0625,10502.48046875,2219.820068359375,-400000.0625,-2372.64990234375,-400000.0625,6348.0400390625,-400000.0625
177.75720357894897,-400000.0625,10488.7001953125,2207.330078125,-400000.0625,-2397.8701171875,-400000.0625,6339.64990234375,-400000.0625
177.7631618976593,-400000.0625,10489.3203125,2205.3701171875,-400000.0625,-2395.25,-400000.0625,6339.93017578125,-400000.0625
177.76981616020203,-400000.0625,10501.150390625,2218.199951171875,-400000.0625,-2388.330078125,-400000.0625,6351.14013671875,-400000.0625
177.77532196044922,-400000.0625,10505.580078125,2226.969970703125,-400000.0625,-2382.610107421875,-400000.0625,6356.72021484375,-400000.0625
177.7805049419403,-400000.0625,10502.240234375,2218.010009765625,-400000.0625,-2377.4599609375,-400000.0625,6349.60986328125,-400000.0625
177.78928446769714,-400000.0625,10489.8896484375,2208.52001953125,-400000.0625,-2399.43994140625,-400000.0625,6338.169921875,-400000.0625
177.79461407661438,-400000.0625,10489.509765625,2210.949951171875,-400000.0625,-2407.1201171875,-400000.0625,6341.740234375,-400000.0625
177.8005175590515,-400000.0625,10500.91015625,2219.300048828125,-400000.0625,-2400.489990234375,-400000.0625,6353.08984375,-400000.0625
177.80886912345886,-400000.0625,10505.6298828125,2221.199951171875,-400000.0625,-2377.030029296875,-400000.0625,6355.91015625,-400000.0625
177.81452775001526,-400000.0625,10497.1396484375,2209.85009765625,-400000.0625,-2375.4599609375,-400000.0625,6346.0400390625,-400000.0625
177.82123494148254,-400000.0625,10484.8896484375,2199.320068359375,-400000.0625,-2388.0,-400000.0625,6333.97021484375,-400000.0625
177.82678413391113,-400000.0625,10486.7900390625,2203.179931640625,-400000.0625,-2387.909912109375,-400000.0625,6334.64013671875,-400000.0625
177.8344476222992,-400000.0625,10501.4296875,2216.14990234375,-400000.0625,-2379.989990234375,-400000.0625,6347.93994140625,-400000.0625
177.8409721851349,-400000.0625,10505.0595703125,2220.300048828125,-400000.0625,-2383.469970703125,-400000.0625,6350.52001953125,-400000.0625
177.85357904434204,-400000.0625,10495.9501953125,2212.239990234375,-400000.0625,-2403.830078125,-400000.0625,6344.83984375,-400000.0625
177.85996007919312,-400000.0625,10486.3701171875,2203.659912109375,-400000.0625,-2412.699951171875,-400000.0625,6334.64013671875,-400000.0625
177.865873336792,-400000.0625,10488.419921875,2205.090087890625,-400000.0625,-2390.719970703125,-400000.0625,6332.919921875,-400000.0625
177.87185525894165,-400000.0625,10498.330078125,2213.47998046875,-400000.0625,-2372.27001953125,-400000.0625,6342.31982421875,-400000.0625
177.87691736221313,-400000.0625,10504.150390625,2222.25,-400000.0625,-2375.1298828125,-400000.0625,6346.990234375,-400000.0625
177.88208150863647,-400000.0625,10496.1396484375,2212.949951171875,-400000.0625,-2384.469970703125,-400000.0625,6341.22021484375,-400000.0625
177.88799476623535,-400000.0625,10488.7001953125,2200.93994140625,-400000.0625,-2398.25,-400000.0625,6332.77978515625,-400000.0625
177.89328694343567,-400000.0625,10489.66015625,2204.419921875,-400000.0625,-2403.070068359375,-400000.0625,6338.02001953125,-400000.0625
177.89854264259338,-400000.0625,10498.8095703125,2212.909912109375,-400000.0625,-2400.300048828125,-400000.0625,6352.759765625,-400000.0625
177.90445828437805,-400000.0625,10506.8701171875,2220.43994140625,-400000.0625,-2400.35009765625,-400000.0625,6358.81005859375,-400000.0625
177.9096372127533,-400000.0625,10495.08984375,2208.18994140625,-400000.0625,-2399.5400390625,-400000.0625,6343.990234375,-400000.0625
177.91462516784668,-400000.0625,10482.3095703125,2200.56005859375,-400000.0625,-2399.5400390625,-400000.0625,6331.490234375,-400000.0625
177.91463470458984,-400000.0625,10485.5498046875,2205.0400390625,-400000.0625,-2384.6201171875,-400000.0625,6336.02001953125,-400000.0625
177.91463994979858,-400000.0625,10496.2802734375,2214.14990234375,-400000.0625,-2374.27001953125,-400000.0625,6347.75,-400000.0625
177.91464471817017,-400000.0625,10499.9599609375,2217.10009765625,-400000.0625,-2391.77001953125,-400000.0625,6355.43017578125,-400000.0625
177.92060089111328,-400000.0625,10495.9501953125,2210.090087890625,-400000.0625,-2407.169921875,-400000.0625,6345.02978515625,-400000.0625
177.9262387752533,-400000.0625,10489.75,2203.320068359375,-400000.0625,-2426.0,-400000.0625,6333.919921875,-400000.0625
177.9314467906952,-400000.0625,10489.7001953125,2204.320068359375,-400000.0625,-2405.60009765625,-400000.0625,6333.8798828125,-400000.0625
177.93798637390137,-400000.0625,10496.8095703125,2211.7099609375,-400000.0625,-2377.610107421875,-400000.0625,6342.02978515625,-400000.0625
177.94553637504578,-400000.0625,10504.2001953125,2215.909912109375,-400000.0625,-2368.449951171875,-400000.0625,6345.7998046875,-400000.0625
177.9569013118744,-400000.0625,10498.1904296875,2208.610107421875,-400000.0625,-2376.4599609375,-400000.0625,6337.5498046875,-400000.0625
177.96205925941467,-400000.0625,10483.169921875,2196.5,-400000.0625,-2397.389892578125,-400000.0625,6325.14990234375,-400000.0625
177.9677596092224,-400000.0625,10484.8896484375,2197.889892578125,-400000.0625,-2403.550048828125,-400000.0625,6329.10986328125,-400000.0625
177.97355771064758,-400000.0625,10497.240234375,2208.3798828125,-400000.0625,-2407.840087890625,-400000.0625,6340.5,-400000.0625
177.9786319732666,-400000.0625,10504.6796875,2213.340087890625,-400000.0625,-2411.889892578125,-400000.0625,6346.3701171875,-400000.0625
177.9842836856842,-400000.0625,10493.4697265625,2201.93994140625,-400000.0625,-2393.010009765625,-400000.0625,6338.35986328125,-400000.0625
177.98992466926575,-400000.0625,10483.169921875,2194.449951171875,-400000.0625,-2392.719970703125,-400000.0625,6327.33984375,-400000.0625
177.99499130249023,-400000.0625,10485.2197265625,2197.31005859375,-400000.0625,-2403.070068359375,-400000.0625,6329.68017578125,-400000.0625
178.00197339057922,-400000.0625,10489.990234375,2205.52001953125,-400000.0625,-2390.0,-400000.0625,6337.41015625,-400000.0625
178.00792527198792,-400000.0625,10500.33984375,2213.6201171875,-400000.0625,-2390.47998046875,-400000.0625,6346.85009765625,-400000.0625
178.0131938457489,-400000.0625,10493.7998046875,2204.800048828125,-400000.0625,-2405.260009765625,-400000.0625,6340.080078125,-400000.0625
178.0192906856537,-400000.0625,10480.9296875,2194.550048828125,-400000.0625,-2405.1201171875,-400000.0625,6330.6298828125,-400000.0625
178.02530002593994,-400000.0625,10482.599609375,2195.1201171875,-400000.0625,-2387.6201171875,-400000.0625,6333.02001953125,-400000.0625
178.03096270561218,-400000.0625,10495.9501953125,2205.85009765625,-400000.0625,-2379.3701171875,-400000.0625,6344.83984375,-400000.0625
178.038432598114,-400000.0625,10506.6796875,2218.580078125,-400000.0625,-2381.800048828125,-400000.0625,6352.14013671875,-400000.0625
178.04367661476135,-400000.0625,10496.759765625,2211.050048828125,-400000.0625,-2404.739990234375,-400000.0625,6344.080078125,-400000.0625
178.05015015602112,-400000.0625,10486.169921875,2198.27001953125,-400000.0625,-2420.280029296875,-400000.0625,6332.4501953125,-400000.0625
178.0615622997284,-400000.0625,10487.9404296875,2200.030029296875,-400000.0625,-2405.97998046875,-400000.0625,6336.740234375,-400000.0625
178.06879544258118,-400000.0625,10496.330078125,2207.570068359375,-400000.0625,-2399.489990234375,-400000.0625,6345.75,-400000.0625
178.07486295700073,-400000.0625,10504.2900390625,2215.2900390625,-400000.0625,-2388.669921875,-400000.0625,6349.08984375,-400000.0625
178.08102226257324,-400000.0625,10494.759765625,2211.050048828125,-400000.0625,-2384.760009765625,-400000.0625,6339.83984375,-400000.0625
178.09037446975708,-400000.0625,10484.740234375,2198.889892578125,-400000.0625,-2399.5400390625,-400000.0625,6333.8798828125,-400000.0625
178.09591460227966,-400000.0625,10485.7001953125,2200.320068359375,-400000.0625,-2400.639892578125,-400000.0625,6337.97998046875,-400000.0625
178.10183262825012,-400000.0625,10496.5703125,2209.469970703125,-400000.0625,-2388.239990234375,-400000.0625,6346.85009765625,-400000.0625
178.10748195648193,-400000.0625,10502.91015625,2214.860107421875,-400000.0625,-2392.47998046875,-400000.0625,6352.56982421875,-400000.0625
178.11296033859253,-400000.0625,10497.9501953125,2209.469970703125,-400000.0625,-2397.159912109375,-400000.0625,6344.31982421875,-400000.0625
178.11978244781494,-400000.0625,10488.8896484375,2200.27001953125,-400000.0625,-2396.489990234375,-400000.0625,6333.64013671875,-400000.0625
178.12530708312988,-400000.0625,10486.8896484375,2197.409912109375,-400000.0625,-2397.010009765625,-400000.0625,6337.06982421875,-400000.0625
178.13069653511047,-400000.0625,10500.580078125,2208.760009765625,-400000.0625,-2385.429931640625,-400000.0625,6344.83984375,-400000.0625
178.13862013816833,-400000.0625,10504.0595703125,2215.81005859375,-400000.0625,-2398.35009765625,-400000.0625,6352.14013671875,-400000.0625
178.14438557624817,-400000.0625,10494.849609375,2209.949951171875,-400000.0625,-2409.699951171875,-400000.0625,6344.3701171875,-400000.0625
178.1502296924591,-400000.0625,10488.23046875,2201.3701171875,-400000.0625,-2397.5400390625,-400000.0625,6332.5400390625,-400000.0625
178.16126418113708,-400000.0625,10490.4697265625,2201.64990234375,-400000.0625,-2387.6201171875,-400000.0625,6336.93017578125,-400000.0625
178.1675899028778,-400000.0625,10498.91015625,2209.330078125,-400000.0625,-2385.7099609375,-400000.0625,6347.75,-400000.0625
178.17536187171936,-400000.0625,10513.740234375,2221.489990234375,-400000.0625,-2387.669921875,-400000.0625,6354.85986328125,-400000.0625
178.18065357208252,-400000.0625,10503.48046875,2212.760009765625,-400000.0625,-2408.1201171875,-400000.0625,6344.4599609375,-400000.0625
178.18693017959595,-400000.0625,10487.0302734375,2195.7900390625,-400000.0625,-2413.419921875,-400000.0625,6331.830078125,-400000.0625
178.1926646232605,-400000.0625,10488.3203125,2198.409912109375,-400000.0625,-2392.2900390625,-400000.0625,6329.8701171875,-400000.0625
178.1979637145996,-400000.0625,10499.5302734375,2211.760009765625,-400000.0625,-2379.510009765625,-400000.0625,6341.509765625,-400000.0625
178.20406246185303,-400000.0625,10512.1103515625,2221.8701171875,-400000.0625,-2396.5400390625,-400000.0625,6350.56982421875,-400000.0625
178.20951747894287,-400000.0625,10507.0595703125,2214.81005859375,-400000.0625,-2405.929931640625,-400000.0625,6342.7900390625,-400000.0625
178.21469378471375,-400000.0625,10484.7001953125,2195.5,-400000.0625,-2389.3798828125,-400000.0625,6330.6298828125,-400000.0625
178.22085642814636,-400000.0625,10486.4599609375,2198.7900390625,-400000.0625,-2377.93994140625,-400000.0625,6330.39990234375,-400000.0625
178.2261950969696,-400000.0625,10499.33984375,2210.52001953125,-400000.0625,-2374.510009765625,-400000.0625,6341.22021484375,-400000.0625
178.2313516139984,-400000.0625,10507.490234375,2218.199951171875,-400000.0625,-2382.610107421875,-400000.0625,6350.47021484375,-400000.0625
178.24165177345276,-400000.0625,10501.7197265625,2213.139892578125,-400000.0625,-2382.85009765625,-400000.0625,6343.7900390625,-400000.0625
178.247065782547,-400000.0625,10483.169921875,2196.7900390625,-400000.0625,-2396.5400390625,-400000.0625,6332.68017578125,-400000.0625
178.2539451122284,-400000.0625,10488.3203125,2201.93994140625,-400000.0625,-2405.97998046875,-400000.0625,6333.06982421875,-400000.0625
178.26541471481323,-400000.0625,10497.0,2208.52001953125,-400000.0625,-2410.699951171875,-400000.0625,6344.75,-400000.0625
178.27230072021484,-400000.0625,10495.7099609375,2209.0,-400000.0625,-2407.030029296875,-400000.0625,6350.56982421875,-400000.0625
178.27824234962463,-400000.0625,10495.08984375,2206.989990234375,-400000.0625,-2392.47998046875,-400000.0625,6340.31005859375,-400000.0625
178.28498244285583,-400000.0625,10489.3701171875,2199.360107421875,-400000.0625,-2389.2900390625,-400000.0625,6327.2998046875,-400000.0625
178.29395127296448,-400000.0625,10487.83984375,2199.320068359375,-400000.0625,-2388.10009765625,-400000.0625,6328.490234375,-400000.0625
178.3017497062683,-400000.0625,10496.759765625,2210.0,-400000.0625,-2386.669921875,-400000.0625,6340.4599609375,-400000.0625
178.31379437446594,-400000.0625,10506.349609375,2218.679931640625,-400000.0625,-2382.330078125,-400000.0625,6350.330078125,-400000.0625
178.32248663902283,-400000.0625,10497.8095703125,2213.139892578125,-400000.0625,-2390.14990234375,-400000.0625,6346.22998046875,-400000.0625
178.32819414138794,-400000.0625,10486.75,2201.989990234375,-400000.0625,-2407.64990234375,-400000.0625,6335.06982421875,-400000.0625
178.3342263698578,-400000.0625,10489.0400390625,2203.659912109375,-400000.0625,-2406.5,-400000.0625,6331.77978515625,-400000.0625
178.34137558937073,-400000.0625,10498.240234375,2212.3798828125,-400000.0625,-2391.77001953125,-400000.0625,6343.64990234375,-400000.0625
178.34690403938293,-400000.0625,10504.5302734375,2217.43994140625,-400000.0625,-2378.320068359375,-400000.0625,6349.9501953125,-400000.0625
178.35382056236267,-400000.0625,10495.66015625,2210.429931640625,-400000.0625,-2382.949951171875,-400000.0625,6340.93017578125,-400000.0625
178.3599784374237,-400000.0625,10481.3095703125,2195.929931640625,-400000.0625,-2394.25,-400000.0625,6327.6298828125,-400000.0625
178.37300777435303,-400000.0625,10485.3203125,2198.030029296875,-400000.0625,-2401.969970703125,-400000.0625,6332.64013671875,-400000.0625
178.37882018089294,-400000.0625,10498.4296875,2211.669921875,-400000.0625,-2410.93994140625,-400000.0625,6346.85009765625,-400000.0625
178.38508868217468,-400000.0625,10505.4404296875,2220.110107421875,-400000.0625,-2396.919921875,-400000.0625,6351.419921875,-400000.0625
178.39093661308289,-400000.0625,10496.2802734375,2209.330078125,-400000.0625,-2395.43994140625,-400000.0625,6342.35986328125,-400000.0625
178.3964171409607,-400000.0625,10486.599609375,2199.550048828125,-400000.0625,-2394.489990234375,-400000.0625,6331.06005859375,-400000.0625
178.40306973457336,-400000.0625,10488.080078125,2203.0400390625,-400000.0625,-2379.27001953125,-400000.0625,6331.64013671875,-400000.0625
178.40878129005432,-400000.0625,10496.330078125,2212.18994140625,-400000.0625,-2379.510009765625,-400000.0625,6340.93017578125,-400000.0625
178.41411876678467,-400000.0625,10503.2001953125,2217.909912109375,-400000.0625,-2388.81005859375,-400000.0625,6344.31982421875,-400000.0625
178.42183303833008,-400000.0625,10493.419921875,2206.179931640625,-400000.0625,-2396.6298828125,-400000.0625,6335.16015625,-400000.0625
178.4287965297699,-400000.0625,10482.1201171875,2194.830078125,-400000.0625,-2406.5,-400000.0625,6322.52978515625,-400000.0625
178.4382381439209,-400000.0625,10483.41015625,2195.169921875,-400000.0625,-2411.179931640625,-400000.0625,6325.669921875,-400000.0625
178.4437153339386,-400000.0625,10492.759765625,2205.179931640625,-400000.0625,-2409.739990234375,-400000.0625,6335.58984375,-400000.0625
178.45143127441406,-400000.0625,10497.9501953125,2211.330078125,-400000.0625,-2396.43994140625,-400000.0625,6341.740234375,-400000.0625
178.45732235908508,-400000.0625,10485.83984375,2200.56005859375,-400000.0625,-2405.97998046875,-400000.0625,6333.35009765625,-400000.0625
178.46283841133118,-400000.0625,10473.8701171875,2190.39990234375,-400000.0625,-2407.60009765625,-400000.0625,6324.2001953125,-400000.0625
178.47815418243408,-400000.0625,10477.5400390625,2193.1201171875,-400000.0625,-2403.780029296875,-400000.0625,6325.669921875,-400000.0625
178.48426747322083,-400000.0625,10491.2802734375,2202.840087890625,-400000.0625,-2392.77001953125,-400000.0625,6340.97998046875,-400000.0625
178.4916214942932,-400000.0625,10497.1396484375,2207.760009765625,-400000.0625,-2402.31005859375,-400000.0625,6351.08984375,-400000.0625
178.49727964401245,-400000.0625,10485.080078125,2198.31005859375,-400000.0625,-2407.31005859375,-400000.0625,6340.93017578125,-400000.0625
178.50493168830872,-400000.0625,10467.669921875,2183.14990234375,-400000.0625,-2408.360107421875,-400000.0625,6329.39013671875,-400000.0625
178.5104479789734,-400000.0625,10467.3896484375,2184.679931640625,-400000.0625,-2398.969970703125,-400000.0625,6325.77001953125,-400000.0625
178.51587176322937,-400000.0625,10480.2099609375,2195.02001953125,-400000.0625,-2390.669921875,-400000.0625,6331.58984375,-400000.0625
178.5233097076416,-400000.0625,10485.98046875,2201.610107421875,-400000.0625,-2385.7099609375,-400000.0625,6338.68994140625,-400000.0625
178.52873539924622,-400000.0625,10481.4501953125,2199.1298828125,-400000.0625,-2403.02001953125,-400000.0625,6332.58984375,-400000.0625
178.53520894050598,-400000.0625,10475.1103515625,2191.2099609375,-400000.0625,-2422.6201171875,-400000.0625,6324.009765625,-400000.0625
178.54107999801636,-400000.0625,10476.5400390625,2192.070068359375,-400000.0625,-2417.56005859375,-400000.0625,6328.5400390625,-400000.0625
178.5468499660492,-400000.0625,10487.1298828125,2204.610107421875,-400000.0625,-2403.449951171875,-400000.0625,6341.740234375,-400000.0625
178.55302333831787,-400000.0625,10487.990234375,2209.18994140625,-400000.0625,-2378.989990234375,-400000.0625,6343.169921875,-400000.0625
178.55884861946106,-400000.0625,10480.6904296875,2201.27001953125,-400000.0625,-2387.909912109375,-400000.0625,6333.58984375,-400000.0625
178.56409692764282,-400000.0625,10474.6396484375,2190.300048828125,-400000.0625,-2409.510009765625,-400000.0625,6322.9599609375,-400000.0625
178.57810425758362,-400000.0625,10474.7802734375,2190.780029296875,-400000.0625,-2407.739990234375,-400000.0625,6327.8701171875,-400000.0625
178.5849175453186,-400000.0625,10485.3203125,2201.840087890625,-400000.0625,-2402.070068359375,-400000.0625,6341.35986328125,-400000.0625
178.5914967060089,-400000.0625,10490.080078125,2207.22998046875,-400000.0625,-2386.280029296875,-400000.0625,6342.60009765625,-400000.0625
178.5969843864441,-400000.0625,10479.3603515625,2198.4599609375,-400000.0625,-2384.469970703125,-400000.0625,6333.2998046875,-400000.0625
178.6045527458191,-400000.0625,10470.8203125,2186.679931640625,-400000.0625,-2401.260009765625,-400000.0625,6323.81982421875,-400000.0625
178.61005473136902,-400000.0625,10474.349609375,2188.2099609375,-400000.0625,-2401.39990234375,-400000.0625,6324.91015625,-400000.0625
178.61644577980042,-400000.0625,10483.7001953125,2197.699951171875,-400000.0625,-2405.7900390625,-400000.0625,6336.5498046875,-400000.0625
178.62267088890076,-400000.0625,10490.75,2208.85009765625,-400000.0625,-2408.1201171875,-400000.0625,6346.60986328125,-400000.0625
178.62818431854248,-400000.0625,10487.509765625,2207.090087890625,-400000.0625,-2409.7900390625,-400000.0625,6340.41015625,-400000.0625
178.63620281219482,-400000.0625,10473.009765625,2193.260009765625,-400000.0625,-2408.550048828125,-400000.0625,6329.2001953125,-400000.0625
178.64281940460205,-400000.0625,10476.8798828125,2192.969970703125,-400000.0625,-2407.409912109375,-400000.0625,6331.39990234375,-400000.0625
178.64959383010864,-400000.0625,10488.650390625,2205.3701171875,-400000.0625,-2378.889892578125,-400000.0625,6335.8798828125,-400000.0625
178.65667176246643,-400000.0625,10492.9501953125,2209.570068359375,-400000.0625,-2377.030029296875,-400000.0625,6343.509765625,-400000.0625
178.6628339290619,-400000.0625,10485.080078125,2200.56005859375,-400000.0625,-2396.199951171875,-400000.0625,6338.64013671875,-400000.0625
178.67281317710876,-400000.0625,10473.7802734375,2189.969970703125,-400000.0625,-2404.550048828125,-400000.0625,6325.669921875,-400000.0625
178.6872239112854,-400000.0625,10471.4404296875,2188.919921875,-400000.0625,-2403.449951171875,-400000.0625,6327.2001953125,-400000.0625
178.69427251815796,-400000.0625,10484.599609375,2204.080078125,-400000.0625,-2398.679931640625,-400000.0625,6336.1201171875,-400000.0625
178.70442080497742,-400000.0625,10494.419921875,2213.18994140625,-400000.0625,-2392.860107421875,-400000.0625,6342.7900390625,-400000.0625
178.7118694782257,-400000.0625,10487.509765625,2203.610107421875,-400000.0625,-2402.739990234375,-400000.0625,6336.58984375,-400000.0625
178.72011303901672,-400000.0625,10474.0595703125,2191.929931640625,-400000.0625,-2413.320068359375,-400000.0625,6327.2001953125,-400000.0625
178.72658252716064,-400000.0625,10473.0595703125,2193.39990234375,-400000.0625,-2412.3701171875,-400000.0625,6327.8701171875,-400000.0625
178.73291659355164,-400000.0625,10487.080078125,2204.56005859375,-400000.0625,-2395.110107421875,-400000.0625,6334.2099609375,-400000.0625
178.73985862731934,-400000.0625,10494.6103515625,2213.050048828125,-400000.0625,-2384.3798828125,-400000.0625,6344.4599609375,-400000.0625
178.74571776390076,-400000.0625,10485.5498046875,2205.52001953125,-400000.0625,-2400.449951171875,-400000.0625,6337.31005859375,-400000.0625
178.7527141571045,-400000.0625,10468.25,2191.5400390625,-400000.0625,-2412.889892578125,-400000.0625,6323.47998046875,-400000.0625
178.75854349136353,-400000.0625,10469.8203125,2190.02001953125,-400000.0625,-2416.800048828125,-400000.0625,6327.2001953125,-400000.0625
178.7640082836151,-400000.0625,10483.599609375,2203.1298828125,-400000.0625,-2399.2099609375,-400000.0625,6340.89013671875,-400000.0625
178.77277541160583,-400000.0625,10491.3701171875,2208.52001953125,-400000.0625,-2390.81005859375,-400000.0625,6346.0400390625,-400000.0625
178.77911019325256,-400000.0625,10486.26953125,2201.699951171875,-400000.0625,-2393.10009765625,-400000.0625,6337.2099609375,-400000.0625
178.79148888587952,-400000.0625,10477.3095703125,2195.739990234375,-400000.0625,-2404.639892578125,-400000.0625,6325.6298828125,-400000.0625
178.7970519065857,-400000.0625,10482.98046875,2201.93994140625,-400000.0625,-2404.169921875,-400000.0625,6329.580078125,-400000.0625
178.808091878891,-400000.0625,10494.1904296875,2210.760009765625,-400000.0625,-2394.820068359375,-400000.0625,6343.75,-400000.0625
178.81366801261902,-400000.0625,10497.3798828125,2215.050048828125,-400000.0625,-2402.8798828125,-400000.0625,6352.3798828125,-400000.0625
178.82333064079285,-400000.0625,10489.9404296875,2208.280029296875,-400000.0625,-2410.56005859375,-400000.0625,6342.080078125,-400000.0625
178.8298261165619,-400000.0625,10477.7802734375,2195.219970703125,-400000.0625,-2407.4599609375,-400000.0625,6332.10986328125,-400000.0625
178.8369698524475,-400000.0625,10477.01953125,2195.8798828125,-400000.0625,-2400.590087890625,-400000.0625,6333.39990234375,-400000.0625
178.8427858352661,-400000.0625,10481.2197265625,2202.179931640625,-400000.0625,-2395.43994140625,-400000.0625,6341.509765625,-400000.0625
178.84835171699524,-400000.0625,10494.66015625,2213.6201171875,-400000.0625,-2388.330078125,-400000.0625,6350.7998046875,-400000.0625
178.85447454452515,-400000.0625,10490.4697265625,2210.3798828125,-400000.0625,-2398.300048828125,-400000.0625,6342.080078125,-400000.0625
178.8598928451538,-400000.0625,10477.259765625,2198.030029296875,-400000.0625,-2409.7900390625,-400000.0625,6325.2900390625,-400000.0625
178.86530566215515,-400000.0625,10481.740234375,2200.840087890625,-400000.0625,-2397.389892578125,-400000.0625,6329.35009765625,-400000.0625
178.8732089996338,-400000.0625,10487.41015625,2205.0400390625,-400000.0625,-2405.449951171875,-400000.0625,6336.5498046875,-400000.0625
178.87920880317688,-400000.0625,10486.990234375,2209.139892578125,-400000.0625,-2400.969970703125,-400000.0625,6338.5,-400000.0625
178.89171290397644,-400000.0625,10478.01953125,2201.3701171875,-400000.0625,-2393.77001953125,-400000.0625,6334.35009765625,-400000.0625
178.89702939987183,-400000.0625,10469.099609375,2189.260009765625,-400000.0625,-2394.530029296875,-400000.0625,6325.669921875,-400000.0625
178.9033887386322,-400000.0625,10471.76953125,2188.679931640625,-400000.0625,-2408.1201171875,-400000.0625,6325.9599609375,-400000.0625
178.909765958786,-400000.0625,10480.830078125,2198.169921875,-400000.0625,-2412.800048828125,-400000.0625,6336.8798828125,-400000.0625
178.91507077217102,-400000.0625,10485.8896484375,2205.52001953125,-400000.0625,-2399.969970703125,-400000.0625,6341.93017578125,-400000.0625
178.92174291610718,-400000.0625,10480.98046875,2201.75,-400000.0625,-2394.909912109375,-400000.0625,6335.259765625,-400000.0625
178.92817187309265,-400000.0625,10473.349609375,2188.919921875,-400000.0625,-2409.080078125,-400000.0625,6325.39013671875,-400000.0625
178.9343798160553,-400000.0625,10469.8701171875,2189.830078125,-400000.0625,-2416.090087890625,-400000.0625,6326.9599609375,-400000.0625
178.94019532203674,-400000.0625,10475.919921875,2197.409912109375,-400000.0625,-2402.39990234375,-400000.0625,6335.8798828125,-400000.0625
178.94739508628845,-400000.0625,10483.4599609375,2202.4599609375,-400000.0625,-2402.830078125,-400000.0625,6339.259765625,-400000.0625
178.95298671722412,-400000.0625,10476.16015625,2192.639892578125,-400000.0625,-2419.280029296875,-400000.0625,6330.43994140625,-400000.0625
178.95815515518188,-400000.0625,10461.0498046875,2181.010009765625,-400000.0625,-2431.489990234375,-400000.0625,6320.759765625,-400000.0625
178.96319031715393,-400000.0625,10464.0,2183.489990234375,-400000.0625,-2411.699951171875,-400000.0625,6323.77001953125,-400000.0625
178.97047781944275,-400000.0625,10477.4501953125,2197.080078125,-400000.0625,-2390.429931640625,-400000.0625,6333.58984375,-400000.0625
178.9758493900299,-400000.0625,10482.5,2203.419921875,-400000.0625,-2387.6201171875,-400000.0625,6345.02978515625,-400000.0625
178.98086380958557,-400000.0625,10481.7900390625,2201.510009765625,-400000.0625,-2400.159912109375,-400000.0625,6339.5498046875,-400000.0625
178.9915828704834,-400000.0625,10472.349609375,2192.780029296875,-400000.0625,-2416.469970703125,-400000.0625,6329.2998046875,-400000.0625
178.99694418907166,-400000.0625,10469.150390625,2189.830078125,-400000.0625,-2415.85009765625,-400000.0625,6326.91015625,-400000.0625
179.00440430641174,-400000.0625,10473.4404296875,2197.219970703125,-400000.0625,-2403.969970703125,-400000.0625,6333.16015625,-400000.0625
179.01061749458313,-400000.0625,10483.26953125,2205.419921875,-400000.0625,-2391.6201171875,-400000.0625,6338.64013671875,-400000.0625
179.01578664779663,-400000.0625,10479.6904296875,2200.169921875,-400000.0625,-2401.39990234375,-400000.0625,6333.72998046875,-400000.0625
179.02351760864258,-400000.0625,10470.1103515625,2187.300048828125,-400000.0625,-2412.030029296875,-400000.0625,6323.9599609375,-400000.0625
179.02880811691284,-400000.0625,10470.490234375,2188.35009765625,-400000.0625,-2416.0400390625,-400000.0625,6327.2001953125,-400000.0625
179.03691172599792,-400000.0625,10479.9296875,2200.75,-400000.0625,-2405.739990234375,-400000.0625,6334.97021484375,-400000.0625
179.0435755252838,-400000.0625,10485.1298828125,2205.090087890625,-400000.0625,-2377.840087890625,-400000.0625,6339.259765625,-400000.0625
179.04901266098022,-400000.0625,10478.400390625,2198.1201171875,-400000.0625,-2395.199951171875,-400000.0625,6334.259765625,-400000.0625
179.05467915534973,-400000.0625,10467.7197265625,2188.300048828125,-400000.0625,-2405.60009765625,-400000.0625,6324.9599609375,-400000.0625
179.05980443954468,-400000.0625,10467.48046875,2186.199951171875,-400000.0625,-2408.360107421875,-400000.0625,6323.10009765625,-400000.0625
179.06460738182068,-400000.0625,10476.58984375,2194.31005859375,-400000.0625,-2398.679931640625,-400000.0625,6327.2998046875,-400000.0625
179.06461644172668,-400000.0625,10481.0302734375,2200.080078125,-400000.0625,-2392.10009765625,-400000.0625,6335.77978515625,-400000.0625
179.064621925354,-400000.0625,10475.6396484375,2195.02001953125,-400000.0625,-2402.780029296875,-400000.0625,6333.64013671875,-400000.0625
179.06462621688843,-400000.0625,10467.9599609375,2185.8701171875,-400000.0625,-2402.639892578125,-400000.0625,6320.72021484375,-400000.0625
179.06463050842285,-400000.0625,10469.2001953125,2188.159912109375,-400000.0625,-2404.639892578125,-400000.0625,6324.240234375,-400000.0625
179.06463503837585,-400000.0625,10477.9697265625,2200.169921875,-400000.0625,-2408.7900390625,-400000.0625,6338.5498046875,-400000.0625
179.06463980674744,-400000.0625,10484.8896484375,2207.419921875,-400000.0625,-2394.489990234375,-400000.0625,6342.22021484375,-400000.0625
179.06464385986328,-400000.0625,10480.5498046875,2203.510009765625,-400000.0625,-2394.9599609375,-400000.0625,6331.58984375,-400000.0625
179.0646493434906,-400000.0625,10468.3896484375,2190.639892578125,-400000.0625,-2403.780029296875,-400000.0625,6320.52001953125,-400000.0625
179.06465363502502,-400000.0625,10467.48046875,2190.300048828125,-400000.0625,-2400.110107421875,-400000.0625,6322.669921875,-400000.0625
179.06465768814087,-400000.0625,10480.1201171875,2200.3701171875,-400000.0625,-2405.449951171875,-400000.0625,6333.06982421875,-400000.0625
179.06466221809387,-400000.0625,10486.169921875,2205.7099609375,-400000.0625,-2404.590087890625,-400000.0625,6339.02978515625,-400000.0625
179.06466674804688,-400000.0625,10475.73046875,2197.219970703125,-400000.0625,-2408.840087890625,-400000.0625,6336.2099609375,-400000.0625
179.06467080116272,-400000.0625,10465.099609375,2184.580078125,-400000.0625,-2406.8798828125,-400000.0625,6322.3798828125,-400000.0625
179.06467509269714,-400000.0625,10469.7197265625,2186.820068359375,-400000.0625,-2386.3798828125,-400000.0625,6323.39013671875,-400000.0625
179.064679145813,-400000.0625,10479.3603515625,2200.840087890625,-400000.0625,-2376.510009765625,-400000.0625,6336.97998046875,-400000.0625
179.0646834373474,-400000.0625,10486.3203125,2210.18994140625,-400000.0625,-2388.669921875,-400000.0625,6344.75,-400000.0625
179.06468749046326,-400000.0625,10481.4501953125,2203.989990234375,-400000.0625,-2402.5,-400000.0625,6338.41015625,-400000.0625
179.06469130516052,-400000.0625,10468.150390625,2189.110107421875,-400000.0625,-2406.260009765625,-400000.0625,6325.81982421875,-400000.0625
179.06469535827637,-400000.0625,10463.759765625,2189.159912109375,-400000.0625,-2408.219970703125,-400000.0625,6326.8701171875,-400000.0625
179.0646994113922,-400000.0625,10472.4404296875,2196.60009765625,-400000.0625,-2414.080078125,-400000.0625,6334.68994140625,-400000.0625
179.06470346450806,-400000.0625,10482.98046875,2204.1298828125,-400000.0625,-2410.7900390625,-400000.0625,6341.740234375,-400000.0625
179.06470775604248,-400000.0625,10477.0703125,2198.739990234375,-400000.0625,-2411.320068359375,-400000.0625,6335.39990234375,-400000.0625
179.06471180915833,-400000.0625,10468.48046875,2186.43994140625,-400000.0625,-2400.969970703125,-400000.0625,6322.77001953125,-400000.0625
179.0647156238556,-400000.0625,10466.8603515625,2189.110107421875,-400000.0625,-2393.77001953125,-400000.0625,6324.85986328125,-400000.0625
179.06471967697144,-400000.0625,10475.349609375,2200.56005859375,-400000.0625,-2395.14990234375,-400000.0625,6333.39990234375,-400000.0625
179.06472373008728,-400000.0625,10483.169921875,2208.89990234375,-400000.0625,-2386.760009765625,-400000.0625,6342.22021484375,-400000.0625
179.06472873687744,-400000.0625,10478.5,2202.27001953125,-400000.0625,-2399.159912109375,-400000.0625,6339.1201171875,-400000.0625
179.0647325515747,-400000.0625,10472.4404296875,2192.969970703125,-400000.0625,-2405.449951171875,-400000.0625,6323.85986328125,-400000.0625
179.06473660469055,-400000.0625,10475.490234375,2197.1201171875,-400000.0625,-2405.68994140625,-400000.0625,6325.43994140625,-400000.0625
179.0647406578064,-400000.0625,10479.830078125,2204.0400390625,-400000.0625,-2397.590087890625,-400000.0625,6335.259765625,-400000.0625
179.06474494934082,-400000.0625,10487.6103515625,2210.760009765625,-400000.0625,-2391.909912109375,-400000.0625,6342.5498046875,-400000.0625
179.06474900245667,-400000.0625,10480.5,2203.659912109375,-400000.0625,-2402.449951171875,-400000.0625,6334.93017578125,-400000.0625
179.0647530555725,-400000.0625,10467.8203125,2190.02001953125,-400000.0625,-2402.1201171875,-400000.0625,6321.3798828125,-400000.0625
179.06475734710693,-400000.0625,10472.25,2191.2099609375,-400000.0625,-2398.919921875,-400000.0625,6323.72021484375,-400000.0625
179.0647611618042,-400000.0625,10478.3095703125,2199.75,-400000.0625,-2397.72998046875,-400000.0625,6334.5,-400000.0625
179.06476521492004,-400000.0625,10486.599609375,2209.090087890625,-400000.0625,-2385.760009765625,-400000.0625,6339.83984375,-400000.0625
179.0647690296173,-400000.0625,10480.5,2205.22998046875,-400000.0625,-2401.159912109375,-400000.0625,6334.77978515625,-400000.0625
179.06477332115173,-400000.0625,10467.240234375,2193.260009765625,-400000.0625,-2406.169921875,-400000.0625,6325.81982421875,-400000.0625
179.064777135849,-400000.0625,10470.1103515625,2194.31005859375,-400000.0625,-2410.360107421875,-400000.0625,6329.35009765625,-400000.0625
179.06478118896484,-400000.0625,10477.6904296875,2202.1298828125,-400000.0625,-2399.8701171875,-400000.0625,6337.64013671875,-400000.0625
179.0647852420807,-400000.0625,10486.1298828125,2212.0,-400000.0625,-2393.25,-400000.0625,6347.27978515625,-400000.0625
179.06478929519653,-400000.0625,10481.6396484375,2206.52001953125,-400000.0625,-2398.110107421875,-400000.0625,6343.41015625,-400000.0625
179.0647931098938,-400000.0625,10471.6796875,2194.68994140625,-400000.0625,-2408.4599609375,-400000.0625,6330.06005859375,-400000.0625
179.06479787826538,-400000.0625,10471.73046875,2195.360107421875,-400000.0625,-2395.199951171875,-400000.0625,6325.0498046875,-400000.0625
179.06480169296265,-400000.0625,10480.9296875,2205.7099609375,-400000.0625,-2381.1298828125,-400000.0625,6336.31005859375,-400000.0625
179.0648057460785,-400000.0625,10487.1298828125,2210.330078125,-400000.0625,-2376.030029296875,-400000.0625,6343.64990234375,-400000.0625
179.06480979919434,-400000.0625,10481.3095703125,2205.89990234375,-400000.0625,-2380.7099609375,-400000.0625,6332.5400390625,-400000.0625
179.07101964950562,-400000.0625,10468.8701171875,2192.1201171875,-400000.0625,-2399.159912109375,-400000.0625,6322.33984375,-400000.0625
179.07675313949585,-400000.0625,10469.33984375,2192.35009765625,-400000.0625,-2413.179931640625,-400000.0625,6326.43994140625,-400000.0625
179.08315563201904,-400000.0625,10481.259765625,2203.610107421875,-400000.0625,-2399.39990234375,-400000.0625,6334.58984375,-400000.0625
179.09796810150146,-400000.0625,10486.3203125,2208.760009765625,-400000.0625,-2381.56005859375,-400000.0625,6345.56005859375,-400000.0625
179.10726690292358,-400000.0625,10478.0703125,2200.030029296875,-400000.0625,-2401.639892578125,-400000.0625,6341.4599609375,-400000.0625
179.11260104179382,-400000.0625,10468.8701171875,2188.72998046875,-400000.0625,-2431.489990234375,-400000.0625,6331.35009765625,-400000.0625
179.1217098236084,-400000.0625,10466.4296875,2187.919921875,-400000.0625,-2434.35009765625,-400000.0625,6329.2001953125,-400000.0625
179.12762141227722,-400000.0625,10477.16015625,2200.169921875,-400000.0625,-2394.530029296875,-400000.0625,6334.02001953125,-400000.0625
179.13375186920166,-400000.0625,10487.4599609375,2209.570068359375,-400000.0625,-2373.31005859375,-400000.0625,6343.64990234375,-400000.0625
179.14003729820251,-400000.0625,10481.5,2201.1298828125,-400000.0625,-2381.0400390625,-400000.0625,6339.169921875,-400000.0625
179.14539766311646,-400000.0625,10464.8095703125,2189.5400390625,-400000.0625,-2400.159912109375,-400000.0625,6326.14990234375,-400000.0625
179.15221095085144,-400000.0625,10463.1904296875,2191.260009765625,-400000.0625,-2413.699951171875,-400000.0625,6324.2001953125,-400000.0625
179.15780234336853,-400000.0625,10471.2998046875,2197.7900390625,-400000.0625,-2407.739990234375,-400000.0625,6334.68994140625,-400000.0625
179.1628758907318,-400000.0625,10480.3603515625,2204.56005859375,-400000.0625,-2390.10009765625,-400000.0625,6339.60009765625,-400000.0625
179.16860103607178,-400000.0625,10475.1103515625,2202.030029296875,-400000.0625,-2382.330078125,-400000.0625,6330.5400390625,-400000.0625
179.1743381023407,-400000.0625,10465.91015625,2188.300048828125,-400000.0625,-2401.2099609375,-400000.0625,6322.33984375,-400000.0625
179.17961716651917,-400000.0625,10459.900390625,2184.489990234375,-400000.0625,-2407.550048828125,-400000.0625,6323.9599609375,-400000.0625
179.18620109558105,-400000.0625,10471.349609375,2196.5,-400000.0625,-2391.9599609375,-400000.0625,6332.58984375,-400000.0625
179.19841361045837,-400000.0625,10483.83984375,2206.989990234375,-400000.0625,-2394.25,-400000.0625,6340.7001953125,-400000.0625
179.204519033432,-400000.0625,10476.73046875,2199.889892578125,-400000.0625,-2405.5,-400000.0625,6333.259765625,-400000.0625
179.21058201789856,-400000.0625,10461.0,2186.919921875,-400000.0625,-2403.590087890625,-400000.0625,6319.6201171875,-400000.0625
179.21727180480957,-400000.0625,10460.66015625,2186.35009765625,-400000.0625,-2390.580078125,-400000.0625,6317.08984375,-400000.0625
179.22348761558533,-400000.0625,10470.8203125,2196.739990234375,-400000.0625,-2399.25,-400000.0625,6331.06005859375,-400000.0625
179.22911190986633,-400000.0625,10476.2998046875,2201.889892578125,-400000.0625,-2403.31005859375,-400000.0625,6340.60009765625,-400000.0625
179.23528838157654,-400000.0625,10470.150390625,2194.2099609375,-400000.0625,-2400.590087890625,-400000.0625,6331.919921875,-400000.0625
179.24094891548157,-400000.0625,10456.23046875,2183.719970703125,-400000.0625,-2410.1298828125,-400000.0625,6317.89990234375,-400000.0625
179.2460687160492,-400000.0625,10456.51953125,2182.909912109375,-400000.0625,-2404.31005859375,-400000.0625,6319.56982421875,-400000.0625
179.25231170654297,-400000.0625,10473.9697265625,2200.27001953125,-400000.0625,-2382.56005859375,-400000.0625,6334.58984375,-400000.0625
179.25851440429688,-400000.0625,10481.0703125,2208.610107421875,-400000.0625,-2388.949951171875,-400000.0625,6343.169921875,-400000.0625
179.2636637687683,-400000.0625,10476.1103515625,2201.840087890625,-400000.0625,-2404.8798828125,-400000.0625,6332.8798828125,-400000.0625
179.27069115638733,-400000.0625,10463.669921875,2190.260009765625,-400000.0625,-2405.260009765625,-400000.0625,6323.10009765625,-400000.0625
179.27633380889893,-400000.0625,10463.1904296875,2192.449951171875,-400000.0625,-2401.449951171875,-400000.0625,6323.72021484375,-400000.0625
179.28232789039612,-400000.0625,10475.73046875,2205.75,-400000.0625,-2405.7900390625,-400000.0625,6334.259765625,-400000.0625
179.28894138336182,-400000.0625,10481.8798828125,2209.89990234375,-400000.0625,-2401.919921875,-400000.0625,6340.31005859375,-400000.0625
179.29974746704102,-400000.0625,10474.830078125,2203.080078125,-400000.0625,-2388.760009765625,-400000.0625,6334.830078125,-400000.0625
179.31324458122253,-400000.0625,10462.0498046875,2191.639892578125,-400000.0625,-2395.530029296875,-400000.0625,6324.91015625,-400000.0625
179.3233983516693,-400000.0625,10464.91015625,2193.830078125,-400000.0625,-2398.8701171875,-400000.0625,6327.2001953125,-400000.0625
179.32947897911072,-400000.0625,10478.6396484375,2202.840087890625,-400000.0625,-2389.050048828125,-400000.0625,6337.830078125,-400000.0625
179.33608651161194,-400000.0625,10485.3203125,2209.139892578125,-400000.0625,-2388.429931640625,-400000.0625,6344.1298828125,-400000.0625
179.34220051765442,-400000.0625,10476.5,2202.320068359375,-400000.0625,-2401.39990234375,-400000.0625,6338.35986328125,-400000.0625
179.3475947380066,-400000.0625,10465.669921875,2190.590087890625,-400000.0625,-2416.7099609375,-400000.0625,6323.6201171875,-400000.0625
179.35449075698853,-400000.0625,10463.5703125,2190.02001953125,-400000.0625,-2416.469970703125,-400000.0625,6325.14990234375,-400000.0625
179.3599886894226,-400000.0625,10471.580078125,2200.889892578125,-400000.0625,-2389.47998046875,-400000.0625,6338.5,-400000.0625
179.36538457870483,-400000.0625,10484.3603515625,2210.669921875,-400000.0625,-2391.6201171875,-400000.0625,6345.7998046875,-400000.0625
179.37173891067505,-400000.0625,10479.58984375,2202.030029296875,-400000.0625,-2412.1298828125,-400000.0625,6337.06982421875,-400000.0625
179.37704801559448,-400000.0625,10463.8603515625,2187.39990234375,-400000.0625,-2410.1298828125,-400000.0625,6324.47998046875,-400000.0625
179.38233995437622,-400000.0625,10459.330078125,2182.14990234375,-400000.0625,-2399.72998046875,-400000.0625,6320.91015625,-400000.0625
179.38865971565247,-400000.0625,10469.580078125,2194.39990234375,-400000.0625,-2395.9599609375,-400000.0625,6329.68017578125,-400000.0625
179.3939893245697,-400000.0625,10476.16015625,2201.889892578125,-400000.0625,-2388.909912109375,-400000.0625,6336.2099609375,-400000.0625
179.4059386253357,-400000.0625,10471.76953125,2194.7900390625,-400000.0625,-2390.47998046875,-400000.0625,6329.8701171875,-400000.0625
179.41166591644287,-400000.0625,10459.4697265625,2185.72998046875,-400000.0625,-2400.260009765625,-400000.0625,6317.81005859375,-400000.0625
179.4184787273407,-400000.0625,10457.1796875,2183.14990234375,-400000.0625,-2399.590087890625,-400000.0625,6316.47021484375,-400000.0625
179.42457270622253,-400000.0625,10467.8203125,2193.639892578125,-400000.0625,-2403.39990234375,-400000.0625,6329.490234375,-400000.0625
179.43080139160156,-400000.0625,10474.16015625,2202.179931640625,-400000.0625,-2398.820068359375,-400000.0625,6336.31005859375,-400000.0625
179.43915796279907,-400000.0625,10465.8603515625,2194.169921875,-400000.0625,-2395.679931640625,-400000.0625,6333.5400390625,-400000.0625
179.44498467445374,-400000.0625,10457.5595703125,2184.43994140625,-400000.0625,-2414.27001953125,-400000.0625,6324.14990234375,-400000.0625
179.4538595676422,-400000.0625,10455.7001953125,2186.43994140625,-400000.0625,-2429.340087890625,-400000.0625,6321.669921875,-400000.0625
179.45980644226074,-400000.0625,10465.1904296875,2196.8798828125,-400000.0625,-2404.739990234375,-400000.0625,6331.35009765625,-400000.0625
179.46679282188416,-400000.0625,10473.919921875,2204.3701171875,-400000.0625,-2390.340087890625,-400000.0625,6338.35986328125,-400000.0625
179.47361493110657,-400000.0625,10471.4404296875,2201.3701171875,-400000.0625,-2391.239990234375,-400000.0625,6331.25,-400000.0625
179.48136639595032,-400000.0625,10458.419921875,2188.300048828125,-400000.0625,-2402.929931640625,-400000.0625,6317.22998046875,-400000.0625
179.48790192604065,-400000.0625,10459.4697265625,2186.580078125,-400000.0625,-2405.929931640625,-400000.0625,6318.240234375,-400000.0625
179.4935314655304,-400000.0625,10464.9599609375,2191.35009765625,-400000.0625,-2393.010009765625,-400000.0625,6327.33984375,-400000.0625
179.49905014038086,-400000.0625,10473.6298828125,2201.27001953125,-400000.0625,-2384.139892578125,-400000.0625,6334.5400390625,-400000.0625
179.51193022727966,-400000.0625,10470.5302734375,2198.27001953125,-400000.0625,-2391.909912109375,-400000.0625,6333.64013671875,-400000.0625
179.52108764648438,-400000.0625,10452.5595703125,2181.239990234375,-400000.0625,-2412.800048828125,-400000.0625,6320.56982421875,-400000.0625
179.5286889076233,-400000.0625,10457.9501953125,2185.9599609375,-400000.0625,-2412.889892578125,-400000.0625,6320.18994140625,-400000.0625
179.53610706329346,-400000.0625,10472.9697265625,2197.360107421875,-400000.0625,-2409.60009765625,-400000.0625,6333.8798828125,-400000.0625
179.5427749156952,-400000.0625,10474.8701171875,2201.219970703125,-400000.0625,-2399.8701171875,-400000.0625,6341.27001953125,-400000.0625
179.5514817237854,-400000.0625,10467.669921875,2195.639892578125,-400000.0625,-2395.919921875,-400000.0625,6337.68994140625,-400000.0625
179.55885100364685,-400000.0625,10460.66015625,2186.820068359375,-400000.0625,-2406.260009765625,-400000.0625,6327.52978515625,-400000.0625
179.5661211013794,-400000.0625,10459.7099609375,2186.5400390625,-400000.0625,-2399.72998046875,-400000.0625,6326.9599609375,-400000.0625
179.57304096221924,-400000.0625,10466.8603515625,2195.409912109375,-400000.0625,-2391.340087890625,-400000.0625,6336.64013671875,-400000.0625
179.57924008369446,-400000.0625,10473.919921875,2204.080078125,-400000.0625,-2394.300048828125,-400000.0625,6347.7001953125,-400000.0625
179.58614873886108,-400000.0625,10470.150390625,2196.929931640625,-400000.0625,-2405.97998046875,-400000.0625,6337.68994140625,-400000.0625
179.59263014793396,-400000.0625,10455.7998046875,2179.81005859375,-400000.0625,-2412.840087890625,-400000.0625,6325.72021484375,-400000.0625
179.599928855896,-400000.0625,10452.7001953125,2180.429931640625,-400000.0625,-2420.6201171875,-400000.0625,6328.06005859375,-400000.0625
179.613529920578,-400000.0625,10464.240234375,2194.7900390625,-400000.0625,-2406.360107421875,-400000.0625,6337.1201171875,-400000.0625
179.62165212631226,-400000.0625,10471.919921875,2202.1298828125,-400000.0625,-2390.81005859375,-400000.0625,6344.27001953125,-400000.0625
179.62751650810242,-400000.0625,10467.0498046875,2196.4599609375,-400000.0625,-2393.199951171875,-400000.0625,6337.7900390625,-400000.0625
179.6336042881012,-400000.0625,10456.08984375,2183.77001953125,-400000.0625,-2399.2099609375,-400000.0625,6325.77001953125,-400000.0625
179.6400511264801,-400000.0625,10456.7099609375,2186.43994140625,-400000.0625,-2403.2099609375,-400000.0625,6327.81982421875,-400000.0625
179.64596676826477,-400000.0625,10471.8701171875,2202.3701171875,-400000.0625,-2397.5400390625,-400000.0625,6337.31005859375,-400000.0625
179.65420651435852,-400000.0625,10478.5,2208.280029296875,-400000.0625,-2396.14990234375,-400000.0625,6343.080078125,-400000.0625
179.66042256355286,-400000.0625,10470.580078125,2200.75,-400000.0625,-2403.929931640625,-400000.0625,6335.259765625,-400000.0625
179.66686010360718,-400000.0625,10457.3701171875,2186.110107421875,-400000.0625,-2411.699951171875,-400000.0625,6321.14013671875,-400000.0625
179.67320156097412,-400000.0625,10459.5703125,2185.9599609375,-400000.0625,-2400.2099609375,-400000.0625,6320.18994140625,-400000.0625
179.6788465976715,-400000.0625,10467.099609375,2196.8798828125,-400000.0625,-2395.389892578125,-400000.0625,6331.10986328125,-400000.0625
179.68576002120972,-400000.0625,10473.8701171875,2202.419921875,-400000.0625,-2395.820068359375,-400000.0625,6336.02001953125,-400000.0625
179.69221878051758,-400000.0625,10466.3896484375,2194.7900390625,-400000.0625,-2395.580078125,-400000.0625,6331.64013671875,-400000.0625
179.69838047027588,-400000.0625,10455.7998046875,2187.25,-400000.0625,-2409.840087890625,-400000.0625,6319.18994140625,-400000.0625
179.70510292053223,-400000.0625,10458.1396484375,2188.43994140625,-400000.0625,-2412.989990234375,-400000.0625,6326.39013671875,-400000.0625
179.7175211906433,-400000.0625,10467.9599609375,2196.070068359375,-400000.0625,-2396.6298828125,-400000.0625,6333.68994140625,-400000.0625
179.7241039276123,-400000.0625,10475.01953125,2206.280029296875,-400000.0625,-2391.340087890625,-400000.0625,6342.080078125,-400000.0625
179.73030400276184,-400000.0625,10473.5400390625,2204.22998046875,-400000.0625,-2397.72998046875,-400000.0625,6337.7900390625,-400000.0625
179.736647605896,-400000.0625,10463.2900390625,2190.919921875,-400000.0625,-2409.030029296875,-400000.0625,6325.669921875,-400000.0625
179.7423539161682,-400000.0625,10459.0,2189.06005859375,-400000.0625,-2397.919921875,-400000.0625,6327.06005859375,-400000.0625
179.75005626678467,-400000.0625,10466.8203125,2198.360107421875,-400000.0625,-2395.530029296875,-400000.0625,6341.1201171875,-400000.0625
179.75582599639893,-400000.0625,10474.400390625,2205.090087890625,-400000.0625,-2401.159912109375,-400000.0625,6345.64990234375,-400000.0625
179.7610685825348,-400000.0625,10468.7197265625,2198.60009765625,-400000.0625,-2408.60009765625,-400000.0625,6338.8798828125,-400000.0625
179.76784563064575,-400000.0625,10458.2802734375,2188.43994140625,-400000.0625,-2413.3701171875,-400000.0625,6328.81982421875,-400000.0625
179.7741630077362,-400000.0625,10455.9404296875,2188.489990234375,-400000.0625,-2399.8701171875,-400000.0625,6330.919921875,-400000.0625
179.78098797798157,-400000.0625,10467.009765625,2196.550048828125,-400000.0625,-2381.89990234375,-400000.0625,6342.89013671875,-400000.0625
179.7884247303009,-400000.0625,10475.400390625,2203.659912109375,-400000.0625,-2384.52001953125,-400000.0625,6346.93994140625,-400000.0625
179.79377508163452,-400000.0625,10469.25,2195.929931640625,-400000.0625,-2395.199951171875,-400000.0625,6339.35986328125,-400000.0625
179.7999050617218,-400000.0625,10455.66015625,2185.489990234375,-400000.0625,-2409.7900390625,-400000.0625,6324.52978515625,-400000.0625
179.80588793754578,-400000.0625,10457.849609375,2186.489990234375,-400000.0625,-2412.409912109375,-400000.0625,6323.39013671875,-400000.0625
179.81694769859314,-400000.0625,10470.4404296875,2200.989990234375,-400000.0625,-2394.43994140625,-400000.0625,6335.77978515625,-400000.0625
179.82524919509888,-400000.0625,10476.400390625,2206.469970703125,-400000.0625,-2385.090087890625,-400000.0625,6345.89013671875,-400000.0625
179.83087921142578,-400000.0625,10469.490234375,2198.360107421875,-400000.0625,-2394.25,-400000.0625,6339.259765625,-400000.0625
179.8379008769989,-400000.0625,10454.3701171875,2182.77001953125,-400000.0625,-2399.969970703125,-400000.0625,6326.14990234375,-400000.0625
179.8434453010559,-400000.0625,10457.0400390625,2187.159912109375,-400000.0625,-2399.969970703125,-400000.0625,6326.2900390625,-400000.0625
179.84989070892334,-400000.0625,10468.4404296875,2197.699951171875,-400000.0625,-2399.969970703125,-400000.0625,6337.830078125,-400000.0625
179.85657119750977,-400000.0625,10471.6796875,2199.320068359375,-400000.0625,-2387.81005859375,-400000.0625,6342.41015625,-400000.0625
179.86233973503113,-400000.0625,10461.759765625,2190.260009765625,-400000.0625,-2390.3798828125,-400000.0625,6336.02001953125,-400000.0625
179.8697328567505,-400000.0625,10452.0302734375,2179.6201171875,-400000.0625,-2411.4599609375,-400000.0625,6323.52978515625,-400000.0625
179.87508392333984,-400000.0625,10454.6103515625,2182.909912109375,-400000.0625,-2425.77001953125,-400000.0625,6328.14990234375,-400000.0625
179.88006591796875,-400000.0625,10468.669921875,2196.260009765625,-400000.0625,-2413.22998046875,-400000.0625,6339.31005859375,-400000.0625
179.88007473945618,-400000.0625,10477.259765625,2204.469970703125,-400000.0625,-2385.81005859375,-400000.0625,6344.7998046875,-400000.0625
179.88007950782776,-400000.0625,10469.9599609375,2195.929931640625,-400000.0625,-2387.860107421875,-400000.0625,6338.64013671875,-400000.0625
179.88008379936218,-400000.0625,10453.26953125,2181.530029296875,-400000.0625,-2403.5,-400000.0625,6327.52978515625,-400000.0625
179.88008832931519,-400000.0625,10456.23046875,2183.199951171875,-400000.0625,-2412.179931640625,-400000.0625,6330.2998046875,-400000.0625
179.8867425918579,-400000.0625,10469.8203125,2195.5,-400000.0625,-2398.590087890625,-400000.0625,6338.22021484375,-400000.0625
179.8927834033966,-400000.0625,10478.9697265625,2205.179931640625,-400000.0625,-2380.610107421875,-400000.0625,6345.7998046875,-400000.0625
179.89838123321533,-400000.0625,10468.91015625,2196.260009765625,-400000.0625,-2401.2099609375,-400000.0625,6343.080078125,-400000.0625
179.90457773208618,-400000.0625,10460.8095703125,2188.159912109375,-400000.0625,-2404.070068359375,-400000.0625,6330.68017578125,-400000.0625
179.90966987609863,-400000.0625,10462.08984375,2189.39990234375,-400000.0625,-2404.550048828125,-400000.0625,6333.8798828125,-400000.0625
179.92019367218018,-400000.0625,10469.099609375,2197.360107421875,-400000.0625,-2395.25,-400000.0625,6344.75,-400000.0625
179.92552161216736,-400000.0625,10475.5400390625,2205.179931640625,-400000.0625,-2383.139892578125,-400000.0625,6346.85009765625,-400000.0625
179.9306285381317,-400000.0625,10472.6298828125,2199.360107421875,-400000.0625,-2395.6298828125,-400000.0625,6340.7001953125,-400000.0625
179.93753385543823,-400000.0625,10456.2802734375,2185.5400390625,-400000.0625,-2419.280029296875,-400000.0625,6329.25,-400000.0625
179.94281101226807,-400000.0625,10456.7099609375,2187.8701171875,-400000.0625,-2419.949951171875,-400000.0625,6328.009765625,-400000.0625
179.94815039634705,-400000.0625,10471.2998046875,2199.219970703125,-400000.0625,-2392.10009765625,-400000.0625,6340.02978515625,-400000.0625
179.95439338684082,-400000.0625,10474.8701171875,2204.1298828125,-400000.0625,-2388.81005859375,-400000.0625,6347.47021484375,-400000.0625
179.9603192806244,-400000.0625,10463.8603515625,2198.27001953125,-400000.0625,-2389.9599609375,-400000.0625,6340.89013671875,-400000.0625
179.96757340431213,-400000.0625,10459.9501953125,2192.31005859375,-400000.0625,-2390.77001953125,-400000.0625,6329.25,-400000.0625
179.97493863105774,-400000.0625,10461.7099609375,2191.72998046875,-400000.0625,-2404.449951171875,-400000.0625,6331.58984375,-400000.0625
179.98064970970154,-400000.0625,10468.150390625,2200.169921875,-400000.0625,-2390.47998046875,-400000.0625,6342.97998046875,-400000.0625
179.98684692382812,-400000.0625,10477.1103515625,2207.89990234375,-400000.0625,-2377.800048828125,-400000.0625,6346.75,-400000.0625
179.9936158657074,-400000.0625,10471.490234375,2201.030029296875,-400000.0625,-2395.199951171875,-400000.0625,6341.02978515625,-400000.0625
180.00010585784912,-400000.0625,10461.759765625,2191.590087890625,-400000.0625,-2411.56005859375,-400000.0625,6329.39013671875,-400000.0625
180.00581693649292,-400000.0625,10465.48046875,2195.070068359375,-400000.0625,-2403.1201171875,-400000.0625,6332.490234375,-400000.0625
180.01086831092834,-400000.0625,10474.349609375,2205.280029296875,-400000.0625,-2388.530029296875,-400000.0625,6342.7001953125,-400000.0625
180.0218734741211,-400000.0625,10480.169921875,2212.18994140625,-400000.0625,-2392.860107421875,-400000.0625,6346.990234375,-400000.0625
180.02720165252686,-400000.0625,10472.2998046875,2202.699951171875,-400000.0625,-2391.909912109375,-400000.0625,6339.4599609375,-400000.0625
180.03237462043762,-400000.0625,10464.3798828125,2193.639892578125,-400000.0625,-2393.10009765625,-400000.0625,6330.39990234375,-400000.0625
180.03819632530212,-400000.0625,10463.7197265625,2193.97998046875,-400000.0625,-2388.10009765625,-400000.0625,6333.8798828125,-400000.0625
180.04335761070251,-400000.0625,10470.2001953125,2201.699951171875,-400000.0625,-2389.14990234375,-400000.0625,6344.22021484375,-400000.0625
180.04858589172363,-400000.0625,10480.6396484375,2207.89990234375,-400000.0625,-2403.969970703125,-400000.0625,6352.81005859375,-400000.0625
180.054270029068,-400000.0625,10478.7802734375,2203.659912109375,-400000.0625,-2406.68994140625,-400000.0625,6347.93994140625,-400000.0625
180.0604898929596,-400000.0625,10468.2001953125,2190.68994140625,-400000.0625,-2412.27001953125,-400000.0625,6337.06982421875,-400000.0625
180.06916880607605,-400000.0625,10468.9599609375,2193.590087890625,-400000.0625,-2405.02001953125,-400000.0625,6336.5,-400000.0625
180.0750653743744,-400000.0625,10478.6396484375,2204.699951171875,-400000.0625,-2388.10009765625,-400000.0625,6340.93017578125,-400000.0625
180.08039236068726,-400000.0625,10481.6396484375,2209.85009765625,-400000.0625,-2388.18994140625,-400000.0625,6346.509765625,-400000.0625
180.08614921569824,-400000.0625,10476.0703125,2203.27001953125,-400000.0625,-2394.9599609375,-400000.0625,6341.22021484375,-400000.0625
180.09145712852478,-400000.0625,10464.0,2189.919921875,-400000.0625,-2401.2099609375,-400000.0625,6328.25,-400000.0625
180.09650826454163,-400000.0625,10465.669921875,2192.31005859375,-400000.0625,-2394.77001953125,-400000.0625,6330.43994140625,-400000.0625
180.10333728790283,-400000.0625,10477.9296875,2203.75,-400000.0625,-2389.570068359375,-400000.0625,6341.7001953125,-400000.0625
180.10946130752563,-400000.0625,10484.2197265625,2212.6201171875,-400000.0625,-2385.570068359375,-400000.0625,6348.22998046875,-400000.0625
180.114670753479,-400000.0625,10477.01953125,2205.75,-400000.0625,-2392.340087890625,-400000.0625,6343.080078125,-400000.0625
180.1269748210907,-400000.0625,10469.33984375,2194.31005859375,-400000.0625,-2398.5400390625,-400000.0625,6329.97021484375,-400000.0625
180.13295793533325,-400000.0625,10466.240234375,2192.39990234375,-400000.0625,-2400.2099609375,-400000.0625,6331.2998046875,-400000.0625
180.14048671722412,-400000.0625,10472.25,2199.169921875,-400000.0625,-2397.969970703125,-400000.0625,6341.35986328125,-400000.0625
180.14623975753784,-400000.0625,10482.5,2209.429931640625,-400000.0625,-2384.090087890625,-400000.0625,6349.7099609375,-400000.0625
180.15185236930847,-400000.0625,10481.6396484375,2205.93994140625,-400000.0625,-2397.72998046875,-400000.0625,6344.75,-400000.0625
180.15725898742676,-400000.0625,10469.8701171875,2192.1201171875,-400000.0625,-2412.75,-400000.0625,6330.97021484375,-400000.0625
180.16230654716492,-400000.0625,10466.580078125,2189.72998046875,-400000.0625,-2410.219970703125,-400000.0625,6326.2900390625,-400000.0625
180.1696720123291,-400000.0625,10474.5400390625,2199.360107421875,-400000.0625,-2398.43994140625,-400000.0625,6337.740234375,-400000.0625
180.1754665374756,-400000.0625,10477.58984375,2202.889892578125,-400000.0625,-2389.530029296875,-400000.0625,6349.0400390625,-400000.0625
180.18120217323303,-400000.0625,10476.2998046875,2200.510009765625,-400000.0625,-2398.919921875,-400000.0625,6338.93017578125,-400000.0625
180.19032216072083,-400000.0625,10470.76953125,2193.97998046875,-400000.0625,-2404.02001953125,-400000.0625,6324.6298828125,-400000.0625
180.19599533081055,-400000.0625,10470.4404296875,2193.02001953125,-400000.0625,-2378.800048828125,-400000.0625,6329.009765625,-400000.0625
180.20315766334534,-400000.0625,10474.73046875,2202.889892578125,-400000.0625,-2373.64990234375,-400000.0625,6343.56005859375,-400000.0625
180.20850896835327,-400000.0625,10488.23046875,2215.669921875,-400000.0625,-2381.89990234375,-400000.0625,6348.08984375,-400000.0625
180.2136471271515,-400000.0625,10487.75,2210.139892578125,-400000.0625,-2396.580078125,-400000.0625,6340.60009765625,-400000.0625
180.22246718406677,-400000.0625,10469.3896484375,2194.60009765625,-400000.0625,-2412.93994140625,-400000.0625,6326.14990234375,-400000.0625
180.23548698425293,-400000.0625,10464.150390625,2193.929931640625,-400000.0625,-2402.739990234375,-400000.0625,6326.33984375,-400000.0625
180.24251627922058,-400000.0625,10476.8798828125,2204.3701171875,-400000.0625,-2397.8701171875,-400000.0625,6336.02001953125,-400000.0625
180.248211145401,-400000.0625,10484.1201171875,2208.760009765625,-400000.0625,-2405.7900390625,-400000.0625,6342.60009765625,-400000.0625
180.25459480285645,-400000.0625,10473.8203125,2199.699951171875,-400000.0625,-2407.739990234375,-400000.0625,6332.64013671875,-400000.0625
180.26044392585754,-400000.0625,10461.900390625,2189.449951171875,-400000.0625,-2395.389892578125,-400000.0625,6319.14013671875,-400000.0625
180.26574206352234,-400000.0625,10465.33984375,2193.830078125,-400000.0625,-2387.7099609375,-400000.0625,6324.43994140625,-400000.0625
180.2728009223938,-400000.0625,10476.8798828125,2206.89990234375,-400000.0625,-2387.0,-400000.0625,6335.35009765625,-400000.0625
180.2784616947174,-400000.0625,10486.8896484375,2214.47998046875,-400000.0625,-2395.010009765625,-400000.0625,6343.41015625,-400000.0625
180.28433918952942,-400000.0625,10480.740234375,2209.85009765625,-400000.0625,-2395.489990234375,-400000.0625,6339.60009765625,-400000.0625
180.29077816009521,-400000.0625,10466.4296875,2195.639892578125,-400000.0625,-2402.449951171875,-400000.0625,6324.81982421875,-400000.0625
180.29681611061096,-400000.0625,10465.0,2194.7900390625,-400000.0625,-2408.60009765625,-400000.0625,6324.91015625,-400000.0625
180.3089361190796,-400000.0625,10477.259765625,2205.0400390625,-400000.0625,-2413.889892578125,-400000.0625,6338.22021484375,-400000.0625
180.32008242607117,-400000.0625,10485.0302734375,2212.139892578125,-400000.0625,-2417.330078125,-400000.0625,6343.02978515625,-400000.0625
180.32584261894226,-400000.0625,10477.2099609375,2203.989990234375,-400000.0625,-2394.10009765625,-400000.0625,6334.58984375,-400000.0625
180.33891367912292,-400000.0625,10465.580078125,2191.72998046875,-400000.0625,-2390.0,-400000.0625,6325.77001953125,-400000.0625
180.34707355499268,-400000.0625,10464.7197265625,2191.35009765625,-400000.0625,-2392.050048828125,-400000.0625,6329.5400390625,-400000.0625
180.3542776107788,-400000.0625,10484.8896484375,2210.090087890625,-400000.0625,-2373.4599609375,-400000.0625,6341.169921875,-400000.0625
180.3600971698761,-400000.0625,10493.51953125,2216.10009765625,-400000.0625,-2381.22998046875,-400000.0625,6349.08984375,-400000.0625
180.36589193344116,-400000.0625,10488.23046875,2210.18994140625,-400000.0625,-2402.5,-400000.0625,6341.97998046875,-400000.0625
180.37225770950317,-400000.0625,10475.7802734375,2198.7900390625,-400000.0625,-2416.280029296875,-400000.0625,6325.669921875,-400000.0625
180.37777733802795,-400000.0625,10476.16015625,2197.929931640625,-400000.0625,-2416.7099609375,-400000.0625,6331.2099609375,-400000.0625
180.3846151828766,-400000.0625,10482.8798828125,2205.75,-400000.0625,-2403.68994140625,-400000.0625,6340.7001953125,-400000.0625
180.3909468650818,-400000.0625,10490.5595703125,2213.139892578125,-400000.0625,-2380.320068359375,-400000.0625,6346.1298828125,-400000.0625
180.3962767124176,-400000.0625,10489.9404296875,2210.949951171875,-400000.0625,-2394.14990234375,-400000.0625,6341.740234375,-400000.0625
180.40324711799622,-400000.0625,10473.6796875,2194.2099609375,-400000.0625,-2403.68994140625,-400000.0625,6330.81982421875,-400000.0625
180.40904140472412,-400000.0625,10473.400390625,2195.02001953125,-400000.0625,-2389.0,-400000.0625,6333.259765625,-400000.0625
180.41448044776917,-400000.0625,10483.26953125,2204.22998046875,-400000.0625,-2384.22998046875,-400000.0625,6346.419921875,-400000.0625
180.42110967636108,-400000.0625,10489.990234375,2211.429931640625,-400000.0625,-2384.0400390625,-400000.0625,6352.330078125,-400000.0625
180.42680478096008,-400000.0625,10488.9404296875,2210.570068359375,-400000.0625,-2402.5,-400000.0625,6346.22998046875,-400000.0625
180.4403576850891,-400000.0625,10478.2099609375,2199.1298828125,-400000.0625,-2427.530029296875,-400000.0625,6336.31005859375,-400000.0625
180.44632005691528,-400000.0625,10475.830078125,2196.840087890625,-400000.0625,-2420.22998046875,-400000.0625,6332.68017578125,-400000.0625
180.4551420211792,-400000.0625,10489.3701171875,2207.52001953125,-400000.0625,-2393.10009765625,-400000.0625,6340.7001953125,-400000.0625
180.46115565299988,-400000.0625,10494.849609375,2212.050048828125,-400000.0625,-2385.6201171875,-400000.0625,6349.14013671875,-400000.0625
180.46993589401245,-400000.0625,10487.41015625,2207.659912109375,-400000.0625,-2384.22998046875,-400000.0625,6344.89013671875,-400000.0625
180.4760332107544,-400000.0625,10476.16015625,2197.4599609375,-400000.0625,-2397.969970703125,-400000.0625,6335.4501953125,-400000.0625
180.48273968696594,-400000.0625,10478.6396484375,2198.510009765625,-400000.0625,-2404.7900390625,-400000.0625,6339.35986328125,-400000.0625
180.49117016792297,-400000.0625,10486.3203125,2205.93994140625,-400000.0625,-2398.39990234375,-400000.0625,6345.7998046875,-400000.0625
180.49669480323792,-400000.0625,10493.419921875,2211.429931640625,-400000.0625,-2399.5400390625,-400000.0625,6351.81005859375,-400000.0625
180.50446462631226,-400000.0625,10486.990234375,2206.0400390625,-400000.0625,-2405.830078125,-400000.0625,6345.85009765625,-400000.0625
180.511070728302,-400000.0625,10472.009765625,2194.7900390625,-400000.0625,-2420.330078125,-400000.0625,6334.97021484375,-400000.0625
180.52087926864624,-400000.0625,10473.919921875,2197.31005859375,-400000.0625,-2408.360107421875,-400000.0625,6337.68994140625,-400000.0625
180.52699851989746,-400000.0625,10486.0302734375,2210.239990234375,-400000.0625,-2381.1298828125,-400000.0625,6347.89990234375,-400000.0625
180.53990817070007,-400000.0625,10494.0400390625,2217.14990234375,-400000.0625,-2377.4599609375,-400000.0625,6352.6201171875,-400000.0625
180.54583978652954,-400000.0625,10488.7998046875,2212.81005859375,-400000.0625,-2399.489990234375,-400000.0625,6345.85009765625,-400000.0625
180.55276775360107,-400000.0625,10477.830078125,2197.169921875,-400000.0625,-2425.14990234375,-400000.0625,6334.259765625,-400000.0625
180.55831336975098,-400000.0625,10473.6796875,2190.449951171875,-400000.0625,-2413.419921875,-400000.0625,6335.16015625,-400000.0625
180.56351113319397,-400000.0625,10482.5,2204.080078125,-400000.0625,-2388.18994140625,-400000.0625,6342.83984375,-400000.0625
180.57090187072754,-400000.0625,10496.51953125,2217.010009765625,-400000.0625,-2383.7099609375,-400000.0625,6349.66015625,-400000.0625
180.57794618606567,-400000.0625,10490.5595703125,2211.239990234375,-400000.0625,-2402.590087890625,-400000.0625,6345.22998046875,-400000.0625
180.58814001083374,-400000.0625,10476.0703125,2196.31005859375,-400000.0625,-2411.179931640625,-400000.0625,6336.5,-400000.0625
180.59528708457947,-400000.0625,10476.6396484375,2196.97998046875,-400000.0625,-2393.43994140625,-400000.0625,6336.830078125,-400000.0625
180.60295796394348,-400000.0625,10492.0400390625,2210.860107421875,-400000.0625,-2386.239990234375,-400000.0625,6349.7099609375,-400000.0625
180.60975670814514,-400000.0625,10503.76953125,2221.780029296875,-400000.0625,-2385.090087890625,-400000.0625,6359.10009765625,-400000.0625
180.61598110198975,-400000.0625,10497.51953125,2213.669921875,-400000.0625,-2406.070068359375,-400000.0625,6352.85009765625,-400000.0625
180.6235477924347,-400000.0625,10483.9296875,2203.179931640625,-400000.0625,-2421.330078125,-400000.0625,6338.259765625,-400000.0625
180.629976272583,-400000.0625,10480.2099609375,2200.989990234375,-400000.0625,-2409.699951171875,-400000.0625,6340.4599609375,-400000.0625
180.6432604789734,-400000.0625,10491.66015625,2210.18994140625,-400000.0625,-2396.110107421875,-400000.0625,6347.3701171875,-400000.0625
180.64979004859924,-400000.0625,10493.849609375,2213.760009765625,-400000.0625,-2385.0,-400000.0625,6351.52001953125,-400000.0625
180.65616655349731,-400000.0625,10484.7001953125,2209.949951171875,-400000.0625,-2384.7099609375,-400000.0625,6344.22021484375,-400000.0625
180.66192865371704,-400000.0625,10477.259765625,2200.889892578125,-400000.0625,-2403.02001953125,-400000.0625,6329.8701171875,-400000.0625
180.66799235343933,-400000.0625,10477.0703125,2199.699951171875,-400000.0625,-2398.590087890625,-400000.0625,6333.5400390625,-400000.0625
180.67409920692444,-400000.0625,10488.1796875,2211.6201171875,-400000.0625,-2387.570068359375,-400000.0625,6349.759765625,-400000.0625
180.6797206401825,-400000.0625,10496.669921875,2219.25,-400000.0625,-2397.389892578125,-400000.0625,6359.14990234375,-400000.0625
180.68635487556458,-400000.0625,10489.3203125,2211.0,-400000.0625,-2412.64990234375,-400000.0625,6346.419921875,-400000.0625
180.6938123703003,-400000.0625,10477.3095703125,2199.27001953125,-400000.0625,-2410.219970703125,-400000.0625,6332.06005859375,-400000.0625
180.70004272460938,-400000.0625,10474.1103515625,2197.360107421875,-400000.0625,-2399.300048828125,-400000.0625,6332.77978515625,-400000.0625
180.70664072036743,-400000.0625,10485.4599609375,2208.570068359375,-400000.0625,-2391.580078125,-400000.0625,6342.169921875,-400000.0625
180.71280169487,-400000.0625,10498.91015625,2219.820068359375,-400000.0625,-2392.43994140625,-400000.0625,6350.22998046875,-400000.0625
180.72177624702454,-400000.0625,10489.8896484375,2211.6201171875,-400000.0625,-2398.110107421875,-400000.0625,6345.64990234375,-400000.0625
180.73026490211487,-400000.0625,10477.349609375,2201.75,-400000.0625,-2408.840087890625,-400000.0625,6331.43994140625,-400000.0625
180.7435896396637,-400000.0625,10477.349609375,2201.030029296875,-400000.0625,-2399.830078125,-400000.0625,6332.35009765625,-400000.0625
180.7504460811615,-400000.0625,10485.2197265625,2208.22998046875,-400000.0625,-2387.570068359375,-400000.0625,6343.89013671875,-400000.0625
180.75690007209778,-400000.0625,10493.0400390625,2220.06005859375,-400000.0625,-2397.110107421875,-400000.0625,6355.0498046875,-400000.0625
180.76232719421387,-400000.0625,10490.23046875,2217.050048828125,-400000.0625,-2408.550048828125,-400000.0625,6350.27978515625,-400000.0625
180.7691900730133,-400000.0625,10480.6904296875,2205.659912109375,-400000.0625,-2422.909912109375,-400000.0625,6336.58984375,-400000.0625
180.77501726150513,-400000.0625,10477.6396484375,2199.889892578125,-400000.0625,-2399.590087890625,-400000.0625,6332.8798828125,-400000.0625
180.78013134002686,-400000.0625,10482.7900390625,2207.469970703125,-400000.0625,-2375.510009765625,-400000.0625,6345.18017578125,-400000.0625
180.78673887252808,-400000.0625,10491.1796875,2218.8701171875,-400000.0625,-2377.219970703125,-400000.0625,6350.7099609375,-400000.0625
180.79273223876953,-400000.0625,10488.8896484375,2216.6298828125,-400000.0625,-2392.820068359375,-400000.0625,6346.3701171875,-400000.0625
180.7983660697937,-400000.0625,10476.9697265625,2203.659912109375,-400000.0625,-2411.56005859375,-400000.0625,6337.2099609375,-400000.0625
180.80427956581116,-400000.0625,10474.2998046875,2203.419921875,-400000.0625,-2413.610107421875,-400000.0625,6336.8798828125,-400000.0625
180.8095304965973,-400000.0625,10490.0400390625,2217.43994140625,-400000.0625,-2403.159912109375,-400000.0625,6347.60986328125,-400000.0625
180.81470251083374,-400000.0625,10500.150390625,2223.919921875,-400000.0625,-2391.340087890625,-400000.0625,6356.85986328125,-400000.0625
180.82221674919128,-400000.0625,10488.3203125,2216.050048828125,-400000.0625,-2395.919921875,-400000.0625,6348.7099609375,-400000.0625
180.82777762413025,-400000.0625,10473.6796875,2201.219970703125,-400000.0625,-2401.159912109375,-400000.0625,6333.64013671875,-400000.0625
180.83422923088074,-400000.0625,10473.2998046875,2199.64990234375,-400000.0625,-2400.159912109375,-400000.0625,6336.1201171875,-400000.0625
180.84520483016968,-400000.0625,10486.7900390625,2209.85009765625,-400000.0625,-2400.919921875,-400000.0625,6347.31982421875,-400000.0625
180.8512828350067,-400000.0625,10498.330078125,2220.389892578125,-400000.0625,-2391.10009765625,-400000.0625,6359.47998046875,-400000.0625
180.85697746276855,-400000.0625,10490.5595703125,2213.669921875,-400000.0625,-2388.330078125,-400000.0625,6353.89990234375,-400000.0625
180.8622899055481,-400000.0625,10477.9296875,2202.080078125,-400000.0625,-2405.360107421875,-400000.0625,6345.7001953125,-400000.0625
180.86784148216248,-400000.0625,10478.16015625,2206.989990234375,-400000.0625,-2406.030029296875,-400000.0625,6342.41015625,-400000.0625
180.87348341941833,-400000.0625,10486.8896484375,2216.530029296875,-400000.0625,-2391.2900390625,-400000.0625,6351.9501953125,-400000.0625
180.8788025379181,-400000.0625,10495.5703125,2221.5400390625,-400000.0625,-2387.52001953125,-400000.0625,6357.580078125,-400000.0625
180.884361743927,-400000.0625,10489.66015625,2216.199951171875,-400000.0625,-2391.389892578125,-400000.0625,6354.08984375,-400000.0625
180.88970112800598,-400000.0625,10476.4501953125,2203.080078125,-400000.0625,-2406.7900390625,-400000.0625,6340.89013671875,-400000.0625
180.89469075202942,-400000.0625,10474.25,2202.419921875,-400000.0625,-2407.64990234375,-400000.0625,6339.41015625,-400000.0625
180.89470100402832,-400000.0625,10483.3095703125,2210.7099609375,-400000.0625,-2388.330078125,-400000.0625,6353.3798828125,-400000.0625
180.89470648765564,-400000.0625,10496.330078125,2222.780029296875,-400000.0625,-2384.0400390625,-400000.0625,6364.6298828125,-400000.0625
180.90015506744385,-400000.0625,10487.75,2215.239990234375,-400000.0625,-2405.1201171875,-400000.0625,6359.580078125,-400000.0625
180.90580081939697,-400000.0625,10475.919921875,2198.030029296875,-400000.0625,-2409.739990234375,-400000.0625,6345.64990234375,-400000.0625
180.91139149665833,-400000.0625,10476.7802734375,2199.320068359375,-400000.0625,-2406.070068359375,-400000.0625,6344.93994140625,-400000.0625
180.91695737838745,-400000.0625,10485.83984375,2211.280029296875,-400000.0625,-2394.43994140625,-400000.0625,6352.0400390625,-400000.0625
180.9242241382599,-400000.0625,10492.66015625,2219.77001953125,-400000.0625,-2385.860107421875,-400000.0625,6363.6298828125,-400000.0625
180.92926955223083,-400000.0625,10489.6103515625,2216.2900390625,-400000.0625,-2405.8798828125,-400000.0625,6361.06005859375,-400000.0625
180.93498253822327,-400000.0625,10477.349609375,2201.1298828125,-400000.0625,-2406.929931640625,-400000.0625,6347.22998046875,-400000.0625
180.94711232185364,-400000.0625,10477.1103515625,2200.7900390625,-400000.0625,-2400.679931640625,-400000.0625,6348.60986328125,-400000.0625
180.95449304580688,-400000.0625,10489.0400390625,2211.429931640625,-400000.0625,-2401.35009765625,-400000.0625,6363.06005859375,-400000.0625
180.95984196662903,-400000.0625,10492.7099609375,2218.010009765625,-400000.0625,-2402.830078125,-400000.0625,6371.77978515625,-400000.0625
180.96515083312988,-400000.0625,10482.1201171875,2208.139892578125,-400000.0625,-2406.68994140625,-400000.0625,6362.33984375,-400000.0625
180.9725580215454,-400000.0625,10467.91015625,2195.169921875,-400000.0625,-2394.679931640625,-400000.0625,6347.85009765625,-400000.0625
180.97778010368347,-400000.0625,10467.4404296875,2195.02001953125,-400000.0625,-2384.22998046875,-400000.0625,6348.31982421875,-400000.0625
180.9845621585846,-400000.0625,10483.5,2210.760009765625,-400000.0625,-2389.10009765625,-400000.0625,6361.33984375,-400000.0625
180.99299311637878,-400000.0625,10500.580078125,2226.35009765625,-400000.0625,-2395.25,-400000.0625,6370.5498046875,-400000.0625
180.99811458587646,-400000.0625,10491.900390625,2217.820068359375,-400000.0625,-2405.260009765625,-400000.0625,6360.10009765625,-400000.0625
181.00548601150513,-400000.0625,10469.91015625,2196.5,-400000.0625,-2403.550048828125,-400000.0625,6346.89013671875,-400000.0625
181.01151371002197,-400000.0625,10467.009765625,2196.030029296875,-400000.0625,-2396.14990234375,-400000.0625,6349.7998046875,-400000.0625
181.01725268363953,-400000.0625,10479.169921875,2204.85009765625,-400000.0625,-2382.610107421875,-400000.0625,6355.47998046875,-400000.0625
181.0234136581421,-400000.0625,10489.1298828125,2213.6201171875,-400000.0625,-2381.3701171875,-400000.0625,6363.2001953125,-400000.0625
181.02907943725586,-400000.0625,10482.2197265625,2209.330078125,-400000.0625,-2398.110107421875,-400000.0625,6361.43994140625,-400000.0625
181.036630153656,-400000.0625,10469.150390625,2196.97998046875,-400000.0625,-2409.1201171875,-400000.0625,6351.18994140625,-400000.0625
181.04824209213257,-400000.0625,10470.4404296875,2195.31005859375,-400000.0625,-2401.919921875,-400000.0625,6347.93994140625,-400000.0625
181.0540201663971,-400000.0625,10476.8798828125,2205.75,-400000.0625,-2391.77001953125,-400000.0625,6357.10009765625,-400000.0625
181.05925226211548,-400000.0625,10486.7900390625,2215.77001953125,-400000.0625,-2388.429931640625,-400000.0625,6366.490234375,-400000.0625
181.06426739692688,-400000.0625,10485.8896484375,2212.719970703125,-400000.0625,-2405.60009765625,-400000.0625,6361.52978515625,-400000.0625
181.07146310806274,-400000.0625,10472.1103515625,2200.889892578125,-400000.0625,-2405.830078125,-400000.0625,6349.27978515625,-400000.0625
181.07702445983887,-400000.0625,10468.76953125,2198.27001953125,-400000.0625,-2386.090087890625,-400000.0625,6343.509765625,-400000.0625
181.08323764801025,-400000.0625,10482.650390625,2212.18994140625,-400000.0625,-2375.699951171875,-400000.0625,6349.9501953125,-400000.0625
181.0898895263672,-400000.0625,10490.7998046875,2221.199951171875,-400000.0625,-2382.610107421875,-400000.0625,6361.8701171875,-400000.0625
181.09514832496643,-400000.0625,10489.1298828125,2218.340087890625,-400000.0625,-2395.489990234375,-400000.0625,6360.9599609375,-400000.0625
181.10281491279602,-400000.0625,10477.5400390625,2206.89990234375,-400000.0625,-2409.550048828125,-400000.0625,6348.66015625,-400000.0625
181.10818672180176,-400000.0625,10476.8798828125,2207.659912109375,-400000.0625,-2397.590087890625,-400000.0625,6344.64990234375,-400000.0625
181.1132354736328,-400000.0625,10486.080078125,2217.47998046875,-400000.0625,-2378.27001953125,-400000.0625,6352.08984375,-400000.0625
181.11894392967224,-400000.0625,10494.849609375,2224.110107421875,-400000.0625,-2376.179931640625,-400000.0625,6357.240234375,-400000.0625
181.1244032382965,-400000.0625,10490.1796875,2222.590087890625,-400000.0625,-2361.300048828125,-400000.0625,6353.52001953125,-400000.0625
181.13067603111267,-400000.0625,10483.080078125,2211.6201171875,-400000.0625,-2380.800048828125,-400000.0625,6342.1298828125,-400000.0625
181.13762307167053,-400000.0625,10484.7900390625,2211.52001953125,-400000.0625,-2400.639892578125,-400000.0625,6345.18017578125,-400000.0625
181.14786434173584,-400000.0625,10487.990234375,2216.719970703125,-400000.0625,-2389.239990234375,-400000.0625,6352.9501953125,-400000.0625
181.1536648273468,-400000.0625,10498.1904296875,2225.919921875,-400000.0625,-2372.4599609375,-400000.0625,6361.8701171875,-400000.0625
181.15897488594055,-400000.0625,10493.6103515625,2217.719970703125,-400000.0625,-2389.77001953125,-400000.0625,6358.0,-400000.0625
181.16457891464233,-400000.0625,10475.349609375,2201.320068359375,-400000.0625,-2398.2099609375,-400000.0625,6346.3701171875,-400000.0625
181.171959400177,-400000.0625,10475.830078125,2202.93994140625,-400000.0625,-2389.860107421875,-400000.0625,6346.1298828125,-400000.0625
181.17715883255005,-400000.0625,10487.3701171875,2213.2900390625,-400000.0625,-2396.679931640625,-400000.0625,6354.3798828125,-400000.0625
181.18253755569458,-400000.0625,10493.900390625,2219.389892578125,-400000.0625,-2403.639892578125,-400000.0625,6360.47998046875,-400000.0625
181.1887857913971,-400000.0625,10486.41015625,2213.429931640625,-400000.0625,-2392.669921875,-400000.0625,6354.14013671875,-400000.0625
181.19422316551208,-400000.0625,10473.4404296875,2202.93994140625,-400000.0625,-2376.989990234375,-400000.0625,6341.89013671875,-400000.0625
181.1997184753418,-400000.0625,10475.58984375,2203.800048828125,-400000.0625,-2383.0400390625,-400000.0625,6342.83984375,-400000.0625
181.20539903640747,-400000.0625,10481.6904296875,2210.050048828125,-400000.0625,-2401.639892578125,-400000.0625,6354.43017578125,-400000.0625
181.21141862869263,-400000.0625,10490.1298828125,2219.14990234375,-400000.0625,-2392.239990234375,-400000.0625,6357.47998046875,-400000.0625
181.21720337867737,-400000.0625,10485.9404296875,2213.6201171875,-400000.0625,-2376.320068359375,-400000.0625,6351.60986328125,-400000.0625
181.22317814826965,-400000.0625,10473.2998046875,2199.699951171875,-400000.0625,-2379.1298828125,-400000.0625,6340.64990234375,-400000.0625
181.22899770736694,-400000.0625,10474.490234375,2201.75,-400000.0625,-2383.3798828125,-400000.0625,6340.31005859375,-400000.0625
181.23511052131653,-400000.0625,10481.0302734375,2210.760009765625,-400000.0625,-2386.090087890625,-400000.0625,6351.759765625,-400000.0625
181.24138760566711,-400000.0625,10487.75,2216.14990234375,-400000.0625,-2388.530029296875,-400000.0625,6361.2900390625,-400000.0625
181.25351691246033,-400000.0625,10486.3701171875,2213.239990234375,-400000.0625,-2390.9599609375,-400000.0625,6356.10009765625,-400000.0625
181.2591598033905,-400000.0625,10475.73046875,2202.080078125,-400000.0625,-2395.72998046875,-400000.0625,6343.509765625,-400000.0625
181.2643530368805,-400000.0625,10472.8203125,2200.840087890625,-400000.0625,-2399.110107421875,-400000.0625,6344.22021484375,-400000.0625
181.2716302871704,-400000.0625,10480.0703125,2209.81005859375,-400000.0625,-2397.969970703125,-400000.0625,6354.3798828125,-400000.0625
181.27803444862366,-400000.0625,10488.849609375,2218.10009765625,-400000.0625,-2398.780029296875,-400000.0625,6363.77001953125,-400000.0625
181.28364372253418,-400000.0625,10483.599609375,2212.429931640625,-400000.0625,-2379.889892578125,-400000.0625,6358.39013671875,-400000.0625
181.29058742523193,-400000.0625,10469.9599609375,2197.64990234375,-400000.0625,-2380.320068359375,-400000.0625,6345.7001953125,-400000.0625
181.29602360725403,-400000.0625,10469.490234375,2193.97998046875,-400000.0625,-2391.77001953125,-400000.0625,6344.1298828125,-400000.0625
181.30565690994263,-400000.0625,10481.98046875,2206.52001953125,-400000.0625,-2380.22998046875,-400000.0625,6353.240234375,-400000.0625
181.31233644485474,-400000.0625,10489.6103515625,2216.239990234375,-400000.0625,-2382.989990234375,-400000.0625,6364.8701171875,-400000.0625
181.31878304481506,-400000.0625,10486.26953125,2215.18994140625,-400000.0625,-2396.25,-400000.0625,6360.43994140625,-400000.0625
181.32480454444885,-400000.0625,10475.7802734375,2202.4599609375,-400000.0625,-2407.64990234375,-400000.0625,6350.7998046875,-400000.0625
181.33051109313965,-400000.0625,10477.6904296875,2202.1298828125,-400000.0625,-2393.06005859375,-400000.0625,6349.419921875,-400000.0625
181.33996772766113,-400000.0625,10485.3203125,2211.139892578125,-400000.0625,-2377.179931640625,-400000.0625,6360.009765625,-400000.0625
181.3454806804657,-400000.0625,10491.66015625,2218.199951171875,-400000.0625,-2372.219970703125,-400000.0625,6368.68994140625,-400000.0625
181.3583745956421,-400000.0625,10484.740234375,2213.530029296875,-400000.0625,-2383.330078125,-400000.0625,6363.10986328125,-400000.0625
181.3636350631714,-400000.0625,10474.1103515625,2199.27001953125,-400000.0625,-2396.110107421875,-400000.0625,6349.7099609375,-400000.0625
181.37051939964294,-400000.0625,10475.919921875,2198.97998046875,-400000.0625,-2393.2900390625,-400000.0625,6342.83984375,-400000.0625
181.37613248825073,-400000.0625,10487.41015625,2212.719970703125,-400000.0625,-2383.280029296875,-400000.0625,6353.669921875,-400000.0625
181.38203978538513,-400000.0625,10494.419921875,2220.06005859375,-400000.0625,-2380.419921875,-400000.0625,6363.68017578125,-400000.0625
181.38961052894592,-400000.0625,10487.7001953125,2214.10009765625,-400000.0625,-2390.0,-400000.0625,6360.6298828125,-400000.0625
181.39482951164246,-400000.0625,10477.58984375,2202.64990234375,-400000.0625,-2398.2099609375,-400000.0625,6344.41015625,-400000.0625
181.40057015419006,-400000.0625,10479.7900390625,2203.179931640625,-400000.0625,-2405.449951171875,-400000.0625,6339.22021484375,-400000.0625
181.4068329334259,-400000.0625,10485.3603515625,2208.659912109375,-400000.0625,-2415.85009765625,-400000.0625,6349.759765625,-400000.0625
181.4121687412262,-400000.0625,10492.4697265625,2219.25,-400000.0625,-2385.330078125,-400000.0625,6359.39013671875,-400000.0625
181.4179403781891,-400000.0625,10488.419921875,2216.389892578125,-400000.0625,-2381.75,-400000.0625,6352.14013671875,-400000.0625
181.42364048957825,-400000.0625,10473.1103515625,2198.60009765625,-400000.0625,-2389.909912109375,-400000.0625,6339.41015625,-400000.0625
181.42897295951843,-400000.0625,10472.0595703125,2197.1201171875,-400000.0625,-2382.89990234375,-400000.0625,6338.06982421875,-400000.0625
181.43733072280884,-400000.0625,10484.2197265625,2210.860107421875,-400000.0625,-2390.9599609375,-400000.0625,6351.08984375,-400000.0625
181.44283938407898,-400000.0625,10494.66015625,2219.6298828125,-400000.0625,-2396.820068359375,-400000.0625,6357.0498046875,-400000.0625
181.44947385787964,-400000.0625,10491.3203125,2214.669921875,-400000.0625,-2398.2099609375,-400000.0625,6349.85009765625,-400000.0625
181.46371388435364,-400000.0625,10476.2998046875,2200.409912109375,-400000.0625,-2392.010009765625,-400000.0625,6338.93017578125,-400000.0625
181.47073578834534,-400000.0625,10475.2099609375,2201.27001953125,-400000.0625,-2375.320068359375,-400000.0625,6341.02978515625,-400000.0625
181.4761095046997,-400000.0625,10486.509765625,2209.6201171875,-400000.0625,-2365.35009765625,-400000.0625,6348.89990234375,-400000.0625
181.48214721679688,-400000.0625,10494.23046875,2216.820068359375,-400000.0625,-2370.8798828125,-400000.0625,6358.77001953125,-400000.0625
181.49018096923828,-400000.0625,10490.4697265625,2214.429931640625,-400000.0625,-2372.7900390625,-400000.0625,6354.6201171875,-400000.0625
181.49573063850403,-400000.0625,10478.7802734375,2202.93994140625,-400000.0625,-2387.860107421875,-400000.0625,6342.509765625,-400000.0625
181.50563192367554,-400000.0625,10480.6904296875,2202.080078125,-400000.0625,-2402.02001953125,-400000.0625,6338.7900390625,-400000.0625
181.51229286193848,-400000.0625,10491.0400390625,2213.3798828125,-400000.0625,-2405.169921875,-400000.0625,6349.419921875,-400000.0625
181.52217364311218,-400000.0625,10495.0400390625,2220.919921875,-400000.0625,-2389.3798828125,-400000.0625,6355.669921875,-400000.0625
181.5277910232544,-400000.0625,10488.1298828125,2214.429931640625,-400000.0625,-2377.699951171875,-400000.0625,6347.22998046875,-400000.0625
181.53332138061523,-400000.0625,10477.830078125,2201.93994140625,-400000.0625,-2380.989990234375,-400000.0625,6335.97021484375,-400000.0625
181.5404236316681,-400000.0625,10480.7900390625,2203.85009765625,-400000.0625,-2382.090087890625,-400000.0625,6337.02001953125,-400000.0625
181.5467848777771,-400000.0625,10491.1298828125,2214.580078125,-400000.0625,-2379.469970703125,-400000.0625,6346.7001953125,-400000.0625
181.556813955307,-400000.0625,10497.9501953125,2220.679931640625,-400000.0625,-2377.889892578125,-400000.0625,6357.43017578125,-400000.0625
181.569087266922,-400000.0625,10495.4296875,2219.14990234375,-400000.0625,-2396.77001953125,-400000.0625,6357.47998046875,-400000.0625
181.57515668869019,-400000.0625,10484.98046875,2208.090087890625,-400000.0625,-2417.85009765625,-400000.0625,6344.990234375,-400000.0625
181.58149528503418,-400000.0625,10479.01953125,2203.93994140625,-400000.0625,-2391.820068359375,-400000.0625,6338.31005859375,-400000.0625
181.59002590179443,-400000.0625,10486.26953125,2213.909912109375,-400000.0625,-2361.820068359375,-400000.0625,6348.52001953125,-400000.0625
181.59730100631714,-400000.0625,10496.330078125,2222.969970703125,-400000.0625,-2361.110107421875,-400000.0625,6356.2900390625,-400000.0625
181.6049234867096,-400000.0625,10495.1396484375,2220.8701171875,-400000.0625,-2374.739990234375,-400000.0625,6353.759765625,-400000.0625
181.61098623275757,-400000.0625,10479.3095703125,2204.85009765625,-400000.0625,-2403.070068359375,-400000.0625,6342.31982421875,-400000.0625
181.61779928207397,-400000.0625,10476.58984375,2201.64990234375,-400000.0625,-2396.919921875,-400000.0625,6340.93017578125,-400000.0625
181.62435269355774,-400000.0625,10490.2802734375,2212.860107421875,-400000.0625,-2390.47998046875,-400000.0625,6349.3701171875,-400000.0625
181.63086605072021,-400000.0625,10500.150390625,2224.830078125,-400000.0625,-2398.39990234375,-400000.0625,6358.33984375,-400000.0625
181.63758730888367,-400000.0625,10496.6201171875,2221.159912109375,-400000.0625,-2400.72998046875,-400000.0625,6355.81005859375,-400000.0625
181.6432752609253,-400000.0625,10478.0703125,2202.1298828125,-400000.0625,-2386.469970703125,-400000.0625,6341.4599609375,-400000.0625
181.64904284477234,-400000.0625,10475.830078125,2202.4599609375,-400000.0625,-2371.169921875,-400000.0625,6339.83984375,-400000.0625
181.65566492080688,-400000.0625,10488.75,2215.18994140625,-400000.0625,-2365.969970703125,-400000.0625,6353.7099609375,-400000.0625
181.6624116897583,-400000.0625,10496.5703125,2223.780029296875,-400000.0625,-2373.030029296875,-400000.0625,6361.06005859375,-400000.0625
181.67509126663208,-400000.0625,10492.2802734375,2220.580078125,-400000.0625,-2386.6201171875,-400000.0625,6356.10009765625,-400000.0625
181.6812403202057,-400000.0625,10482.259765625,2206.949951171875,-400000.0625,-2396.35009765625,-400000.0625,6342.35986328125,-400000.0625
181.6911370754242,-400000.0625,10480.4501953125,2204.800048828125,-400000.0625,-2392.43994140625,-400000.0625,6342.83984375,-400000.0625
181.69656372070312,-400000.0625,10490.0400390625,2216.010009765625,-400000.0625,-2389.239990234375,-400000.0625,6352.43017578125,-400000.0625
181.70372819900513,-400000.0625,10498.4296875,2224.830078125,-400000.0625,-2380.510009765625,-400000.0625,6363.77001953125,-400000.0625
181.70934176445007,-400000.0625,10494.759765625,2221.820068359375,-400000.0625,-2379.22998046875,-400000.0625,6363.2001953125,-400000.0625
181.7156903743744,-400000.0625,10484.3603515625,2211.860107421875,-400000.0625,-2390.580078125,-400000.0625,6348.1298828125,-400000.0625
181.72411441802979,-400000.0625,10485.7900390625,2212.18994140625,-400000.0625,-2388.669921875,-400000.0625,6345.1298828125,-400000.0625
181.7307641506195,-400000.0625,10495.7099609375,2223.679931640625,-400000.0625,-2387.0,-400000.0625,6353.330078125,-400000.0625
181.7404522895813,-400000.0625,10506.73046875,2234.030029296875,-400000.0625,-2381.0400390625,-400000.0625,6362.580078125,-400000.0625
181.7461268901825,-400000.0625,10498.4296875,2225.2099609375,-400000.0625,-2392.719970703125,-400000.0625,6358.0,-400000.0625
181.75479531288147,-400000.0625,10477.5,2207.179931640625,-400000.0625,-2402.590087890625,-400000.0625,6346.3701171875,-400000.0625
181.76035714149475,-400000.0625,10475.6396484375,2206.0400390625,-400000.0625,-2372.550048828125,-400000.0625,6344.83984375,-400000.0625
181.76835107803345,-400000.0625,10492.759765625,2219.9599609375,-400000.0625,-2364.590087890625,-400000.0625,6355.43017578125,-400000.0625
181.78343749046326,-400000.0625,10500.8603515625,2227.590087890625,-400000.0625,-2374.360107421875,-400000.0625,6366.39990234375,-400000.0625
181.7925488948822,-400000.0625,10498.099609375,2226.070068359375,-400000.0625,-2373.97998046875,-400000.0625,6362.39013671875,-400000.0625
181.79975247383118,-400000.0625,10490.0400390625,2217.14990234375,-400000.0625,-2380.610107421875,-400000.0625,6351.81005859375,-400000.0625
181.80699825286865,-400000.0625,10486.83984375,2216.050048828125,-400000.0625,-2386.429931640625,-400000.0625,6349.60986328125,-400000.0625
181.8137722015381,-400000.0625,10496.2802734375,2225.35009765625,-400000.0625,-2385.7099609375,-400000.0625,6357.85986328125,-400000.0625
181.82204222679138,-400000.0625,10507.009765625,2233.7900390625,-400000.0625,-2393.010009765625,-400000.0625,6369.31005859375,-400000.0625
181.82919359207153,-400000.0625,10499.8095703125,2226.72998046875,-400000.0625,-2404.7900390625,-400000.0625,6365.919921875,-400000.0625
181.83689165115356,-400000.0625,10486.080078125,2213.530029296875,-400000.0625,-2394.06005859375,-400000.0625,6352.0,-400000.0625
181.8439962863922,-400000.0625,10484.650390625,2210.760009765625,-400000.0625,-2369.2099609375,-400000.0625,6349.18017578125,-400000.0625
181.85152292251587,-400000.0625,10492.2802734375,2221.6298828125,-400000.0625,-2363.969970703125,-400000.0625,6361.43994140625,-400000.0625
181.86006474494934,-400000.0625,10503.099609375,2231.1201171875,-400000.0625,-2371.739990234375,-400000.0625,6372.64013671875,-400000.0625
181.86856889724731,-400000.0625,10502.33984375,2227.590087890625,-400000.0625,-2372.27001953125,-400000.0625,6365.2998046875,-400000.0625
181.88053822517395,-400000.0625,10484.650390625,2215.18994140625,-400000.0625,-2376.889892578125,-400000.0625,6352.14013671875,-400000.0625
181.88798069953918,-400000.0625,10483.2197265625,2212.10009765625,-400000.0625,-2387.330078125,-400000.0625,6350.7998046875,-400000.0625
181.8937966823578,-400000.0625,10495.1396484375,2222.489990234375,-400000.0625,-2390.580078125,-400000.0625,6358.91015625,-400000.0625
181.8996913433075,-400000.0625,10501.9599609375,2234.889892578125,-400000.0625,-2391.6201171875,-400000.0625,6364.77978515625,-400000.0625
181.90598464012146,-400000.0625,10500.8603515625,2231.1201171875,-400000.0625,-2387.860107421875,-400000.0625,6358.580078125,-400000.0625
181.91159510612488,-400000.0625,10487.0302734375,2219.110107421875,-400000.0625,-2373.97998046875,-400000.0625,6347.1298828125,-400000.0625
181.917471408844,-400000.0625,10486.0302734375,2216.909912109375,-400000.0625,-2376.3701171875,-400000.0625,6348.22998046875,-400000.0625
181.92382907867432,-400000.0625,10493.1796875,2223.590087890625,-400000.0625,-2380.3701171875,-400000.0625,6356.0498046875,-400000.0625
181.9294605255127,-400000.0625,10499.1904296875,2228.780029296875,-400000.0625,-2383.570068359375,-400000.0625,6361.68017578125,-400000.0625
181.9395740032196,-400000.0625,10494.3798828125,2223.110107421875,-400000.0625,-2392.10009765625,-400000.0625,6355.81005859375,-400000.0625
181.9504268169403,-400000.0625,10482.83984375,2211.3798828125,-400000.0625,-2398.300048828125,-400000.0625,6346.509765625,-400000.0625
181.95819282531738,-400000.0625,10482.650390625,2209.330078125,-400000.0625,-2396.35009765625,-400000.0625,6344.22021484375,-400000.0625
181.96393299102783,-400000.0625,10489.0400390625,2216.389892578125,-400000.0625,-2371.840087890625,-400000.0625,6350.990234375,-400000.0625
181.9719512462616,-400000.0625,10499.5302734375,2227.929931640625,-400000.0625,-2357.820068359375,-400000.0625,6361.2900390625,-400000.0625
181.98416876792908,-400000.0625,10497.330078125,2226.31005859375,-400000.0625,-2368.969970703125,-400000.0625,6357.91015625,-400000.0625
181.99028301239014,-400000.0625,10483.4599609375,2213.340087890625,-400000.0625,-2383.330078125,-400000.0625,6344.7001953125,-400000.0625
181.99554753303528,-400000.0625,10482.1201171875,2208.0400390625,-400000.0625,-2387.570068359375,-400000.0625,6343.169921875,-400000.0625
182.00175976753235,-400000.0625,10484.98046875,2213.860107421875,-400000.0625,-2382.22998046875,-400000.0625,6350.990234375,-400000.0625
182.00732731819153,-400000.0625,10497.51953125,2225.830078125,-400000.0625,-2385.949951171875,-400000.0625,6360.2001953125,-400000.0625
182.0125162601471,-400000.0625,10495.8095703125,2222.72998046875,-400000.0625,-2398.110107421875,-400000.0625,6357.47998046875,-400000.0625
182.01963996887207,-400000.0625,10481.740234375,2209.52001953125,-400000.0625,-2403.1201171875,-400000.0625,6344.7998046875,-400000.0625
182.0254566669464,-400000.0625,10481.599609375,2208.659912109375,-400000.0625,-2388.330078125,-400000.0625,6342.89013671875,-400000.0625
182.0307776927948,-400000.0625,10492.2802734375,2218.77001953125,-400000.0625,-2373.5,-400000.0625,6352.7099609375,-400000.0625
182.03883171081543,-400000.0625,10502.5302734375,2228.159912109375,-400000.0625,-2364.590087890625,-400000.0625,6361.14990234375,-400000.0625
182.0440149307251,-400000.0625,10495.8095703125,2223.02001953125,-400000.0625,-2370.830078125,-400000.0625,6357.10009765625,-400000.0625
182.04999566078186,-400000.0625,10485.2197265625,2211.239990234375,-400000.0625,-2392.239990234375,-400000.0625,6346.89013671875,-400000.0625
182.05629658699036,-400000.0625,10482.599609375,2207.570068359375,-400000.0625,-2385.570068359375,-400000.0625,6346.27001953125,-400000.0625
182.0617299079895,-400000.0625,10487.75,2212.47998046875,-400000.0625,-2374.219970703125,-400000.0625,6358.2900390625,-400000.0625
182.0691797733307,-400000.0625,10495.4296875,2221.06005859375,-400000.0625,-2375.64990234375,-400000.0625,6369.72998046875,-400000.0625
182.07525634765625,-400000.0625,10494.900390625,2221.780029296875,-400000.0625,-2384.3798828125,-400000.0625,6364.580078125,-400000.0625
182.08760404586792,-400000.0625,10486.8896484375,2212.570068359375,-400000.0625,-2389.0,-400000.0625,6350.9501953125,-400000.0625
182.09298133850098,-400000.0625,10483.41015625,2209.6201171875,-400000.0625,-2389.719970703125,-400000.0625,6347.080078125,-400000.0625
182.09833765029907,-400000.0625,10493.1396484375,2221.780029296875,-400000.0625,-2377.3701171875,-400000.0625,6356.85986328125,-400000.0625
182.10445857048035,-400000.0625,10504.91015625,2229.7900390625,-400000.0625,-2360.919921875,-400000.0625,6366.43994140625,-400000.0625
182.10983800888062,-400000.0625,10502.5302734375,2224.35009765625,-400000.0625,-2378.179931640625,-400000.0625,6363.6298828125,-400000.0625
182.1148238182068,-400000.0625,10485.75,2211.050048828125,-400000.0625,-2386.280029296875,-400000.0625,6351.08984375,-400000.0625
182.1148340702057,-400000.0625,10487.83984375,2211.860107421875,-400000.0625,-2387.139892578125,-400000.0625,6352.759765625,-400000.0625
182.11483883857727,-400000.0625,10498.7197265625,2221.5400390625,-400000.0625,-2374.4599609375,-400000.0625,6364.8701171875,-400000.0625
182.11484384536743,-400000.0625,10500.33984375,2226.2099609375,-400000.0625,-2359.919921875,-400000.0625,6376.41015625,-400000.0625
182.12124061584473,-400000.0625,10500.3798828125,2222.969970703125,-400000.0625,-2380.89990234375,-400000.0625,6376.89013671875,-400000.0625
182.12658071517944,-400000.0625,10492.990234375,2213.909912109375,-400000.0625,-2406.550048828125,-400000.0625,6361.33984375,-400000.0625
182.13183498382568,-400000.0625,10488.650390625,2210.469970703125,-400000.0625,-2401.159912109375,-400000.0625,6357.0498046875,-400000.0625
182.13864135742188,-400000.0625,10498.48046875,2218.10009765625,-400000.0625,-2380.56005859375,-400000.0625,6368.2099609375,-400000.0625
182.14404726028442,-400000.0625,10505.9599609375,2227.35009765625,-400000.0625,-2369.169921875,-400000.0625,6375.83984375,-400000.0625
182.1501100063324,-400000.0625,10499.48046875,2223.780029296875,-400000.0625,-2373.5,-400000.0625,6372.740234375,-400000.0625
182.15619134902954,-400000.0625,10485.2197265625,2211.18994140625,-400000.0625,-2374.93994140625,-400000.0625,6357.9599609375,-400000.0625
182.16200804710388,-400000.0625,10479.4501953125,2207.949951171875,-400000.0625,-2370.31005859375,-400000.0625,6353.18994140625,-400000.0625
182.1688814163208,-400000.0625,10495.330078125,2218.06005859375,-400000.0625,-2376.75,-400000.0625,6362.14990234375,-400000.0625
182.17534756660461,-400000.0625,10502.8603515625,2228.639892578125,-400000.0625,-2386.469970703125,-400000.0625,6371.68994140625,-400000.0625
182.18653964996338,-400000.0625,10498.330078125,2222.590087890625,-400000.0625,-2396.820068359375,-400000.0625,6365.10986328125,-400000.0625
182.19201469421387,-400000.0625,10486.8896484375,2210.18994140625,-400000.0625,-2409.7900390625,-400000.0625,6354.759765625,-400000.0625
182.1970694065094,-400000.0625,10481.83984375,2204.800048828125,-400000.0625,-2399.39990234375,-400000.0625,6353.81005859375,-400000.0625
182.2060706615448,-400000.0625,10487.7998046875,2212.81005859375,-400000.0625,-2381.989990234375,-400000.0625,6362.6298828125,-400000.0625
182.21207427978516,-400000.0625,10495.9501953125,2220.820068359375,-400000.0625,-2375.320068359375,-400000.0625,6370.02001953125,-400000.0625
182.21924948692322,-400000.0625,10496.08984375,2220.679931640625,-400000.0625,-2363.35009765625,-400000.0625,6363.6298828125,-400000.0625
182.2247383594513,-400000.0625,10478.9697265625,2207.22998046875,-400000.0625,-2379.22998046875,-400000.0625,6353.08984375,-400000.0625
182.22965598106384,-400000.0625,10477.1103515625,2202.699951171875,-400000.0625,-2386.3798828125,-400000.0625,6353.14013671875,-400000.0625
182.22966504096985,-400000.0625,10490.5595703125,2216.389892578125,-400000.0625,-2381.280029296875,-400000.0625,6366.06005859375,-400000.0625
182.22966980934143,-400000.0625,10501.150390625,2228.780029296875,-400000.0625,-2375.93994140625,-400000.0625,6375.740234375,-400000.0625
182.22967433929443,-400000.0625,10501.4296875,2230.02001953125,-400000.0625,-2395.530029296875,-400000.0625,6370.93017578125,-400000.0625
182.22967839241028,-400000.0625,10484.8896484375,2213.530029296875,-400000.0625,-2399.780029296875,-400000.0625,6356.18994140625,-400000.0625
182.2296826839447,-400000.0625,10483.5498046875,2211.139892578125,-400000.0625,-2383.52001953125,-400000.0625,6354.2900390625,-400000.0625
182.2296872138977,-400000.0625,10493.9501953125,2217.669921875,-400000.0625,-2381.179931640625,-400000.0625,6364.16015625,-400000.0625
182.22969126701355,-400000.0625,10500.240234375,2221.580078125,-400000.0625,-2367.449951171875,-400000.0625,6367.58984375,-400000.0625
182.2296953201294,-400000.0625,10495.1396484375,2218.530029296875,-400000.0625,-2367.929931640625,-400000.0625,6361.6298828125,-400000.0625
182.22969961166382,-400000.0625,10482.83984375,2205.7099609375,-400000.0625,-2375.56005859375,-400000.0625,6348.990234375,-400000.0625
182.22970366477966,-400000.0625,10481.740234375,2204.699951171875,-400000.0625,-2374.4599609375,-400000.0625,6352.08984375,-400000.0625
182.22970819473267,-400000.0625,10494.8095703125,2217.25,-400000.0625,-2380.610107421875,-400000.0625,6366.10986328125,-400000.0625
182.2297122478485,-400000.0625,10504.6298828125,2229.60009765625,-400000.0625,-2390.2900390625,-400000.0625,6376.64990234375,-400000.0625
182.22971630096436,-400000.0625,10498.240234375,2223.590087890625,-400000.0625,-2401.8798828125,-400000.0625,6372.35986328125,-400000.0625
182.2297203540802,-400000.0625,10481.98046875,2205.56005859375,-400000.0625,-2379.75,-400000.0625,6359.669921875,-400000.0625
182.22972440719604,-400000.0625,10481.5498046875,2204.0400390625,-400000.0625,-2366.35009765625,-400000.0625,6353.330078125,-400000.0625
182.22972869873047,-400000.0625,10485.4599609375,2211.47998046875,-400000.0625,-2369.070068359375,-400000.0625,6361.490234375,-400000.0625
182.22973442077637,-400000.0625,10492.51953125,2219.580078125,-400000.0625,-2366.070068359375,-400000.0625,6369.2099609375,-400000.0625
182.22973895072937,-400000.0625,10489.3701171875,2215.2900390625,-400000.0625,-2377.56005859375,-400000.0625,6367.72998046875,-400000.0625
182.2297432422638,-400000.0625,10479.5,2201.030029296875,-400000.0625,-2398.35009765625,-400000.0625,6361.43994140625,-400000.0625
182.23692297935486,-400000.0625,10484.4599609375,2204.659912109375,-400000.0625,-2398.820068359375,-400000.0625,6360.91015625,-400000.0625
182.24273896217346,-400000.0625,10496.4296875,2216.6298828125,-400000.0625,-2379.3701171875,-400000.0625,6370.5,-400000.0625
182.24836254119873,-400000.0625,10499.240234375,2222.72998046875,-400000.0625,-2380.22998046875,-400000.0625,6377.7900390625,-400000.0625
182.25468921661377,-400000.0625,10496.330078125,2219.25,-400000.0625,-2385.570068359375,-400000.0625,6372.259765625,-400000.0625
182.25999307632446,-400000.0625,10479.830078125,2205.56005859375,-400000.0625,-2375.510009765625,-400000.0625,6356.10009765625,-400000.0625
182.26530075073242,-400000.0625,10480.01953125,2205.179931640625,-400000.0625,-2368.070068359375,-400000.0625,6354.43017578125,-400000.0625
182.2712380886078,-400000.0625,10491.1298828125,2214.669921875,-400000.0625,-2373.550048828125,-400000.0625,6366.16015625,-400000.0625
182.2765338420868,-400000.0625,10502.669921875,2225.449951171875,-400000.0625,-2371.60009765625,-400000.0625,6375.4599609375,-400000.0625
182.28772115707397,-400000.0625,10502.8603515625,2225.35009765625,-400000.0625,-2361.389892578125,-400000.0625,6373.06982421875,-400000.0625
182.29293727874756,-400000.0625,10487.1298828125,2210.570068359375,-400000.0625,-2369.1201171875,-400000.0625,6361.52978515625,-400000.0625
182.29822897911072,-400000.0625,10485.1298828125,2210.139892578125,-400000.0625,-2384.22998046875,-400000.0625,6361.68017578125,-400000.0625
182.31145548820496,-400000.0625,10498.240234375,2221.679931640625,-400000.0625,-2394.010009765625,-400000.0625,6372.169921875,-400000.0625
182.32038283348083,-400000.0625,10503.580078125,2226.72998046875,-400000.0625,-2387.0,-400000.0625,6376.080078125,-400000.0625
182.3259470462799,-400000.0625,10496.4697265625,2219.8701171875,-400000.0625,-2357.580078125,-400000.0625,6367.35009765625,-400000.0625
182.33189988136292,-400000.0625,10482.3603515625,2206.75,-400000.0625,-2361.489990234375,-400000.0625,6356.669921875,-400000.0625
182.33977103233337,-400000.0625,10475.6796875,2204.699951171875,-400000.0625,-2374.1201171875,-400000.0625,6352.66015625,-400000.0625
182.34529209136963,-400000.0625,10490.6103515625,2217.820068359375,-400000.0625,-2379.469970703125,-400000.0625,6363.919921875,-400000.0625
182.35172367095947,-400000.0625,10500.0,2228.070068359375,-400000.0625,-2379.22998046875,-400000.0625,6373.31005859375,-400000.0625
182.35800695419312,-400000.0625,10491.3203125,2221.010009765625,-400000.0625,-2367.780029296875,-400000.0625,6373.169921875,-400000.0625
182.3630850315094,-400000.0625,10482.98046875,2209.0,-400000.0625,-2369.97998046875,-400000.0625,6365.39990234375,-400000.0625
182.36957454681396,-400000.0625,10486.5595703125,2210.330078125,-400000.0625,-2375.4599609375,-400000.0625,6358.240234375,-400000.0625
182.37508869171143,-400000.0625,10492.3701171875,2216.2900390625,-400000.0625,-2366.39990234375,-400000.0625,6362.43994140625,-400000.0625
182.38044548034668,-400000.0625,10499.8095703125,2222.199951171875,-400000.0625,-2365.5400390625,-400000.0625,6372.97998046875,-400000.0625
182.39209532737732,-400000.0625,10494.1904296875,2218.2900390625,-400000.0625,-2377.219970703125,-400000.0625,6366.68017578125,-400000.0625
182.39920115470886,-400000.0625,10483.599609375,2207.570068359375,-400000.0625,-2385.7099609375,-400000.0625,6356.240234375,-400000.0625
182.40489554405212,-400000.0625,10481.8798828125,2203.699951171875,-400000.0625,-2375.840087890625,-400000.0625,6351.0400390625,-400000.0625
182.41032075881958,-400000.0625,10491.0400390625,2215.239990234375,-400000.0625,-2364.489990234375,-400000.0625,6357.9599609375,-400000.0625
182.41566133499146,-400000.0625,10504.0595703125,2226.31005859375,-400000.0625,-2356.9599609375,-400000.0625,6369.35009765625,-400000.0625
182.42160296440125,-400000.0625,10496.240234375,2219.300048828125,-400000.0625,-2363.6298828125,-400000.0625,6366.77978515625,-400000.0625
182.42685294151306,-400000.0625,10478.830078125,2203.320068359375,-400000.0625,-2384.3798828125,-400000.0625,6354.2900390625,-400000.0625
182.43249797821045,-400000.0625,10479.1201171875,2200.7900390625,-400000.0625,-2382.090087890625,-400000.0625,6350.7099609375,-400000.0625
182.43953847885132,-400000.0625,10489.509765625,2211.280029296875,-400000.0625,-2378.75,-400000.0625,6359.240234375,-400000.0625
182.44519019126892,-400000.0625,10499.759765625,2220.820068359375,-400000.0625,-2371.169921875,-400000.0625,6368.490234375,-400000.0625
182.45306992530823,-400000.0625,10496.2802734375,2216.050048828125,-400000.0625,-2362.820068359375,-400000.0625,6362.2001953125,-400000.0625
182.45872831344604,-400000.0625,10479.830078125,2203.22998046875,-400000.0625,-2366.830078125,-400000.0625,6351.81005859375,-400000.0625
182.46390295028687,-400000.0625,10476.16015625,2199.320068359375,-400000.0625,-2372.739990234375,-400000.0625,6353.759765625,-400000.0625
182.47100234031677,-400000.0625,10487.75,2208.139892578125,-400000.0625,-2366.300048828125,-400000.0625,6359.2900390625,-400000.0625
182.47651147842407,-400000.0625,10494.1396484375,2213.570068359375,-400000.0625,-2358.719970703125,-400000.0625,6362.52978515625,-400000.0625
182.4821276664734,-400000.0625,10492.0400390625,2210.7099609375,-400000.0625,-2373.5,-400000.0625,6359.9599609375,-400000.0625
182.4965898990631,-400000.0625,10480.6904296875,2198.60009765625,-400000.0625,-2405.02001953125,-400000.0625,6351.81005859375,-400000.0625
182.5043659210205,-400000.0625,10478.0703125,2197.080078125,-400000.0625,-2388.429931640625,-400000.0625,6345.75,-400000.0625
182.50977516174316,-400000.0625,10487.2197265625,2210.3798828125,-400000.0625,-2356.820068359375,-400000.0625,6356.52978515625,-400000.0625
182.5150842666626,-400000.0625,10492.66015625,2216.820068359375,-400000.0625,-2346.949951171875,-400000.0625,6366.2998046875,-400000.0625
182.52351069450378,-400000.0625,10489.0400390625,2212.81005859375,-400000.0625,-2359.10009765625,-400000.0625,6361.52978515625,-400000.0625
182.52885580062866,-400000.0625,10478.8798828125,2200.64990234375,-400000.0625,-2379.320068359375,-400000.0625,6348.7099609375,-400000.0625
182.5388867855072,-400000.0625,10472.9697265625,2193.929931640625,-400000.0625,-2373.169921875,-400000.0625,6346.18017578125,-400000.0625
182.54425883293152,-400000.0625,10480.3603515625,2201.27001953125,-400000.0625,-2370.7900390625,-400000.0625,6357.47998046875,-400000.0625
182.5570182800293,-400000.0625,10258.5302734375,2089.830078125,-400000.0625,-2362.919921875,-400000.0625,6205.1298828125,-400000.0625
182.5570421218872,-400000.0625,10253.7197265625,2086.8798828125,-400000.0625,-2346.1298828125,-400000.0625,6202.41015625,-400000.0625
182.55704736709595,-400000.0625,10243.080078125,2078.25,-400000.0625,-2354.909912109375,-400000.0625,6191.64013671875,-400000.0625
182.55705213546753,-400000.0625,10242.83984375,2076.14990234375,-400000.0625,-2367.1201171875,-400000.0625,6189.6298828125,-400000.0625
182.5570569038391,-400000.0625,10253.099609375,2083.590087890625,-400000.0625,-2367.35009765625,-400000.0625,6202.1298828125,-400000.0625
182.5570616722107,-400000.0625,10266.58984375,2097.64990234375,-400000.0625,-2370.68994140625,-400000.0625,6212.27978515625,-400000.0625
182.55706596374512,-400000.0625,10264.6396484375,2095.840087890625,-400000.0625,-2389.530029296875,-400000.0625,6213.669921875,-400000.0625
182.55707049369812,-400000.0625,10249.330078125,2078.6298828125,-400000.0625,-2399.72998046875,-400000.0625,6198.41015625,-400000.0625
182.55707478523254,-400000.0625,10242.1298828125,2071.2900390625,-400000.0625,-2378.85009765625,-400000.0625,6190.77978515625,-400000.0625
182.55707907676697,-400000.0625,10243.1298828125,2080.14990234375,-400000.0625,-2366.590087890625,-400000.0625,6199.89013671875,-400000.0625
182.55708384513855,-400000.0625,10262.4404296875,2098.93994140625,-400000.0625,-2357.239990234375,-400000.0625,6214.08984375,-400000.0625
182.55708861351013,-400000.0625,10277.6103515625,2107.760009765625,-400000.0625,-2351.239990234375,-400000.0625,6207.93994140625,-400000.0625
182.55709314346313,-400000.0625,10272.26953125,2100.89990234375,-400000.0625,-2370.260009765625,-400000.0625,6191.72998046875,-400000.0625
182.55709791183472,-400000.0625,10272.1201171875,2098.93994140625,-400000.0625,-2370.169921875,-400000.0625,6185.06005859375,-400000.0625
182.55710196495056,-400000.0625,10285.5703125,2109.530029296875,-400000.0625,-2363.590087890625,-400000.0625,6188.25,-400000.0625
182.55710625648499,-400000.0625,10295.2001953125,2121.39990234375,-400000.0625,-2371.070068359375,-400000.0625,6190.2099609375,-400000.0625
182.5571105480194,-400000.0625,10301.1103515625,2128.889892578125,-400000.0625,-2360.14990234375,-400000.0625,6185.47998046875,-400000.0625
182.55711555480957,-400000.0625,10289.8095703125,2121.260009765625,-400000.0625,-2350.659912109375,-400000.0625,6172.85009765625,-400000.0625
182.55711960792542,-400000.0625,10283.5703125,2118.830078125,-400000.0625,-2358.679931640625,-400000.0625,6161.31005859375,-400000.0625
182.55712366104126,-400000.0625,10292.2001953125,2125.739990234375,-400000.0625,-2356.239990234375,-400000.0625,6164.93017578125,-400000.0625
182.5571277141571,-400000.0625,10301.9697265625,2135.56005859375,-400000.0625,-2358.6298828125,-400000.0625,6171.0400390625,-400000.0625
182.5571324825287,-400000.0625,10296.73046875,2133.080078125,-400000.0625,-2359.489990234375,-400000.0625,6175.52001953125,-400000.0625
182.5571367740631,-400000.0625,10286.330078125,2124.2099609375,-400000.0625,-2358.25,-400000.0625,6165.64990234375,-400000.0625
182.55714082717896,-400000.0625,10280.4697265625,2118.489990234375,-400000.0625,-2377.080078125,-400000.0625,6159.5,-400000.0625
182.55714511871338,-400000.0625,10287.9501953125,2124.360107421875,-400000.0625,-2368.39990234375,-400000.0625,6169.1298828125,-400000.0625
182.55715131759644,-400000.0625,10300.01953125,2133.800048828125,-400000.0625,-2346.090087890625,-400000.0625,6178.85986328125,-400000.0625
182.55715537071228,-400000.0625,10301.259765625,2136.419921875,-400000.0625,-2348.469970703125,-400000.0625,6174.27978515625,-400000.0625
182.5571596622467,-400000.0625,10288.1396484375,2125.31005859375,-400000.0625,-2365.06005859375,-400000.0625,6164.60009765625,-400000.0625
182.55716395378113,-400000.0625,10283.900390625,2120.159912109375,-400000.0625,-2367.070068359375,-400000.0625,6156.490234375,-400000.0625
182.55716824531555,-400000.0625,10291.099609375,2125.550048828125,-400000.0625,-2364.25,-400000.0625,6157.97021484375,-400000.0625
182.5571722984314,-400000.0625,10300.349609375,2132.4599609375,-400000.0625,-2365.590087890625,-400000.0625,6172.56005859375,-400000.0625
182.55717635154724,-400000.0625,10299.830078125,2132.699951171875,-400000.0625,-2385.949951171875,-400000.0625,6172.08984375,-400000.0625
182.55718088150024,-400000.0625,10284.6201171875,2119.260009765625,-400000.0625,-2370.360107421875,-400000.0625,6153.77001953125,-400000.0625
182.55718517303467,-400000.0625,10280.1796875,2113.530029296875,-400000.0625,-2355.0,-400000.0625,6150.91015625,-400000.0625
182.5571892261505,-400000.0625,10293.0595703125,2128.60009765625,-400000.0625,-2351.7099609375,-400000.0625,6162.5498046875,-400000.0625
182.55719375610352,-400000.0625,10303.6904296875,2139.3798828125,-400000.0625,-2349.89990234375,-400000.0625,6172.93994140625,-400000.0625
182.55719780921936,-400000.0625,10304.740234375,2137.800048828125,-400000.0625,-2368.159912109375,-400000.0625,6169.83984375,-400000.0625
182.55720233917236,-400000.0625,10289.33984375,2125.840087890625,-400000.0625,-2371.8798828125,-400000.0625,6160.1201171875,-400000.0625
182.5572063922882,-400000.0625,10283.4697265625,2121.31005859375,-400000.0625,-2358.8701171875,-400000.0625,6158.830078125,-400000.0625
182.5572109222412,-400000.0625,10292.2900390625,2129.7900390625,-400000.0625,-2358.010009765625,-400000.0625,6167.93994140625,-400000.0625
182.55721497535706,-400000.0625,10305.0703125,2141.3798828125,-400000.0625,-2360.679931640625,-400000.0625,6176.27978515625,-400000.0625
182.55721950531006,-400000.0625,10310.7900390625,2144.050048828125,-400000.0625,-2355.050048828125,-400000.0625,6176.419921875,-400000.0625
182.55722379684448,-400000.0625,10299.1103515625,2134.320068359375,-400000.0625,-2361.679931640625,-400000.0625,6162.830078125,-400000.0625
182.55722784996033,-400000.0625,10291.2900390625,2129.75,-400000.0625,-2360.919921875,-400000.0625,6153.2998046875,-400000.0625
182.55723214149475,-400000.0625,10299.73046875,2141.139892578125,-400000.0625,-2350.81005859375,-400000.0625,6161.02001953125,-400000.0625
182.55723643302917,-400000.0625,10315.900390625,2154.5400390625,-400000.0625,-2348.89990234375,-400000.0625,6169.31982421875,-400000.0625
182.55724048614502,-400000.0625,10316.75,2153.159912109375,-400000.0625,-2365.35009765625,-400000.0625,6170.419921875,-400000.0625
182.55724453926086,-400000.0625,10301.0703125,2141.3798828125,-400000.0625,-2374.97998046875,-400000.0625,6159.35009765625,-400000.0625
182.5572485923767,-400000.0625,10298.2998046875,2137.179931640625,-400000.0625,-2372.739990234375,-400000.0625,6157.919921875,-400000.0625
182.55725264549255,-400000.0625,10302.830078125,2144.10009765625,-400000.0625,-2356.580078125,-400000.0625,6162.169921875,-400000.0625
182.5572590827942,-400000.0625,10310.41015625,2152.110107421875,-400000.0625,-2341.1298828125,-400000.0625,6169.4599609375,-400000.0625
182.55726313591003,-400000.0625,10307.98046875,2149.25,-400000.0625,-2327.300048828125,-400000.0625,6169.4599609375,-400000.0625
182.55726718902588,-400000.0625,10296.349609375,2136.85009765625,-400000.0625,-2347.989990234375,-400000.0625,6159.97021484375,-400000.0625
182.5572714805603,-400000.0625,10292.4404296875,2134.85009765625,-400000.0625,-2361.820068359375,-400000.0625,6157.02001953125,-400000.0625
182.55727553367615,-400000.0625,10298.2998046875,2143.340087890625,-400000.0625,-2353.139892578125,-400000.0625,6166.27001953125,-400000.0625
182.5572793483734,-400000.0625,10309.2197265625,2155.02001953125,-400000.0625,-2351.6201171875,-400000.0625,6179.7099609375,-400000.0625
182.55728363990784,-400000.0625,10308.7001953125,2151.580078125,-400000.0625,-2366.590087890625,-400000.0625,6178.759765625,-400000.0625
182.5572874546051,-400000.0625,10294.919921875,2136.0400390625,-400000.0625,-2375.7900390625,-400000.0625,6163.5,-400000.0625
182.5572919845581,-400000.0625,10290.5302734375,2134.22998046875,-400000.0625,-2379.22998046875,-400000.0625,6159.06982421875,-400000.0625
182.55729627609253,-400000.0625,10298.8701171875,2141.050048828125,-400000.0625,-2362.919921875,-400000.0625,6169.75,-400000.0625
182.55730032920837,-400000.0625,10311.3203125,2151.780029296875,-400000.0625,-2346.1298828125,-400000.0625,6181.0498046875,-400000.0625
182.55730438232422,-400000.0625,10303.8798828125,2149.8701171875,-400000.0625,-2328.489990234375,-400000.0625,6173.27978515625,-400000.0625
182.55730843544006,-400000.0625,10282.849609375,2135.469970703125,-400000.0625,-2349.090087890625,-400000.0625,6151.490234375,-400000.0625
182.5573124885559,-400000.0625,10274.98046875,2126.8798828125,-400000.0625,-2375.4599609375,-400000.0625,6153.43994140625,-400000.0625
182.55731678009033,-400000.0625,10279.7998046875,2124.830078125,-400000.0625,-2368.68994140625,-400000.0625,6173.330078125,-400000.0625
