time,ch1,ch2,ch3,ch4,ch5
timestamp,ch7,ch2,ch3,ch5,is_pause
timestamp,ch7,ch2,ch3,ch5,is_pause
timestamp,ch7,ch2,ch3,ch5,is_pause
timestamp,ch7,ch2,ch3,ch5,is_pause
timestamp,ch7,ch2,ch3,ch5,is_pause
0.06758928298950195,-400000.0625,9802.6796875,2453.0400390625,-400000.0625,-1783.9000244140625,-400000.0625,6254.91015625,-400000.0625
0.06779694557189941,-400000.0625,9809.8798828125,2463.43994140625,-400000.0625,-1761.010009765625,-400000.0625,6265.35009765625,-400000.0625
0.0678403377532959,-400000.0625,9858.990234375,2512.550048828125,-400000.0625,-1708.699951171875,-400000.0625,6314.22998046875,-400000.0625
0.06784939765930176,-400000.0625,9882.3603515625,2534.679931640625,-400000.0625,-1687.6199951171875,-400000.0625,6332.8798828125,-400000.0625
0.0678563117980957,-400000.0625,9842.7802734375,2498.820068359375,-400000.0625,-1725.3900146484375,-400000.0625,6298.97021484375,-400000.0625
0.06786251068115234,-400000.0625,9801.7197265625,2458.050048828125,-400000.0625,-1772.5,-400000.0625,6255.91015625,-400000.0625
0.06786870956420898,-400000.0625,9813.740234375,2466.77001953125,-400000.0625,-1766.780029296875,-400000.0625,6261.77978515625,-400000.0625
0.06787443161010742,-400000.0625,9864.1904296875,2519.1298828125,-400000.0625,-1722.0999755859375,-400000.0625,6314.66015625,-400000.0625
0.06787991523742676,-400000.0625,9891.26953125,2543.639892578125,-400000.0625,-1702.1700439453125,-400000.0625,6343.080078125,-400000.0625
0.0678856372833252,-400000.0625,9850.6904296875,2507.5400390625,-400000.0625,-1728.8699951171875,-400000.0625,6307.93994140625,-400000.0625
0.06789135932922363,-400000.0625,9800.76953125,2461.340087890625,-400000.0625,-1771.969970703125,-400000.0625,6260.25,-400000.0625
0.06789684295654297,-400000.0625,9810.9296875,2466.489990234375,-400000.0625,-1762.6300048828125,-400000.0625,6273.4599609375,-400000.0625
0.06790304183959961,-400000.0625,9862.7099609375,2511.739990234375,-400000.0625,-1714.22998046875,-400000.0625,6328.2998046875,-400000.0625
0.06790876388549805,-400000.0625,9887.26953125,2535.8701171875,-400000.0625,-1681.6099853515625,-400000.0625,6358.6201171875,-400000.0625
0.06791424751281738,-400000.0625,9846.9296875,2496.580078125,-400000.0625,-1710.8900146484375,-400000.0625,6315.9501953125,-400000.0625
0.06791973114013672,-400000.0625,9784.5595703125,2437.260009765625,-400000.0625,-1767.489990234375,-400000.0625,6262.259765625,-400000.0625
timestamp,ch7,ch2,ch3,ch5,is_pause
timestamp,ch7,ch2,ch3,ch5,is_pause
timestamp,ch7,ch2,ch3,ch5,is_pause
timestamp,ch7,ch2,ch3,ch5,is_pause
timestamp,ch7,ch2,ch3,ch5,is_pause
0.12778973579406738,-400000.0625,9795.7099609375,2450.1298828125,-400000.0625,-1767.300048828125,-400000.0625,6275.7998046875,-400000.0625
0.1279277801513672,-400000.0625,9852.8896484375,2504.06005859375,-400000.0625,-1726.9100341796875,-400000.0625,6327.43994140625,-400000.0625
0.1279449462890625,-400000.0625,9881.9296875,2530.050048828125,-400000.0625,-1708.1300048828125,-400000.0625,6357.43017578125,-400000.0625
0.1279594898223877,-400000.0625,9842.0595703125,2490.570068359375,-400000.0625,-1732.3499755859375,-400000.0625,6322.43017578125,-400000.0625
0.12797284126281738,-400000.0625,9793.0400390625,2443.889892578125,-400000.0625,-1778.4599609375,-400000.0625,6272.56005859375,-400000.0625
0.13395357131958008,-400000.0625,9800.7197265625,2452.760009765625,-400000.0625,-1764.43994140625,-400000.0625,6276.509765625,-400000.0625
0.13405299186706543,-400000.0625,9850.6904296875,2500.9599609375,-400000.0625,-1707.97998046875,-400000.0625,6329.16015625,-400000.0625
0.13406968116760254,-400000.0625,9878.1103515625,2527.18994140625,-400000.0625,-1684.6199951171875,-400000.0625,6348.52001953125,-400000.0625
0.13408613204956055,-400000.0625,9841.8203125,2493.18994140625,-400000.0625,-1717.280029296875,-400000.0625,6312.56005859375,-400000.0625
0.13409972190856934,-400000.0625,9797.5302734375,2448.3701171875,-400000.0625,-1767.43994140625,-400000.0625,6268.02978515625,-400000.0625
0.13411331176757812,-400000.0625,9805.009765625,2456.090087890625,-400000.0625,-1769.5899658203125,-400000.0625,6278.08984375,-400000.0625
0.13412714004516602,-400000.0625,9863.6201171875,2515.840087890625,-400000.0625,-1712.75,-400000.0625,6336.31005859375,-400000.0625
0.1341404914855957,-400000.0625,9890.7001953125,2540.5400390625,-400000.0625,-1694.6300048828125,-400000.0625,6359.9599609375,-400000.0625
0.13416099548339844,-400000.0625,9845.01953125,2493.47998046875,-400000.0625,-1746.8900146484375,-400000.0625,6315.18017578125,-400000.0625
0.13417935371398926,-400000.0625,9786.080078125,2438.830078125,-400000.0625,-1789.5699462890625,-400000.0625,6262.58984375,-400000.0625
0.13419342041015625,-400000.0625,9790.849609375,2446.699951171875,-400000.0625,-1763.77001953125,-400000.0625,6269.169921875,-400000.0625
timestamp,ch7,ch2,ch3,ch5,is_pause
timestamp,ch7,ch2,ch3,ch5,is_pause
timestamp,ch7,ch2,ch3,ch5,is_pause
timestamp,ch7,ch2,ch3,ch5,is_pause
timestamp,ch7,ch2,ch3,ch5,is_pause
timestamp,ch7,ch2,ch3,ch5,is_pause
timestamp,ch7,ch2,ch3,ch5,is_pause
timestamp,ch7,ch2,ch3,ch5,is_pause
0.22779297828674316,-400000.0625,9850.83984375,2502.389892578125,-400000.0625,-1707.1700439453125,-400000.0625,6321.91015625,-400000.0625
0.22793197631835938,-400000.0625,9877.73046875,2528.330078125,-400000.0625,-1680.760009765625,-400000.0625,6348.1298828125,-400000.0625
0.22794461250305176,-400000.0625,9840.6298828125,2492.0,-400000.0625,-1730.1600341796875,-400000.0625,6315.56982421875,-400000.0625
0.2279527187347412,-400000.0625,9796.91015625,2446.080078125,-400000.0625,-1782.8499755859375,-400000.0625,6272.27001953125,-400000.0625
0.22796106338500977,-400000.0625,9801.4404296875,2453.52001953125,-400000.0625,-1761.77001953125,-400000.0625,6279.759765625,-400000.0625
0.22796869277954102,-400000.0625,9856.650390625,2507.590087890625,-400000.0625,-1717.4200439453125,-400000.0625,6331.2099609375,-400000.0625
0.22797727584838867,-400000.0625,9881.4501953125,2530.77001953125,-400000.0625,-1696.5400390625,-400000.0625,6356.3798828125,-400000.0625
0.23142027854919434,-400000.0625,9843.2998046875,2498.580078125,-400000.0625,-1718.7099609375,-400000.0625,6324.10009765625,-400000.0625
0.2314455509185791,-400000.0625,9805.349609375,2460.340087890625,-400000.0625,-1757.6199951171875,-400000.0625,6283.7099609375,-400000.0625
0.2314598560333252,-400000.0625,9809.5400390625,2463.909912109375,-400000.0625,-1759.8199462890625,-400000.0625,6288.39013671875,-400000.0625
0.23148107528686523,-400000.0625,9846.6396484375,2502.489990234375,-400000.0625,-1729.3499755859375,-400000.0625,6322.0498046875,-400000.0625
0.23149466514587402,-400000.0625,9874.0595703125,2529.530029296875,-400000.0625,-1693.6800537109375,-400000.0625,6346.60986328125,-400000.0625
0.2315073013305664,-400000.0625,9839.919921875,2494.860107421875,-400000.0625,-1730.6800537109375,-400000.0625,6315.85009765625,-400000.0625
0.2315201759338379,-400000.0625,9797.099609375,2447.1298828125,-400000.0625,-1784.93994140625,-400000.0625,6270.5498046875,-400000.0625
0.23153233528137207,-400000.0625,9806.2099609375,2456.760009765625,-400000.0625,-1784.0400390625,-400000.0625,6280.52001953125,-400000.0625
0.23154711723327637,-400000.0625,9859.1796875,2514.7900390625,-400000.0625,-1720.949951171875,-400000.0625,6333.5400390625,-400000.0625
timestamp,ch7,ch2,ch3,ch5,is_pause
0.24979186058044434,-400000.0625,9886.1201171875,2542.31005859375,-400000.0625,-1678.3199462890625,-400000.0625,6359.85986328125,-400000.0625
0.2499532699584961,-400000.0625,9852.3203125,2509.5,-400000.0625,-1716.0899658203125,-400000.0625,6326.52978515625,-400000.0625
0.2499711513519287,-400000.0625,9800.91015625,2460.3798828125,-400000.0625,-1763.43994140625,-400000.0625,6280.330078125,-400000.0625
0.2499852180480957,-400000.0625,9804.2001953125,2461.340087890625,-400000.0625,-1760.2900390625,-400000.0625,6279.60986328125,-400000.0625
0.2499980926513672,-400000.0625,9857.66015625,2514.64990234375,-400000.0625,-1713.1800537109375,-400000.0625,6335.77978515625,-400000.0625
0.25001096725463867,-400000.0625,9882.830078125,2539.5400390625,-400000.0625,-1690.9100341796875,-400000.0625,6360.77001953125,-400000.0625
0.25002551078796387,-400000.0625,9844.2099609375,2499.489990234375,-400000.0625,-1732.1099853515625,-400000.0625,6319.7099609375,-400000.0625
0.25003933906555176,-400000.0625,9792.330078125,2451.1298828125,-400000.0625,-1787.760009765625,-400000.0625,6275.3701171875,-400000.0625
0.25005245208740234,-400000.0625,9803.009765625,2458.860107421875,-400000.0625,-1768.9200439453125,-400000.0625,6286.33984375,-400000.0625
0.2500743865966797,-400000.0625,9856.849609375,2515.320068359375,-400000.0625,-1702.3599853515625,-400000.0625,6341.97998046875,-400000.0625
0.2500929832458496,-400000.0625,9875.009765625,2533.14990234375,-400000.0625,-1702.1199951171875,-400000.0625,6354.759765625,-400000.0625
0.2501060962677002,-400000.0625,9839.9697265625,2496.77001953125,-400000.0625,-1724.2900390625,-400000.0625,6314.08984375,-400000.0625
0.2501194477081299,-400000.0625,9794.3798828125,2450.280029296875,-400000.0625,-1770.0699462890625,-400000.0625,6270.83984375,-400000.0625
0.25013184547424316,-400000.0625,9801.5302734375,2459.340087890625,-400000.0625,-1766.969970703125,-400000.0625,6284.14013671875,-400000.0625
0.25014400482177734,-400000.0625,9854.9404296875,2510.02001953125,-400000.0625,-1729.5400390625,-400000.0625,6335.35009765625,-400000.0625
0.2501561641693115,-400000.0625,9876.4404296875,2533.14990234375,-400000.0625,-1697.2099609375,-400000.0625,6356.3798828125,-400000.0625
timestamp,ch7,ch2,ch3,ch5,is_pause
timestamp,ch7,ch2,ch3,ch5,is_pause
timestamp,ch7,ch2,ch3,ch5,is_pause
timestamp,ch7,ch2,ch3,ch5,is_pause
timestamp,ch7,ch2,ch3,ch5,is_pause
timestamp,ch7,ch2,ch3,ch5,is_pause
0.3292272090911865,-400000.0625,9837.33984375,2496.77001953125,-400000.0625,-1722.2900390625,-400000.0625,6320.6201171875,-400000.0625
timestamp,ch7,ch2,ch3,ch5,is_pause
timestamp,ch7,ch2,ch3,ch5,is_pause
0.35210680961608887,-400000.0625,9796.91015625,2452.610107421875,-400000.0625,-1758.4300537109375,-400000.0625,6277.93994140625,-400000.0625
timestamp,ch7,ch2,ch3,ch5,is_pause
0.36057043075561523,-400000.0625,9806.1103515625,2462.14990234375,-400000.0625,-1755.4300537109375,-400000.0625,6288.47998046875,-400000.0625
0.3677809238433838,-400000.0625,9853.3203125,2508.159912109375,-400000.0625,-1721.81005859375,-400000.0625,6333.16015625,-400000.0625
timestamp,ch7,ch2,ch3,ch5,is_pause
0.37659502029418945,-400000.0625,9875.16015625,2528.6201171875,-400000.0625,-1697.25,-400000.0625,6351.7099609375,-400000.0625
timestamp,ch7,ch2,ch3,ch5,is_pause
0.3872551918029785,-400000.0625,9831.48046875,2491.949951171875,-400000.0625,-1728.43994140625,-400000.0625,6317.27978515625,-400000.0625
timestamp,ch7,ch2,ch3,ch5,is_pause
0.3978888988494873,-400000.0625,9775.4501953125,2442.550048828125,-400000.0625,-1785.949951171875,-400000.0625,6267.830078125,-400000.0625
0.4051527976989746,-400000.0625,9800.33984375,2459.10009765625,-400000.0625,-1757.3399658203125,-400000.0625,6273.93994140625,-400000.0625
timestamp,ch7,ch2,ch3,ch5,is_pause
0.4117586612701416,-400000.0625,9863.8095703125,2516.989990234375,-400000.0625,-1698.5400390625,-400000.0625,6323.14990234375,-400000.0625
0.41710472106933594,-400000.0625,9894.75,2547.169921875,-400000.0625,-1684.760009765625,-400000.0625,6347.1298828125,-400000.0625
timestamp,ch7,ch2,ch3,ch5,is_pause
0.4239678382873535,-400000.0625,9871.669921875,2520.0400390625,-400000.0625,-1727.77001953125,-400000.0625,6312.509765625,-400000.0625
timestamp,ch7,ch2,ch3,ch5,is_pause
0.43474841117858887,-400000.0625,9822.7001953125,2475.7900390625,-400000.0625,-1782.510009765625,-400000.0625,6263.06982421875,-400000.0625
timestamp,ch7,ch2,ch3,ch5,is_pause
0.4523751735687256,-400000.0625,9827.0400390625,2485.800048828125,-400000.0625,-1756.0,-400000.0625,6261.25,-400000.0625
0.4588923454284668,-400000.0625,9882.01953125,2537.780029296875,-400000.0625,-1687.6199951171875,-400000.0625,6305.64990234375,-400000.0625
timestamp,ch7,ch2,ch3,ch5,is_pause
0.4697914123535156,-400000.0625,9910.4404296875,2565.239990234375,-400000.0625,-1669.219970703125,-400000.0625,6330.35009765625,-400000.0625
timestamp,ch7,ch2,ch3,ch5,is_pause
0.48137807846069336,-400000.0625,9878.58984375,2538.489990234375,-400000.0625,-1700.8299560546875,-400000.0625,6298.5,-400000.0625
0.4874727725982666,-400000.0625,9827.5703125,2485.800048828125,-400000.0625,-1751.760009765625,-400000.0625,6245.85009765625,-400000.0625
timestamp,ch7,ch2,ch3,ch5,is_pause
0.49793457984924316,-400000.0625,9824.7099609375,2480.169921875,-400000.0625,-1757.1500244140625,-400000.0625,6242.22998046875,-400000.0625
0.5052883625030518,-400000.0625,9880.73046875,2534.679931640625,-400000.0625,-1720.52001953125,-400000.0625,6298.35009765625,-400000.0625
timestamp,ch7,ch2,ch3,ch5,is_pause
0.5149433612823486,-400000.0625,9910.5400390625,2567.199951171875,-400000.0625,-1689.47998046875,-400000.0625,6330.009765625,-400000.0625
0.5210652351379395,-400000.0625,9875.8203125,2535.77001953125,-400000.0625,-1719.280029296875,-400000.0625,6296.97021484375,-400000.0625
timestamp,ch7,ch2,ch3,ch5,is_pause
0.5298619270324707,-400000.0625,9828.5703125,2485.56005859375,-400000.0625,-1767.72998046875,-400000.0625,6247.9501953125,-400000.0625
timestamp,ch7,ch2,ch3,ch5,is_pause
0.5380215644836426,-400000.0625,9830.1396484375,2488.179931640625,-400000.0625,-1754.760009765625,-400000.0625,6252.10009765625,-400000.0625
timestamp,ch7,ch2,ch3,ch5,is_pause
0.5566742420196533,-400000.0625,9877.25,2537.6298828125,-400000.0625,-1696.489990234375,-400000.0625,6302.60009765625,-400000.0625
timestamp,ch7,ch2,ch3,ch5,is_pause
0.5699496269226074,-400000.0625,9907.7197265625,2569.530029296875,-400000.0625,-1669.1199951171875,-400000.0625,6331.490234375,-400000.0625
timestamp,ch7,ch2,ch3,ch5,is_pause
0.5818877220153809,-400000.0625,9869.76953125,2531.669921875,-400000.0625,-1704.5,-400000.0625,6297.16015625,-400000.0625
0.5884571075439453,-400000.0625,9819.7001953125,2484.27001953125,-400000.0625,-1744.989990234375,-400000.0625,6247.56982421875,-400000.0625
timestamp,ch7,ch2,ch3,ch5,is_pause
0.5995228290557861,-400000.0625,9829.6201171875,2492.6201171875,-400000.0625,-1741.6500244140625,-400000.0625,6249.91015625,-400000.0625
timestamp,ch7,ch2,ch3,ch5,is_pause
0.6061840057373047,-400000.0625,9882.6396484375,2547.360107421875,-400000.0625,-1688.9100341796875,-400000.0625,6302.68994140625,-400000.0625
0.6146430969238281,-400000.0625,9907.580078125,2574.8701171875,-400000.0625,-1663.1600341796875,-400000.0625,6335.39990234375,-400000.0625
timestamp,ch7,ch2,ch3,ch5,is_pause
0.6232607364654541,-400000.0625,9869.240234375,2535.43994140625,-400000.0625,-1711.510009765625,-400000.0625,6297.259765625,-400000.0625
timestamp,ch7,ch2,ch3,ch5,is_pause
0.6346654891967773,-400000.0625,9820.990234375,2487.659912109375,-400000.0625,-1769.72998046875,-400000.0625,6244.330078125,-400000.0625
timestamp,ch7,ch2,ch3,ch5,is_pause
0.6450719833374023,-400000.0625,9826.849609375,2491.3798828125,-400000.0625,-1759.8199462890625,-400000.0625,6252.10009765625,-400000.0625
timestamp,ch7,ch2,ch3,ch5,is_pause
0.6614131927490234,-400000.0625,9876.2998046875,2544.260009765625,-400000.0625,-1709.93994140625,-400000.0625,6306.31982421875,-400000.0625
0.6668925285339355,-400000.0625,9910.5400390625,2577.969970703125,-400000.0625,-1668.1700439453125,-400000.0625,6335.77978515625,-400000.0625
timestamp,ch7,ch2,ch3,ch5,is_pause
0.673851490020752,-400000.0625,9869.3896484375,2536.43994140625,-400000.0625,-1703.6400146484375,-400000.0625,6294.72998046875,-400000.0625
timestamp,ch7,ch2,ch3,ch5,is_pause
0.6857039928436279,-400000.0625,9813.6396484375,2482.93994140625,-400000.0625,-1761.2900390625,-400000.0625,6237.60009765625,-400000.0625
0.6934463977813721,-400000.0625,9821.7998046875,2488.570068359375,-400000.0625,-1738.5999755859375,-400000.0625,6244.22998046875,-400000.0625
timestamp,ch7,ch2,ch3,ch5,is_pause
0.7031311988830566,-400000.0625,9874.5400390625,2542.2099609375,-400000.0625,-1686.18994140625,-400000.0625,6297.10986328125,-400000.0625
timestamp,ch7,ch2,ch3,ch5,is_pause
0.7119686603546143,-400000.0625,9904.33984375,2574.35009765625,-400000.0625,-1671.4599609375,-400000.0625,6331.64013671875,-400000.0625
0.720942497253418,-400000.0625,9868.33984375,2537.679931640625,-400000.0625,-1720.5699462890625,-400000.0625,6297.5400390625,-400000.0625
timestamp,ch7,ch2,ch3,ch5,is_pause
0.7313261032104492,-400000.0625,9817.7001953125,2488.0400390625,-400000.0625,-1759.530029296875,-400000.0625,6249.6201171875,-400000.0625
0.7377099990844727,-400000.0625,9820.509765625,2493.2900390625,-400000.0625,-1756.530029296875,-400000.0625,6259.58984375,-400000.0625
timestamp,ch7,ch2,ch3,ch5,is_pause
0.7493970394134521,-400000.0625,9875.580078125,2549.080078125,-400000.0625,-1715.56005859375,-400000.0625,6310.89013671875,-400000.0625
timestamp,ch7,ch2,ch3,ch5,is_pause
0.7744591236114502,-400000.0625,9902.5703125,2575.5400390625,-400000.0625,-1701.2099609375,-400000.0625,6334.5,-400000.0625
timestamp,ch7,ch2,ch3,ch5,is_pause
0.7902116775512695,-400000.0625,9866.6201171875,2541.489990234375,-400000.0625,-1701.1199951171875,-400000.0625,6302.8798828125,-400000.0625
timestamp,ch7,ch2,ch3,ch5,is_pause
0.8032231330871582,-400000.0625,9830.4296875,2502.6298828125,-400000.0625,-1723.4300537109375,-400000.0625,6250.330078125,-400000.0625
timestamp,ch7,ch2,ch3,ch5,is_pause
0.8146388530731201,-400000.0625,9842.8701171875,2512.409912109375,-400000.0625,-1722.4300537109375,-400000.0625,6244.7099609375,-400000.0625
0.8214926719665527,-400000.0625,9900.8603515625,2571.389892578125,-400000.0625,-1683.280029296875,-400000.0625,6293.490234375,-400000.0625
timestamp,ch7,ch2,ch3,ch5,is_pause
0.8288307189941406,-400000.0625,9933.8095703125,2605.580078125,-400000.0625,-1669.219970703125,-400000.0625,6326.9599609375,-400000.0625
0.8355231285095215,-400000.0625,9900.669921875,2575.300048828125,-400000.0625,-1699.72998046875,-400000.0625,6292.06005859375,-400000.0625
timestamp,ch7,ch2,ch3,ch5,is_pause
0.8435347080230713,-400000.0625,9851.9296875,2523.85009765625,-400000.0625,-1730.9200439453125,-400000.0625,6235.64990234375,-400000.0625
timestamp,ch7,ch2,ch3,ch5,is_pause
0.8528399467468262,-400000.0625,9859.990234375,2531.18994140625,-400000.0625,-1730.5899658203125,-400000.0625,6238.1298828125,-400000.0625
timestamp,ch7,ch2,ch3,ch5,is_pause
0.8722584247589111,-400000.0625,9918.599609375,2592.800048828125,-400000.0625,-1679.6099853515625,-400000.0625,6295.25,-400000.0625
timestamp,ch7,ch2,ch3,ch5,is_pause
0.8840713500976562,-400000.0625,9943.150390625,2617.64990234375,-400000.0625,-1677.1300048828125,-400000.0625,6320.0498046875,-400000.0625
0.8903477191925049,-400000.0625,9895.5595703125,2564.9599609375,-400000.0625,-1739.1700439453125,-400000.0625,6275.75,-400000.0625
timestamp,ch7,ch2,ch3,ch5,is_pause
0.9016354084014893,-400000.0625,9842.8701171875,2516.1298828125,-400000.0625,-1736.9300537109375,-400000.0625,6231.58984375,-400000.0625
timestamp,ch7,ch2,ch3,ch5,is_pause
0.9083743095397949,-400000.0625,9847.9296875,2523.989990234375,-400000.0625,-1721.530029296875,-400000.0625,6236.169921875,-400000.0625
0.9150364398956299,-400000.0625,9901.4296875,2575.8701171875,-400000.0625,-1681.3299560546875,-400000.0625,6286.52978515625,-400000.0625
timestamp,ch7,ch2,ch3,ch5,is_pause
0.9214885234832764,-400000.0625,9931.2802734375,2604.2900390625,-400000.0625,-1660.6300048828125,-400000.0625,6315.56982421875,-400000.0625
timestamp,ch7,ch2,ch3,ch5,is_pause
0.9364995956420898,-400000.0625,9900.0,2575.919921875,-400000.0625,-1687.2900390625,-400000.0625,6280.9501953125,-400000.0625
0.9459536075592041,-400000.0625,9850.1201171875,2528.81005859375,-400000.0625,-1747.1800537109375,-400000.0625,6235.64990234375,-400000.0625
timestamp,ch7,ch2,ch3,ch5,is_pause
0.9560463428497314,-400000.0625,9858.3203125,2534.43994140625,-400000.0625,-1740.9300537109375,-400000.0625,6241.7001953125,-400000.0625
timestamp,ch7,ch2,ch3,ch5,is_pause
timestamp,ch7,ch2,ch3,ch5,is_pause
0.980252742767334,-400000.0625,9905.9599609375,2584.510009765625,-400000.0625,-1686.1400146484375,-400000.0625,6287.10009765625,-400000.0625
0.9896461963653564,-400000.0625,9927.4599609375,2605.719970703125,-400000.0625,-1660.9200439453125,-400000.0625,6311.56005859375,-400000.0625
timestamp,ch7,ch2,ch3,ch5,is_pause
1.0026025772094727,-400000.0625,9893.5595703125,2570.8701171875,-400000.0625,-1688.3399658203125,-400000.0625,6279.27978515625,-400000.0625
timestamp,ch7,ch2,ch3,ch5,is_pause
1.0147385597229004,-400000.0625,9842.2998046875,2523.22998046875,-400000.0625,-1732.4000244140625,-400000.0625,6233.1201171875,-400000.0625
1.0229263305664062,-400000.0625,9849.259765625,2528.2900390625,-400000.0625,-1724.050048828125,-400000.0625,6239.22021484375,-400000.0625
timestamp,ch7,ch2,ch3,ch5,is_pause
1.0369343757629395,-400000.0625,9903.0,2585.4599609375,-400000.0625,-1683.0400390625,-400000.0625,6289.669921875,-400000.0625
timestamp,ch7,ch2,ch3,ch5,is_pause
1.0491001605987549,-400000.0625,9931.7099609375,2616.02001953125,-400000.0625,-1662.8299560546875,-400000.0625,6319.9501953125,-400000.0625
1.055797815322876,-400000.0625,9900.0,2587.699951171875,-400000.0625,-1680.8499755859375,-400000.0625,6291.2001953125,-400000.0625
timestamp,ch7,ch2,ch3,ch5,is_pause
1.0676708221435547,-400000.0625,9853.0302734375,2538.780029296875,-400000.0625,-1728.9200439453125,-400000.0625,6239.60986328125,-400000.0625
timestamp,ch7,ch2,ch3,ch5,is_pause
timestamp,ch7,ch2,ch3,ch5,is_pause
1.0911176204681396,-400000.0625,9846.349609375,2528.6201171875,-400000.0625,-1739.9300537109375,-400000.0625,6231.39990234375,-400000.0625
timestamp,ch7,ch2,ch3,ch5,is_pause
1.1019666194915771,-400000.0625,9890.5595703125,2576.449951171875,-400000.0625,-1690.9599609375,-400000.0625,6282.7099609375,-400000.0625
1.11029052734375,-400000.0625,9920.259765625,2607.110107421875,-400000.0625,-1661.4000244140625,-400000.0625,6311.93994140625,-400000.0625
timestamp,ch7,ch2,ch3,ch5,is_pause
1.1203646659851074,-400000.0625,9894.66015625,2574.919921875,-400000.0625,-1700.739990234375,-400000.0625,6279.14013671875,-400000.0625
timestamp,ch7,ch2,ch3,ch5,is_pause
1.1333496570587158,-400000.0625,9846.1201171875,2527.090087890625,-400000.0625,-1741.5,-400000.0625,6230.5,-400000.0625
timestamp,ch7,ch2,ch3,ch5,is_pause
1.143671989440918,-400000.0625,9845.8798828125,2528.860107421875,-400000.0625,-1734.9200439453125,-400000.0625,6239.18017578125,-400000.0625
1.1534526348114014,-400000.0625,9899.0498046875,2581.97998046875,-400000.0625,-1697.1600341796875,-400000.0625,6289.39013671875,-400000.0625
timestamp,ch7,ch2,ch3,ch5,is_pause
1.1657342910766602,-400000.0625,9926.75,2614.39990234375,-400000.0625,-1664.260009765625,-400000.0625,6315.60986328125,-400000.0625
1.1730875968933105,-400000.0625,9895.990234375,2582.219970703125,-400000.0625,-1684.6199951171875,-400000.0625,6283.56982421875,-400000.0625
timestamp,ch7,ch2,ch3,ch5,is_pause
timestamp,ch7,ch2,ch3,ch5,is_pause
1.194176197052002,-400000.0625,9845.5400390625,2531.580078125,-400000.0625,-1725.530029296875,-400000.0625,6234.60009765625,-400000.0625
1.200124979019165,-400000.0625,9847.6904296875,2533.199951171875,-400000.0625,-1723.77001953125,-400000.0625,6235.97998046875,-400000.0625
timestamp,ch7,ch2,ch3,ch5,is_pause
1.209045648574829,-400000.0625,9895.990234375,2582.8798828125,-400000.0625,-1678.9000244140625,-400000.0625,6285.330078125,-400000.0625
1.216843605041504,-400000.0625,9930.6103515625,2616.929931640625,-400000.0625,-1642.1800537109375,-400000.0625,6317.27978515625,-400000.0625
timestamp,ch7,ch2,ch3,ch5,is_pause
timestamp,ch7,ch2,ch3,ch5,is_pause
1.2348947525024414,-400000.0625,9899.4296875,2585.550048828125,-400000.0625,-1683.239990234375,-400000.0625,6286.43017578125,-400000.0625
1.2441039085388184,-400000.0625,9848.599609375,2535.489990234375,-400000.0625,-1738.8800048828125,-400000.0625,6234.7900390625,-400000.0625
timestamp,ch7,ch2,ch3,ch5,is_pause
timestamp,ch7,ch2,ch3,ch5,is_pause
1.2655446529388428,-400000.0625,9852.2197265625,2539.830078125,-400000.0625,-1738.02001953125,-400000.0625,6241.0400390625,-400000.0625
timestamp,ch7,ch2,ch3,ch5,is_pause
1.283358097076416,-400000.0625,9896.66015625,2585.360107421875,-400000.0625,-1688.1500244140625,-400000.0625,6290.14990234375,-400000.0625
timestamp,ch7,ch2,ch3,ch5,is_pause
1.3002355098724365,-400000.0625,9926.7001953125,2614.070068359375,-400000.0625,-1664.72998046875,-400000.0625,6315.85009765625,-400000.0625
timestamp,ch7,ch2,ch3,ch5,is_pause
1.3069148063659668,-400000.0625,9900.669921875,2586.889892578125,-400000.0625,-1679.6600341796875,-400000.0625,6288.33984375,-400000.0625
1.3157038688659668,-400000.0625,9849.2197265625,2536.14990234375,-400000.0625,-1719.0899658203125,-400000.0625,6242.47021484375,-400000.0625
timestamp,ch7,ch2,ch3,ch5,is_pause
1.324324131011963,-400000.0625,9847.4501953125,2530.340087890625,-400000.0625,-1736.0699462890625,-400000.0625,6239.7001953125,-400000.0625
timestamp,ch7,ch2,ch3,ch5,is_pause
1.339418649673462,-400000.0625,9895.4697265625,2579.070068359375,-400000.0625,-1695.489990234375,-400000.0625,6291.14990234375,-400000.0625
timestamp,ch7,ch2,ch3,ch5,is_pause
1.359449863433838,-400000.0625,9927.3203125,2612.639892578125,-400000.0625,-1663.8800048828125,-400000.0625,6326.06005859375,-400000.0625
timestamp,ch7,ch2,ch3,ch5,is_pause
timestamp,ch7,ch2,ch3,ch5,is_pause
1.3796870708465576,-400000.0625,9894.0400390625,2579.97998046875,-400000.0625,-1685.47998046875,-400000.0625,6290.10009765625,-400000.0625
1.3870177268981934,-400000.0625,9840.6796875,2527.760009765625,-400000.0625,-1723.5799560546875,-400000.0625,6239.02978515625,-400000.0625
timestamp,ch7,ch2,ch3,ch5,is_pause
timestamp,ch7,ch2,ch3,ch5,is_pause
1.4209048748016357,-400000.0625,9841.400390625,2531.0,-400000.0625,-1723.0999755859375,-400000.0625,6243.85009765625,-400000.0625
timestamp,ch7,ch2,ch3,ch5,is_pause
1.4364466667175293,-400000.0625,9891.0302734375,2582.8798828125,-400000.0625,-1690.050048828125,-400000.0625,6294.39013671875,-400000.0625
timestamp,ch7,ch2,ch3,ch5,is_pause
1.4509532451629639,-400000.0625,9924.650390625,2610.679931640625,-400000.0625,-1657.5799560546875,-400000.0625,6325.91015625,-400000.0625
timestamp,ch7,ch2,ch3,ch5,is_pause
1.4676549434661865,-400000.0625,9897.9501953125,2582.219970703125,-400000.0625,-1691.2900390625,-400000.0625,6300.5,-400000.0625
timestamp,ch7,ch2,ch3,ch5,is_pause
1.4857587814331055,-400000.0625,9847.0703125,2535.489990234375,-400000.0625,-1750.9000244140625,-400000.0625,6251.2900390625,-400000.0625
timestamp,ch7,ch2,ch3,ch5,is_pause
1.5037107467651367,-400000.0625,9844.01953125,2534.9599609375,-400000.0625,-1741.8399658203125,-400000.0625,6251.9599609375,-400000.0625
timestamp,ch7,ch2,ch3,ch5,is_pause
1.5226600170135498,-400000.0625,9891.5595703125,2582.840087890625,-400000.0625,-1683.1400146484375,-400000.0625,6291.580078125,-400000.0625
timestamp,ch7,ch2,ch3,ch5,is_pause
1.530247449874878,-400000.0625,9931.51953125,2618.64990234375,-400000.0625,-1652.9100341796875,-400000.0625,6318.14013671875,-400000.0625
timestamp,ch7,ch2,ch3,ch5,is_pause
1.5397472381591797,-400000.0625,9909.2998046875,2593.85009765625,-400000.0625,-1673.510009765625,-400000.0625,6288.91015625,-400000.0625
1.5487339496612549,-400000.0625,9861.419921875,2549.360107421875,-400000.0625,-1709.030029296875,-400000.0625,6238.56005859375,-400000.0625
timestamp,ch7,ch2,ch3,ch5,is_pause
timestamp,ch7,ch2,ch3,ch5,is_pause
1.5665581226348877,-400000.0625,9869.5302734375,2552.080078125,-400000.0625,-1713.1800537109375,-400000.0625,6230.16015625,-400000.0625
1.5737690925598145,-400000.0625,9920.650390625,2603.77001953125,-400000.0625,-1674.8900146484375,-400000.0625,6271.7900390625,-400000.0625
timestamp,ch7,ch2,ch3,ch5,is_pause
1.5861217975616455,-400000.0625,9949.2998046875,2638.6298828125,-400000.0625,-1645.1800537109375,-400000.0625,6297.58984375,-400000.0625
timestamp,ch7,ch2,ch3,ch5,is_pause
1.5968470573425293,-400000.0625,9927.66015625,2618.739990234375,-400000.0625,-1668.3599853515625,-400000.0625,6270.97998046875,-400000.0625
1.6044800281524658,-400000.0625,9888.75,2582.5,-400000.0625,-1704.8399658203125,-400000.0625,6231.5498046875,-400000.0625
timestamp,ch7,ch2,ch3,ch5,is_pause
1.6226320266723633,-400000.0625,9874.490234375,2570.10009765625,-400000.0625,-1729.9200439453125,-400000.0625,6220.47998046875,-400000.0625
timestamp,ch7,ch2,ch3,ch5,is_pause
1.6342532634735107,-400000.0625,9930.419921875,2618.409912109375,-400000.0625,-1690.6300048828125,-400000.0625,6266.8798828125,-400000.0625
timestamp,ch7,ch2,ch3,ch5,is_pause
1.6417856216430664,-400000.0625,9959.990234375,2645.639892578125,-400000.0625,-1656.010009765625,-400000.0625,6297.5400390625,-400000.0625
1.6511836051940918,-400000.0625,9920.169921875,2609.43994140625,-400000.0625,-1672.0799560546875,-400000.0625,6269.5498046875,-400000.0625
timestamp,ch7,ch2,ch3,ch5,is_pause
1.6592800617218018,-400000.0625,9869.669921875,2561.7099609375,-400000.0625,-1714.0899658203125,-400000.0625,6215.240234375,-400000.0625
timestamp,ch7,ch2,ch3,ch5,is_pause
1.6687965393066406,-400000.0625,9875.8701171875,2565.14990234375,-400000.0625,-1722.77001953125,-400000.0625,6219.81982421875,-400000.0625
1.6748650074005127,-400000.0625,9928.080078125,2620.64990234375,-400000.0625,-1676.989990234375,-400000.0625,6275.85009765625,-400000.0625
timestamp,ch7,ch2,ch3,ch5,is_pause
1.6852924823760986,-400000.0625,9962.9404296875,2657.4599609375,-400000.0625,-1641.510009765625,-400000.0625,6312.509765625,-400000.0625
1.6915037631988525,-400000.0625,9929.6103515625,2621.60009765625,-400000.0625,-1656.77001953125,-400000.0625,6277.18017578125,-400000.0625
timestamp,ch7,ch2,ch3,ch5,is_pause
1.7018768787384033,-400000.0625,9871.0498046875,2565.050048828125,-400000.0625,-1712.1800537109375,-400000.0625,6224.2001953125,-400000.0625
1.7082884311676025,-400000.0625,9869.9599609375,2561.52001953125,-400000.0625,-1723.3399658203125,-400000.0625,6226.58984375,-400000.0625
timestamp,ch7,ch2,ch3,ch5,is_pause
timestamp,ch7,ch2,ch3,ch5,is_pause
1.7310497760772705,-400000.0625,9922.740234375,2615.830078125,-400000.0625,-1673.4599609375,-400000.0625,6278.56005859375,-400000.0625
1.7388598918914795,-400000.0625,9955.41015625,2651.02001953125,-400000.0625,-1648.7099609375,-400000.0625,6314.0400390625,-400000.0625
timestamp,ch7,ch2,ch3,ch5,is_pause
1.7498571872711182,-400000.0625,9920.7900390625,2616.550048828125,-400000.0625,-1682.5699462890625,-400000.0625,6278.66015625,-400000.0625
timestamp,ch7,ch2,ch3,ch5,is_pause
1.7579128742218018,-400000.0625,9866.240234375,2563.10009765625,-400000.0625,-1730.1099853515625,-400000.0625,6226.490234375,-400000.0625
timestamp,ch7,ch2,ch3,ch5,is_pause
1.7685940265655518,-400000.0625,9872.6298828125,2568.340087890625,-400000.0625,-1721.9100341796875,-400000.0625,6223.5400390625,-400000.0625
1.7756733894348145,-400000.0625,9923.650390625,2619.31005859375,-400000.0625,-1669.5,-400000.0625,6272.7900390625,-400000.0625
timestamp,ch7,ch2,ch3,ch5,is_pause
1.7869818210601807,-400000.0625,9952.98046875,2650.7900390625,-400000.0625,-1625.25,-400000.0625,6307.02978515625,-400000.0625
timestamp,ch7,ch2,ch3,ch5,is_pause
1.797504186630249,-400000.0625,9920.6904296875,2619.64990234375,-400000.0625,-1660.1600341796875,-400000.0625,6277.22998046875,-400000.0625
timestamp,ch7,ch2,ch3,ch5,is_pause
1.805290699005127,-400000.0625,9877.4404296875,2574.25,-400000.0625,-1708.75,-400000.0625,6228.8798828125,-400000.0625
1.8130593299865723,-400000.0625,9879.259765625,2574.679931640625,-400000.0625,-1717.81005859375,-400000.0625,6234.1201171875,-400000.0625
timestamp,ch7,ch2,ch3,ch5,is_pause
timestamp,ch7,ch2,ch3,ch5,is_pause
1.832589864730835,-400000.0625,9919.1201171875,2611.919921875,-400000.0625,-1691.8699951171875,-400000.0625,6276.66015625,-400000.0625
1.8419609069824219,-400000.0625,9950.4501953125,2643.35009765625,-400000.0625,-1666.449951171875,-400000.0625,6303.22021484375,-400000.0625
timestamp,ch7,ch2,ch3,ch5,is_pause
1.8544604778289795,-400000.0625,9917.1201171875,2614.2099609375,-400000.0625,-1692.010009765625,-400000.0625,6273.02978515625,-400000.0625
timestamp,ch7,ch2,ch3,ch5,is_pause
1.865070104598999,-400000.0625,9870.009765625,2566.18994140625,-400000.0625,-1711.56005859375,-400000.0625,6224.10986328125,-400000.0625
1.8714745044708252,-400000.0625,9874.4404296875,2571.489990234375,-400000.0625,-1700.31005859375,-400000.0625,6227.39990234375,-400000.0625
timestamp,ch7,ch2,ch3,ch5,is_pause
1.8812124729156494,-400000.0625,9930.66015625,2628.989990234375,-400000.0625,-1658.489990234375,-400000.0625,6283.7099609375,-400000.0625
1.8873112201690674,-400000.0625,9953.5498046875,2653.31005859375,-400000.0625,-1635.8900146484375,-400000.0625,6305.89013671875,-400000.0625
timestamp,ch7,ch2,ch3,ch5,is_pause
1.896331787109375,-400000.0625,9919.5,2620.320068359375,-400000.0625,-1660.5400390625,-400000.0625,6275.31982421875,-400000.0625
1.902632713317871,-400000.0625,9873.490234375,2571.389892578125,-400000.0625,-1707.8900146484375,-400000.0625,6226.77978515625,-400000.0625
timestamp,ch7,ch2,ch3,ch5,is_pause
1.9130017757415771,-400000.0625,9871.76953125,2570.10009765625,-400000.0625,-1721.47998046875,-400000.0625,6225.6298828125,-400000.0625
timestamp,ch7,ch2,ch3,ch5,is_pause
1.9222474098205566,-400000.0625,9922.650390625,2621.4599609375,-400000.0625,-1675.699951171875,-400000.0625,6279.85009765625,-400000.0625
timestamp,ch7,ch2,ch3,ch5,is_pause
1.9393901824951172,-400000.0625,9956.740234375,2655.219970703125,-400000.0625,-1653.8599853515625,-400000.0625,6311.56005859375,-400000.0625
timestamp,ch7,ch2,ch3,ch5,is_pause
1.9506909847259521,-400000.0625,9925.0302734375,2620.1298828125,-400000.0625,-1677.699951171875,-400000.0625,6279.18017578125,-400000.0625
timestamp,ch7,ch2,ch3,ch5,is_pause
1.9579246044158936,-400000.0625,9875.580078125,2571.77001953125,-400000.0625,-1714.3299560546875,-400000.0625,6234.68994140625,-400000.0625
1.9686040878295898,-400000.0625,9877.4404296875,2574.72998046875,-400000.0625,-1705.5,-400000.0625,6232.169921875,-400000.0625
timestamp,ch7,ch2,ch3,ch5,is_pause
1.9764668941497803,-400000.0625,9926.509765625,2622.080078125,-400000.0625,-1656.9599609375,-400000.0625,6276.18017578125,-400000.0625
timestamp,ch7,ch2,ch3,ch5,is_pause
1.9885342121124268,-400000.0625,9957.509765625,2655.510009765625,-400000.0625,-1632.7900390625,-400000.0625,6306.35986328125,-400000.0625
1.9964263439178467,-400000.0625,9930.419921875,2631.0,-400000.0625,-1670.4100341796875,-400000.0625,6282.81005859375,-400000.0625
timestamp,ch7,ch2,ch3,ch5,is_pause
2.0059783458709717,-400000.0625,9877.9697265625,2573.72998046875,-400000.0625,-1736.1199951171875,-400000.0625,6232.5498046875,-400000.0625
timestamp,ch7,ch2,ch3,ch5,is_pause
2.0158140659332275,-400000.0625,9866.91015625,2567.47998046875,-400000.0625,-1727.719970703125,-400000.0625,6228.830078125,-400000.0625
2.0219368934631348,-400000.0625,9915.5400390625,2617.449951171875,-400000.0625,-1669.1199951171875,-400000.0625,6278.7099609375,-400000.0625
timestamp,ch7,ch2,ch3,ch5,is_pause
2.028397798538208,-400000.0625,9953.6904296875,2651.830078125,-400000.0625,-1634.449951171875,-400000.0625,6313.1298828125,-400000.0625
timestamp,ch7,ch2,ch3,ch5,is_pause
2.044983386993408,-400000.0625,9923.2197265625,2624.56005859375,-400000.0625,-1661.2099609375,-400000.0625,6285.14013671875,-400000.0625
timestamp,ch7,ch2,ch3,ch5,is_pause
2.055217981338501,-400000.0625,9865.669921875,2573.590087890625,-400000.0625,-1710.4599609375,-400000.0625,6231.31005859375,-400000.0625
2.0629186630249023,-400000.0625,9874.490234375,2578.8798828125,-400000.0625,-1710.219970703125,-400000.0625,6233.169921875,-400000.0625
timestamp,ch7,ch2,ch3,ch5,is_pause
2.0720462799072266,-400000.0625,9942.580078125,2638.820068359375,-400000.0625,-1654.6700439453125,-400000.0625,6280.85009765625,-400000.0625
timestamp,ch7,ch2,ch3,ch5,is_pause
2.083148241043091,-400000.0625,9965.1796875,2662.800048828125,-400000.0625,-1631.6400146484375,-400000.0625,6300.1201171875,-400000.0625
2.0894904136657715,-400000.0625,9939.1904296875,2634.909912109375,-400000.0625,-1667.9300537109375,-400000.0625,6267.60009765625,-400000.0625
timestamp,ch7,ch2,ch3,ch5,is_pause
2.09867787361145,-400000.0625,9888.1298828125,2585.510009765625,-400000.0625,-1715.469970703125,-400000.0625,6216.10009765625,-400000.0625
2.106024742126465,-400000.0625,9880.73046875,2584.64990234375,-400000.0625,-1721.6199951171875,-400000.0625,6207.18017578125,-400000.0625
timestamp,ch7,ch2,ch3,ch5,is_pause
2.115750312805176,-400000.0625,9941.3896484375,2639.9599609375,-400000.0625,-1665.6400146484375,-400000.0625,6254.14990234375,-400000.0625
2.1224308013916016,-400000.0625,9971.8095703125,2675.580078125,-400000.0625,-1629.5,-400000.0625,6288.52978515625,-400000.0625
timestamp,ch7,ch2,ch3,ch5,is_pause
2.1349663734436035,-400000.0625,9943.5302734375,2653.7900390625,-400000.0625,-1651.6199951171875,-400000.0625,6261.8701171875,-400000.0625
timestamp,ch7,ch2,ch3,ch5,is_pause
2.149022340774536,-400000.0625,9899.1396484375,2606.72998046875,-400000.0625,-1695.199951171875,-400000.0625,6213.240234375,-400000.0625
timestamp,ch7,ch2,ch3,ch5,is_pause
2.155543804168701,-400000.0625,9895.08984375,2601.909912109375,-400000.0625,-1708.97998046875,-400000.0625,6214.43017578125,-400000.0625
2.161994695663452,-400000.0625,9942.490234375,2648.31005859375,-400000.0625,-1674.3699951171875,-400000.0625,6261.16015625,-400000.0625
timestamp,ch7,ch2,ch3,ch5,is_pause
2.169983148574829,-400000.0625,9973.1904296875,2677.679931640625,-400000.0625,-1651.3299560546875,-400000.0625,6291.52978515625,-400000.0625
2.17594051361084,-400000.0625,9941.669921875,2646.969970703125,-400000.0625,-1666.1600341796875,-400000.0625,6265.06982421875,-400000.0625
timestamp,ch7,ch2,ch3,ch5,is_pause
2.1866745948791504,-400000.0625,9892.509765625,2598.909912109375,-400000.0625,-1695.25,-400000.0625,6215.72021484375,-400000.0625
timestamp,ch7,ch2,ch3,ch5,is_pause
2.1957085132598877,-400000.0625,9890.75,2597.280029296875,-400000.0625,-1699.300048828125,-400000.0625,6211.56982421875,-400000.0625
2.2030510902404785,-400000.0625,9938.669921875,2648.02001953125,-400000.0625,-1645.8499755859375,-400000.0625,6258.35009765625,-400000.0625
timestamp,ch7,ch2,ch3,ch5,is_pause
2.2126643657684326,-400000.0625,9965.849609375,2676.43994140625,-400000.0625,-1618.18994140625,-400000.0625,6287.2900390625,-400000.0625
2.2201573848724365,-400000.0625,9937.759765625,2647.969970703125,-400000.0625,-1652.530029296875,-400000.0625,6261.64013671875,-400000.0625
timestamp,ch7,ch2,ch3,ch5,is_pause
2.2293875217437744,-400000.0625,9887.5498046875,2599.2900390625,-400000.0625,-1701.6400146484375,-400000.0625,6209.7998046875,-400000.0625
timestamp,ch7,ch2,ch3,ch5,is_pause
2.2372145652770996,-400000.0625,9886.650390625,2598.0,-400000.0625,-1704.1199951171875,-400000.0625,6207.419921875,-400000.0625
timestamp,ch7,ch2,ch3,ch5,is_pause
2.2572948932647705,-400000.0625,9937.0,2647.830078125,-400000.0625,-1665.8800048828125,-400000.0625,6257.490234375,-400000.0625
timestamp,ch7,ch2,ch3,ch5,is_pause
2.2740976810455322,-400000.0625,9967.3798828125,2680.639892578125,-400000.0625,-1626.72998046875,-400000.0625,6290.39013671875,-400000.0625
timestamp,ch7,ch2,ch3,ch5,is_pause
2.2860889434814453,-400000.0625,9940.099609375,2650.7900390625,-400000.0625,-1653.47998046875,-400000.0625,6264.259765625,-400000.0625
timestamp,ch7,ch2,ch3,ch5,is_pause
2.294508457183838,-400000.0625,9884.6904296875,2597.280029296875,-400000.0625,-1716.0400390625,-400000.0625,6216.6201171875,-400000.0625
2.303529977798462,-400000.0625,9881.6396484375,2594.610107421875,-400000.0625,-1722.1500244140625,-400000.0625,6216.669921875,-400000.0625
timestamp,ch7,ch2,ch3,ch5,is_pause
2.3112783432006836,-400000.0625,9933.5703125,2645.679931640625,-400000.0625,-1666.780029296875,-400000.0625,6266.58984375,-400000.0625
2.3176913261413574,-400000.0625,9973.48046875,2687.409912109375,-400000.0625,-1617.5699462890625,-400000.0625,6307.41015625,-400000.0625
timestamp,ch7,ch2,ch3,ch5,is_pause
2.326143980026245,-400000.0625,9943.2001953125,2656.56005859375,-400000.0625,-1638.699951171875,-400000.0625,6271.93994140625,-400000.0625
timestamp,ch7,ch2,ch3,ch5,is_pause
2.340003728866577,-400000.0625,9888.7900390625,2601.050048828125,-400000.0625,-1707.030029296875,-400000.0625,6218.10009765625,-400000.0625
timestamp,ch7,ch2,ch3,ch5,is_pause
2.355039358139038,-400000.0625,9875.8203125,2592.85009765625,-400000.0625,-1704.550048828125,-400000.0625,6211.85009765625,-400000.0625
timestamp,ch7,ch2,ch3,ch5,is_pause
2.3651816844940186,-400000.0625,9926.0302734375,2640.25,-400000.0625,-1655.719970703125,-400000.0625,6255.2001953125,-400000.0625
2.3710813522338867,-400000.0625,9964.849609375,2678.159912109375,-400000.0625,-1636.31005859375,-400000.0625,6291.91015625,-400000.0625
timestamp,ch7,ch2,ch3,ch5,is_pause
2.381004810333252,-400000.0625,9938.1904296875,2654.030029296875,-400000.0625,-1673.6500244140625,-400000.0625,6266.31005859375,-400000.0625
2.3872737884521484,-400000.0625,9892.1298828125,2608.159912109375,-400000.0625,-1712.800048828125,-400000.0625,6218.39013671875,-400000.0625
timestamp,ch7,ch2,ch3,ch5,is_pause
2.3978421688079834,-400000.0625,9885.6904296875,2600.719970703125,-400000.0625,-1698.9200439453125,-400000.0625,6211.7099609375,-400000.0625
2.40397572517395,-400000.0625,9930.0400390625,2643.8701171875,-400000.0625,-1648.760009765625,-400000.0625,6260.68017578125,-400000.0625
timestamp,ch7,ch2,ch3,ch5,is_pause
2.4109671115875244,-400000.0625,9961.8896484375,2678.590087890625,-400000.0625,-1625.5899658203125,-400000.0625,6298.02001953125,-400000.0625
timestamp,ch7,ch2,ch3,ch5,is_pause
2.4185140132904053,-400000.0625,9940.9599609375,2655.64990234375,-400000.0625,-1655.9599609375,-400000.0625,6268.41015625,-400000.0625
2.42526912689209,-400000.0625,9889.4599609375,2604.389892578125,-400000.0625,-1704.68994140625,-400000.0625,6216.33984375,-400000.0625
timestamp,ch7,ch2,ch3,ch5,is_pause
2.435445547103882,-400000.0625,9882.6396484375,2600.9599609375,-400000.0625,-1705.5999755859375,-400000.0625,6214.240234375,-400000.0625
2.4413580894470215,-400000.0625,9933.3798828125,2649.590087890625,-400000.0625,-1662.5400390625,-400000.0625,6263.58984375,-400000.0625
timestamp,ch7,ch2,ch3,ch5,is_pause
timestamp,ch7,ch2,ch3,ch5,is_pause
2.459287166595459,-400000.0625,9966.2802734375,2682.39990234375,-400000.0625,-1646.469970703125,-400000.0625,6295.8701171875,-400000.0625
2.468930959701538,-400000.0625,9934.240234375,2651.739990234375,-400000.0625,-1674.27001953125,-400000.0625,6264.259765625,-400000.0625
timestamp,ch7,ch2,ch3,ch5,is_pause
2.4782938957214355,-400000.0625,9882.98046875,2602.050048828125,-400000.0625,-1687.3800048828125,-400000.0625,6209.27978515625,-400000.0625
2.485013484954834,-400000.0625,9869.8203125,2594.610107421875,-400000.0625,-1696.5899658203125,-400000.0625,6198.31005859375,-400000.0625
timestamp,ch7,ch2,ch3,ch5,is_pause
2.493563175201416,-400000.0625,9908.490234375,2632.949951171875,-400000.0625,-1661.06005859375,-400000.0625,6262.259765625,-400000.0625
timestamp,ch7,ch2,ch3,ch5,is_pause
2.505431652069092,-400000.0625,9950.2099609375,2664.800048828125,-400000.0625,-1628.68994140625,-400000.0625,6312.3701171875,-400000.0625
2.5141594409942627,-400000.0625,9921.83984375,2631.469970703125,-400000.0625,-1667.260009765625,-400000.0625,6292.009765625,-400000.0625
timestamp,ch7,ch2,ch3,ch5,is_pause
2.5245766639709473,-400000.0625,9868.8095703125,2573.39990234375,-400000.0625,-1713.7099609375,-400000.0625,6249.3798828125,-400000.0625
timestamp,ch7,ch2,ch3,ch5,is_pause
2.5384554862976074,-400000.0625,9862.3798828125,2557.179931640625,-400000.0625,-1726.199951171875,-400000.0625,6254.14990234375,-400000.0625
timestamp,ch7,ch2,ch3,ch5,is_pause
2.54913592338562,-400000.0625,9905.33984375,2593.570068359375,-400000.0625,-1695.72998046875,-400000.0625,6312.7998046875,-400000.0625
timestamp,ch7,ch2,ch3,ch5,is_pause
2.5680971145629883,-400000.0625,9936.3798828125,2616.68994140625,-400000.0625,-1658.77001953125,-400000.0625,6359.669921875,-400000.0625
timestamp,ch7,ch2,ch3,ch5,is_pause
2.5771851539611816,-400000.0625,9902.5703125,2579.2099609375,-400000.0625,-1684.8599853515625,-400000.0625,6344.31982421875,-400000.0625
timestamp,ch7,ch2,ch3,ch5,is_pause
2.588376998901367,-400000.0625,9839.4404296875,2521.419921875,-400000.0625,-1731.72998046875,-400000.0625,6301.68994140625,-400000.0625
2.595463752746582,-400000.0625,9842.2998046875,2516.080078125,-400000.0625,-1738.449951171875,-400000.0625,6302.02001953125,-400000.0625
timestamp,ch7,ch2,ch3,ch5,is_pause
2.6050326824188232,-400000.0625,9894.66015625,2562.570068359375,-400000.0625,-1691.010009765625,-400000.0625,6356.0498046875,-400000.0625
timestamp,ch7,ch2,ch3,ch5,is_pause
2.6143665313720703,-400000.0625,9922.0302734375,2595.139892578125,-400000.0625,-1664.68994140625,-400000.0625,6390.6201171875,-400000.0625
2.6209704875946045,-400000.0625,9893.990234375,2566.429931640625,-400000.0625,-1694.489990234375,-400000.0625,6360.009765625,-400000.0625
timestamp,ch7,ch2,ch3,ch5,is_pause
2.6308376789093018,-400000.0625,9840.8701171875,2512.5,-400000.0625,-1748.280029296875,-400000.0625,6315.18017578125,-400000.0625
2.638855457305908,-400000.0625,9836.7197265625,2507.070068359375,-400000.0625,-1736.9300537109375,-400000.0625,6314.66015625,-400000.0625
timestamp,ch7,ch2,ch3,ch5,is_pause
2.6465187072753906,-400000.0625,9879.58984375,2547.64990234375,-400000.0625,-1690.719970703125,-400000.0625,6351.9501953125,-400000.0625
2.652419328689575,-400000.0625,9912.0595703125,2580.7900390625,-400000.0625,-1660.6300048828125,-400000.0625,6389.81005859375,-400000.0625
timestamp,ch7,ch2,ch3,ch5,is_pause
timestamp,ch7,ch2,ch3,ch5,is_pause
2.669813394546509,-400000.0625,9891.23046875,2557.469970703125,-400000.0625,-1695.1600341796875,-400000.0625,6369.10986328125,-400000.0625
2.6764307022094727,-400000.0625,9843.9697265625,2510.8798828125,-400000.0625,-1744.3199462890625,-400000.0625,6318.85986328125,-400000.0625
timestamp,ch7,ch2,ch3,ch5,is_pause
2.688058614730835,-400000.0625,9842.0595703125,2511.409912109375,-400000.0625,-1741.739990234375,-400000.0625,6319.0,-400000.0625
timestamp,ch7,ch2,ch3,ch5,is_pause
2.6986379623413086,-400000.0625,9884.3095703125,2556.800048828125,-400000.0625,-1694.1099853515625,-400000.0625,6359.6298828125,-400000.0625
2.7054457664489746,-400000.0625,9916.5,2586.75,-400000.0625,-1656.719970703125,-400000.0625,6388.85986328125,-400000.0625
timestamp,ch7,ch2,ch3,ch5,is_pause
2.716252088546753,-400000.0625,9887.5498046875,2557.56005859375,-400000.0625,-1688.050048828125,-400000.0625,6362.6298828125,-400000.0625
2.722606897354126,-400000.0625,9837.6298828125,2513.219970703125,-400000.0625,-1741.219970703125,-400000.0625,6315.27978515625,-400000.0625
timestamp,ch7,ch2,ch3,ch5,is_pause
2.7336742877960205,-400000.0625,9841.1103515625,2514.739990234375,-400000.0625,-1749.6099853515625,-400000.0625,6317.81005859375,-400000.0625
timestamp,ch7,ch2,ch3,ch5,is_pause
2.7416858673095703,-400000.0625,9887.599609375,2558.800048828125,-400000.0625,-1697.969970703125,-400000.0625,6363.2001953125,-400000.0625
2.747959613800049,-400000.0625,9917.5498046875,2589.93994140625,-400000.0625,-1658.77001953125,-400000.0625,6394.52978515625,-400000.0625
timestamp,ch7,ch2,ch3,ch5,is_pause
2.7545135021209717,-400000.0625,9893.849609375,2568.9599609375,-400000.0625,-1685.3299560546875,-400000.0625,6373.83984375,-400000.0625
timestamp,ch7,ch2,ch3,ch5,is_pause
2.769810438156128,-400000.0625,9838.150390625,2516.080078125,-400000.0625,-1728.72998046875,-400000.0625,6325.10009765625,-400000.0625
2.7758586406707764,-400000.0625,9836.7197265625,2509.31005859375,-400000.0625,-1740.5,-400000.0625,6319.240234375,-400000.0625
timestamp,ch7,ch2,ch3,ch5,is_pause
2.7916555404663086,-400000.0625,9887.26953125,2558.3701171875,-400000.0625,-1707.4100341796875,-400000.0625,6369.31005859375,-400000.0625
timestamp,ch7,ch2,ch3,ch5,is_pause
2.8024768829345703,-400000.0625,9921.2197265625,2597.81005859375,-400000.0625,-1676.1800537109375,-400000.0625,6406.2099609375,-400000.0625
2.8084793090820312,-400000.0625,9901.1904296875,2576.780029296875,-400000.0625,-1709.6500244140625,-400000.0625,6379.89013671875,-400000.0625
timestamp,ch7,ch2,ch3,ch5,is_pause
2.819962739944458,-400000.0625,9851.2197265625,2525.89990234375,-400000.0625,-1733.5899658203125,-400000.0625,6338.41015625,-400000.0625
timestamp,ch7,ch2,ch3,ch5,is_pause
2.8284542560577393,-400000.0625,9833.8603515625,2509.449951171875,-400000.0625,-1721.3299560546875,-400000.0625,6322.81005859375,-400000.0625
2.8390846252441406,-400000.0625,9878.349609375,2552.800048828125,-400000.0625,-1675.75,-400000.0625,6361.77001953125,-400000.0625
timestamp,ch7,ch2,ch3,ch5,is_pause
2.8524277210235596,-400000.0625,9918.830078125,2594.18994140625,-400000.0625,-1655.050048828125,-400000.0625,6402.39990234375,-400000.0625
timestamp,ch7,ch2,ch3,ch5,is_pause
2.8660452365875244,-400000.0625,9894.3701171875,2571.300048828125,-400000.0625,-1688.4300537109375,-400000.0625,6383.0400390625,-400000.0625
timestamp,ch7,ch2,ch3,ch5,is_pause
timestamp,ch7,ch2,ch3,ch5,is_pause
2.886742353439331,-400000.0625,9846.6396484375,2522.3701171875,-400000.0625,-1742.739990234375,-400000.0625,6333.02001953125,-400000.0625
2.894989490509033,-400000.0625,9844.58984375,2518.030029296875,-400000.0625,-1752.3299560546875,-400000.0625,6325.47998046875,-400000.0625
timestamp,ch7,ch2,ch3,ch5,is_pause
2.905998706817627,-400000.0625,9893.849609375,2567.77001953125,-400000.0625,-1726.9599609375,-400000.0625,6374.7900390625,-400000.0625
timestamp,ch7,ch2,ch3,ch5,is_pause
2.9170498847961426,-400000.0625,9924.3701171875,2600.77001953125,-400000.0625,-1677.1800537109375,-400000.0625,6409.5498046875,-400000.0625
2.9235801696777344,-400000.0625,9900.0,2574.110107421875,-400000.0625,-1679.0400390625,-400000.0625,6381.31982421875,-400000.0625
timestamp,ch7,ch2,ch3,ch5,is_pause
2.9314069747924805,-400000.0625,9848.5,2523.0400390625,-400000.0625,-1727.8699951171875,-400000.0625,6328.9599609375,-400000.0625
timestamp,ch7,ch2,ch3,ch5,is_pause
2.9380316734313965,-400000.0625,9838.25,2515.030029296875,-400000.0625,-1729.6300048828125,-400000.0625,6319.18994140625,-400000.0625
2.948345899581909,-400000.0625,9887.8896484375,2564.10009765625,-400000.0625,-1683.949951171875,-400000.0625,6363.580078125,-400000.0625
timestamp,ch7,ch2,ch3,ch5,is_pause
2.9577484130859375,-400000.0625,9932.08984375,2608.590087890625,-400000.0625,-1663.969970703125,-400000.0625,6411.5498046875,-400000.0625
timestamp,ch7,ch2,ch3,ch5,is_pause
2.9683635234832764,-400000.0625,9906.91015625,2582.8798828125,-400000.0625,-1699.449951171875,-400000.0625,6387.85009765625,-400000.0625
timestamp,ch7,ch2,ch3,ch5,is_pause
2.9868106842041016,-400000.0625,9844.6904296875,2522.659912109375,-400000.0625,-1745.6500244140625,-400000.0625,6323.91015625,-400000.0625
timestamp,ch7,ch2,ch3,ch5,is_pause
2.996990919113159,-400000.0625,9841.58984375,2513.4599609375,-400000.0625,-1732.489990234375,-400000.0625,6316.0,-400000.0625
3.005674362182617,-400000.0625,9886.7900390625,2561.760009765625,-400000.0625,-1677.3699951171875,-400000.0625,6362.919921875,-400000.0625
timestamp,ch7,ch2,ch3,ch5,is_pause
3.0160064697265625,-400000.0625,9923.98046875,2600.429931640625,-400000.0625,-1640.4200439453125,-400000.0625,6403.35009765625,-400000.0625
3.022653579711914,-400000.0625,9900.48046875,2577.31005859375,-400000.0625,-1671.1700439453125,-400000.0625,6382.509765625,-400000.0625
timestamp,ch7,ch2,ch3,ch5,is_pause
3.034456729888916,-400000.0625,9853.26953125,2530.10009765625,-400000.0625,-1735.780029296875,-400000.0625,6336.4501953125,-400000.0625
timestamp,ch7,ch2,ch3,ch5,is_pause
3.043466329574585,-400000.0625,9845.16015625,2521.800048828125,-400000.0625,-1747.6600341796875,-400000.0625,6333.4501953125,-400000.0625
3.0507333278656006,-400000.0625,9895.4697265625,2569.8701171875,-400000.0625,-1704.030029296875,-400000.0625,6381.419921875,-400000.0625
timestamp,ch7,ch2,ch3,ch5,is_pause
3.059443950653076,-400000.0625,9930.08984375,2605.300048828125,-400000.0625,-1677.27001953125,-400000.0625,6414.3701171875,-400000.0625
timestamp,ch7,ch2,ch3,ch5,is_pause
3.068214178085327,-400000.0625,9898.4296875,2575.590087890625,-400000.0625,-1696.780029296875,-400000.0625,6386.22998046875,-400000.0625
3.07456111907959,-400000.0625,9850.740234375,2527.18994140625,-400000.0625,-1717.3800048828125,-400000.0625,6337.2099609375,-400000.0625
timestamp,ch7,ch2,ch3,ch5,is_pause
3.0925374031066895,-400000.0625,9844.4501953125,2522.949951171875,-400000.0625,-1726.0999755859375,-400000.0625,6325.33984375,-400000.0625
timestamp,ch7,ch2,ch3,ch5,is_pause
3.1047651767730713,-400000.0625,9884.169921875,2562.949951171875,-400000.0625,-1688.5799560546875,-400000.0625,6362.14990234375,-400000.0625
timestamp,ch7,ch2,ch3,ch5,is_pause
3.115992784500122,-400000.0625,9912.4404296875,2593.85009765625,-400000.0625,-1662.449951171875,-400000.0625,6394.0498046875,-400000.0625
3.1237502098083496,-400000.0625,9875.490234375,2569.6298828125,-400000.0625,-1693.3399658203125,-400000.0625,6366.64013671875,-400000.0625
timestamp,ch7,ch2,ch3,ch5,is_pause
3.1380250453948975,-400000.0625,9815.5498046875,2520.699951171875,-400000.0625,-1755.7099609375,-400000.0625,6318.330078125,-400000.0625
timestamp,ch7,ch2,ch3,ch5,is_pause
3.1480727195739746,-400000.0625,9824.4697265625,2519.0400390625,-400000.0625,-1755.6700439453125,-400000.0625,6316.759765625,-400000.0625
timestamp,ch7,ch2,ch3,ch5,is_pause
3.1567471027374268,-400000.0625,9878.0595703125,2563.2900390625,-400000.0625,-1712.6099853515625,-400000.0625,6359.47998046875,-400000.0625
3.1655027866363525,-400000.0625,9890.509765625,2592.22998046875,-400000.0625,-1669.449951171875,-400000.0625,6382.0400390625,-400000.0625
timestamp,ch7,ch2,ch3,ch5,is_pause
3.172938346862793,-400000.0625,9856.3701171875,2565.429931640625,-400000.0625,-1664.0699462890625,-400000.0625,6355.43017578125,-400000.0625
3.180208921432495,-400000.0625,9792.419921875,2506.110107421875,-400000.0625,-1724.3399658203125,-400000.0625,6292.10986328125,-400000.0625
timestamp,ch7,ch2,ch3,ch5,is_pause
timestamp,ch7,ch2,ch3,ch5,is_pause
3.2033989429473877,-400000.0625,9765.2001953125,2485.3701171875,-400000.0625,-1744.5999755859375,-400000.0625,6271.509765625,-400000.0625
timestamp,ch7,ch2,ch3,ch5,is_pause
3.2142257690429688,-400000.0625,9803.919921875,2533.9599609375,-400000.0625,-1688.3399658203125,-400000.0625,6313.66015625,-400000.0625
3.221123695373535,-400000.0625,9841.349609375,2574.72998046875,-400000.0625,-1663.780029296875,-400000.0625,6351.52001953125,-400000.0625
timestamp,ch7,ch2,ch3,ch5,is_pause
3.236006259918213,-400000.0625,9811.4501953125,2545.5,-400000.0625,-1684.3299560546875,-400000.0625,6325.9599609375,-400000.0625
timestamp,ch7,ch2,ch3,ch5,is_pause
3.245900869369507,-400000.0625,9751.4599609375,2490.22998046875,-400000.0625,-1726.2900390625,-400000.0625,6268.8798828125,-400000.0625
timestamp,ch7,ch2,ch3,ch5,is_pause
3.261613607406616,-400000.0625,9726.0,2480.27001953125,-400000.0625,-1721.719970703125,-400000.0625,6252.43017578125,-400000.0625
timestamp,ch7,ch2,ch3,ch5,is_pause
3.278491735458374,-400000.0625,9776.6396484375,2528.18994140625,-400000.0625,-1679.280029296875,-400000.0625,6301.4501953125,-400000.0625
timestamp,ch7,ch2,ch3,ch5,is_pause
3.2885985374450684,-400000.0625,9823.2802734375,2561.81005859375,-400000.0625,-1652.9599609375,-400000.0625,6338.41015625,-400000.0625
timestamp,ch7,ch2,ch3,ch5,is_pause
3.306307792663574,-400000.0625,9796.0498046875,2543.639892578125,-400000.0625,-1665.9300537109375,-400000.0625,6318.27978515625,-400000.0625
timestamp,ch7,ch2,ch3,ch5,is_pause
3.3190407752990723,-400000.0625,9746.83984375,2494.860107421875,-400000.0625,-1723.2900390625,-400000.0625,6269.22021484375,-400000.0625
timestamp,ch7,ch2,ch3,ch5,is_pause
3.3314781188964844,-400000.0625,9730.48046875,2476.739990234375,-400000.0625,-1727.489990234375,-400000.0625,6250.47998046875,-400000.0625
timestamp,ch7,ch2,ch3,ch5,is_pause
3.3412880897521973,-400000.0625,9780.3095703125,2528.139892578125,-400000.0625,-1685.4300537109375,-400000.0625,6294.68017578125,-400000.0625
3.3492984771728516,-400000.0625,9817.169921875,2568.8701171875,-400000.0625,-1679.9000244140625,-400000.0625,6336.06982421875,-400000.0625
timestamp,ch7,ch2,ch3,ch5,is_pause
3.3574914932250977,-400000.0625,9792.900390625,2543.8798828125,-400000.0625,-1691.3900146484375,-400000.0625,6317.330078125,-400000.0625
timestamp,ch7,ch2,ch3,ch5,is_pause
3.367347002029419,-400000.0625,9748.4599609375,2494.2900390625,-400000.0625,-1728.6300048828125,-400000.0625,6263.97021484375,-400000.0625
3.37418794631958,-400000.0625,9743.7900390625,2485.93994140625,-400000.0625,-1729.3900146484375,-400000.0625,6254.009765625,-400000.0625
timestamp,ch7,ch2,ch3,ch5,is_pause
3.3879575729370117,-400000.0625,9788.419921875,2537.580078125,-400000.0625,-1679.800048828125,-400000.0625,6306.169921875,-400000.0625
timestamp,ch7,ch2,ch3,ch5,is_pause
3.3983500003814697,-400000.0625,9837.7197265625,2580.68994140625,-400000.0625,-1647.6199951171875,-400000.0625,6345.22998046875,-400000.0625
timestamp,ch7,ch2,ch3,ch5,is_pause
3.4144468307495117,-400000.0625,9821.0302734375,2563.139892578125,-400000.0625,-1663.4000244140625,-400000.0625,6329.72998046875,-400000.0625
3.4220030307769775,-400000.0625,9760.8095703125,2504.72998046875,-400000.0625,-1724.9100341796875,-400000.0625,6278.31982421875,-400000.0625
timestamp,ch7,ch2,ch3,ch5,is_pause
3.4354076385498047,-400000.0625,9748.3603515625,2490.949951171875,-400000.0625,-1738.2099609375,-400000.0625,6260.77978515625,-400000.0625
timestamp,ch7,ch2,ch3,ch5,is_pause
3.444953203201294,-400000.0625,9794.6201171875,2538.489990234375,-400000.0625,-1696.72998046875,-400000.0625,6313.990234375,-400000.0625
timestamp,ch7,ch2,ch3,ch5,is_pause
3.4528212547302246,-400000.0625,9826.08984375,2579.590087890625,-400000.0625,-1656.9599609375,-400000.0625,6354.08984375,-400000.0625
3.4594950675964355,-400000.0625,9794.900390625,2554.800048828125,-400000.0625,-1670.8399658203125,-400000.0625,6324.85986328125,-400000.0625
timestamp,ch7,ch2,ch3,ch5,is_pause
3.469205617904663,-400000.0625,9746.599609375,2496.239990234375,-400000.0625,-1717.6600341796875,-400000.0625,6275.7998046875,-400000.0625
timestamp,ch7,ch2,ch3,ch5,is_pause
3.477757215499878,-400000.0625,9747.41015625,2490.3798828125,-400000.0625,-1725.050048828125,-400000.0625,6268.259765625,-400000.0625
3.4869141578674316,-400000.0625,9793.5703125,2530.669921875,-400000.0625,-1689.47998046875,-400000.0625,6311.990234375,-400000.0625
timestamp,ch7,ch2,ch3,ch5,is_pause
3.4956183433532715,-400000.0625,9819.650390625,2568.14990234375,-400000.0625,-1668.2099609375,-400000.0625,6347.47021484375,-400000.0625
timestamp,ch7,ch2,ch3,ch5,is_pause
3.503666639328003,-400000.0625,9793.240234375,2541.070068359375,-400000.0625,-1682.949951171875,-400000.0625,6323.14990234375,-400000.0625
timestamp,ch7,ch2,ch3,ch5,is_pause
3.5211846828460693,-400000.0625,9734.2001953125,2488.760009765625,-400000.0625,-1705.1199951171875,-400000.0625,6275.509765625,-400000.0625
timestamp,ch7,ch2,ch3,ch5,is_pause
3.5314762592315674,-400000.0625,9719.1796875,2479.169921875,-400000.0625,-1720.949951171875,-400000.0625,6267.830078125,-400000.0625
3.5382180213928223,-400000.0625,9764.2001953125,2520.3701171875,-400000.0625,-1698.780029296875,-400000.0625,6305.93017578125,-400000.0625
timestamp,ch7,ch2,ch3,ch5,is_pause
3.5490543842315674,-400000.0625,9805.009765625,2558.89990234375,-400000.0625,-1669.0699462890625,-400000.0625,6343.93994140625,-400000.0625
timestamp,ch7,ch2,ch3,ch5,is_pause
3.55665922164917,-400000.0625,9785.1298828125,2536.110107421875,-400000.0625,-1683.5699462890625,-400000.0625,6320.91015625,-400000.0625
3.5652899742126465,-400000.0625,9730.009765625,2483.800048828125,-400000.0625,-1727.8199462890625,-400000.0625,6272.60009765625,-400000.0625
timestamp,ch7,ch2,ch3,ch5,is_pause
3.5747389793395996,-400000.0625,9718.6103515625,2475.639892578125,-400000.0625,-1735.739990234375,-400000.0625,6264.2099609375,-400000.0625
timestamp,ch7,ch2,ch3,ch5,is_pause
3.586676597595215,-400000.0625,9763.0,2523.330078125,-400000.0625,-1701.1600341796875,-400000.0625,6308.27001953125,-400000.0625
timestamp,ch7,ch2,ch3,ch5,is_pause
3.5985679626464844,-400000.0625,9800.4404296875,2563.0,-400000.0625,-1659.010009765625,-400000.0625,6346.22998046875,-400000.0625
3.606454849243164,-400000.0625,9783.4599609375,2546.7900390625,-400000.0625,-1673.4599609375,-400000.0625,6327.77001953125,-400000.0625
timestamp,ch7,ch2,ch3,ch5,is_pause
timestamp,ch7,ch2,ch3,ch5,is_pause
3.6273019313812256,-400000.0625,9734.2001953125,2497.389892578125,-400000.0625,-1727.9200439453125,-400000.0625,6277.31982421875,-400000.0625
timestamp,ch7,ch2,ch3,ch5,is_pause
3.638760566711426,-400000.0625,9719.990234375,2481.169921875,-400000.0625,-1734.8800048828125,-400000.0625,6262.919921875,-400000.0625
timestamp,ch7,ch2,ch3,ch5,is_pause
3.6500043869018555,-400000.0625,9766.2900390625,2528.47998046875,-400000.0625,-1682.1400146484375,-400000.0625,6309.64990234375,-400000.0625
3.6567745208740234,-400000.0625,9803.6796875,2566.10009765625,-400000.0625,-1655.9100341796875,-400000.0625,6345.56005859375,-400000.0625
timestamp,ch7,ch2,ch3,ch5,is_pause
3.667745590209961,-400000.0625,9782.83984375,2540.780029296875,-400000.0625,-1681.22998046875,-400000.0625,6324.77001953125,-400000.0625
timestamp,ch7,ch2,ch3,ch5,is_pause
3.6764612197875977,-400000.0625,9733.5400390625,2494.0,-400000.0625,-1720.239990234375,-400000.0625,6277.7998046875,-400000.0625
3.6840903759002686,-400000.0625,9723.3798828125,2483.610107421875,-400000.0625,-1733.8800048828125,-400000.0625,6265.31005859375,-400000.0625
timestamp,ch7,ch2,ch3,ch5,is_pause
3.6925623416900635,-400000.0625,9756.2802734375,2518.840087890625,-400000.0625,-1698.1600341796875,-400000.0625,6299.35009765625,-400000.0625
timestamp,ch7,ch2,ch3,ch5,is_pause
3.702347755432129,-400000.0625,9797.2900390625,2559.139892578125,-400000.0625,-1658.3900146484375,-400000.0625,6343.509765625,-400000.0625
3.708454132080078,-400000.0625,9773.2099609375,2535.6298828125,-400000.0625,-1687.81005859375,-400000.0625,6329.10986328125,-400000.0625
timestamp,ch7,ch2,ch3,ch5,is_pause
3.725109100341797,-400000.0625,9728.33984375,2487.85009765625,-400000.0625,-1729.5400390625,-400000.0625,6278.7998046875,-400000.0625
timestamp,ch7,ch2,ch3,ch5,is_pause
3.736762046813965,-400000.0625,9711.0302734375,2480.080078125,-400000.0625,-1731.010009765625,-400000.0625,6265.5,-400000.0625
timestamp,ch7,ch2,ch3,ch5,is_pause
3.7441043853759766,-400000.0625,9747.3603515625,2522.52001953125,-400000.0625,-1700.0699462890625,-400000.0625,6308.93994140625,-400000.0625
3.7504045963287354,-400000.0625,9795.51953125,2565.0,-400000.0625,-1660.8699951171875,-400000.0625,6349.22998046875,-400000.0625
timestamp,ch7,ch2,ch3,ch5,is_pause
3.758641004562378,-400000.0625,9789.419921875,2545.360107421875,-400000.0625,-1673.8399658203125,-400000.0625,6333.16015625,-400000.0625
timestamp,ch7,ch2,ch3,ch5,is_pause
3.771101713180542,-400000.0625,9731.0595703125,2484.85009765625,-400000.0625,-1724.5799560546875,-400000.0625,6273.1298828125,-400000.0625
timestamp,ch7,ch2,ch3,ch5,is_pause
3.7807278633117676,-400000.0625,9702.5400390625,2471.68994140625,-400000.0625,-1739.030029296875,-400000.0625,6258.77001953125,-400000.0625
3.7884535789489746,-400000.0625,9756.23046875,2526.669921875,-400000.0625,-1686.3299560546875,-400000.0625,6312.31982421875,-400000.0625
timestamp,ch7,ch2,ch3,ch5,is_pause
3.798460006713867,-400000.0625,9782.98046875,2552.989990234375,-400000.0625,-1653.3900146484375,-400000.0625,6341.35986328125,-400000.0625
3.8051531314849854,-400000.0625,9750.9404296875,2524.52001953125,-400000.0625,-1665.449951171875,-400000.0625,6315.18017578125,-400000.0625
timestamp,ch7,ch2,ch3,ch5,is_pause
3.81233811378479,-400000.0625,9700.0595703125,2473.639892578125,-400000.0625,-1719.280029296875,-400000.0625,6263.58984375,-400000.0625
timestamp,ch7,ch2,ch3,ch5,is_pause
3.826942205429077,-400000.0625,9688.5703125,2460.47998046875,-400000.0625,-1742.219970703125,-400000.0625,6250.2900390625,-400000.0625
timestamp,ch7,ch2,ch3,ch5,is_pause
3.836780548095703,-400000.0625,9739.73046875,2507.260009765625,-400000.0625,-1711.8900146484375,-400000.0625,6299.10986328125,-400000.0625
3.844606399536133,-400000.0625,9776.8798828125,2547.219970703125,-400000.0625,-1670.9300537109375,-400000.0625,6341.02978515625,-400000.0625
timestamp,ch7,ch2,ch3,ch5,is_pause
3.8544116020202637,-400000.0625,9761.1396484375,2526.89990234375,-400000.0625,-1681.0899658203125,-400000.0625,6319.43017578125,-400000.0625
timestamp,ch7,ch2,ch3,ch5,is_pause
3.8655788898468018,-400000.0625,9711.650390625,2472.969970703125,-400000.0625,-1728.9599609375,-400000.0625,6260.43994140625,-400000.0625
3.8719992637634277,-400000.0625,9694.4296875,2460.860107421875,-400000.0625,-1751.3800048828125,-400000.0625,6249.7099609375,-400000.0625
timestamp,ch7,ch2,ch3,ch5,is_pause
3.880814790725708,-400000.0625,9746.2197265625,2508.31005859375,-400000.0625,-1718.239990234375,-400000.0625,6300.68994140625,-400000.0625
timestamp,ch7,ch2,ch3,ch5,is_pause
3.8886237144470215,-400000.0625,9779.5498046875,2542.8798828125,-400000.0625,-1669.0699462890625,-400000.0625,6339.41015625,-400000.0625
3.8954286575317383,-400000.0625,9765.099609375,2531.10009765625,-400000.0625,-1663.0699462890625,-400000.0625,6324.85986328125,-400000.0625
timestamp,ch7,ch2,ch3,ch5,is_pause
3.903797149658203,-400000.0625,9714.3203125,2478.31005859375,-400000.0625,-1718.5699462890625,-400000.0625,6271.64990234375,-400000.0625
3.9103410243988037,-400000.0625,9694.009765625,2457.7099609375,-400000.0625,-1748.0400390625,-400000.0625,6254.77001953125,-400000.0625
timestamp,ch7,ch2,ch3,ch5,is_pause
3.9200828075408936,-400000.0625,9739.4501953125,2500.25,-400000.0625,-1703.97998046875,-400000.0625,6299.58984375,-400000.0625
timestamp,ch7,ch2,ch3,ch5,is_pause
3.9360458850860596,-400000.0625,9787.3203125,2546.5,-400000.0625,-1667.68994140625,-400000.0625,6342.5498046875,-400000.0625
timestamp,ch7,ch2,ch3,ch5,is_pause
3.9459850788116455,-400000.0625,9773.5400390625,2533.47998046875,-400000.0625,-1701.31005859375,-400000.0625,6327.490234375,-400000.0625
timestamp,ch7,ch2,ch3,ch5,is_pause
3.953481674194336,-400000.0625,9720.23046875,2477.409912109375,-400000.0625,-1745.0799560546875,-400000.0625,6274.990234375,-400000.0625
3.9595041275024414,-400000.0625,9704.1103515625,2466.72998046875,-400000.0625,-1730.5899658203125,-400000.0625,6260.25,-400000.0625
timestamp,ch7,ch2,ch3,ch5,is_pause
3.9703493118286133,-400000.0625,9756.6103515625,2517.889892578125,-400000.0625,-1696.6800537109375,-400000.0625,6309.22021484375,-400000.0625
3.977297067642212,-400000.0625,9797.759765625,2557.85009765625,-400000.0625,-1671.6500244140625,-400000.0625,6353.18994140625,-400000.0625
timestamp,ch7,ch2,ch3,ch5,is_pause
3.988417625427246,-400000.0625,9770.0595703125,2529.909912109375,-400000.0625,-1694.1500244140625,-400000.0625,6329.35009765625,-400000.0625
timestamp,ch7,ch2,ch3,ch5,is_pause
3.9977529048919678,-400000.0625,9719.75,2476.739990234375,-400000.0625,-1725.3900146484375,-400000.0625,6276.93994140625,-400000.0625
4.005142688751221,-400000.0625,9716.7001953125,2471.639892578125,-400000.0625,-1733.8299560546875,-400000.0625,6269.5498046875,-400000.0625
timestamp,ch7,ch2,ch3,ch5,is_pause
4.01219367980957,-400000.0625,9768.2998046875,2523.280029296875,-400000.0625,-1696.25,-400000.0625,6317.81005859375,-400000.0625
4.017742872238159,-400000.0625,9798.150390625,2555.699951171875,-400000.0625,-1676.27001953125,-400000.0625,6348.18017578125,-400000.0625
timestamp,ch7,ch2,ch3,ch5,is_pause
4.026381969451904,-400000.0625,9785.1298828125,2539.72998046875,-400000.0625,-1694.489990234375,-400000.0625,6329.2001953125,-400000.0625
timestamp,ch7,ch2,ch3,ch5,is_pause
timestamp,ch7,ch2,ch3,ch5,is_pause
4.0504679679870605,-400000.0625,9732.490234375,2485.419921875,-400000.0625,-1732.8699951171875,-400000.0625,6275.02978515625,-400000.0625
4.057340621948242,-400000.0625,9711.9296875,2468.6298828125,-400000.0625,-1727.0999755859375,-400000.0625,6258.8701171875,-400000.0625
timestamp,ch7,ch2,ch3,ch5,is_pause
4.066687345504761,-400000.0625,9764.2900390625,2521.320068359375,-400000.0625,-1685.8599853515625,-400000.0625,6310.4599609375,-400000.0625
4.0734100341796875,-400000.0625,9804.0595703125,2557.659912109375,-400000.0625,-1670.97998046875,-400000.0625,6354.0,-400000.0625
timestamp,ch7,ch2,ch3,ch5,is_pause
4.084816217422485,-400000.0625,9782.3603515625,2535.719970703125,-400000.0625,-1690.199951171875,-400000.0625,6335.4501953125,-400000.0625
timestamp,ch7,ch2,ch3,ch5,is_pause
4.09323787689209,-400000.0625,9731.099609375,2488.179931640625,-400000.0625,-1727.8699951171875,-400000.0625,6284.14013671875,-400000.0625
4.100964784622192,-400000.0625,9721.7099609375,2475.409912109375,-400000.0625,-1747.6600341796875,-400000.0625,6271.740234375,-400000.0625
timestamp,ch7,ch2,ch3,ch5,is_pause
4.108261823654175,-400000.0625,9769.8203125,2523.52001953125,-400000.0625,-1708.5999755859375,-400000.0625,6315.330078125,-400000.0625
timestamp,ch7,ch2,ch3,ch5,is_pause
4.116335868835449,-400000.0625,9818.2197265625,2572.199951171875,-400000.0625,-1662.5899658203125,-400000.0625,6363.919921875,-400000.0625
4.123094081878662,-400000.0625,9804.0595703125,2554.3701171875,-400000.0625,-1684.1400146484375,-400000.0625,6348.419921875,-400000.0625
timestamp,ch7,ch2,ch3,ch5,is_pause
4.132848501205444,-400000.0625,9735.8701171875,2489.419921875,-400000.0625,-1742.6500244140625,-400000.0625,6285.43017578125,-400000.0625
timestamp,ch7,ch2,ch3,ch5,is_pause
4.150148868560791,-400000.0625,9716.7001953125,2471.110107421875,-400000.0625,-1741.8900146484375,-400000.0625,6269.93017578125,-400000.0625
4.157163619995117,-400000.0625,9768.2998046875,2520.610107421875,-400000.0625,-1704.5,-400000.0625,6314.56005859375,-400000.0625
timestamp,ch7,ch2,ch3,ch5,is_pause
4.167966842651367,-400000.0625,9808.400390625,2560.570068359375,-400000.0625,-1666.8299560546875,-400000.0625,6355.6201171875,-400000.0625
timestamp,ch7,ch2,ch3,ch5,is_pause
4.1763081550598145,-400000.0625,9787.990234375,2541.8798828125,-400000.0625,-1676.3199462890625,-400000.0625,6337.5498046875,-400000.0625
4.18325138092041,-400000.0625,9742.01953125,2491.89990234375,-400000.0625,-1738.31005859375,-400000.0625,6290.6298828125,-400000.0625
timestamp,ch7,ch2,ch3,ch5,is_pause
4.194498538970947,-400000.0625,9728.33984375,2479.550048828125,-400000.0625,-1753.18994140625,-400000.0625,6276.0400390625,-400000.0625
timestamp,ch7,ch2,ch3,ch5,is_pause
4.2038633823394775,-400000.0625,9769.1103515625,2522.3701171875,-400000.0625,-1693.9599609375,-400000.0625,6314.89990234375,-400000.0625
4.211520433425903,-400000.0625,9805.16015625,2559.949951171875,-400000.0625,-1650.9100341796875,-400000.0625,6359.14990234375,-400000.0625
timestamp,ch7,ch2,ch3,ch5,is_pause
4.219885349273682,-400000.0625,9792.4697265625,2546.840087890625,-400000.0625,-1677.0400390625,-400000.0625,6344.3701171875,-400000.0625
timestamp,ch7,ch2,ch3,ch5,is_pause
4.229136228561401,-400000.0625,9745.7900390625,2495.81005859375,-400000.0625,-1732.2099609375,-400000.0625,6290.81982421875,-400000.0625
4.23779821395874,-400000.0625,9735.25,2483.22998046875,-400000.0625,-1746.1300048828125,-400000.0625,6280.7998046875,-400000.0625
timestamp,ch7,ch2,ch3,ch5,is_pause
timestamp,ch7,ch2,ch3,ch5,is_pause
4.254730224609375,-400000.0625,9767.2001953125,2516.409912109375,-400000.0625,-1714.800048828125,-400000.0625,6311.22998046875,-400000.0625
4.261457204818726,-400000.0625,9803.76953125,2550.169921875,-400000.0625,-1672.4599609375,-400000.0625,6349.47021484375,-400000.0625
timestamp,ch7,ch2,ch3,ch5,is_pause
4.277700662612915,-400000.0625,9788.6103515625,2534.679931640625,-400000.0625,-1691.25,-400000.0625,6336.02001953125,-400000.0625
timestamp,ch7,ch2,ch3,ch5,is_pause
timestamp,ch7,ch2,ch3,ch5,is_pause
4.296967029571533,-400000.0625,9741.98046875,2488.090087890625,-400000.0625,-1734.02001953125,-400000.0625,6288.240234375,-400000.0625
4.30457067489624,-400000.0625,9732.099609375,2482.320068359375,-400000.0625,-1740.5,-400000.0625,6280.66015625,-400000.0625
timestamp,ch7,ch2,ch3,ch5,is_pause
4.3153908252716064,-400000.0625,9777.4501953125,2528.3798828125,-400000.0625,-1696.300048828125,-400000.0625,6324.669921875,-400000.0625
4.322418689727783,-400000.0625,9822.75,2570.43994140625,-400000.0625,-1660.969970703125,-400000.0625,6369.06982421875,-400000.0625
timestamp,ch7,ch2,ch3,ch5,is_pause
4.334225177764893,-400000.0625,9803.2001953125,2551.93994140625,-400000.0625,-1670.0699462890625,-400000.0625,6348.7998046875,-400000.0625
timestamp,ch7,ch2,ch3,ch5,is_pause
4.34241795539856,-400000.0625,9741.98046875,2491.3798828125,-400000.0625,-1720.760009765625,-400000.0625,6288.669921875,-400000.0625
timestamp,ch7,ch2,ch3,ch5,is_pause
4.360531330108643,-400000.0625,9728.7197265625,2476.169921875,-400000.0625,-1744.93994140625,-400000.0625,6276.18017578125,-400000.0625
timestamp,ch7,ch2,ch3,ch5,is_pause
4.373006820678711,-400000.0625,9775.8798828125,2522.56005859375,-400000.0625,-1700.31005859375,-400000.0625,6323.81982421875,-400000.0625
timestamp,ch7,ch2,ch3,ch5,is_pause
4.3829145431518555,-400000.0625,9825.0400390625,2570.300048828125,-400000.0625,-1656.3900146484375,-400000.0625,6374.02978515625,-400000.0625
4.390400648117065,-400000.0625,9797.240234375,2541.110107421875,-400000.0625,-1670.4100341796875,-400000.0625,6344.22021484375,-400000.0625
timestamp,ch7,ch2,ch3,ch5,is_pause
4.403478384017944,-400000.0625,9741.400390625,2488.52001953125,-400000.0625,-1720.760009765625,-400000.0625,6293.72998046875,-400000.0625
timestamp,ch7,ch2,ch3,ch5,is_pause
4.415955066680908,-400000.0625,9732.919921875,2477.929931640625,-400000.0625,-1741.699951171875,-400000.0625,6282.47021484375,-400000.0625
timestamp,ch7,ch2,ch3,ch5,is_pause
4.425473213195801,-400000.0625,9770.8203125,2515.4599609375,-400000.0625,-1706.8399658203125,-400000.0625,6324.43994140625,-400000.0625
timestamp,ch7,ch2,ch3,ch5,is_pause
4.435296535491943,-400000.0625,9816.7001953125,2561.860107421875,-400000.0625,-1677.0799560546875,-400000.0625,6365.2001953125,-400000.0625
4.444039583206177,-400000.0625,9805.2001953125,2549.510009765625,-400000.0625,-1690.010009765625,-400000.0625,6349.9501953125,-400000.0625
timestamp,ch7,ch2,ch3,ch5,is_pause
4.4611101150512695,-400000.0625,9749.4599609375,2493.760009765625,-400000.0625,-1729.06005859375,-400000.0625,6299.97021484375,-400000.0625
timestamp,ch7,ch2,ch3,ch5,is_pause
4.469932556152344,-400000.0625,9732.490234375,2475.550048828125,-400000.0625,-1741.8900146484375,-400000.0625,6282.0400390625,-400000.0625
timestamp,ch7,ch2,ch3,ch5,is_pause
4.481435775756836,-400000.0625,9777.5,2517.030029296875,-400000.0625,-1699.1600341796875,-400000.0625,6322.2900390625,-400000.0625
4.488671064376831,-400000.0625,9814.259765625,2555.419921875,-400000.0625,-1643.989990234375,-400000.0625,6366.5400390625,-400000.0625
timestamp,ch7,ch2,ch3,ch5,is_pause
4.496028184890747,-400000.0625,9794.8603515625,2539.5400390625,-400000.0625,-1666.4000244140625,-400000.0625,6351.89990234375,-400000.0625
4.502560377120972,-400000.0625,9743.1201171875,2484.4599609375,-400000.0625,-1732.25,-400000.0625,6298.35009765625,-400000.0625
timestamp,ch7,ch2,ch3,ch5,is_pause
4.509742498397827,-400000.0625,9737.919921875,2477.840087890625,-400000.0625,-1748.1300048828125,-400000.0625,6291.10009765625,-400000.0625
timestamp,ch7,ch2,ch3,ch5,is_pause
4.517899036407471,-400000.0625,9785.3203125,2524.469970703125,-400000.0625,-1706.4100341796875,-400000.0625,6333.77978515625,-400000.0625
4.523967742919922,-400000.0625,9817.98046875,2558.0400390625,-400000.0625,-1672.3199462890625,-400000.0625,6367.72998046875,-400000.0625
timestamp,ch7,ch2,ch3,ch5,is_pause
4.535915374755859,-400000.0625,9803.2001953125,2543.1201171875,-400000.0625,-1681.3800048828125,-400000.0625,6356.6201171875,-400000.0625
4.542954921722412,-400000.0625,9750.990234375,2487.090087890625,-400000.0625,-1718.81005859375,-400000.0625,6304.8798828125,-400000.0625
timestamp,ch7,ch2,ch3,ch5,is_pause
4.552541255950928,-400000.0625,9735.73046875,2472.5,-400000.0625,-1733.8800048828125,-400000.0625,6288.91015625,-400000.0625
timestamp,ch7,ch2,ch3,ch5,is_pause
4.56555700302124,-400000.0625,9786.1796875,2522.0400390625,-400000.0625,-1700.02001953125,-400000.0625,6332.35009765625,-400000.0625
timestamp,ch7,ch2,ch3,ch5,is_pause
4.572758197784424,-400000.0625,9834.2001953125,2568.389892578125,-400000.0625,-1660.1600341796875,-400000.0625,6372.169921875,-400000.0625
4.579702615737915,-400000.0625,9807.9697265625,2544.2099609375,-400000.0625,-1667.550048828125,-400000.0625,6352.14013671875,-400000.0625
timestamp,ch7,ch2,ch3,ch5,is_pause
4.587166786193848,-400000.0625,9751.849609375,2489.139892578125,-400000.0625,-1731.010009765625,-400000.0625,6304.97998046875,-400000.0625
timestamp,ch7,ch2,ch3,ch5,is_pause
4.5973076820373535,-400000.0625,9741.7802734375,2476.929931640625,-400000.0625,-1743.7900390625,-400000.0625,6297.72998046875,-400000.0625
4.604712724685669,-400000.0625,9787.080078125,2521.320068359375,-400000.0625,-1696.72998046875,-400000.0625,6338.60009765625,-400000.0625
timestamp,ch7,ch2,ch3,ch5,is_pause
4.614302396774292,-400000.0625,9840.4404296875,2568.050048828125,-400000.0625,-1665.969970703125,-400000.0625,6385.990234375,-400000.0625
4.621320724487305,-400000.0625,9828.0,2551.75,-400000.0625,-1694.969970703125,-400000.0625,6374.64990234375,-400000.0625
timestamp,ch7,ch2,ch3,ch5,is_pause
4.632237195968628,-400000.0625,9776.259765625,2494.050048828125,-400000.0625,-1747.0799560546875,-400000.0625,6319.18994140625,-400000.0625
timestamp,ch7,ch2,ch3,ch5,is_pause
4.640851736068726,-400000.0625,9764.8203125,2476.31005859375,-400000.0625,-1745.989990234375,-400000.0625,6301.68994140625,-400000.0625
4.648435115814209,-400000.0625,9809.5400390625,2524.090087890625,-400000.0625,-1692.300048828125,-400000.0625,6347.0400390625,-400000.0625
timestamp,ch7,ch2,ch3,ch5,is_pause
4.6558873653411865,-400000.0625,9855.7998046875,2574.72998046875,-400000.0625,-1657.06005859375,-400000.0625,6397.10986328125,-400000.0625
timestamp,ch7,ch2,ch3,ch5,is_pause
4.671036720275879,-400000.0625,9840.1103515625,2555.419921875,-400000.0625,-1671.8399658203125,-400000.0625,6378.56005859375,-400000.0625
timestamp,ch7,ch2,ch3,ch5,is_pause
4.681146144866943,-400000.0625,9774.9697265625,2492.3798828125,-400000.0625,-1734.260009765625,-400000.0625,6314.7998046875,-400000.0625
4.688863754272461,-400000.0625,9760.330078125,2480.840087890625,-400000.0625,-1749.0899658203125,-400000.0625,6300.2099609375,-400000.0625
timestamp,ch7,ch2,ch3,ch5,is_pause
4.699119806289673,-400000.0625,9810.9697265625,2527.330078125,-400000.0625,-1698.4000244140625,-400000.0625,6345.080078125,-400000.0625
timestamp,ch7,ch2,ch3,ch5,is_pause
4.705974102020264,-400000.0625,9851.599609375,2567.47998046875,-400000.0625,-1657.77001953125,-400000.0625,6389.330078125,-400000.0625
4.713230133056641,-400000.0625,9833.76953125,2552.4599609375,-400000.0625,-1669.030029296875,-400000.0625,6375.169921875,-400000.0625
timestamp,ch7,ch2,ch3,ch5,is_pause
4.720571756362915,-400000.0625,9783.2197265625,2501.9599609375,-400000.0625,-1719.8599853515625,-400000.0625,6326.10009765625,-400000.0625
4.727227449417114,-400000.0625,9768.2001953125,2485.080078125,-400000.0625,-1740.0699462890625,-400000.0625,6306.35986328125,-400000.0625
timestamp,ch7,ch2,ch3,ch5,is_pause
4.737839937210083,-400000.0625,9806.6796875,2527.429931640625,-400000.0625,-1703.449951171875,-400000.0625,6346.419921875,-400000.0625
4.746016025543213,-400000.0625,9851.1201171875,2570.919921875,-400000.0625,-1662.4000244140625,-400000.0625,6392.669921875,-400000.0625
timestamp,ch7,ch2,ch3,ch5,is_pause
4.755535125732422,-400000.0625,9838.73046875,2556.1298828125,-400000.0625,-1677.0799560546875,-400000.0625,6376.89013671875,-400000.0625
timestamp,ch7,ch2,ch3,ch5,is_pause
4.764840364456177,-400000.0625,9782.9404296875,2501.679931640625,-400000.0625,-1734.9200439453125,-400000.0625,6326.8701171875,-400000.0625
timestamp,ch7,ch2,ch3,ch5,is_pause
4.783484935760498,-400000.0625,9766.4404296875,2482.800048828125,-400000.0625,-1752.3299560546875,-400000.0625,6307.7900390625,-400000.0625
4.789853572845459,-400000.0625,9809.58984375,2525.22998046875,-400000.0625,-1694.06005859375,-400000.0625,6349.990234375,-400000.0625
timestamp,ch7,ch2,ch3,ch5,is_pause
4.800116300582886,-400000.0625,9852.2197265625,2569.010009765625,-400000.0625,-1654.3399658203125,-400000.0625,6392.669921875,-400000.0625
timestamp,ch7,ch2,ch3,ch5,is_pause
4.806930303573608,-400000.0625,9835.8203125,2552.409912109375,-400000.0625,-1681.1800537109375,-400000.0625,6376.41015625,-400000.0625
4.8156421184539795,-400000.0625,9782.4599609375,2499.2900390625,-400000.0625,-1733.8800048828125,-400000.0625,6329.39013671875,-400000.0625
timestamp,ch7,ch2,ch3,ch5,is_pause
4.823812484741211,-400000.0625,9765.8203125,2484.3701171875,-400000.0625,-1740.4100341796875,-400000.0625,6309.18017578125,-400000.0625
timestamp,ch7,ch2,ch3,ch5,is_pause
4.833901405334473,-400000.0625,9812.8798828125,2530.429931640625,-400000.0625,-1694.010009765625,-400000.0625,6351.419921875,-400000.0625
4.841436147689819,-400000.0625,9860.419921875,2579.639892578125,-400000.0625,-1651.239990234375,-400000.0625,6393.85986328125,-400000.0625
timestamp,ch7,ch2,ch3,ch5,is_pause
4.853105783462524,-400000.0625,9850.5498046875,2567.199951171875,-400000.0625,-1680.6600341796875,-400000.0625,6384.27978515625,-400000.0625
timestamp,ch7,ch2,ch3,ch5,is_pause
4.864304780960083,-400000.0625,9784.509765625,2503.43994140625,-400000.0625,-1734.5400390625,-400000.0625,6320.6201171875,-400000.0625
timestamp,ch7,ch2,ch3,ch5,is_pause
4.871992826461792,-400000.0625,9764.3896484375,2487.139892578125,-400000.0625,-1728.6300048828125,-400000.0625,6300.39990234375,-400000.0625
timestamp,ch7,ch2,ch3,ch5,is_pause
4.890045881271362,-400000.0625,9801.5302734375,2525.18994140625,-400000.0625,-1699.4000244140625,-400000.0625,6343.080078125,-400000.0625
timestamp,ch7,ch2,ch3,ch5,is_pause
4.899147033691406,-400000.0625,9846.5498046875,2569.489990234375,-400000.0625,-1665.1600341796875,-400000.0625,6386.81005859375,-400000.0625
4.905645847320557,-400000.0625,9835.7197265625,2557.179931640625,-400000.0625,-1669.3599853515625,-400000.0625,6371.06982421875,-400000.0625
timestamp,ch7,ch2,ch3,ch5,is_pause
4.916621923446655,-400000.0625,9787.0400390625,2507.590087890625,-400000.0625,-1721.0999755859375,-400000.0625,6318.3798828125,-400000.0625
timestamp,ch7,ch2,ch3,ch5,is_pause
4.926385402679443,-400000.0625,9772.01953125,2491.7099609375,-400000.0625,-1762.5799560546875,-400000.0625,6310.1298828125,-400000.0625
timestamp,ch7,ch2,ch3,ch5,is_pause
4.940226078033447,-400000.0625,9812.01953125,2532.530029296875,-400000.0625,-1723.2900390625,-400000.0625,6345.7001953125,-400000.0625
timestamp,ch7,ch2,ch3,ch5,is_pause
4.949324369430542,-400000.0625,9848.01953125,2572.919921875,-400000.0625,-1661.8699951171875,-400000.0625,6382.47021484375,-400000.0625
4.956353425979614,-400000.0625,9833.8095703125,2561.0,-400000.0625,-1647.7099609375,-400000.0625,6370.830078125,-400000.0625
timestamp,ch7,ch2,ch3,ch5,is_pause
4.968001842498779,-400000.0625,9775.16015625,2501.580078125,-400000.0625,-1711.75,-400000.0625,6315.66015625,-400000.0625
timestamp,ch7,ch2,ch3,ch5,is_pause
4.979735612869263,-400000.0625,9757.8095703125,2482.840087890625,-400000.0625,-1739.4100341796875,-400000.0625,6297.10986328125,-400000.0625
timestamp,ch7,ch2,ch3,ch5,is_pause
5.001253604888916,-400000.0625,9801.6796875,2527.760009765625,-400000.0625,-1711.510009765625,-400000.0625,6340.1201171875,-400000.0625
timestamp,ch7,ch2,ch3,ch5,is_pause
5.014085054397583,-400000.0625,9845.4501953125,2571.06005859375,-400000.0625,-1681.6099853515625,-400000.0625,6385.7099609375,-400000.0625
timestamp,ch7,ch2,ch3,ch5,is_pause
5.0263519287109375,-400000.0625,9832.0,2556.659912109375,-400000.0625,-1665.0699462890625,-400000.0625,6369.97021484375,-400000.0625
timestamp,ch7,ch2,ch3,ch5,is_pause
5.038308143615723,-400000.0625,9778.5498046875,2503.010009765625,-400000.0625,-1715.7099609375,-400000.0625,6316.85009765625,-400000.0625
5.04642915725708,-400000.0625,9761.9501953125,2486.89990234375,-400000.0625,-1738.68994140625,-400000.0625,6303.259765625,-400000.0625
timestamp,ch7,ch2,ch3,ch5,is_pause
5.055880546569824,-400000.0625,9803.9599609375,2530.0,-400000.0625,-1697.02001953125,-400000.0625,6344.18017578125,-400000.0625
timestamp,ch7,ch2,ch3,ch5,is_pause
5.067503213882446,-400000.0625,9846.4501953125,2572.489990234375,-400000.0625,-1663.969970703125,-400000.0625,6386.47021484375,-400000.0625
timestamp,ch7,ch2,ch3,ch5,is_pause
5.079984664916992,-400000.0625,9829.6201171875,2554.699951171875,-400000.0625,-1671.1199951171875,-400000.0625,6368.830078125,-400000.0625
timestamp,ch7,ch2,ch3,ch5,is_pause
5.098317384719849,-400000.0625,9779.259765625,2503.679931640625,-400000.0625,-1713.3699951171875,-400000.0625,6319.9501953125,-400000.0625
timestamp,ch7,ch2,ch3,ch5,is_pause
5.10556435585022,-400000.0625,9764.5302734375,2485.85009765625,-400000.0625,-1742.4100341796875,-400000.0625,6305.1201171875,-400000.0625
5.1131322383880615,-400000.0625,9796.0498046875,2522.179931640625,-400000.0625,-1720.0899658203125,-400000.0625,6338.740234375,-400000.0625
timestamp,ch7,ch2,ch3,ch5,is_pause
5.1219727993011475,-400000.0625,9846.01953125,2569.6298828125,-400000.0625,-1677.1300048828125,-400000.0625,6380.02978515625,-400000.0625
timestamp,ch7,ch2,ch3,ch5,is_pause
5.131105899810791,-400000.0625,9834.099609375,2558.52001953125,-400000.0625,-1689.77001953125,-400000.0625,6361.8701171875,-400000.0625
5.138110160827637,-400000.0625,9779.259765625,2501.919921875,-400000.0625,-1711.1800537109375,-400000.0625,6304.1201171875,-400000.0625
timestamp,ch7,ch2,ch3,ch5,is_pause
5.149374723434448,-400000.0625,9770.4404296875,2486.989990234375,-400000.0625,-1728.1500244140625,-400000.0625,6294.72998046875,-400000.0625
5.156223297119141,-400000.0625,9799.76953125,2526.429931640625,-400000.0625,-1708.219970703125,-400000.0625,6337.5498046875,-400000.0625
timestamp,ch7,ch2,ch3,ch5,is_pause
5.164421319961548,-400000.0625,9834.33984375,2563.139892578125,-400000.0625,-1661.969970703125,-400000.0625,6383.52001953125,-400000.0625
timestamp,ch7,ch2,ch3,ch5,is_pause
5.172061443328857,-400000.0625,9835.8203125,2553.419921875,-400000.0625,-1680.989990234375,-400000.0625,6373.97998046875,-400000.0625
5.180439233779907,-400000.0625,9784.599609375,2501.010009765625,-400000.0625,-1730.1600341796875,-400000.0625,6321.43017578125,-400000.0625
timestamp,ch7,ch2,ch3,ch5,is_pause
timestamp,ch7,ch2,ch3,ch5,is_pause
5.1989219188690186,-400000.0625,9768.8701171875,2485.419921875,-400000.0625,-1730.010009765625,-400000.0625,6303.68994140625,-400000.0625
5.205831050872803,-400000.0625,9818.83984375,2528.949951171875,-400000.0625,-1686.6199951171875,-400000.0625,6345.75,-400000.0625
timestamp,ch7,ch2,ch3,ch5,is_pause
5.215582847595215,-400000.0625,9866.330078125,2576.5400390625,-400000.0625,-1652.239990234375,-400000.0625,6393.6201171875,-400000.0625
5.221954345703125,-400000.0625,9861.1396484375,2573.35009765625,-400000.0625,-1675.93994140625,-400000.0625,6385.27978515625,-400000.0625
timestamp,ch7,ch2,ch3,ch5,is_pause
5.231963396072388,-400000.0625,9797.7197265625,2505.110107421875,-400000.0625,-1734.68994140625,-400000.0625,6316.85009765625,-400000.0625
5.238182306289673,-400000.0625,9771.2998046875,2480.219970703125,-400000.0625,-1742.8900146484375,-400000.0625,6295.6298828125,-400000.0625
timestamp,ch7,ch2,ch3,ch5,is_pause
5.246285915374756,-400000.0625,9812.2099609375,2522.75,-400000.0625,-1701.5,-400000.0625,6337.97998046875,-400000.0625
timestamp,ch7,ch2,ch3,ch5,is_pause
5.254225730895996,-400000.0625,9862.1396484375,2570.8701171875,-400000.0625,-1667.68994140625,-400000.0625,6383.22998046875,-400000.0625
5.261963367462158,-400000.0625,9847.740234375,2556.75,-400000.0625,-1689.77001953125,-400000.0625,6374.8798828125,-400000.0625
timestamp,ch7,ch2,ch3,ch5,is_pause
timestamp,ch7,ch2,ch3,ch5,is_pause
5.280801057815552,-400000.0625,9797.759765625,2507.260009765625,-400000.0625,-1733.72998046875,-400000.0625,6322.580078125,-400000.0625
timestamp,ch7,ch2,ch3,ch5,is_pause
5.304119825363159,-400000.0625,9777.9296875,2490.949951171875,-400000.0625,-1740.31005859375,-400000.0625,6309.22021484375,-400000.0625
timestamp,ch7,ch2,ch3,ch5,is_pause
5.312170505523682,-400000.0625,9814.4501953125,2525.090087890625,-400000.0625,-1702.8800048828125,-400000.0625,6345.31982421875,-400000.0625
5.318082332611084,-400000.0625,9857.849609375,2571.9599609375,-400000.0625,-1654.050048828125,-400000.0625,6390.85986328125,-400000.0625
timestamp,ch7,ch2,ch3,ch5,is_pause
5.324757099151611,-400000.0625,9849.3603515625,2562.139892578125,-400000.0625,-1673.27001953125,-400000.0625,6384.18017578125,-400000.0625
5.3326640129089355,-400000.0625,9805.8203125,2515.889892578125,-400000.0625,-1711.22998046875,-400000.0625,6334.39990234375,-400000.0625
timestamp,ch7,ch2,ch3,ch5,is_pause
5.340806722640991,-400000.0625,9773.830078125,2486.280029296875,-400000.0625,-1731.06005859375,-400000.0625,6304.5,-400000.0625
timestamp,ch7,ch2,ch3,ch5,is_pause
5.350548982620239,-400000.0625,9810.8798828125,2525.139892578125,-400000.0625,-1701.68994140625,-400000.0625,6340.41015625,-400000.0625
5.356967210769653,-400000.0625,9858.990234375,2571.5400390625,-400000.0625,-1663.5899658203125,-400000.0625,6383.85009765625,-400000.0625
timestamp,ch7,ch2,ch3,ch5,is_pause
5.366020441055298,-400000.0625,9843.8798828125,2560.0400390625,-400000.0625,-1683.0400390625,-400000.0625,6374.8798828125,-400000.0625
timestamp,ch7,ch2,ch3,ch5,is_pause
5.373876333236694,-400000.0625,9795.330078125,2511.070068359375,-400000.0625,-1736.2099609375,-400000.0625,6327.2001953125,-400000.0625
5.382871866226196,-400000.0625,9779.599609375,2497.2900390625,-400000.0625,-1751.0400390625,-400000.0625,6310.509765625,-400000.0625
timestamp,ch7,ch2,ch3,ch5,is_pause
timestamp,ch7,ch2,ch3,ch5,is_pause
5.398800849914551,-400000.0625,9816.3603515625,2534.530029296875,-400000.0625,-1714.7099609375,-400000.0625,6343.56005859375,-400000.0625
5.405803203582764,-400000.0625,9859.4697265625,2575.639892578125,-400000.0625,-1665.6400146484375,-400000.0625,6382.89990234375,-400000.0625
timestamp,ch7,ch2,ch3,ch5,is_pause
5.415888786315918,-400000.0625,9844.919921875,2561.52001953125,-400000.0625,-1672.3599853515625,-400000.0625,6371.97998046875,-400000.0625
5.423107624053955,-400000.0625,9787.6103515625,2506.8798828125,-400000.0625,-1711.8499755859375,-400000.0625,6318.0498046875,-400000.0625
timestamp,ch7,ch2,ch3,ch5,is_pause
5.434889793395996,-400000.0625,9763.5302734375,2483.800048828125,-400000.0625,-1733.6400146484375,-400000.0625,6295.68017578125,-400000.0625
timestamp,ch7,ch2,ch3,ch5,is_pause
5.44182825088501,-400000.0625,9806.16015625,2524.22998046875,-400000.0625,-1725.1500244140625,-400000.0625,6342.5498046875,-400000.0625
5.448683261871338,-400000.0625,9859.849609375,2577.830078125,-400000.0625,-1663.4000244140625,-400000.0625,6395.10009765625,-400000.0625
timestamp,ch7,ch2,ch3,ch5,is_pause
5.456585884094238,-400000.0625,9837.91015625,2560.18994140625,-400000.0625,-1656.0999755859375,-400000.0625,6375.31005859375,-400000.0625
timestamp,ch7,ch2,ch3,ch5,is_pause
5.4650232791900635,-400000.0625,9786.1796875,2505.639892578125,-400000.0625,-1722.3800048828125,-400000.0625,6323.0,-400000.0625
5.4711902141571045,-400000.0625,9771.490234375,2491.7099609375,-400000.0625,-1751.6099853515625,-400000.0625,6304.8798828125,-400000.0625
timestamp,ch7,ch2,ch3,ch5,is_pause
5.477362632751465,-400000.0625,9811.2099609375,2534.909912109375,-400000.0625,-1703.31005859375,-400000.0625,6345.31982421875,-400000.0625
5.48281717300415,-400000.0625,9864.4697265625,2583.7900390625,-400000.0625,-1645.4200439453125,-400000.0625,6389.9501953125,-400000.0625
timestamp,ch7,ch2,ch3,ch5,is_pause
5.489504337310791,-400000.0625,9847.259765625,2566.429931640625,-400000.0625,-1661.25,-400000.0625,6380.60986328125,-400000.0625
timestamp,ch7,ch2,ch3,ch5,is_pause
5.50619912147522,-400000.0625,9789.08984375,2510.2099609375,-400000.0625,-1720.2900390625,-400000.0625,6324.72021484375,-400000.0625
5.5126214027404785,-400000.0625,9767.8701171875,2488.0400390625,-400000.0625,-1746.1300048828125,-400000.0625,6299.10986328125,-400000.0625
timestamp,ch7,ch2,ch3,ch5,is_pause
5.520455360412598,-400000.0625,9798.5302734375,2525.0,-400000.0625,-1717.280029296875,-400000.0625,6337.5498046875,-400000.0625
timestamp,ch7,ch2,ch3,ch5,is_pause
5.526991844177246,-400000.0625,9838.25,2571.8701171875,-400000.0625,-1671.510009765625,-400000.0625,6384.7998046875,-400000.0625
5.534421682357788,-400000.0625,9834.099609375,2563.429931640625,-400000.0625,-1674.4599609375,-400000.0625,6374.02978515625,-400000.0625
timestamp,ch7,ch2,ch3,ch5,is_pause
5.542642831802368,-400000.0625,9796.759765625,2513.550048828125,-400000.0625,-1711.0799560546875,-400000.0625,6321.72021484375,-400000.0625
5.551387310028076,-400000.0625,9776.9697265625,2492.570068359375,-400000.0625,-1731.8299560546875,-400000.0625,6296.58984375,-400000.0625
timestamp,ch7,ch2,ch3,ch5,is_pause
5.5592780113220215,-400000.0625,9810.3095703125,2536.25,-400000.0625,-1702.1199951171875,-400000.0625,6336.259765625,-400000.0625
timestamp,ch7,ch2,ch3,ch5,is_pause
5.567550897598267,-400000.0625,9859.9404296875,2587.1298828125,-400000.0625,-1655.050048828125,-400000.0625,6383.56005859375,-400000.0625
5.573424577713013,-400000.0625,9840.0595703125,2564.47998046875,-400000.0625,-1665.3499755859375,-400000.0625,6362.490234375,-400000.0625
timestamp,ch7,ch2,ch3,ch5,is_pause
5.5846569538116455,-400000.0625,9784.26953125,2511.60009765625,-400000.0625,-1718.81005859375,-400000.0625,6308.3701171875,-400000.0625
timestamp,ch7,ch2,ch3,ch5,is_pause
5.591764688491821,-400000.0625,9755.23046875,2485.800048828125,-400000.0625,-1740.97998046875,-400000.0625,6286.10009765625,-400000.0625
timestamp,ch7,ch2,ch3,ch5,is_pause
5.606443405151367,-400000.0625,9791.4697265625,2522.3701171875,-400000.0625,-1707.1199951171875,-400000.0625,6321.14013671875,-400000.0625
timestamp,ch7,ch2,ch3,ch5,is_pause
5.617921829223633,-400000.0625,9836.3896484375,2566.10009765625,-400000.0625,-1657.77001953125,-400000.0625,6365.919921875,-400000.0625
5.625048398971558,-400000.0625,9829.2802734375,2558.989990234375,-400000.0625,-1672.3599853515625,-400000.0625,6357.10009765625,-400000.0625
timestamp,ch7,ch2,ch3,ch5,is_pause
5.636150598526001,-400000.0625,9777.6904296875,2508.5,-400000.0625,-1717.52001953125,-400000.0625,6302.169921875,-400000.0625
5.642189979553223,-400000.0625,9759.8603515625,2489.949951171875,-400000.0625,-1734.449951171875,-400000.0625,6286.47998046875,-400000.0625
timestamp,ch7,ch2,ch3,ch5,is_pause
5.652374505996704,-400000.0625,9799.8203125,2529.760009765625,-400000.0625,-1706.27001953125,-400000.0625,6326.10009765625,-400000.0625
timestamp,ch7,ch2,ch3,ch5,is_pause
5.6619203090667725,-400000.0625,9848.0703125,2578.639892578125,-400000.0625,-1671.1199951171875,-400000.0625,6373.35986328125,-400000.0625
5.6692070960998535,-400000.0625,9837.33984375,2568.050048828125,-400000.0625,-1680.469970703125,-400000.0625,6367.35009765625,-400000.0625
timestamp,ch7,ch2,ch3,ch5,is_pause
5.677738904953003,-400000.0625,9781.650390625,2517.3701171875,-400000.0625,-1718.280029296875,-400000.0625,6312.56005859375,-400000.0625
timestamp,ch7,ch2,ch3,ch5,is_pause
5.688287258148193,-400000.0625,9762.33984375,2495.340087890625,-400000.0625,-1752.0899658203125,-400000.0625,6288.91015625,-400000.0625
5.695655822753906,-400000.0625,9797.0498046875,2529.570068359375,-400000.0625,-1699.1600341796875,-400000.0625,6323.91015625,-400000.0625
timestamp,ch7,ch2,ch3,ch5,is_pause
timestamp,ch7,ch2,ch3,ch5,is_pause
5.714358568191528,-400000.0625,9841.0595703125,2575.25,-400000.0625,-1644.52001953125,-400000.0625,6370.02001953125,-400000.0625
5.721397876739502,-400000.0625,9822.0400390625,2555.179931640625,-400000.0625,-1679.949951171875,-400000.0625,6353.18994140625,-400000.0625
timestamp,ch7,ch2,ch3,ch5,is_pause
5.731835842132568,-400000.0625,9772.01953125,2505.679931640625,-400000.0625,-1721.0,-400000.0625,6301.93017578125,-400000.0625
5.738250255584717,-400000.0625,9753.419921875,2487.139892578125,-400000.0625,-1734.300048828125,-400000.0625,6285.10009765625,-400000.0625
timestamp,ch7,ch2,ch3,ch5,is_pause
5.7477569580078125,-400000.0625,9789.9404296875,2528.669921875,-400000.0625,-1698.02001953125,-400000.0625,6328.580078125,-400000.0625
timestamp,ch7,ch2,ch3,ch5,is_pause
5.7558393478393555,-400000.0625,9837.0595703125,2574.110107421875,-400000.0625,-1662.3499755859375,-400000.0625,6369.64013671875,-400000.0625
5.7649946212768555,-400000.0625,9825.900390625,2560.6201171875,-400000.0625,-1675.219970703125,-400000.0625,6359.85986328125,-400000.0625
timestamp,ch7,ch2,ch3,ch5,is_pause
5.773221492767334,-400000.0625,9772.2099609375,2507.5400390625,-400000.0625,-1735.8800048828125,-400000.0625,6307.7900390625,-400000.0625
timestamp,ch7,ch2,ch3,ch5,is_pause
5.783734560012817,-400000.0625,9753.2802734375,2488.330078125,-400000.0625,-1748.510009765625,-400000.0625,6282.7099609375,-400000.0625
5.790615797042847,-400000.0625,9794.759765625,2530.050048828125,-400000.0625,-1704.7900390625,-400000.0625,6321.3798828125,-400000.0625
timestamp,ch7,ch2,ch3,ch5,is_pause
5.80180549621582,-400000.0625,9839.6796875,2572.780029296875,-400000.0625,-1682.3299560546875,-400000.0625,6370.259765625,-400000.0625
timestamp,ch7,ch2,ch3,ch5,is_pause
5.8199334144592285,-400000.0625,9825.2802734375,2559.139892578125,-400000.0625,-1675.3199462890625,-400000.0625,6360.43994140625,-400000.0625
timestamp,ch7,ch2,ch3,ch5,is_pause
5.828591823577881,-400000.0625,9776.5498046875,2511.8798828125,-400000.0625,-1707.8399658203125,-400000.0625,6307.080078125,-400000.0625
timestamp,ch7,ch2,ch3,ch5,is_pause
5.8382954597473145,-400000.0625,9757.1904296875,2490.330078125,-400000.0625,-1744.6500244140625,-400000.0625,6287.91015625,-400000.0625
timestamp,ch7,ch2,ch3,ch5,is_pause
5.847488641738892,-400000.0625,9799.76953125,2533.25,-400000.0625,-1707.550048828125,-400000.0625,6327.10986328125,-400000.0625
5.854267597198486,-400000.0625,9848.6904296875,2582.60009765625,-400000.0625,-1647.3299560546875,-400000.0625,6375.27001953125,-400000.0625
timestamp,ch7,ch2,ch3,ch5,is_pause
5.86577844619751,-400000.0625,9843.01953125,2579.5,-400000.0625,-1646.6099853515625,-400000.0625,6366.64013671875,-400000.0625
timestamp,ch7,ch2,ch3,ch5,is_pause
5.874720096588135,-400000.0625,9784.5595703125,2519.659912109375,-400000.0625,-1711.8900146484375,-400000.0625,6310.1298828125,-400000.0625
5.883721351623535,-400000.0625,9752.7998046875,2488.469970703125,-400000.0625,-1742.8900146484375,-400000.0625,6279.990234375,-400000.0625
timestamp,ch7,ch2,ch3,ch5,is_pause
5.8927226066589355,-400000.0625,9789.3701171875,2523.330078125,-400000.0625,-1707.030029296875,-400000.0625,6312.7998046875,-400000.0625
timestamp,ch7,ch2,ch3,ch5,is_pause
5.90263557434082,-400000.0625,9839.580078125,2574.969970703125,-400000.0625,-1664.9200439453125,-400000.0625,6359.6298828125,-400000.0625
timestamp,ch7,ch2,ch3,ch5,is_pause
5.919083833694458,-400000.0625,9834.4296875,2569.6298828125,-400000.0625,-1681.6099853515625,-400000.0625,6358.2001953125,-400000.0625
timestamp,ch7,ch2,ch3,ch5,is_pause
5.926218032836914,-400000.0625,9782.3203125,2517.179931640625,-400000.0625,-1737.3599853515625,-400000.0625,6309.18017578125,-400000.0625
5.932377576828003,-400000.0625,9760.4296875,2496.860107421875,-400000.0625,-1750.3299560546875,-400000.0625,6285.0,-400000.0625
timestamp,ch7,ch2,ch3,ch5,is_pause
5.939055681228638,-400000.0625,9805.0595703125,2536.389892578125,-400000.0625,-1704.1199951171875,-400000.0625,6320.91015625,-400000.0625
5.946619033813477,-400000.0625,9846.400390625,2582.68994140625,-400000.0625,-1641.4599609375,-400000.0625,6366.06005859375,-400000.0625
timestamp,ch7,ch2,ch3,ch5,is_pause
5.956066131591797,-400000.0625,9835.240234375,2571.489990234375,-400000.0625,-1651.949951171875,-400000.0625,6355.47998046875,-400000.0625
timestamp,ch7,ch2,ch3,ch5,is_pause
5.967899322509766,-400000.0625,9780.9296875,2514.64990234375,-400000.0625,-1720.3800048828125,-400000.0625,6302.06982421875,-400000.0625
timestamp,ch7,ch2,ch3,ch5,is_pause
5.975754022598267,-400000.0625,9759.08984375,2494.669921875,-400000.0625,-1739.8399658203125,-400000.0625,6279.18017578125,-400000.0625
5.983281850814819,-400000.0625,9800.9599609375,2533.389892578125,-400000.0625,-1707.6500244140625,-400000.0625,6320.85986328125,-400000.0625
timestamp,ch7,ch2,ch3,ch5,is_pause
5.990969181060791,-400000.0625,9846.6904296875,2576.39990234375,-400000.0625,-1675.510009765625,-400000.0625,6370.4501953125,-400000.0625
timestamp,ch7,ch2,ch3,ch5,is_pause
6.005125284194946,-400000.0625,9840.16015625,2572.010009765625,-400000.0625,-1671.6500244140625,-400000.0625,6367.72998046875,-400000.0625
timestamp,ch7,ch2,ch3,ch5,is_pause
6.024555444717407,-400000.0625,9782.7001953125,2516.7900390625,-400000.0625,-1716.0400390625,-400000.0625,6313.85009765625,-400000.0625
timestamp,ch7,ch2,ch3,ch5,is_pause
6.035750865936279,-400000.0625,9752.8896484375,2486.3701171875,-400000.0625,-1741.1199951171875,-400000.0625,6285.43017578125,-400000.0625
timestamp,ch7,ch2,ch3,ch5,is_pause
6.047282934188843,-400000.0625,9793.5703125,2526.81005859375,-400000.0625,-1710.989990234375,-400000.0625,6324.85986328125,-400000.0625
6.055091381072998,-400000.0625,9842.0595703125,2575.35009765625,-400000.0625,-1673.27001953125,-400000.0625,6373.41015625,-400000.0625
timestamp,ch7,ch2,ch3,ch5,is_pause
6.064707279205322,-400000.0625,9831.240234375,2564.669921875,-400000.0625,-1680.3699951171875,-400000.0625,6363.10986328125,-400000.0625
timestamp,ch7,ch2,ch3,ch5,is_pause
6.073917627334595,-400000.0625,9778.1201171875,2512.070068359375,-400000.0625,-1725.9100341796875,-400000.0625,6312.419921875,-400000.0625
timestamp,ch7,ch2,ch3,ch5,is_pause
6.085484981536865,-400000.0625,9763.0498046875,2498.77001953125,-400000.0625,-1745.510009765625,-400000.0625,6296.8701171875,-400000.0625
6.094271421432495,-400000.0625,9800.009765625,2533.47998046875,-400000.0625,-1723.3900146484375,-400000.0625,6328.77001953125,-400000.0625
timestamp,ch7,ch2,ch3,ch5,is_pause
6.1040565967559814,-400000.0625,9836.9599609375,2572.35009765625,-400000.0625,-1656.2900390625,-400000.0625,6368.4501953125,-400000.0625
timestamp,ch7,ch2,ch3,ch5,is_pause
6.114542245864868,-400000.0625,9827.5703125,2564.47998046875,-400000.0625,-1663.4000244140625,-400000.0625,6363.77001953125,-400000.0625
timestamp,ch7,ch2,ch3,ch5,is_pause
6.13465428352356,-400000.0625,9779.650390625,2516.030029296875,-400000.0625,-1715.22998046875,-400000.0625,6315.60986328125,-400000.0625
timestamp,ch7,ch2,ch3,ch5,is_pause
6.145578861236572,-400000.0625,9748.0302734375,2491.139892578125,-400000.0625,-1732.1099853515625,-400000.0625,6291.490234375,-400000.0625
timestamp,ch7,ch2,ch3,ch5,is_pause
6.1553053855896,-400000.0625,9785.26953125,2525.280029296875,-400000.0625,-1717.18994140625,-400000.0625,6318.7099609375,-400000.0625
timestamp,ch7,ch2,ch3,ch5,is_pause
6.165177345275879,-400000.0625,9851.080078125,2578.449951171875,-400000.0625,-1673.56005859375,-400000.0625,6359.6298828125,-400000.0625
6.172811985015869,-400000.0625,9842.349609375,2572.820068359375,-400000.0625,-1672.550048828125,-400000.0625,6344.509765625,-400000.0625
timestamp,ch7,ch2,ch3,ch5,is_pause
6.18114161491394,-400000.0625,9790.849609375,2527.6201171875,-400000.0625,-1715.280029296875,-400000.0625,6299.39990234375,-400000.0625
timestamp,ch7,ch2,ch3,ch5,is_pause
6.188320636749268,-400000.0625,9768.0595703125,2506.68994140625,-400000.0625,-1756.239990234375,-400000.0625,6278.419921875,-400000.0625
6.196928024291992,-400000.0625,9806.58984375,2546.070068359375,-400000.0625,-1726.0999755859375,-400000.0625,6310.7001953125,-400000.0625
timestamp,ch7,ch2,ch3,ch5,is_pause
6.206501245498657,-400000.0625,9862.51953125,2597.81005859375,-400000.0625,-1655.8199462890625,-400000.0625,6352.3798828125,-400000.0625
timestamp,ch7,ch2,ch3,ch5,is_pause
6.219274282455444,-400000.0625,9849.8798828125,2593.659912109375,-400000.0625,-1651.81005859375,-400000.0625,6343.60009765625,-400000.0625
timestamp,ch7,ch2,ch3,ch5,is_pause
6.236926794052124,-400000.0625,9801.5302734375,2546.60009765625,-400000.0625,-1705.5999755859375,-400000.0625,6294.43994140625,-400000.0625
timestamp,ch7,ch2,ch3,ch5,is_pause
6.244826793670654,-400000.0625,9788.75,2527.669921875,-400000.0625,-1723.6199951171875,-400000.0625,6276.89013671875,-400000.0625
6.251563549041748,-400000.0625,9822.0400390625,2560.659912109375,-400000.0625,-1695.780029296875,-400000.0625,6307.1298828125,-400000.0625
timestamp,ch7,ch2,ch3,ch5,is_pause
6.260531902313232,-400000.0625,9869.2900390625,2605.919921875,-400000.0625,-1665.969970703125,-400000.0625,6351.22998046875,-400000.0625
timestamp,ch7,ch2,ch3,ch5,is_pause
6.27390193939209,-400000.0625,9863.51953125,2598.719970703125,-400000.0625,-1684.050048828125,-400000.0625,6344.41015625,-400000.0625
timestamp,ch7,ch2,ch3,ch5,is_pause
6.291601181030273,-400000.0625,9805.490234375,2542.070068359375,-400000.0625,-1733.1600341796875,-400000.0625,6287.14990234375,-400000.0625
timestamp,ch7,ch2,ch3,ch5,is_pause
6.304110288619995,-400000.0625,9782.0302734375,2518.27001953125,-400000.0625,-1731.5400390625,-400000.0625,6261.5400390625,-400000.0625
timestamp,ch7,ch2,ch3,ch5,is_pause
6.3133909702301025,-400000.0625,9815.98046875,2555.22998046875,-400000.0625,-1694.199951171875,-400000.0625,6299.8798828125,-400000.0625
6.319713830947876,-400000.0625,9861.849609375,2601.719970703125,-400000.0625,-1655.3900146484375,-400000.0625,6343.64990234375,-400000.0625
timestamp,ch7,ch2,ch3,ch5,is_pause
timestamp,ch7,ch2,ch3,ch5,is_pause
6.33858847618103,-400000.0625,9854.2197265625,2592.75,-400000.0625,-1660.5899658203125,-400000.0625,6339.83984375,-400000.0625
timestamp,ch7,ch2,ch3,ch5,is_pause
6.348380088806152,-400000.0625,9800.33984375,2540.489990234375,-400000.0625,-1712.4200439453125,-400000.0625,6287.9599609375,-400000.0625
6.355531692504883,-400000.0625,9783.7900390625,2524.18994140625,-400000.0625,-1742.219970703125,-400000.0625,6267.97998046875,-400000.0625
timestamp,ch7,ch2,ch3,ch5,is_pause
6.366028785705566,-400000.0625,9813.259765625,2551.60009765625,-400000.0625,-1725.239990234375,-400000.0625,6296.43994140625,-400000.0625
timestamp,ch7,ch2,ch3,ch5,is_pause
6.372862100601196,-400000.0625,9857.8896484375,2596.0400390625,-400000.0625,-1674.4100341796875,-400000.0625,6336.97998046875,-400000.0625
6.379790544509888,-400000.0625,9850.7900390625,2586.64990234375,-400000.0625,-1663.5400390625,-400000.0625,6333.490234375,-400000.0625
timestamp,ch7,ch2,ch3,ch5,is_pause
6.388075828552246,-400000.0625,9798.91015625,2537.43994140625,-400000.0625,-1700.780029296875,-400000.0625,6288.0,-400000.0625
6.395596981048584,-400000.0625,9785.2197265625,2520.989990234375,-400000.0625,-1733.72998046875,-400000.0625,6266.06982421875,-400000.0625
timestamp,ch7,ch2,ch3,ch5,is_pause
6.405239820480347,-400000.0625,9823.9404296875,2558.22998046875,-400000.0625,-1715.56005859375,-400000.0625,6308.1298828125,-400000.0625
timestamp,ch7,ch2,ch3,ch5,is_pause
6.416177034378052,-400000.0625,9869.0,2602.77001953125,-400000.0625,-1673.27001953125,-400000.0625,6351.7099609375,-400000.0625
6.423417091369629,-400000.0625,9862.4697265625,2597.3798828125,-400000.0625,-1664.3499755859375,-400000.0625,6343.60009765625,-400000.0625
timestamp,ch7,ch2,ch3,ch5,is_pause
timestamp,ch7,ch2,ch3,ch5,is_pause
6.444451332092285,-400000.0625,9804.2001953125,2540.8701171875,-400000.0625,-1712.1800537109375,-400000.0625,6289.52978515625,-400000.0625
timestamp,ch7,ch2,ch3,ch5,is_pause
6.452860593795776,-400000.0625,9775.740234375,2513.5,-400000.0625,-1730.5400390625,-400000.0625,6260.2099609375,-400000.0625
6.4592931270599365,-400000.0625,9815.5,2553.610107421875,-400000.0625,-1683.3800048828125,-400000.0625,6296.2099609375,-400000.0625
timestamp,ch7,ch2,ch3,ch5,is_pause
6.468674659729004,-400000.0625,9870.91015625,2608.489990234375,-400000.0625,-1654.9100341796875,-400000.0625,6349.52001953125,-400000.0625
6.475181818008423,-400000.0625,9869.5302734375,2608.72998046875,-400000.0625,-1666.8299560546875,-400000.0625,6346.18017578125,-400000.0625
timestamp,ch7,ch2,ch3,ch5,is_pause
6.486345529556274,-400000.0625,9813.5498046875,2552.179931640625,-400000.0625,-1714.75,-400000.0625,6290.39013671875,-400000.0625
timestamp,ch7,ch2,ch3,ch5,is_pause
6.494093418121338,-400000.0625,9786.419921875,2523.89990234375,-400000.0625,-1752.22998046875,-400000.0625,6259.06005859375,-400000.0625
6.502369165420532,-400000.0625,9818.9404296875,2558.570068359375,-400000.0625,-1717.3299560546875,-400000.0625,6293.77001953125,-400000.0625
timestamp,ch7,ch2,ch3,ch5,is_pause
6.510454177856445,-400000.0625,9868.8095703125,2608.590087890625,-400000.0625,-1656.3399658203125,-400000.0625,6340.080078125,-400000.0625
timestamp,ch7,ch2,ch3,ch5,is_pause
6.518592834472656,-400000.0625,9865.9501953125,2606.199951171875,-400000.0625,-1661.4000244140625,-400000.0625,6336.5,-400000.0625
6.525351524353027,-400000.0625,9819.9404296875,2558.52001953125,-400000.0625,-1701.550048828125,-400000.0625,6285.9501953125,-400000.0625
timestamp,ch7,ch2,ch3,ch5,is_pause
timestamp,ch7,ch2,ch3,ch5,is_pause
6.548542261123657,-400000.0625,9792.3798828125,2532.050048828125,-400000.0625,-1732.5400390625,-400000.0625,6260.919921875,-400000.0625
6.555622816085815,-400000.0625,9829.08984375,2565.81005859375,-400000.0625,-1701.97998046875,-400000.0625,6295.10986328125,-400000.0625
timestamp,ch7,ch2,ch3,ch5,is_pause
6.562664270401001,-400000.0625,9879.01953125,2615.39990234375,-400000.0625,-1647.4200439453125,-400000.0625,6346.419921875,-400000.0625
6.5684733390808105,-400000.0625,9870.009765625,2612.39990234375,-400000.0625,-1664.72998046875,-400000.0625,6341.41015625,-400000.0625
timestamp,ch7,ch2,ch3,ch5,is_pause
6.575811386108398,-400000.0625,9812.7900390625,2554.3701171875,-400000.0625,-1704.31005859375,-400000.0625,6283.85986328125,-400000.0625
timestamp,ch7,ch2,ch3,ch5,is_pause
6.584463119506836,-400000.0625,9789.0400390625,2526.280029296875,-400000.0625,-1730.3900146484375,-400000.0625,6256.81982421875,-400000.0625
6.591032981872559,-400000.0625,9829.2802734375,2563.860107421875,-400000.0625,-1709.75,-400000.0625,6290.6298828125,-400000.0625
timestamp,ch7,ch2,ch3,ch5,is_pause
6.601983308792114,-400000.0625,9881.400390625,2615.5,-400000.0625,-1655.6700439453125,-400000.0625,6344.93994140625,-400000.0625
timestamp,ch7,ch2,ch3,ch5,is_pause
6.608709812164307,-400000.0625,9870.5302734375,2605.340087890625,-400000.0625,-1659.8199462890625,-400000.0625,6339.83984375,-400000.0625
6.61500358581543,-400000.0625,9815.83984375,2552.800048828125,-400000.0625,-1714.3699951171875,-400000.0625,6287.91015625,-400000.0625
timestamp,ch7,ch2,ch3,ch5,is_pause
6.622281312942505,-400000.0625,9798.4296875,2536.199951171875,-400000.0625,-1709.989990234375,-400000.0625,6265.8798828125,-400000.0625
6.630001544952393,-400000.0625,9823.849609375,2563.2900390625,-400000.0625,-1692.0999755859375,-400000.0625,6289.9599609375,-400000.0625
timestamp,ch7,ch2,ch3,ch5,is_pause
timestamp,ch7,ch2,ch3,ch5,is_pause
6.65058159828186,-400000.0625,9873.8203125,2611.110107421875,-400000.0625,-1660.1099853515625,-400000.0625,6341.35986328125,-400000.0625
6.656635761260986,-400000.0625,9874.25,2606.489990234375,-400000.0625,-1657.8199462890625,-400000.0625,6336.740234375,-400000.0625
timestamp,ch7,ch2,ch3,ch5,is_pause
6.666076421737671,-400000.0625,9812.98046875,2549.699951171875,-400000.0625,-1716.4200439453125,-400000.0625,6284.6201171875,-400000.0625
6.671929836273193,-400000.0625,9789.1298828125,2524.52001953125,-400000.0625,-1757.47998046875,-400000.0625,6259.6298828125,-400000.0625
timestamp,ch7,ch2,ch3,ch5,is_pause
6.67963171005249,-400000.0625,9827.9501953125,2560.429931640625,-400000.0625,-1748.4200439453125,-400000.0625,6303.169921875,-400000.0625
timestamp,ch7,ch2,ch3,ch5,is_pause
6.687617778778076,-400000.0625,9871.25,2605.43994140625,-400000.0625,-1676.6099853515625,-400000.0625,6352.27978515625,-400000.0625
6.695976495742798,-400000.0625,9866.1396484375,2601.77001953125,-400000.0625,-1650.6199951171875,-400000.0625,6343.75,-400000.0625
timestamp,ch7,ch2,ch3,ch5,is_pause
6.703967332839966,-400000.0625,9818.9404296875,2551.889892578125,-400000.0625,-1705.4599609375,-400000.0625,6293.77001953125,-400000.0625
timestamp,ch7,ch2,ch3,ch5,is_pause
6.71290922164917,-400000.0625,9796.2900390625,2527.239990234375,-400000.0625,-1726.0999755859375,-400000.0625,6267.02001953125,-400000.0625
6.719784498214722,-400000.0625,9835.099609375,2566.429931640625,-400000.0625,-1694.9200439453125,-400000.0625,6308.7900390625,-400000.0625
timestamp,ch7,ch2,ch3,ch5,is_pause
6.731477499008179,-400000.0625,9881.740234375,2614.31005859375,-400000.0625,-1655.2900390625,-400000.0625,6355.759765625,-400000.0625
timestamp,ch7,ch2,ch3,ch5,is_pause
6.7480762004852295,-400000.0625,9883.01953125,2611.39990234375,-400000.0625,-1660.5400390625,-400000.0625,6351.89990234375,-400000.0625
timestamp,ch7,ch2,ch3,ch5,is_pause
6.7558434009552,-400000.0625,9836.099609375,2559.89990234375,-400000.0625,-1716.4200439453125,-400000.0625,6298.35009765625,-400000.0625
timestamp,ch7,ch2,ch3,ch5,is_pause
6.765749454498291,-400000.0625,9811.6904296875,2534.820068359375,-400000.0625,-1752.6199951171875,-400000.0625,6272.93994140625,-400000.0625
6.772197484970093,-400000.0625,9857.75,2579.639892578125,-400000.0625,-1721.3800048828125,-400000.0625,6315.60986328125,-400000.0625
timestamp,ch7,ch2,ch3,ch5,is_pause
6.7849133014678955,-400000.0625,9897.900390625,2623.64990234375,-400000.0625,-1679.75,-400000.0625,6354.7099609375,-400000.0625
6.790951728820801,-400000.0625,9883.98046875,2617.070068359375,-400000.0625,-1670.030029296875,-400000.0625,6341.080078125,-400000.0625
timestamp,ch7,ch2,ch3,ch5,is_pause
6.801201105117798,-400000.0625,9840.1103515625,2567.239990234375,-400000.0625,-1709.510009765625,-400000.0625,6291.2001953125,-400000.0625
timestamp,ch7,ch2,ch3,ch5,is_pause
6.808584690093994,-400000.0625,9814.83984375,2532.2900390625,-400000.0625,-1735.260009765625,-400000.0625,6277.990234375,-400000.0625
6.816483974456787,-400000.0625,9849.259765625,2568.669921875,-400000.0625,-1704.4100341796875,-400000.0625,6324.6298828125,-400000.0625
timestamp,ch7,ch2,ch3,ch5,is_pause
6.825014352798462,-400000.0625,9904.2001953125,2625.889892578125,-400000.0625,-1652.2900390625,-400000.0625,6374.31005859375,-400000.0625
timestamp,ch7,ch2,ch3,ch5,is_pause
6.835354566574097,-400000.0625,9891.080078125,2617.070068359375,-400000.0625,-1650.6199951171875,-400000.0625,6375.02978515625,-400000.0625
timestamp,ch7,ch2,ch3,ch5,is_pause
6.856560230255127,-400000.0625,9835.48046875,2559.330078125,-400000.0625,-1703.550048828125,-400000.0625,6324.52978515625,-400000.0625
timestamp,ch7,ch2,ch3,ch5,is_pause
6.864001512527466,-400000.0625,9811.16015625,2528.0,-400000.0625,-1747.0799560546875,-400000.0625,6305.83984375,-400000.0625
timestamp,ch7,ch2,ch3,ch5,is_pause
6.870652914047241,-400000.0625,9848.7900390625,2561.81005859375,-400000.0625,-1722.719970703125,-400000.0625,6340.080078125,-400000.0625
6.877895355224609,-400000.0625,9894.0400390625,2611.72998046875,-400000.0625,-1664.300048828125,-400000.0625,6384.52001953125,-400000.0625
timestamp,ch7,ch2,ch3,ch5,is_pause
6.888956546783447,-400000.0625,9885.7900390625,2604.389892578125,-400000.0625,-1671.1700439453125,-400000.0625,6385.330078125,-400000.0625
6.8961780071258545,-400000.0625,9837.6796875,2550.4599609375,-400000.0625,-1718.949951171875,-400000.0625,6331.490234375,-400000.0625
timestamp,ch7,ch2,ch3,ch5,is_pause
6.90479302406311,-400000.0625,9810.73046875,2523.22998046875,-400000.0625,-1738.4100341796875,-400000.0625,6297.4501953125,-400000.0625
timestamp,ch7,ch2,ch3,ch5,is_pause
6.914328336715698,-400000.0625,9847.830078125,2560.090087890625,-400000.0625,-1708.75,-400000.0625,6334.5,-400000.0625
6.920679330825806,-400000.0625,9899.1904296875,2608.489990234375,-400000.0625,-1664.9200439453125,-400000.0625,6384.75,-400000.0625
timestamp,ch7,ch2,ch3,ch5,is_pause
6.93118953704834,-400000.0625,9894.900390625,2604.199951171875,-400000.0625,-1668.0699462890625,-400000.0625,6381.7001953125,-400000.0625
timestamp,ch7,ch2,ch3,ch5,is_pause
6.9395592212677,-400000.0625,9846.0703125,2555.989990234375,-400000.0625,-1719.0899658203125,-400000.0625,6338.259765625,-400000.0625
timestamp,ch7,ch2,ch3,ch5,is_pause
6.95894193649292,-400000.0625,9808.01953125,2516.840087890625,-400000.0625,-1754.0,-400000.0625,6299.72998046875,-400000.0625
timestamp,ch7,ch2,ch3,ch5,is_pause
6.970636606216431,-400000.0625,9836.48046875,2546.449951171875,-400000.0625,-1715.7099609375,-400000.0625,6324.43994140625,-400000.0625
timestamp,ch7,ch2,ch3,ch5,is_pause
6.98236608505249,-400000.0625,9894.7998046875,2604.2900390625,-400000.0625,-1658.1099853515625,-400000.0625,6375.169921875,-400000.0625
timestamp,ch7,ch2,ch3,ch5,is_pause
6.992330074310303,-400000.0625,9893.3701171875,2601.429931640625,-400000.0625,-1664.68994140625,-400000.0625,6373.02001953125,-400000.0625
timestamp,ch7,ch2,ch3,ch5,is_pause
7.003185033798218,-400000.0625,9836.150390625,2546.31005859375,-400000.0625,-1732.9200439453125,-400000.0625,6325.6298828125,-400000.0625
timestamp,ch7,ch2,ch3,ch5,is_pause
7.0134031772613525,-400000.0625,9812.01953125,2518.320068359375,-400000.0625,-1769.02001953125,-400000.0625,6297.16015625,-400000.0625
7.021044492721558,-400000.0625,9847.830078125,2551.219970703125,-400000.0625,-1725.010009765625,-400000.0625,6332.02001953125,-400000.0625
timestamp,ch7,ch2,ch3,ch5,is_pause
7.033243894577026,-400000.0625,9895.9501953125,2601.050048828125,-400000.0625,-1672.4100341796875,-400000.0625,6386.08984375,-400000.0625
7.039720296859741,-400000.0625,9887.509765625,2593.330078125,-400000.0625,-1654.6700439453125,-400000.0625,6377.35986328125,-400000.0625
timestamp,ch7,ch2,ch3,ch5,is_pause
timestamp,ch7,ch2,ch3,ch5,is_pause
7.0604212284088135,-400000.0625,9836.009765625,2539.969970703125,-400000.0625,-1710.699951171875,-400000.0625,6324.14990234375,-400000.0625
timestamp,ch7,ch2,ch3,ch5,is_pause
7.069288730621338,-400000.0625,9812.01953125,2512.840087890625,-400000.0625,-1741.27001953125,-400000.0625,6302.31005859375,-400000.0625
7.07631516456604,-400000.0625,9848.5,2550.030029296875,-400000.0625,-1711.6500244140625,-400000.0625,6338.60009765625,-400000.0625
timestamp,ch7,ch2,ch3,ch5,is_pause
7.086503028869629,-400000.0625,9899.759765625,2599.6201171875,-400000.0625,-1670.1700439453125,-400000.0625,6386.52001953125,-400000.0625
timestamp,ch7,ch2,ch3,ch5,is_pause
7.095991849899292,-400000.0625,9893.23046875,2592.469970703125,-400000.0625,-1685.0,-400000.0625,6389.85986328125,-400000.0625
7.103923082351685,-400000.0625,9845.16015625,2544.8798828125,-400000.0625,-1733.3499755859375,-400000.0625,6342.75,-400000.0625
timestamp,ch7,ch2,ch3,ch5,is_pause
7.113503932952881,-400000.0625,9810.259765625,2511.8798828125,-400000.0625,-1761.1500244140625,-400000.0625,6303.5,-400000.0625
timestamp,ch7,ch2,ch3,ch5,is_pause
7.125183582305908,-400000.0625,9839.3896484375,2542.02001953125,-400000.0625,-1731.1600341796875,-400000.0625,6331.97021484375,-400000.0625
7.133378028869629,-400000.0625,9887.26953125,2593.22998046875,-400000.0625,-1671.739990234375,-400000.0625,6382.27978515625,-400000.0625
timestamp,ch7,ch2,ch3,ch5,is_pause
7.143132448196411,-400000.0625,9886.8896484375,2594.0400390625,-400000.0625,-1677.469970703125,-400000.0625,6376.64990234375,-400000.0625
timestamp,ch7,ch2,ch3,ch5,is_pause
7.158411264419556,-400000.0625,9833.240234375,2538.39990234375,-400000.0625,-1730.3900146484375,-400000.0625,6324.580078125,-400000.0625
timestamp,ch7,ch2,ch3,ch5,is_pause
7.169107913970947,-400000.0625,9804.6298828125,2510.260009765625,-400000.0625,-1740.27001953125,-400000.0625,6292.2998046875,-400000.0625
timestamp,ch7,ch2,ch3,ch5,is_pause
7.178119421005249,-400000.0625,9842.490234375,2547.97998046875,-400000.0625,-1710.1300048828125,-400000.0625,6324.669921875,-400000.0625
