time,ch1,ch2,ch3,ch4,ch5,ch6,ch7,ch8
214.35368967056274,-400000.0625,11635.7802734375,2646.070068359375,-400000.0625,-1919.989990234375,-400000.0625,14180.1396484375,-400000.0625
214.3618519306183,-400000.0625,11599.349609375,2656.1298828125,-400000.0625,-1926.280029296875,-400000.0625,14044.2900390625,-400000.0625
214.37203431129456,-400000.0625,11549.1904296875,2640.06005859375,-400000.0625,-1931.050048828125,-400000.0625,13898.3701171875,-400000.0625
214.3797345161438,-400000.0625,11494.490234375,2604.06005859375,-400000.0625,-1950.6500244140625,-400000.0625,13738.2001953125,-400000.0625
214.38930320739746,-400000.0625,11452.6796875,2584.60009765625,-400000.0625,-1973.8199462890625,-400000.0625,13604.3095703125,-400000.0625
214.3984889984131,-400000.0625,11446.91015625,2596.6201171875,-400000.0625,-1988.510009765625,-400000.0625,13510.900390625,-400000.0625
214.40924549102783,-400000.0625,11463.259765625,2620.360107421875,-400000.0625,-2000.0899658203125,-400000.0625,13434.9404296875,-400000.0625
214.42918825149536,-400000.0625,11455.1103515625,2622.840087890625,-400000.0625,-2010.8199462890625,-400000.0625,13349.2001953125,-400000.0625
214.44601392745972,-400000.0625,11427.3603515625,2599.2900390625,-400000.0625,-2032.6099853515625,-400000.0625,13241.580078125,-400000.0625
214.46238827705383,-400000.0625,11408.51953125,2584.739990234375,-400000.0625,-2060.179931640625,-400000.0625,13146.5498046875,-400000.0625
214.47383499145508,-400000.0625,11415.669921875,2598.330078125,-400000.0625,-2069.090087890625,-400000.0625,13084.599609375,-400000.0625
214.48226737976074,-400000.0625,11439.4697265625,2621.64990234375,-400000.0625,-2071.570068359375,-400000.0625,13038.5400390625,-400000.0625
214.49341416358948,-400000.0625,11441.849609375,2626.85009765625,-400000.0625,-2082.2099609375,-400000.0625,12983.990234375,-400000.0625
214.50580859184265,-400000.0625,11425.349609375,2608.43994140625,-400000.0625,-2107.0,-400000.0625,12906.9296875,-400000.0625
214.51471590995789,-400000.0625,11406.3798828125,2593.570068359375,-400000.0625,-2128.030029296875,-400000.0625,12838.26953125,-400000.0625
214.5391824245453,-400000.0625,11412.8603515625,2605.9599609375,-400000.0625,-2131.56005859375,-400000.0625,12798.4501953125,-400000.0625
214.5510275363922,-400000.0625,11439.7998046875,2634.669921875,-400000.0625,-2129.840087890625,-400000.0625,12772.849609375,-400000.0625
214.5617618560791,-400000.0625,11446.91015625,2643.199951171875,-400000.0625,-2133.3701171875,-400000.0625,12732.599609375,-400000.0625
214.57086825370789,-400000.0625,11417.6796875,2612.35009765625,-400000.0625,-2152.159912109375,-400000.0625,12665.1796875,-400000.0625
214.5773901939392,-400000.0625,11390.2099609375,2598.570068359375,-400000.0625,-2159.7900390625,-400000.0625,12605.3798828125,-400000.0625
214.58996033668518,-400000.0625,11390.5,2611.35009765625,-400000.0625,-2159.2099609375,-400000.0625,12577.8203125,-400000.0625
214.5995717048645,-400000.0625,11409.330078125,2626.1298828125,-400000.0625,-2138.22998046875,-400000.0625,12555.509765625,-400000.0625
214.6098620891571,-400000.0625,11396.9296875,2632.280029296875,-400000.0625,-2140.330078125,-400000.0625,12531.4697265625,-400000.0625
214.61862969398499,-400000.0625,11354.400390625,2622.93994140625,-400000.0625,-2161.219970703125,-400000.0625,12474.349609375,-400000.0625
214.63649773597717,-400000.0625,11337.6201171875,2597.47998046875,-400000.0625,-2172.7099609375,-400000.0625,12416.9404296875,-400000.0625
214.64369940757751,-400000.0625,11323.8798828125,2610.25,-400000.0625,-2158.7900390625,-400000.0625,12401.9599609375,-400000.0625
214.6552128791809,-400000.0625,11310.9599609375,2626.93994140625,-400000.0625,-2145.6201171875,-400000.0625,12385.1796875,-400000.0625
214.6626513004303,-400000.0625,11354.919921875,2624.93994140625,-400000.0625,-2157.969970703125,-400000.0625,12358.6201171875,-400000.0625
214.6729655265808,-400000.0625,11329.7001953125,2570.6298828125,-400000.0625,-2166.93994140625,-400000.0625,12299.9697265625,-400000.0625
214.68320059776306,-400000.0625,11244.25,2552.219970703125,-400000.0625,-2173.52001953125,-400000.0625,12233.4501953125,-400000.0625
214.6928038597107,-400000.0625,11243.0595703125,2558.800048828125,-400000.0625,-2155.72998046875,-400000.0625,12237.0302734375,-400000.0625
214.70010495185852,-400000.0625,11278.5400390625,2548.409912109375,-400000.0625,-2132.4599609375,-400000.0625,12357.8603515625,-400000.0625
214.7069537639618,-400000.0625,11205.25,2534.340087890625,-400000.0625,-2117.679931640625,-400000.0625,12405.349609375,-400000.0625
214.7142562866211,-400000.0625,11164.8095703125,2498.010009765625,-400000.0625,-2120.590087890625,-400000.0625,12526.3203125,-400000.0625
214.72737216949463,-400000.0625,11198.240234375,2446.4599609375,-400000.0625,-2122.449951171875,-400000.0625,12660.9296875,-400000.0625
214.74396634101868,-400000.0625,11155.26953125,2473.39990234375,-400000.0625,-2100.989990234375,-400000.0625,12943.41015625,-400000.0625
214.7537076473236,-400000.0625,11146.9296875,2502.820068359375,-400000.0625,-2078.9599609375,-400000.0625,13247.6298828125,-400000.0625
214.76272058486938,-400000.0625,11162.0,2512.260009765625,-400000.0625,-2069.280029296875,-400000.0625,13510.849609375,-400000.0625
214.77333784103394,-400000.0625,11099.0498046875,2473.260009765625,-400000.0625,-2082.6298828125,-400000.0625,13688.330078125,-400000.0625
214.78198409080505,-400000.0625,11175.4404296875,2465.530029296875,-400000.0625,-2088.8798828125,-400000.0625,13876.0595703125,-400000.0625
214.79164123535156,-400000.0625,11199.1904296875,2470.639892578125,-400000.0625,-2062.85009765625,-400000.0625,13936.1396484375,-400000.0625
214.79994750022888,-400000.0625,11215.400390625,2496.530029296875,-400000.0625,-2052.830078125,-400000.0625,13932.6103515625,-400000.0625
214.81016182899475,-400000.0625,11234.3798828125,2506.2099609375,-400000.0625,-2037.1400146484375,-400000.0625,13830.5703125,-400000.0625
214.81902980804443,-400000.0625,11249.349609375,2491.6201171875,-400000.0625,-2042.8699951171875,-400000.0625,13648.26953125,-400000.0625
214.82686567306519,-400000.0625,11263.23046875,2479.219970703125,-400000.0625,-2065.280029296875,-400000.0625,13417.7197265625,-400000.0625
214.83626008033752,-400000.0625,11288.2197265625,2495.909912109375,-400000.0625,-2049.159912109375,-400000.0625,13182.58984375,-400000.0625
214.85573387145996,-400000.0625,11325.6904296875,2521.179931640625,-400000.0625,-2007.8199462890625,-400000.0625,12961.48046875,-400000.0625
214.86376762390137,-400000.0625,11353.8798828125,2526.81005859375,-400000.0625,-2007.9100341796875,-400000.0625,12751.91015625,-400000.0625
214.87479162216187,-400000.0625,11354.830078125,2511.169921875,-400000.0625,-2026.699951171875,-400000.0625,12561.3701171875,-400000.0625
214.8894808292389,-400000.0625,11349.6796875,2503.919921875,-400000.0625,-2055.31005859375,-400000.0625,12417.509765625,-400000.0625
214.90266132354736,-400000.0625,11365.080078125,2516.510009765625,-400000.0625,-2046.3499755859375,-400000.0625,12315.3203125,-400000.0625
214.9115629196167,-400000.0625,11385.25,2534.199951171875,-400000.0625,-2030.0400390625,-400000.0625,12244.5595703125,-400000.0625
214.92036485671997,-400000.0625,11398.2197265625,2548.409912109375,-400000.0625,-2036.3800048828125,-400000.0625,12174.5595703125,-400000.0625
214.92909693717957,-400000.0625,11380.0498046875,2536.77001953125,-400000.0625,-2070.3798828125,-400000.0625,12096.41015625,-400000.0625
214.939594745636,-400000.0625,11359.7900390625,2522.139892578125,-400000.0625,-2110.340087890625,-400000.0625,12025.5,-400000.0625
214.95756697654724,-400000.0625,11361.1201171875,2526.050048828125,-400000.0625,-2107.050048828125,-400000.0625,11975.76953125,-400000.0625
214.96928119659424,-400000.0625,11371.0400390625,2540.159912109375,-400000.0625,-2088.02001953125,-400000.0625,11940.3896484375,-400000.0625
214.97939348220825,-400000.0625,11366.849609375,2546.360107421875,-400000.0625,-2063.93994140625,-400000.0625,11904.3798828125,-400000.0625
214.99424529075623,-400000.0625,11331.990234375,2531.860107421875,-400000.0625,-2093.030029296875,-400000.0625,11854.509765625,-400000.0625
215.00668811798096,-400000.0625,11313.6796875,2520.800048828125,-400000.0625,-2130.030029296875,-400000.0625,11810.6396484375,-400000.0625
215.01365661621094,-400000.0625,11314.25,2526.469970703125,-400000.0625,-2139.18994140625,-400000.0625,11780.1201171875,-400000.0625
215.02483367919922,-400000.0625,11334.900390625,2551.320068359375,-400000.0625,-2128.550048828125,-400000.0625,11761.91015625,-400000.0625
215.0354552268982,-400000.0625,11348.76953125,2563.050048828125,-400000.0625,-2139.139892578125,-400000.0625,11740.16015625,-400000.0625
215.04530477523804,-400000.0625,11334.75,2549.219970703125,-400000.0625,-2173.52001953125,-400000.0625,11697.099609375,-400000.0625
215.06376338005066,-400000.0625,11324.9296875,2532.719970703125,-400000.0625,-2197.889892578125,-400000.0625,11651.7099609375,-400000.0625
215.07737612724304,-400000.0625,11319.349609375,2539.590087890625,-400000.0625,-2183.6298828125,-400000.0625,11625.2001953125,-400000.0625
215.0898633003235,-400000.0625,11319.2998046875,2551.219970703125,-400000.0625,-2143.429931640625,-400000.0625,11618.0,-400000.0625
215.10330367088318,-400000.0625,11307.0498046875,2569.10009765625,-400000.0625,-2135.93994140625,-400000.0625,11595.73046875,-400000.0625
215.1144528388977,-400000.0625,11306.4296875,2580.929931640625,-400000.0625,-2164.169921875,-400000.0625,11510.1796875,-400000.0625
215.12486481666565,-400000.0625,11318.830078125,2544.260009765625,-400000.0625,-2175.669921875,-400000.0625,11530.400390625,-400000.0625
215.13918709754944,-400000.0625,11355.5400390625,2533.909912109375,-400000.0625,-2170.419921875,-400000.0625,11535.83984375,-400000.0625
215.1495041847229,-400000.0625,11351.349609375,2498.530029296875,-400000.0625,-2152.969970703125,-400000.0625,11472.8896484375,-400000.0625
215.17317008972168,-400000.0625,11341.0,2531.429931640625,-400000.0625,-2149.14990234375,-400000.0625,11521.25,-400000.0625
215.18652868270874,-400000.0625,11316.349609375,2523.3701171875,-400000.0625,-2154.679931640625,-400000.0625,11492.8701171875,-400000.0625
215.1953465938568,-400000.0625,11344.7197265625,2418.949951171875,-400000.0625,-2147.389892578125,-400000.0625,11625.76953125,-400000.0625
215.20715284347534,-400000.0625,11325.0703125,2515.64990234375,-400000.0625,-2113.8701171875,-400000.0625,11928.080078125,-400000.0625
215.21962642669678,-400000.0625,11352.73046875,2538.35009765625,-400000.0625,-2108.239990234375,-400000.0625,12314.650390625,-400000.0625
215.22924518585205,-400000.0625,11384.5400390625,2547.5,-400000.0625,-2100.75,-400000.0625,12787.73046875,-400000.0625
215.2375168800354,-400000.0625,11385.8203125,2563.139892578125,-400000.0625,-2082.780029296875,-400000.0625,13290.6904296875,-400000.0625
215.2440996170044,-400000.0625,11528.6396484375,2559.760009765625,-400000.0625,-2071.429931640625,-400000.0625,13875.009765625,-400000.0625
215.25416541099548,-400000.0625,11575.650390625,2595.469970703125,-400000.0625,-2051.68994140625,-400000.0625,14457.3701171875,-400000.0625
215.27369165420532,-400000.0625,11636.7802734375,2680.35009765625,-400000.0625,-2015.300048828125,-400000.0625,14986.4697265625,-400000.0625
215.2816710472107,-400000.0625,11745.8798828125,2713.6298828125,-400000.0625,-1988.8900146484375,-400000.0625,15600.9697265625,-400000.0625
215.2880461215973,-400000.0625,11821.9404296875,2743.820068359375,-400000.0625,-1986.31005859375,-400000.0625,16077.330078125,-400000.0625
215.2946412563324,-400000.0625,11911.5400390625,2773.47998046875,-400000.0625,-1969.77001953125,-400000.0625,16226.2900390625,-400000.0625
215.30678057670593,-400000.0625,12091.0703125,2798.989990234375,-400000.0625,-1936.9100341796875,-400000.0625,16213.6103515625,-400000.0625
215.31502890586853,-400000.0625,12507.490234375,2845.570068359375,-400000.0625,-1898.0999755859375,-400000.0625,16052.490234375,-400000.0625
215.32602310180664,-400000.0625,12908.8896484375,2834.510009765625,-400000.0625,-1856.4200439453125,-400000.0625,16117.91015625,-400000.0625
215.3394513130188,-400000.0625,13340.0498046875,2892.919921875,-400000.0625,-1844.4100341796875,-400000.0625,16434.150390625,-400000.0625
215.35124135017395,-400000.0625,13749.7900390625,2928.39990234375,-400000.0625,-1860.0,-400000.0625,16683.580078125,-400000.0625
215.35999131202698,-400000.0625,14126.490234375,2992.110107421875,-400000.0625,-1811.030029296875,-400000.0625,16877.83984375,-400000.0625
215.37902092933655,-400000.0625,14412.3603515625,3093.580078125,-400000.0625,-1755.239990234375,-400000.0625,17085.130859375,-400000.0625
215.3909456729889,-400000.0625,14628.7900390625,3181.699951171875,-400000.0625,-1710.27001953125,-400000.0625,17089.849609375,-400000.0625
215.4013795852661,-400000.0625,14739.08984375,3209.070068359375,-400000.0625,-1678.989990234375,-400000.0625,17004.25,-400000.0625
215.41278290748596,-400000.0625,14789.5400390625,3216.929931640625,-400000.0625,-1641.1300048828125,-400000.0625,16784.91015625,-400000.0625
215.4252622127533,-400000.0625,14830.400390625,3227.760009765625,-400000.0625,-1592.1600341796875,-400000.0625,16496.1796875,-400000.0625
215.44076991081238,-400000.0625,14868.6396484375,3219.75,-400000.0625,-1548.4300537109375,-400000.0625,16193.0595703125,-400000.0625
215.45450925827026,-400000.0625,14835.650390625,3186.889892578125,-400000.0625,-1510.760009765625,-400000.0625,15889.2197265625,-400000.0625
215.4683871269226,-400000.0625,14687.830078125,3118.469970703125,-400000.0625,-1498.0799560546875,-400000.0625,15571.830078125,-400000.0625
215.49236059188843,-400000.0625,14475.6298828125,3052.0,-400000.0625,-1491.1199951171875,-400000.0625,15260.0302734375,-400000.0625
215.50714325904846,-400000.0625,14364.6298828125,3013.330078125,-400000.0625,-1468.93994140625,-400000.0625,14972.8798828125,-400000.0625
215.51782155036926,-400000.0625,14265.400390625,2992.580078125,-400000.0625,-1458.030029296875,-400000.0625,14722.0595703125,-400000.0625
215.53081560134888,-400000.0625,14161.8701171875,2954.010009765625,-400000.0625,-1476.0999755859375,-400000.0625,14509.25,-400000.0625
215.54671812057495,-400000.0625,14010.9599609375,2889.590087890625,-400000.0625,-1501.8499755859375,-400000.0625,14281.7998046875,-400000.0625
215.5620732307434,-400000.0625,13854.3095703125,2834.93994140625,-400000.0625,-1552.06005859375,-400000.0625,14075.419921875,-400000.0625
215.57174706459045,-400000.0625,13730.580078125,2822.110107421875,-400000.0625,-1560.4000244140625,-400000.0625,13918.3095703125,-400000.0625
215.59259939193726,-400000.0625,13612.26953125,2813.909912109375,-400000.0625,-1555.6300048828125,-400000.0625,13768.76953125,-400000.0625
215.6018967628479,-400000.0625,13478.849609375,2792.31005859375,-400000.0625,-1571.0400390625,-400000.0625,13614.66015625,-400000.0625
215.61233496665955,-400000.0625,13332.23046875,2765.080078125,-400000.0625,-1645.280029296875,-400000.0625,13457.6796875,-400000.0625
215.62528491020203,-400000.0625,13182.98046875,2734.139892578125,-400000.0625,-1689.3399658203125,-400000.0625,13308.33984375,-400000.0625
215.63837671279907,-400000.0625,13052.990234375,2722.030029296875,-400000.0625,-1655.719970703125,-400000.0625,13184.3603515625,-400000.0625
215.64937162399292,-400000.0625,12953.240234375,2742.77001953125,-400000.0625,-1665.9300537109375,-400000.0625,13100.4296875,-400000.0625
215.66352009773254,-400000.0625,12829.58984375,2734.090087890625,-400000.0625,-1729.199951171875,-400000.0625,13003.0595703125,-400000.0625
215.67699933052063,-400000.0625,12691.4501953125,2695.56005859375,-400000.0625,-1757.47998046875,-400000.0625,12879.23046875,-400000.0625
215.69760990142822,-400000.0625,12575.5302734375,2680.300048828125,-400000.0625,-1759.8599853515625,-400000.0625,12785.8203125,-400000.0625
215.7113094329834,-400000.0625,12484.080078125,2676.43994140625,-400000.0625,-1794.47998046875,-400000.0625,12723.259765625,-400000.0625
215.72552967071533,-400000.0625,12422.5595703125,2685.830078125,-400000.0625,-1812.510009765625,-400000.0625,12663.3203125,-400000.0625
215.74040913581848,-400000.0625,12370.25,2689.550048828125,-400000.0625,-1829.9100341796875,-400000.0625,12606.099609375,-400000.0625
215.75480365753174,-400000.0625,12309.98046875,2667.280029296875,-400000.0625,-1879.5999755859375,-400000.0625,12538.099609375,-400000.0625
215.76542258262634,-400000.0625,12265.58984375,2655.27001953125,-400000.0625,-1916.27001953125,-400000.0625,12470.33984375,-400000.0625
215.77565622329712,-400000.0625,12254.1904296875,2668.909912109375,-400000.0625,-1933.18994140625,-400000.0625,12438.009765625,-400000.0625
215.78445076942444,-400000.0625,12253.1904296875,2691.169921875,-400000.0625,-1931.1400146484375,-400000.0625,12412.41015625,-400000.0625
215.80390405654907,-400000.0625,12238.6904296875,2698.3701171875,-400000.0625,-1915.31005859375,-400000.0625,12375.9296875,-400000.0625
215.81138467788696,-400000.0625,12203.169921875,2682.2099609375,-400000.0625,-1925.9000244140625,-400000.0625,12318.08984375,-400000.0625
215.82181978225708,-400000.0625,12174.7998046875,2665.85009765625,-400000.0625,-1941.06005859375,-400000.0625,12265.830078125,-400000.0625
215.82958698272705,-400000.0625,12169.7900390625,2672.77001953125,-400000.0625,-1961.6600341796875,-400000.0625,12245.2802734375,-400000.0625
215.83982849121094,-400000.0625,12184.4296875,2695.320068359375,-400000.0625,-1977.25,-400000.0625,12232.5400390625,-400000.0625
215.85050320625305,-400000.0625,12182.8603515625,2703.570068359375,-400000.0625,-1983.0699462890625,-400000.0625,12207.080078125,-400000.0625
215.8622887134552,-400000.0625,12148.5703125,2684.550048828125,-400000.0625,-2011.1600341796875,-400000.0625,12157.490234375,-400000.0625
215.879252910614,-400000.0625,12114.0,2660.93994140625,-400000.0625,-2024.97998046875,-400000.0625,12105.509765625,-400000.0625
215.89112544059753,-400000.0625,12107.3701171875,2665.419921875,-400000.0625,-2016.8299560546875,-400000.0625,12082.240234375,-400000.0625
215.90973949432373,-400000.0625,12120.8701171875,2690.60009765625,-400000.0625,-2020.5999755859375,-400000.0625,12074.51953125,-400000.0625
215.92112517356873,-400000.0625,12121.3896484375,2700.0400390625,-400000.0625,-2042.47998046875,-400000.0625,12055.2998046875,-400000.0625
215.9294409751892,-400000.0625,12089.2998046875,2674.47998046875,-400000.0625,-2057.030029296875,-400000.0625,12009.0498046875,-400000.0625
215.94275188446045,-400000.0625,12062.599609375,2656.840087890625,-400000.0625,-2062.93994140625,-400000.0625,11966.66015625,-400000.0625
215.95418882369995,-400000.0625,12060.599609375,2664.52001953125,-400000.0625,-2070.860107421875,-400000.0625,11948.349609375,-400000.0625
215.96476221084595,-400000.0625,12072.990234375,2684.31005859375,-400000.0625,-2068.949951171875,-400000.0625,11946.009765625,-400000.0625
215.97679829597473,-400000.0625,12070.7998046875,2691.699951171875,-400000.0625,-2065.1298828125,-400000.0625,11927.6103515625,-400000.0625
215.99359607696533,-400000.0625,12046.0,2673.10009765625,-400000.0625,-2064.22998046875,-400000.0625,11888.169921875,-400000.0625
216.01368379592896,-400000.0625,12022.0703125,2657.219970703125,-400000.0625,-2076.010009765625,-400000.0625,11851.3603515625,-400000.0625
216.02397561073303,-400000.0625,12027.650390625,2670.340087890625,-400000.0625,-2075.239990234375,-400000.0625,11842.349609375,-400000.0625
216.03193259239197,-400000.0625,12040.66015625,2690.60009765625,-400000.0625,-2087.39990234375,-400000.0625,11845.6396484375,-400000.0625
216.03932523727417,-400000.0625,12041.240234375,2699.760009765625,-400000.0625,-2084.260009765625,-400000.0625,11834.1904296875,-400000.0625
216.04679775238037,-400000.0625,12018.8701171875,2683.260009765625,-400000.0625,-2078.6298828125,-400000.0625,11791.2802734375,-400000.0625
216.05833506584167,-400000.0625,11990.740234375,2664.85009765625,-400000.0625,-2086.159912109375,-400000.0625,11754.2802734375,-400000.0625
216.066481590271,-400000.0625,11989.5498046875,2671.18994140625,-400000.0625,-2086.260009765625,-400000.0625,11742.740234375,-400000.0625
216.0769865512848,-400000.0625,12007.6201171875,2693.93994140625,-400000.0625,-2087.68994140625,-400000.0625,11742.9296875,-400000.0625
216.09079694747925,-400000.0625,12011.33984375,2700.0400390625,-400000.0625,-2103.139892578125,-400000.0625,11732.8701171875,-400000.0625
216.102543592453,-400000.0625,11979.76953125,2679.2099609375,-400000.0625,-2117.72998046875,-400000.0625,11695.580078125,-400000.0625
216.12355542182922,-400000.0625,11951.4501953125,2658.27001953125,-400000.0625,-2136.52001953125,-400000.0625,11656.5703125,-400000.0625
216.14226508140564,-400000.0625,11955.5498046875,2665.139892578125,-400000.0625,-2117.25,-400000.0625,11643.9404296875,-400000.0625
216.15323448181152,-400000.0625,11963.7001953125,2684.39990234375,-400000.0625,-2089.550048828125,-400000.0625,11640.5,-400000.0625
216.1633005142212,-400000.0625,11959.0302734375,2690.510009765625,-400000.0625,-2086.02001953125,-400000.0625,11626.5302734375,-400000.0625
216.1736888885498,-400000.0625,11938.9501953125,2674.2900390625,-400000.0625,-2121.830078125,-400000.0625,11593.76953125,-400000.0625
216.1845817565918,-400000.0625,11916.7802734375,2656.840087890625,-400000.0625,-2150.14990234375,-400000.0625,11560.2998046875,-400000.0625
216.19366478919983,-400000.0625,11908.009765625,2658.320068359375,-400000.0625,-2142.760009765625,-400000.0625,11548.2802734375,-400000.0625
216.20743465423584,-400000.0625,11920.169921875,2680.639892578125,-400000.0625,-2125.360107421875,-400000.0625,11551.51953125,-400000.0625
216.22701573371887,-400000.0625,11920.9296875,2687.739990234375,-400000.0625,-2098.659912109375,-400000.0625,11536.98046875,-400000.0625
216.23608088493347,-400000.0625,11891.650390625,2664.139892578125,-400000.0625,-2110.340087890625,-400000.0625,11502.3095703125,-400000.0625
216.24652743339539,-400000.0625,11872.2900390625,2647.35009765625,-400000.0625,-2140.469970703125,-400000.0625,11469.1298828125,-400000.0625
216.25868678092957,-400000.0625,11874.2998046875,2655.889892578125,-400000.0625,-2146.669921875,-400000.0625,11463.4501953125,-400000.0625
216.2665102481842,-400000.0625,11886.5,2675.14990234375,-400000.0625,-2145.389892578125,-400000.0625,11469.990234375,-400000.0625
216.27607488632202,-400000.0625,11892.1298828125,2683.2099609375,-400000.0625,-2147.2900390625,-400000.0625,11453.2001953125,-400000.0625
216.28782534599304,-400000.0625,11864.23046875,2659.1298828125,-400000.0625,-2155.110107421875,-400000.0625,11416.099609375,-400000.0625
216.2966492176056,-400000.0625,11834.0498046875,2637.580078125,-400000.0625,-2155.39990234375,-400000.0625,11385.490234375,-400000.0625
216.31084442138672,-400000.0625,11841.3896484375,2645.639892578125,-400000.0625,-2161.169921875,-400000.0625,11381.9599609375,-400000.0625
216.3323106765747,-400000.0625,11852.6904296875,2664.280029296875,-400000.0625,-2140.6201171875,-400000.0625,11383.150390625,-400000.0625
216.34297919273376,-400000.0625,11848.2099609375,2671.530029296875,-400000.0625,-2135.320068359375,-400000.0625,11375.8603515625,-400000.0625
216.35394191741943,-400000.0625,11825.1298828125,2655.1201171875,-400000.0625,-2168.610107421875,-400000.0625,11347.580078125,-400000.0625
216.36375093460083,-400000.0625,11803.2001953125,2635.3798828125,-400000.0625,-2176.81005859375,-400000.0625,11316.6796875,-400000.0625
216.3741946220398,-400000.0625,11805.919921875,2644.679931640625,-400000.0625,-2163.699951171875,-400000.0625,11311.91015625,-400000.0625
216.38212132453918,-400000.0625,11816.3095703125,2664.139892578125,-400000.0625,-2143.050048828125,-400000.0625,11319.58984375,-400000.0625
216.3891201019287,-400000.0625,11812.5,2666.330078125,-400000.0625,-2138.760009765625,-400000.0625,11311.25,-400000.0625
216.39725732803345,-400000.0625,11791.51953125,2648.1201171875,-400000.0625,-2171.469970703125,-400000.0625,11281.4404296875,-400000.0625
216.40938806533813,-400000.0625,11767.4404296875,2627.52001953125,-400000.0625,-2208.0400390625,-400000.0625,11251.01953125,-400000.0625
216.4220895767212,-400000.0625,11756.7998046875,2634.330078125,-400000.0625,-2200.889892578125,-400000.0625,11239.2001953125,-400000.0625
216.4468367099762,-400000.0625,11758.849609375,2653.97998046875,-400000.0625,-2155.110107421875,-400000.0625,11236.8603515625,-400000.0625
216.45938873291016,-400000.0625,11767.669921875,2659.0400390625,-400000.0625,-2141.090087890625,-400000.0625,11236.48046875,-400000.0625
216.4692714214325,-400000.0625,11756.849609375,2634.050048828125,-400000.0625,-2165.510009765625,-400000.0625,11217.400390625,-400000.0625
216.47997045516968,-400000.0625,11729.76953125,2610.110107421875,-400000.0625,-2205.989990234375,-400000.0625,11191.849609375,-400000.0625
216.49409222602844,-400000.0625,11717.0302734375,2608.389892578125,-400000.0625,-2211.280029296875,-400000.0625,11184.740234375,-400000.0625
216.50623178482056,-400000.0625,11726.5703125,2623.510009765625,-400000.0625,-2169.699951171875,-400000.0625,11194.51953125,-400000.0625
216.51831221580505,-400000.0625,11720.7099609375,2624.56005859375,-400000.0625,-2169.280029296875,-400000.0625,11197.330078125,-400000.0625
216.5346963405609,-400000.0625,11692.91015625,2599.0,-400000.0625,-2195.929931640625,-400000.0625,11175.2001953125,-400000.0625
216.55934286117554,-400000.0625,11670.4501953125,2580.550048828125,-400000.0625,-2228.39990234375,-400000.0625,11152.7001953125,-400000.0625
216.56901788711548,-400000.0625,11670.0703125,2583.68994140625,-400000.0625,-2220.8701171875,-400000.0625,11146.6396484375,-400000.0625
216.5761787891388,-400000.0625,11677.599609375,2595.139892578125,-400000.0625,-2191.35009765625,-400000.0625,11146.4501953125,-400000.0625
216.59102725982666,-400000.0625,11677.080078125,2600.239990234375,-400000.0625,-2186.300048828125,-400000.0625,11136.490234375,-400000.0625
216.6050045490265,-400000.0625,11658.0498046875,2583.219970703125,-400000.0625,-2234.7900390625,-400000.0625,11111.2099609375,-400000.0625
216.61918425559998,-400000.0625,11634.919921875,2561.139892578125,-400000.0625,-2267.030029296875,-400000.0625,11082.41015625,-400000.0625
216.63188767433167,-400000.0625,11627.7197265625,2562.89990234375,-400000.0625,-2229.5,-400000.0625,11077.9296875,-400000.0625
216.6428186893463,-400000.0625,11647.0400390625,2583.070068359375,-400000.0625,-2206.469970703125,-400000.0625,11087.7099609375,-400000.0625
216.6674680709839,-400000.0625,11652.0400390625,2595.0,-400000.0625,-2217.199951171875,-400000.0625,11083.650390625,-400000.0625
216.6799829006195,-400000.0625,11623.76953125,2576.39990234375,-400000.0625,-2221.6298828125,-400000.0625,11050.650390625,-400000.0625
216.69299960136414,-400000.0625,11598.8701171875,2552.699951171875,-400000.0625,-2219.14990234375,-400000.0625,11020.330078125,-400000.0625
216.70499777793884,-400000.0625,11595.7802734375,2559.610107421875,-400000.0625,-2216.429931640625,-400000.0625,11016.0400390625,-400000.0625
216.71375346183777,-400000.0625,11614.75,2580.830078125,-400000.0625,-2229.7900390625,-400000.0625,11026.5703125,-400000.0625
216.7244312763214,-400000.0625,11616.759765625,2584.409912109375,-400000.0625,-2236.800048828125,-400000.0625,11023.240234375,-400000.0625
216.73510456085205,-400000.0625,11594.009765625,2566.719970703125,-400000.0625,-2247.760009765625,-400000.0625,10997.2001953125,-400000.0625
216.74542021751404,-400000.0625,11570.169921875,2541.2099609375,-400000.0625,-2288.25,-400000.0625,10969.9296875,-400000.0625
216.76466035842896,-400000.0625,11570.2197265625,2550.080078125,-400000.0625,-2296.449951171875,-400000.0625,10968.9697265625,-400000.0625
216.7781319618225,-400000.0625,11578.990234375,2565.909912109375,-400000.0625,-2246.0,-400000.0625,10969.9296875,-400000.0625
216.78897190093994,-400000.0625,11580.1298828125,2567.9599609375,-400000.0625,-2215.669921875,-400000.0625,10964.6796875,-400000.0625
216.7973997592926,-400000.0625,11555.33984375,2549.080078125,-400000.0625,-2226.449951171875,-400000.0625,10933.6396484375,-400000.0625
216.81034994125366,-400000.0625,11537.83984375,2533.820068359375,-400000.0625,-2240.3701171875,-400000.0625,10908.5595703125,-400000.0625
216.82331943511963,-400000.0625,11540.83984375,2541.260009765625,-400000.0625,-2259.2099609375,-400000.0625,10910.509765625,-400000.0625
216.83161616325378,-400000.0625,11558.490234375,2561.18994140625,-400000.0625,-2248.10009765625,-400000.0625,10918.240234375,-400000.0625
216.84496521949768,-400000.0625,11561.0595703125,2568.010009765625,-400000.0625,-2258.110107421875,-400000.0625,10914.990234375,-400000.0625
216.85844683647156,-400000.0625,11533.830078125,2545.8798828125,-400000.0625,-2277.330078125,-400000.0625,10889.8701171875,-400000.0625
216.8764238357544,-400000.0625,11514.4296875,2530.050048828125,-400000.0625,-2277.989990234375,-400000.0625,10864.2099609375,-400000.0625
216.8907663822174,-400000.0625,11518.8603515625,2537.5400390625,-400000.0625,-2284.719970703125,-400000.0625,10864.9697265625,-400000.0625
216.90393018722534,-400000.0625,11529.73046875,2552.409912109375,-400000.0625,-2278.139892578125,-400000.0625,10872.8896484375,-400000.0625
216.91418075561523,-400000.0625,11532.2099609375,2557.659912109375,-400000.0625,-2268.889892578125,-400000.0625,10869.4599609375,-400000.0625
216.92256927490234,-400000.0625,11507.4599609375,2542.639892578125,-400000.0625,-2291.159912109375,-400000.0625,10845.330078125,-400000.0625
216.9303593635559,-400000.0625,11484.76953125,2524.280029296875,-400000.0625,-2303.840087890625,-400000.0625,10818.150390625,-400000.0625
216.94171357154846,-400000.0625,11481.9501953125,2528.239990234375,-400000.0625,-2257.8701171875,-400000.0625,10813.0,-400000.0625
216.95390701293945,-400000.0625,11499.6396484375,2549.510009765625,-400000.0625,-2232.169921875,-400000.0625,10824.0595703125,-400000.0625
216.96417355537415,-400000.0625,11502.4599609375,2556.89990234375,-400000.0625,-2250.9599609375,-400000.0625,10822.490234375,-400000.0625
216.9920356273651,-400000.0625,11479.51953125,2535.06005859375,-400000.0625,-2288.530029296875,-400000.0625,10797.169921875,-400000.0625
217.00656819343567,-400000.0625,11460.58984375,2517.610107421875,-400000.0625,-2297.449951171875,-400000.0625,10769.75,-400000.0625
217.01679801940918,-400000.0625,11461.259765625,2522.469970703125,-400000.0625,-2281.47998046875,-400000.0625,10760.830078125,-400000.0625
217.02868247032166,-400000.0625,11473.66015625,2541.02001953125,-400000.0625,-2266.449951171875,-400000.0625,10774.1796875,-400000.0625
217.04106998443604,-400000.0625,11465.98046875,2547.169921875,-400000.0625,-2273.85009765625,-400000.0625,10776.0,-400000.0625
217.05120182037354,-400000.0625,11442.5703125,2529.81005859375,-400000.0625,-2309.419921875,-400000.0625,10751.33984375,-400000.0625
217.06346797943115,-400000.0625,11422.5400390625,2509.02001953125,-400000.0625,-2300.260009765625,-400000.0625,10725.3095703125,-400000.0625
217.07928490638733,-400000.0625,11422.2998046875,2511.1201171875,-400000.0625,-2275.510009765625,-400000.0625,10721.490234375,-400000.0625
217.09825706481934,-400000.0625,11440.2802734375,2532.860107421875,-400000.0625,-2273.22998046875,-400000.0625,10729.599609375,-400000.0625
217.1118049621582,-400000.0625,11441.849609375,2532.2900390625,-400000.0625,-2274.610107421875,-400000.0625,10720.919921875,-400000.0625
217.12250447273254,-400000.0625,11415.5302734375,2514.739990234375,-400000.0625,-2284.429931640625,-400000.0625,10706.08984375,-400000.0625
217.1341197490692,-400000.0625,11378.9599609375,2507.929931640625,-400000.0625,-2303.97998046875,-400000.0625,10674.759765625,-400000.0625
217.1452775001526,-400000.0625,11373.240234375,2509.550048828125,-400000.0625,-2301.739990234375,-400000.0625,10680.009765625,-400000.0625
217.15714263916016,-400000.0625,11362.98046875,2532.14990234375,-400000.0625,-2272.3701171875,-400000.0625,10686.830078125,-400000.0625
217.1668746471405,-400000.0625,11358.3095703125,2532.77001953125,-400000.0625,-2260.5400390625,-400000.0625,10677.33984375,-400000.0625
217.17495274543762,-400000.0625,11367.5595703125,2514.080078125,-400000.0625,-2271.699951171875,-400000.0625,10668.1796875,-400000.0625
217.18483185768127,-400000.0625,11321.259765625,2466.969970703125,-400000.0625,-2294.969970703125,-400000.0625,10624.599609375,-400000.0625
217.2114953994751,-400000.0625,11278.6298828125,2474.02001953125,-400000.0625,-2292.43994140625,-400000.0625,10610.25,-400000.0625
217.22426223754883,-400000.0625,11308.0498046875,2463.47998046875,-400000.0625,-2270.64990234375,-400000.0625,10603.1396484375,-400000.0625
217.23300290107727,-400000.0625,11296.75,2468.06005859375,-400000.0625,-2250.530029296875,-400000.0625,10638.8603515625,-400000.0625
217.24409914016724,-400000.0625,11287.0703125,2410.7900390625,-400000.0625,-2269.1298828125,-400000.0625,10613.8701171875,-400000.0625
217.25522708892822,-400000.0625,11219.3095703125,2378.030029296875,-400000.0625,-2269.75,-400000.0625,10589.41015625,-400000.0625
217.26716899871826,-400000.0625,11111.740234375,2358.9599609375,-400000.0625,-2262.5400390625,-400000.0625,10613.73046875,-400000.0625
217.2813503742218,-400000.0625,11099.240234375,2365.72998046875,-400000.0625,-2222.6298828125,-400000.0625,10740.08984375,-400000.0625
217.29508018493652,-400000.0625,11147.0703125,2364.159912109375,-400000.0625,-2199.699951171875,-400000.0625,10815.5703125,-400000.0625
217.31994247436523,-400000.0625,11097.8603515625,2338.7900390625,-400000.0625,-2209.81005859375,-400000.0625,10937.5,-400000.0625
217.33162140846252,-400000.0625,11053.0400390625,2329.159912109375,-400000.0625,-2204.989990234375,-400000.0625,11118.0302734375,-400000.0625
217.34461951255798,-400000.0625,11085.080078125,2334.39990234375,-400000.0625,-2211.669921875,-400000.0625,11319.9697265625,-400000.0625
217.35533213615417,-400000.0625,11116.740234375,2363.6298828125,-400000.0625,-2194.60009765625,-400000.0625,11479.759765625,-400000.0625
217.36620545387268,-400000.0625,11126.759765625,2385.090087890625,-400000.0625,-2155.969970703125,-400000.0625,11527.6396484375,-400000.0625
217.37735509872437,-400000.0625,11118.650390625,2386.0,-400000.0625,-2145.719970703125,-400000.0625,11467.169921875,-400000.0625
217.38874578475952,-400000.0625,11113.599609375,2383.0400390625,-400000.0625,-2149.199951171875,-400000.0625,11354.830078125,-400000.0625
217.40027856826782,-400000.0625,11133.48046875,2411.56005859375,-400000.0625,-2125.68994140625,-400000.0625,11219.5498046875,-400000.0625
217.4269711971283,-400000.0625,11180.9296875,2469.06005859375,-400000.0625,-2109.14990234375,-400000.0625,11092.8095703125,-400000.0625
217.44037771224976,-400000.0625,11203.48046875,2497.47998046875,-400000.0625,-2090.1201171875,-400000.0625,10959.25,-400000.0625
217.44962191581726,-400000.0625,11204.580078125,2505.39990234375,-400000.0625,-2102.0400390625,-400000.0625,10821.150390625,-400000.0625
217.45848679542542,-400000.0625,11205.4404296875,2515.169921875,-400000.0625,-2118.780029296875,-400000.0625,10705.66015625,-400000.0625
217.46705842018127,-400000.0625,11236.1396484375,2548.64990234375,-400000.0625,-2112.340087890625,-400000.0625,10633.7998046875,-400000.0625
217.47888326644897,-400000.0625,11287.400390625,2601.050048828125,-400000.0625,-2090.219970703125,-400000.0625,10592.1298828125,-400000.0625
217.48672747612,-400000.0625,11304.7099609375,2627.610107421875,-400000.0625,-2055.840087890625,-400000.0625,10547.7802734375,-400000.0625
217.4946928024292,-400000.0625,11306.3798828125,2629.3798828125,-400000.0625,-2078.389892578125,-400000.0625,10490.3701171875,-400000.0625
217.5078148841858,-400000.0625,11309.48046875,2629.610107421875,-400000.0625,-2123.02001953125,-400000.0625,10437.6796875,-400000.0625
217.5306270122528,-400000.0625,11313.0595703125,2639.679931640625,-400000.0625,-2099.510009765625,-400000.0625,10413.5498046875,-400000.0625
217.546049118042,-400000.0625,11346.9599609375,2671.47998046875,-400000.0625,-2071.090087890625,-400000.0625,10412.26953125,-400000.0625
217.55674266815186,-400000.0625,11357.259765625,2683.449951171875,-400000.0625,-2077.2900390625,-400000.0625,10399.2001953125,-400000.0625
217.56608963012695,-400000.0625,11332.080078125,2658.080078125,-400000.0625,-2116.25,-400000.0625,10353.66015625,-400000.0625
217.572918176651,-400000.0625,11317.9697265625,2636.47998046875,-400000.0625,-2129.169921875,-400000.0625,10320.240234375,-400000.0625
217.58422541618347,-400000.0625,11333.0400390625,2641.340087890625,-400000.0625,-2132.080078125,-400000.0625,10315.849609375,-400000.0625
217.59550094604492,-400000.0625,11360.3603515625,2659.179931640625,-400000.0625,-2135.1298828125,-400000.0625,10324.9599609375,-400000.0625
217.6091411113739,-400000.0625,11378.1904296875,2669.239990234375,-400000.0625,-2126.64990234375,-400000.0625,10328.48046875,-400000.0625
217.63323521614075,-400000.0625,11366.7001953125,2648.639892578125,-400000.0625,-2134.179931640625,-400000.0625,10307.5498046875,-400000.0625
217.64535236358643,-400000.0625,11355.2099609375,2630.139892578125,-400000.0625,-2164.1298828125,-400000.0625,10280.75,-400000.0625
217.65376448631287,-400000.0625,11367.23046875,2636.81005859375,-400000.0625,-2174.7099609375,-400000.0625,10282.990234375,-400000.0625
217.66161441802979,-400000.0625,11391.0703125,2659.989990234375,-400000.0625,-2157.780029296875,-400000.0625,10300.2099609375,-400000.0625
217.67354464530945,-400000.0625,11406.4697265625,2670.429931640625,-400000.0625,-2163.360107421875,-400000.0625,10307.4599609375,-400000.0625
217.6823604106903,-400000.0625,11392.98046875,2652.739990234375,-400000.0625,-2193.739990234375,-400000.0625,10284.7099609375,-400000.0625
217.68894600868225,-400000.0625,11378.150390625,2637.429931640625,-400000.0625,-2213.050048828125,-400000.0625,10257.33984375,-400000.0625
217.69676041603088,-400000.0625,11383.009765625,2642.199951171875,-400000.0625,-2210.469970703125,-400000.0625,10254.0,-400000.0625
217.70687747001648,-400000.0625,11410.1396484375,2660.699951171875,-400000.0625,-2198.739990234375,-400000.0625,10270.2197265625,-400000.0625
217.71596479415894,-400000.0625,11423.2998046875,2671.77001953125,-400000.0625,-2193.780029296875,-400000.0625,10273.98046875,-400000.0625
217.73415875434875,-400000.0625,11404.419921875,2657.27001953125,-400000.0625,-2216.2900390625,-400000.0625,10256.5302734375,-400000.0625
217.74682760238647,-400000.0625,11386.400390625,2638.860107421875,-400000.0625,-2237.610107421875,-400000.0625,10239.5498046875,-400000.0625
217.75813746452332,-400000.0625,11392.169921875,2643.110107421875,-400000.0625,-2226.5400390625,-400000.0625,10236.169921875,-400000.0625
217.76882529258728,-400000.0625,11413.33984375,2663.0400390625,-400000.0625,-2204.699951171875,-400000.0625,10249.66015625,-400000.0625
217.77928614616394,-400000.0625,11417.3896484375,2672.340087890625,-400000.0625,-2213.429931640625,-400000.0625,10253.7197265625,-400000.0625
217.7912244796753,-400000.0625,11400.0302734375,2656.320068359375,-400000.0625,-2215.429931640625,-400000.0625,10230.919921875,-400000.0625
217.79991793632507,-400000.0625,11377.2900390625,2633.3798828125,-400000.0625,-2232.840087890625,-400000.0625,10203.5498046875,-400000.0625
217.81052589416504,-400000.0625,11383.0595703125,2639.340087890625,-400000.0625,-2229.39990234375,-400000.0625,10205.3203125,-400000.0625
217.82085251808167,-400000.0625,11394.169921875,2669.0,-400000.0625,-2204.989990234375,-400000.0625,10231.9296875,-400000.0625
217.84214973449707,-400000.0625,11393.259765625,2674.14990234375,-400000.0625,-2203.889892578125,-400000.0625,10238.3095703125,-400000.0625
217.8558943271637,-400000.0625,11366.8896484375,2661.090087890625,-400000.0625,-2226.639892578125,-400000.0625,10210.0400390625,-400000.0625
217.86578369140625,-400000.0625,11347.8203125,2631.949951171875,-400000.0625,-2246.239990234375,-400000.0625,10188.2001953125,-400000.0625
217.87751865386963,-400000.0625,11333.849609375,2642.679931640625,-400000.0625,-2228.550048828125,-400000.0625,10186.5302734375,-400000.0625
217.88731002807617,-400000.0625,11354.7802734375,2660.22998046875,-400000.0625,-2216.14990234375,-400000.0625,10193.16015625,-400000.0625
217.8966932296753,-400000.0625,11355.3095703125,2664.090087890625,-400000.0625,-2214.429931640625,-400000.0625,10196.259765625,-400000.0625
217.90970063209534,-400000.0625,11313.490234375,2647.780029296875,-400000.0625,-2219.719970703125,-400000.0625,10182.759765625,-400000.0625
217.91948819160461,-400000.0625,11268.3798828125,2625.0400390625,-400000.0625,-2243.0400390625,-400000.0625,10141.759765625,-400000.0625
217.92928338050842,-400000.0625,11261.26953125,2624.610107421875,-400000.0625,-2241.22998046875,-400000.0625,10142.66015625,-400000.0625
217.9523377418518,-400000.0625,11255.740234375,2632.139892578125,-400000.0625,-2192.780029296875,-400000.0625,10146.669921875,-400000.0625
217.9631712436676,-400000.0625,11255.599609375,2646.919921875,-400000.0625,-2171.090087890625,-400000.0625,10158.6796875,-400000.0625
217.97453498840332,-400000.0625,11222.9404296875,2628.090087890625,-400000.0625,-2183.010009765625,-400000.0625,10141.990234375,-400000.0625
217.98617720603943,-400000.0625,11184.3603515625,2603.010009765625,-400000.0625,-2199.219970703125,-400000.0625,10110.1904296875,-400000.0625
217.9972939491272,-400000.0625,11181.169921875,2606.389892578125,-400000.0625,-2217.820068359375,-400000.0625,10112.7197265625,-400000.0625
218.0089554786682,-400000.0625,11197.3798828125,2621.699951171875,-400000.0625,-2199.4599609375,-400000.0625,10124.8798828125,-400000.0625
218.01793599128723,-400000.0625,11200.48046875,2628.280029296875,-400000.0625,-2174.7099609375,-400000.0625,10127.58984375,-400000.0625
218.0297303199768,-400000.0625,11184.6904296875,2609.39990234375,-400000.0625,-2179.909912109375,-400000.0625,10104.9404296875,-400000.0625
218.05232858657837,-400000.0625,11157.5595703125,2590.280029296875,-400000.0625,-2185.300048828125,-400000.0625,10077.0498046875,-400000.0625
218.06585836410522,-400000.0625,11163.330078125,2593.469970703125,-400000.0625,-2188.43994140625,-400000.0625,10084.0595703125,-400000.0625
218.07774567604065,-400000.0625,11187.9404296875,2617.31005859375,-400000.0625,-2188.5400390625,-400000.0625,10099.7900390625,-400000.0625
218.0924093723297,-400000.0625,11189.3701171875,2624.22998046875,-400000.0625,-2180.909912109375,-400000.0625,10099.41015625,-400000.0625
218.10482168197632,-400000.0625,11164.3798828125,2611.780029296875,-400000.0625,-2182.669921875,-400000.0625,10076.5703125,-400000.0625
218.1155562400818,-400000.0625,11145.6396484375,2606.820068359375,-400000.0625,-2180.580078125,-400000.0625,10065.4599609375,-400000.0625
218.12423658370972,-400000.0625,11127.759765625,2618.1201171875,-400000.0625,-2171.22998046875,-400000.0625,10054.259765625,-400000.0625
218.14200377464294,-400000.0625,11177.01953125,2622.510009765625,-400000.0625,-2158.639892578125,-400000.0625,10067.990234375,-400000.0625
218.17080450057983,-400000.0625,11163.51953125,2629.419921875,-400000.0625,-2157.739990234375,-400000.0625,10064.080078125,-400000.0625
218.1884961128235,-400000.0625,11135.009765625,2616.1201171875,-400000.0625,-2157.159912109375,-400000.0625,10056.9296875,-400000.0625
218.19962167739868,-400000.0625,11202.3798828125,2585.1298828125,-400000.0625,-2178.6201171875,-400000.0625,10072.2802734375,-400000.0625
218.2144112586975,-400000.0625,11157.4697265625,2595.81005859375,-400000.0625,-2178.0,-400000.0625,10061.5,-400000.0625
218.22909140586853,-400000.0625,11134.0498046875,2589.56005859375,-400000.0625,-2160.5,-400000.0625,10095.6904296875,-400000.0625
218.24065470695496,-400000.0625,11079.0302734375,2575.8701171875,-400000.0625,-2144.050048828125,-400000.0625,10147.7197265625,-400000.0625
218.2526078224182,-400000.0625,11025.3798828125,2543.8798828125,-400000.0625,-2143.239990234375,-400000.0625,10197.7802734375,-400000.0625
218.2736678123474,-400000.0625,10997.8203125,2488.52001953125,-400000.0625,-2156.110107421875,-400000.0625,10241.41015625,-400000.0625
218.28624486923218,-400000.0625,10958.6298828125,2475.639892578125,-400000.0625,-2167.419921875,-400000.0625,10299.25,-400000.0625
218.29767298698425,-400000.0625,10976.0302734375,2468.110107421875,-400000.0625,-2150.580078125,-400000.0625,10390.6201171875,-400000.0625
218.31141901016235,-400000.0625,10958.76953125,2429.6298828125,-400000.0625,-2099.989990234375,-400000.0625,10449.0302734375,-400000.0625
218.32020449638367,-400000.0625,10903.41015625,2389.6201171875,-400000.0625,-2096.27001953125,-400000.0625,10487.75,-400000.0625
218.3285210132599,-400000.0625,10872.8896484375,2352.860107421875,-400000.0625,-2131.219970703125,-400000.0625,10510.6796875,-400000.0625
218.3422064781189,-400000.0625,10881.849609375,2339.080078125,-400000.0625,-2163.739990234375,-400000.0625,10534.6201171875,-400000.0625
218.3548572063446,-400000.0625,10881.8095703125,2339.97998046875,-400000.0625,-2160.8798828125,-400000.0625,10546.73046875,-400000.0625
218.37567830085754,-400000.0625,10886.7197265625,2336.5,-400000.0625,-2129.840087890625,-400000.0625,10535.1904296875,-400000.0625
218.39063835144043,-400000.0625,10859.73046875,2299.68994140625,-400000.0625,-2112.77001953125,-400000.0625,10479.8798828125,-400000.0625
218.40634894371033,-400000.0625,10837.9404296875,2263.68994140625,-400000.0625,-2132.22998046875,-400000.0625,10419.7998046875,-400000.0625
218.414879322052,-400000.0625,10846.1904296875,2257.969970703125,-400000.0625,-2165.75,-400000.0625,10384.509765625,-400000.0625
218.42212438583374,-400000.0625,10870.3603515625,2267.5,-400000.0625,-2176.7099609375,-400000.0625,10370.7802734375,-400000.0625
218.43045783042908,-400000.0625,10887.669921875,2263.639892578125,-400000.0625,-2176.949951171875,-400000.0625,10343.599609375,-400000.0625
218.4446485042572,-400000.0625,10887.8095703125,2241.22998046875,-400000.0625,-2180.530029296875,-400000.0625,10304.3603515625,-400000.0625
218.4559133052826,-400000.0625,10876.2802734375,2217.530029296875,-400000.0625,-2204.280029296875,-400000.0625,10268.259765625,-400000.0625
218.47648644447327,-400000.0625,10888.150390625,2217.530029296875,-400000.0625,-2199.550048828125,-400000.0625,10255.240234375,-400000.0625
218.48662662506104,-400000.0625,10916.3798828125,2230.739990234375,-400000.0625,-2196.070068359375,-400000.0625,10258.8701171875,-400000.0625
218.49616146087646,-400000.0625,10930.6796875,2238.699951171875,-400000.0625,-2227.739990234375,-400000.0625,10261.2998046875,-400000.0625
218.50585508346558,-400000.0625,10932.16015625,2226.5,-400000.0625,-2258.43994140625,-400000.0625,10242.7998046875,-400000.0625
218.51588702201843,-400000.0625,10922.0498046875,2210.239990234375,-400000.0625,-2272.800048828125,-400000.0625,10213.8095703125,-400000.0625
218.52716183662415,-400000.0625,10925.7197265625,2216.2900390625,-400000.0625,-2255.820068359375,-400000.0625,10207.26953125,-400000.0625
218.53545713424683,-400000.0625,10970.6904296875,2250.860107421875,-400000.0625,-2217.8701171875,-400000.0625,10224.1103515625,-400000.0625
218.54415011405945,-400000.0625,10982.419921875,2258.830078125,-400000.0625,-2233.699951171875,-400000.0625,10219.9599609375,-400000.0625
218.55431985855103,-400000.0625,10983.900390625,2255.25,-400000.0625,-2275.510009765625,-400000.0625,10199.599609375,-400000.0625
218.56324291229248,-400000.0625,10986.2802734375,2248.050048828125,-400000.0625,-2305.97998046875,-400000.0625,10185.0498046875,-400000.0625
218.5839204788208,-400000.0625,10996.099609375,2256.679931640625,-400000.0625,-2286.860107421875,-400000.0625,10189.009765625,-400000.0625
218.60620164871216,-400000.0625,11021.51953125,2282.10009765625,-400000.0625,-2249.860107421875,-400000.0625,10203.7900390625,-400000.0625
218.62206506729126,-400000.0625,11042.830078125,2299.60009765625,-400000.0625,-2249.669921875,-400000.0625,10210.3701171875,-400000.0625
218.63299679756165,-400000.0625,11035.919921875,2290.679931640625,-400000.0625,-2283.6201171875,-400000.0625,10194.2099609375,-400000.0625
218.64153861999512,-400000.0625,11021.8095703125,2277.179931640625,-400000.0625,-2294.39990234375,-400000.0625,10175.51953125,-400000.0625
218.64803194999695,-400000.0625,11030.3896484375,2287.2900390625,-400000.0625,-2287.199951171875,-400000.0625,10173.849609375,-400000.0625
218.66020250320435,-400000.0625,11057.0400390625,2308.889892578125,-400000.0625,-2305.4599609375,-400000.0625,10191.8701171875,-400000.0625
218.66773962974548,-400000.0625,11071.01953125,2318.050048828125,-400000.0625,-2294.110107421875,-400000.0625,10198.8798828125,-400000.0625
218.6806604862213,-400000.0625,11053.4697265625,2304.360107421875,-400000.0625,-2283.860107421875,-400000.0625,10179.900390625,-400000.0625
218.6927878856659,-400000.0625,11042.5498046875,2293.010009765625,-400000.0625,-2294.639892578125,-400000.0625,10161.5,-400000.0625
218.7047860622406,-400000.0625,11049.41015625,2301.260009765625,-400000.0625,-2301.60009765625,-400000.0625,10164.4501953125,-400000.0625
218.71474719047546,-400000.0625,11069.9697265625,2324.9599609375,-400000.0625,-2293.5400390625,-400000.0625,10185.5302734375,-400000.0625
218.7274296283722,-400000.0625,11082.9404296875,2337.929931640625,-400000.0625,-2290.199951171875,-400000.0625,10192.4404296875,-400000.0625
218.73916459083557,-400000.0625,11069.25,2323.8701171875,-400000.0625,-2298.39990234375,-400000.0625,10173.3203125,-400000.0625
218.74741125106812,-400000.0625,11048.9404296875,2305.320068359375,-400000.0625,-2326.110107421875,-400000.0625,10155.0595703125,-400000.0625
218.75956797599792,-400000.0625,11053.6103515625,2310.989990234375,-400000.0625,-2317.2900390625,-400000.0625,10154.1103515625,-400000.0625
218.76734066009521,-400000.0625,11075.4501953125,2334.5,-400000.0625,-2294.02001953125,-400000.0625,10170.3701171875,-400000.0625
218.77494597434998,-400000.0625,11081.3603515625,2345.659912109375,-400000.0625,-2289.10009765625,-400000.0625,10176.3701171875,-400000.0625
218.79397106170654,-400000.0625,11062.0498046875,2329.159912109375,-400000.0625,-2296.5,-400000.0625,10158.830078125,-400000.0625
218.80260467529297,-400000.0625,11042.6396484375,2313.760009765625,-400000.0625,-2321.2900390625,-400000.0625,10134.5595703125,-400000.0625
218.8089303970337,-400000.0625,11045.7001953125,2320.719970703125,-400000.0625,-2331.5,-400000.0625,10136.080078125,-400000.0625
218.81511664390564,-400000.0625,11062.099609375,2338.4599609375,-400000.0625,-2305.56005859375,-400000.0625,10148.8603515625,-400000.0625
218.8273890018463,-400000.0625,11072.2998046875,2353.47998046875,-400000.0625,-2286.2900390625,-400000.0625,10154.150390625,-400000.0625
218.83567309379578,-400000.0625,11053.23046875,2337.64990234375,-400000.0625,-2289.6298828125,-400000.0625,10133.650390625,-400000.0625
218.84570360183716,-400000.0625,11028.7197265625,2316.89990234375,-400000.0625,-2300.550048828125,-400000.0625,10112.5703125,-400000.0625
218.8570258617401,-400000.0625,11030.2900390625,2321.47998046875,-400000.0625,-2298.159912109375,-400000.0625,10116.150390625,-400000.0625
218.864919424057,-400000.0625,11046.83984375,2342.179931640625,-400000.0625,-2291.43994140625,-400000.0625,10131.169921875,-400000.0625
218.87643957138062,-400000.0625,11058.330078125,2356.429931640625,-400000.0625,-2292.159912109375,-400000.0625,10137.419921875,-400000.0625
218.90143156051636,-400000.0625,11044.0703125,2341.889892578125,-400000.0625,-2321.820068359375,-400000.0625,10119.73046875,-400000.0625
218.91117143630981,-400000.0625,11019.51953125,2318.47998046875,-400000.0625,-2365.35009765625,-400000.0625,10095.6904296875,-400000.0625
218.9220540523529,-400000.0625,11018.0400390625,2320.429931640625,-400000.0625,-2346.1298828125,-400000.0625,10092.740234375,-400000.0625
218.93237590789795,-400000.0625,11037.73046875,2343.610107421875,-400000.0625,-2292.919921875,-400000.0625,10112.3798828125,-400000.0625
218.94569897651672,-400000.0625,11046.26953125,2355.81005859375,-400000.0625,-2276.280029296875,-400000.0625,10116.48046875,-400000.0625
218.95871496200562,-400000.0625,11031.0595703125,2342.3701171875,-400000.0625,-2292.72998046875,-400000.0625,10093.8798828125,-400000.0625
218.96998953819275,-400000.0625,11006.5,2321.669921875,-400000.0625,-2310.93994140625,-400000.0625,10070.75,-400000.0625
218.97993087768555,-400000.0625,11000.919921875,2321.9599609375,-400000.0625,-2305.030029296875,-400000.0625,10073.7099609375,-400000.0625
218.9955494403839,-400000.0625,11025.2900390625,2345.320068359375,-400000.0625,-2282.909912109375,-400000.0625,10086.7802734375,-400000.0625
219.00790691375732,-400000.0625,11033.1103515625,2355.050048828125,-400000.0625,-2290.300048828125,-400000.0625,10092.6396484375,-400000.0625
219.01996874809265,-400000.0625,11012.080078125,2336.030029296875,-400000.0625,-2314.18994140625,-400000.0625,10074.240234375,-400000.0625
219.0294952392578,-400000.0625,10994.3896484375,2318.909912109375,-400000.0625,-2332.8798828125,-400000.0625,10049.8701171875,-400000.0625
219.04225897789001,-400000.0625,10993.3896484375,2322.340087890625,-400000.0625,-2336.60009765625,-400000.0625,10051.919921875,-400000.0625
219.05365681648254,-400000.0625,11013.9404296875,2342.179931640625,-400000.0625,-2310.090087890625,-400000.0625,10070.1298828125,-400000.0625
219.06402850151062,-400000.0625,11027.8095703125,2351.81005859375,-400000.0625,-2293.25,-400000.0625,10075.5703125,-400000.0625
219.07663297653198,-400000.0625,11006.6904296875,2337.97998046875,-400000.0625,-2308.179931640625,-400000.0625,10057.3603515625,-400000.0625
219.08579182624817,-400000.0625,10977.7900390625,2313.280029296875,-400000.0625,-2313.760009765625,-400000.0625,10032.4599609375,-400000.0625
219.11108469963074,-400000.0625,10980.4599609375,2316.47998046875,-400000.0625,-2312.760009765625,-400000.0625,10034.1298828125,-400000.0625
219.1193027496338,-400000.0625,10998.6298828125,2335.1201171875,-400000.0625,-2294.02001953125,-400000.0625,10048.9599609375,-400000.0625
219.1262402534485,-400000.0625,11006.830078125,2348.139892578125,-400000.0625,-2289.9599609375,-400000.0625,10054.73046875,-400000.0625
219.14524626731873,-400000.0625,10994.009765625,2338.169921875,-400000.0625,-2318.570068359375,-400000.0625,10032.4599609375,-400000.0625
219.1611042022705,-400000.0625,10969.1201171875,2315.330078125,-400000.0625,-2318.909912109375,-400000.0625,10011.580078125,-400000.0625
219.17232537269592,-400000.0625,10968.9697265625,2312.469970703125,-400000.0625,-2306.64990234375,-400000.0625,10027.9296875,-400000.0625
219.182475566864,-400000.0625,10996.150390625,2326.679931640625,-400000.0625,-2305.1298828125,-400000.0625,10059.7900390625,-400000.0625
219.19009971618652,-400000.0625,11008.0302734375,2332.39990234375,-400000.0625,-2321.909912109375,-400000.0625,10078.5703125,-400000.0625
219.20852899551392,-400000.0625,10982.900390625,2306.030029296875,-400000.0625,-2317.139892578125,-400000.0625,10073.08984375,-400000.0625
219.21861267089844,-400000.0625,10962.919921875,2268.97998046875,-400000.0625,-2332.1201171875,-400000.0625,10064.509765625,-400000.0625
219.22870206832886,-400000.0625,10965.5400390625,2263.739990234375,-400000.0625,-2337.64990234375,-400000.0625,10084.580078125,-400000.0625
219.24483132362366,-400000.0625,10991.1904296875,2272.419921875,-400000.0625,-2329.969970703125,-400000.0625,10126.349609375,-400000.0625
219.26153421401978,-400000.0625,11009.740234375,2273.610107421875,-400000.0625,-2330.110107421875,-400000.0625,10158.2099609375,-400000.0625
219.27654194831848,-400000.0625,10995.91015625,2248.9599609375,-400000.0625,-2353.760009765625,-400000.0625,10164.7900390625,-400000.0625
219.29612946510315,-400000.0625,10978.7001953125,2216.6298828125,-400000.0625,-2366.300048828125,-400000.0625,10162.6396484375,-400000.0625
219.32800340652466,-400000.0625,10972.2197265625,2206.89990234375,-400000.0625,-2364.489990234375,-400000.0625,10188.150390625,-400000.0625
219.34226751327515,-400000.0625,10993.91015625,2214.47998046875,-400000.0625,-2358.10009765625,-400000.0625,10220.669921875,-400000.0625
219.36390614509583,-400000.0625,10993.150390625,2213.429931640625,-400000.0625,-2359.820068359375,-400000.0625,10250.08984375,-400000.0625
219.41850686073303,-400000.0625,10965.73046875,2190.070068359375,-400000.0625,-2367.5400390625,-400000.0625,10251.900390625,-400000.0625
219.45529580116272,-400000.0625,10951.419921875,2164.840087890625,-400000.0625,-2383.52001953125,-400000.0625,10253.5302734375,-400000.0625
219.4721930027008,-400000.0625,10954.669921875,2159.929931640625,-400000.0625,-2390.18994140625,-400000.0625,10275.8896484375,-400000.0625
219.48862290382385,-400000.0625,10971.830078125,2171.949951171875,-400000.0625,-2388.0,-400000.0625,10308.2197265625,-400000.0625
219.49633932113647,-400000.0625,10981.1796875,2174.429931640625,-400000.0625,-2369.830078125,-400000.0625,10327.9599609375,-400000.0625
219.51081705093384,-400000.0625,10959.76953125,2155.68994140625,-400000.0625,-2382.22998046875,-400000.0625,10325.9599609375,-400000.0625
219.5354883670807,-400000.0625,10932.8798828125,2134.1298828125,-400000.0625,-2388.10009765625,-400000.0625,10319.849609375,-400000.0625
219.56637048721313,-400000.0625,10934.7802734375,2130.080078125,-400000.0625,-2388.81005859375,-400000.0625,10330.73046875,-400000.0625
219.57906317710876,-400000.0625,10947.75,2145.719970703125,-400000.0625,-2372.4599609375,-400000.0625,10361.099609375,-400000.0625
219.5903787612915,-400000.0625,10952.9501953125,2153.5400390625,-400000.0625,-2365.159912109375,-400000.0625,10372.9697265625,-400000.0625
219.62187385559082,-400000.0625,10933.5400390625,2135.89990234375,-400000.0625,-2391.820068359375,-400000.0625,10363.2001953125,-400000.0625
219.62957406044006,-400000.0625,10916.51953125,2117.679931640625,-400000.0625,-2413.800048828125,-400000.0625,10343.0302734375,-400000.0625
219.653804063797,-400000.0625,10917.8095703125,2121.39990234375,-400000.0625,-2411.56005859375,-400000.0625,10339.3095703125,-400000.0625
219.6826388835907,-400000.0625,10933.01953125,2141.669921875,-400000.0625,-2391.429931640625,-400000.0625,10353.4697265625,-400000.0625
219.70074439048767,-400000.0625,10940.599609375,2153.780029296875,-400000.0625,-2376.179931640625,-400000.0625,10364.919921875,-400000.0625
219.71202945709229,-400000.0625,10925.150390625,2142.6201171875,-400000.0625,-2389.6201171875,-400000.0625,10342.169921875,-400000.0625
219.72437810897827,-400000.0625,10907.26953125,2127.31005859375,-400000.0625,-2401.830078125,-400000.0625,10319.66015625,-400000.0625
219.7570559978485,-400000.0625,10907.0302734375,2128.030029296875,-400000.0625,-2393.340087890625,-400000.0625,10320.6201171875,-400000.0625
219.78808784484863,-400000.0625,10920.7197265625,2143.139892578125,-400000.0625,-2376.409912109375,-400000.0625,10336.919921875,-400000.0625
219.79993605613708,-400000.0625,10926.4404296875,2153.159912109375,-400000.0625,-2363.5400390625,-400000.0625,10344.7900390625,-400000.0625
219.81125211715698,-400000.0625,10910.3701171875,2141.429931640625,-400000.0625,-2379.469970703125,-400000.0625,10327.8203125,-400000.0625
219.8267765045166,-400000.0625,10893.16015625,2125.8798828125,-400000.0625,-2417.330078125,-400000.0625,10308.5498046875,-400000.0625
219.84405517578125,-400000.0625,10891.7197265625,2124.929931640625,-400000.0625,-2417.139892578125,-400000.0625,10306.5,-400000.0625
219.86029434204102,-400000.0625,10904.98046875,2143.860107421875,-400000.0625,-2374.4599609375,-400000.0625,10319.759765625,-400000.0625
219.89147663116455,-400000.0625,10916.759765625,2160.97998046875,-400000.0625,-2355.14990234375,-400000.0625,10329.6796875,-400000.0625
219.90343236923218,-400000.0625,10906.5498046875,2149.9599609375,-400000.0625,-2378.179931640625,-400000.0625,10312.990234375,-400000.0625
219.91025805473328,-400000.0625,10890.6298828125,2130.840087890625,-400000.0625,-2409.510009765625,-400000.0625,10292.6298828125,-400000.0625
219.92079854011536,-400000.0625,10882.330078125,2130.7900390625,-400000.0625,-2397.919921875,-400000.0625,10291.580078125,-400000.0625
219.92651987075806,-400000.0625,10894.58984375,2146.530029296875,-400000.0625,-2377.320068359375,-400000.0625,10300.349609375,-400000.0625
219.9323480129242,-400000.0625,10903.8798828125,2159.02001953125,-400000.0625,-2364.39990234375,-400000.0625,10304.599609375,-400000.0625
219.93958234786987,-400000.0625,10887.0498046875,2141.6201171875,-400000.0625,-2396.14990234375,-400000.0625,10288.1396484375,-400000.0625
219.9452064037323,-400000.0625,10865.58984375,2121.070068359375,-400000.0625,-2402.260009765625,-400000.0625,10268.5498046875,-400000.0625
219.9525158405304,-400000.0625,10870.8896484375,2128.030029296875,-400000.0625,-2379.85009765625,-400000.0625,10269.6904296875,-400000.0625
219.95944094657898,-400000.0625,10891.8203125,2147.9599609375,-400000.0625,-2364.919921875,-400000.0625,10289.4296875,-400000.0625
219.9655373096466,-400000.0625,10899.5,2160.8798828125,-400000.0625,-2356.9599609375,-400000.0625,10296.73046875,-400000.0625
219.98874878883362,-400000.0625,10878.6103515625,2144.81005859375,-400000.0625,-2379.610107421875,-400000.0625,10278.0400390625,-400000.0625
219.99468684196472,-400000.0625,10855.8701171875,2119.830078125,-400000.0625,-2407.8798828125,-400000.0625,10255.150390625,-400000.0625
220.0062131881714,-400000.0625,10860.01953125,2122.830078125,-400000.0625,-2410.27001953125,-400000.0625,10249.900390625,-400000.0625
220.01208400726318,-400000.0625,10879.900390625,2144.669921875,-400000.0625,-2385.89990234375,-400000.0625,10262.2998046875,-400000.0625
220.01901483535767,-400000.0625,10894.400390625,2158.830078125,-400000.0625,-2365.830078125,-400000.0625,10270.8798828125,-400000.0625
220.02555680274963,-400000.0625,10874.5595703125,2145.6201171875,-400000.0625,-2378.989990234375,-400000.0625,10254.1904296875,-400000.0625
220.03163528442383,-400000.0625,10856.009765625,2129.27001953125,-400000.0625,-2408.4599609375,-400000.0625,10235.169921875,-400000.0625
220.04073667526245,-400000.0625,10858.490234375,2135.52001953125,-400000.0625,-2403.39990234375,-400000.0625,10234.98046875,-400000.0625
220.04753732681274,-400000.0625,10878.9501953125,2160.409912109375,-400000.0625,-2366.02001953125,-400000.0625,10254.6201171875,-400000.0625
220.06109714508057,-400000.0625,10887.0498046875,2167.179931640625,-400000.0625,-2357.389892578125,-400000.0625,10258.8203125,-400000.0625
220.0708634853363,-400000.0625,10866.830078125,2148.580078125,-400000.0625,-2377.93994140625,-400000.0625,10238.1201171875,-400000.0625
220.08564949035645,-400000.0625,10847.3798828125,2128.27001953125,-400000.0625,-2398.590087890625,-400000.0625,10218.099609375,-400000.0625
220.09225821495056,-400000.0625,10849.91015625,2132.1298828125,-400000.0625,-2391.14990234375,-400000.0625,10218.5302734375,-400000.0625
220.10366010665894,-400000.0625,10866.5,2150.9599609375,-400000.0625,-2372.409912109375,-400000.0625,10233.7802734375,-400000.0625
220.11002731323242,-400000.0625,10876.4697265625,2162.360107421875,-400000.0625,-2363.25,-400000.0625,10237.7001953125,-400000.0625
220.1169729232788,-400000.0625,10864.6396484375,2148.199951171875,-400000.0625,-2375.27001953125,-400000.0625,10224.1103515625,-400000.0625
220.1297631263733,-400000.0625,10840.1796875,2125.68994140625,-400000.0625,-2394.679931640625,-400000.0625,10204.0302734375,-400000.0625
220.13869404792786,-400000.0625,10839.419921875,2128.27001953125,-400000.0625,-2394.719970703125,-400000.0625,10201.169921875,-400000.0625
220.1451005935669,-400000.0625,10862.9697265625,2150.14990234375,-400000.0625,-2376.60009765625,-400000.0625,10220.91015625,-400000.0625
220.15414237976074,-400000.0625,10871.0302734375,2162.60009765625,-400000.0625,-2372.5,-400000.0625,10225.6796875,-400000.0625
220.1614511013031,-400000.0625,10853.099609375,2152.25,-400000.0625,-2384.570068359375,-400000.0625,10201.8798828125,-400000.0625
220.16789531707764,-400000.0625,10832.3095703125,2131.030029296875,-400000.0625,-2393.25,-400000.0625,10179.4697265625,-400000.0625
220.17567563056946,-400000.0625,10829.830078125,2128.739990234375,-400000.0625,-2379.320068359375,-400000.0625,10192.8203125,-400000.0625
220.1896197795868,-400000.0625,10842.08984375,2140.050048828125,-400000.0625,-2364.110107421875,-400000.0625,10225.3896484375,-400000.0625
220.1957905292511,-400000.0625,10846.51953125,2145.909912109375,-400000.0625,-2361.010009765625,-400000.0625,10239.7900390625,-400000.0625
220.203839302063,-400000.0625,10825.0595703125,2126.030029296875,-400000.0625,-2383.7099609375,-400000.0625,10234.9296875,-400000.0625
220.21058559417725,-400000.0625,10801.2197265625,2100.22998046875,-400000.0625,-2408.219970703125,-400000.0625,10231.1103515625,-400000.0625
220.2173297405243,-400000.0625,10809.7998046875,2100.610107421875,-400000.0625,-2406.7900390625,-400000.0625,10252.0498046875,-400000.0625
220.2250645160675,-400000.0625,10837.509765625,2113.530029296875,-400000.0625,-2395.530029296875,-400000.0625,10284.900390625,-400000.0625
220.23295736312866,-400000.0625,10845.849609375,2121.35009765625,-400000.0625,-2389.47998046875,-400000.0625,10304.830078125,-400000.0625
220.24195551872253,-400000.0625,10819.150390625,2102.570068359375,-400000.0625,-2400.919921875,-400000.0625,10292.4404296875,-400000.0625
220.2481164932251,-400000.0625,10797.169921875,2079.14990234375,-400000.0625,-2419.659912109375,-400000.0625,10285.5703125,-400000.0625
220.2592442035675,-400000.0625,10807.5595703125,2078.820068359375,-400000.0625,-2409.60009765625,-400000.0625,10295.73046875,-400000.0625
220.2652130126953,-400000.0625,10827.919921875,2097.419921875,-400000.0625,-2392.580078125,-400000.0625,10313.7001953125,-400000.0625
220.2722406387329,-400000.0625,10837.509765625,2106.0,-400000.0625,-2386.050048828125,-400000.0625,10318.7099609375,-400000.0625
220.2880687713623,-400000.0625,10814.48046875,2090.5,-400000.0625,-2396.580078125,-400000.0625,10298.2998046875,-400000.0625
220.30835962295532,-400000.0625,10799.7001953125,2078.820068359375,-400000.0625,-2409.219970703125,-400000.0625,10278.5595703125,-400000.0625
220.31992983818054,-400000.0625,10806.23046875,2085.110107421875,-400000.0625,-2401.780029296875,-400000.0625,10282.3701171875,-400000.0625
220.33056926727295,-400000.0625,10825.1103515625,2108.239990234375,-400000.0625,-2376.27001953125,-400000.0625,10295.8203125,-400000.0625
220.3438835144043,-400000.0625,10830.5,2115.199951171875,-400000.0625,-2375.4599609375,-400000.0625,10298.2998046875,-400000.0625
220.36446022987366,-400000.0625,10814.6201171875,2099.659912109375,-400000.0625,-2392.909912109375,-400000.0625,10280.419921875,-400000.0625
220.37823152542114,-400000.0625,10792.5,2080.580078125,-400000.0625,-2406.169921875,-400000.0625,10256.099609375,-400000.0625
220.3885462284088,-400000.0625,10796.5,2084.159912109375,-400000.0625,-2402.260009765625,-400000.0625,10254.33984375,-400000.0625
220.40878057479858,-400000.0625,10814.9501953125,2102.0400390625,-400000.0625,-2379.85009765625,-400000.0625,10270.740234375,-400000.0625
220.42642331123352,-400000.0625,10826.0595703125,2114.489990234375,-400000.0625,-2377.409912109375,-400000.0625,10279.1796875,-400000.0625
220.4419560432434,-400000.0625,10813.240234375,2104.469970703125,-400000.0625,-2405.830078125,-400000.0625,10259.9599609375,-400000.0625
220.4607858657837,-400000.0625,10792.2998046875,2081.780029296875,-400000.0625,-2428.6298828125,-400000.0625,10236.6904296875,-400000.0625
220.4776430130005,-400000.0625,10783.8203125,2076.860107421875,-400000.0625,-2409.409912109375,-400000.0625,10231.6904296875,-400000.0625
220.49478840827942,-400000.0625,10798.2197265625,2095.510009765625,-400000.0625,-2377.56005859375,-400000.0625,10246.23046875,-400000.0625
220.51639032363892,-400000.0625,10811.0,2106.7099609375,-400000.0625,-2371.97998046875,-400000.0625,10257.91015625,-400000.0625
220.52768802642822,-400000.0625,10797.98046875,2092.080078125,-400000.0625,-2397.110107421875,-400000.0625,10241.509765625,-400000.0625
220.5437512397766,-400000.0625,10787.6796875,2083.25,-400000.0625,-2398.919921875,-400000.0625,10225.8203125,-400000.0625
220.55885982513428,-400000.0625,10785.5302734375,2084.8798828125,-400000.0625,-2393.389892578125,-400000.0625,10221.91015625,-400000.0625
220.56476044654846,-400000.0625,10797.5498046875,2099.0400390625,-400000.0625,-2390.050048828125,-400000.0625,10233.400390625,-400000.0625
220.5717215538025,-400000.0625,10809.66015625,2110.6201171875,-400000.0625,-2395.580078125,-400000.0625,10242.6103515625,-400000.0625
220.5776286125183,-400000.0625,10794.7802734375,2096.1298828125,-400000.0625,-2404.31005859375,-400000.0625,10219.8095703125,-400000.0625
220.58382892608643,-400000.0625,10776.7099609375,2079.300048828125,-400000.0625,-2401.35009765625,-400000.0625,10201.5,-400000.0625
220.59045362472534,-400000.0625,10783.009765625,2086.780029296875,-400000.0625,-2390.47998046875,-400000.0625,10202.98046875,-400000.0625
220.59637904167175,-400000.0625,10801.0302734375,2110.340087890625,-400000.0625,-2368.8798828125,-400000.0625,10219.3798828125,-400000.0625
220.60840892791748,-400000.0625,10812.0498046875,2121.68994140625,-400000.0625,-2366.590087890625,-400000.0625,10224.2998046875,-400000.0625
220.61408162117004,-400000.0625,10798.4599609375,2105.669921875,-400000.0625,-2392.10009765625,-400000.0625,10208.75,-400000.0625
220.62223720550537,-400000.0625,10773.4697265625,2085.35009765625,-400000.0625,-2402.639892578125,-400000.0625,10187.48046875,-400000.0625
220.62898635864258,-400000.0625,10780.5302734375,2089.409912109375,-400000.0625,-2386.3798828125,-400000.0625,10185.0498046875,-400000.0625
220.6380741596222,-400000.0625,10795.9296875,2110.0,-400000.0625,-2382.659912109375,-400000.0625,10204.1298828125,-400000.0625
220.64638829231262,-400000.0625,10807.419921875,2125.360107421875,-400000.0625,-2392.719970703125,-400000.0625,10216.900390625,-400000.0625
220.65317344665527,-400000.0625,10797.6396484375,2111.010009765625,-400000.0625,-2400.260009765625,-400000.0625,10198.3095703125,-400000.0625
220.65901041030884,-400000.0625,10773.419921875,2086.780029296875,-400000.0625,-2407.8798828125,-400000.0625,10173.080078125,-400000.0625
220.66436862945557,-400000.0625,10779.1904296875,2096.510009765625,-400000.0625,-2385.52001953125,-400000.0625,10172.509765625,-400000.0625
220.67080068588257,-400000.0625,10798.169921875,2117.5400390625,-400000.0625,-2362.300048828125,-400000.0625,10186.150390625,-400000.0625
220.6764576435089,-400000.0625,10809.849609375,2129.030029296875,-400000.0625,-2372.070068359375,-400000.0625,10195.58984375,-400000.0625
220.6821253299713,-400000.0625,10798.98046875,2116.590087890625,-400000.0625,-2384.280029296875,-400000.0625,10178.5703125,-400000.0625
220.6892032623291,-400000.0625,10778.8603515625,2095.75,-400000.0625,-2396.199951171875,-400000.0625,10158.490234375,-400000.0625
220.69518995285034,-400000.0625,10781.2900390625,2099.659912109375,-400000.0625,-2410.699951171875,-400000.0625,10158.5400390625,-400000.0625
220.70162105560303,-400000.0625,10805.4697265625,2125.169921875,-400000.0625,-2391.14990234375,-400000.0625,10177.23046875,-400000.0625
220.7131085395813,-400000.0625,10820.5302734375,2142.47998046875,-400000.0625,-2372.31005859375,-400000.0625,10185.150390625,-400000.0625
220.7200140953064,-400000.0625,10805.66015625,2128.7900390625,-400000.0625,-2383.659912109375,-400000.0625,10169.3603515625,-400000.0625
220.7256577014923,-400000.0625,10782.2900390625,2104.139892578125,-400000.0625,-2397.35009765625,-400000.0625,10148.8095703125,-400000.0625
220.73115730285645,-400000.0625,10781.0,2099.419921875,-400000.0625,-2401.919921875,-400000.0625,10142.2802734375,-400000.0625
220.73845863342285,-400000.0625,10791.9697265625,2118.300048828125,-400000.0625,-2372.97998046875,-400000.0625,10151.4404296875,-400000.0625
220.74405455589294,-400000.0625,10798.0302734375,2141.760009765625,-400000.0625,-2356.719970703125,-400000.0625,10167.83984375,-400000.0625
220.75056433677673,-400000.0625,10793.58984375,2129.1298828125,-400000.0625,-2380.89990234375,-400000.0625,10162.400390625,-400000.0625
220.75692176818848,-400000.0625,10774.08984375,2095.889892578125,-400000.0625,-2407.550048828125,-400000.0625,10141.900390625,-400000.0625
220.76273798942566,-400000.0625,10773.08984375,2093.7900390625,-400000.0625,-2394.010009765625,-400000.0625,10147.759765625,-400000.0625
220.7692711353302,-400000.0625,10779.91015625,2112.06005859375,-400000.0625,-2383.89990234375,-400000.0625,10164.259765625,-400000.0625
220.774977684021,-400000.0625,10791.2099609375,2123.02001953125,-400000.0625,-2376.27001953125,-400000.0625,10179.23046875,-400000.0625
220.7823474407196,-400000.0625,10780.5302734375,2106.7099609375,-400000.0625,-2390.530029296875,-400000.0625,10163.6904296875,-400000.0625
220.78871059417725,-400000.0625,10755.2998046875,2086.449951171875,-400000.0625,-2403.8798828125,-400000.0625,10139.5595703125,-400000.0625
220.79420495033264,-400000.0625,10753.16015625,2091.1201171875,-400000.0625,-2397.25,-400000.0625,10143.419921875,-400000.0625
220.8000009059906,-400000.0625,10773.23046875,2113.77001953125,-400000.0625,-2384.85009765625,-400000.0625,10159.1103515625,-400000.0625
220.8060929775238,-400000.0625,10791.400390625,2129.1298828125,-400000.0625,-2375.27001953125,-400000.0625,10162.5498046875,-400000.0625
220.81686663627625,-400000.0625,10780.8603515625,2112.719970703125,-400000.0625,-2379.93994140625,-400000.0625,10143.66015625,-400000.0625
220.82428860664368,-400000.0625,10758.830078125,2091.7900390625,-400000.0625,-2386.669921875,-400000.0625,10122.349609375,-400000.0625
220.82972955703735,-400000.0625,10759.0703125,2097.510009765625,-400000.0625,-2383.760009765625,-400000.0625,10125.58984375,-400000.0625
220.8356738090515,-400000.0625,10776.6201171875,2115.77001953125,-400000.0625,-2373.7900390625,-400000.0625,10141.5595703125,-400000.0625
220.8415503501892,-400000.0625,10790.490234375,2128.840087890625,-400000.0625,-2373.31005859375,-400000.0625,10150.8603515625,-400000.0625
220.8472511768341,-400000.0625,10777.1904296875,2115.35009765625,-400000.0625,-2397.72998046875,-400000.0625,10138.4697265625,-400000.0625
220.8534767627716,-400000.0625,10756.2099609375,2093.4599609375,-400000.0625,-2428.389892578125,-400000.0625,10114.150390625,-400000.0625
220.85909271240234,-400000.0625,10756.9697265625,2096.179931640625,-400000.0625,-2409.27001953125,-400000.0625,10112.6201171875,-400000.0625
220.86427116394043,-400000.0625,10777.0,2116.300048828125,-400000.0625,-2370.8798828125,-400000.0625,10127.6904296875,-400000.0625
220.8702380657196,-400000.0625,10790.5400390625,2129.030029296875,-400000.0625,-2355.47998046875,-400000.0625,10134.3603515625,-400000.0625
220.87592387199402,-400000.0625,10772.4697265625,2112.010009765625,-400000.0625,-2376.510009765625,-400000.0625,10115.099609375,-400000.0625
220.88121390342712,-400000.0625,10754.2998046875,2095.75,-400000.0625,-2393.530029296875,-400000.0625,10093.8798828125,-400000.0625
220.88746976852417,-400000.0625,10761.3095703125,2105.760009765625,-400000.0625,-2387.7099609375,-400000.0625,10096.98046875,-400000.0625
220.89376974105835,-400000.0625,10777.669921875,2125.219970703125,-400000.0625,-2369.02001953125,-400000.0625,10112.9501953125,-400000.0625
220.90026688575745,-400000.0625,10790.6396484375,2138.3798828125,-400000.0625,-2360.6298828125,-400000.0625,10117.5302734375,-400000.0625
220.9066662788391,-400000.0625,10774.1396484375,2123.39990234375,-400000.0625,-2382.989990234375,-400000.0625,10101.1298828125,-400000.0625
220.9182050228119,-400000.0625,10753.3896484375,2101.800048828125,-400000.0625,-2411.7900390625,-400000.0625,10080.7197265625,-400000.0625
220.92396450042725,-400000.0625,10756.4501953125,2101.3701171875,-400000.0625,-2412.3701171875,-400000.0625,10077.48046875,-400000.0625
220.9291229248047,-400000.0625,10770.509765625,2117.8701171875,-400000.0625,-2384.7099609375,-400000.0625,10090.8798828125,-400000.0625
220.93467545509338,-400000.0625,10783.76953125,2131.800048828125,-400000.0625,-2355.6201171875,-400000.0625,10098.41015625,-400000.0625
220.94316029548645,-400000.0625,10770.849609375,2118.06005859375,-400000.0625,-2368.5,-400000.0625,10080.6201171875,-400000.0625
220.94859051704407,-400000.0625,10749.099609375,2097.179931640625,-400000.0625,-2404.7900390625,-400000.0625,10058.9296875,-400000.0625
220.95465540885925,-400000.0625,10749.9599609375,2099.93994140625,-400000.0625,-2391.199951171875,-400000.0625,10057.830078125,-400000.0625
220.96003770828247,-400000.0625,10771.900390625,2121.35009765625,-400000.0625,-2373.889892578125,-400000.0625,10075.7099609375,-400000.0625
220.9651358127594,-400000.0625,10792.6396484375,2141.18994140625,-400000.0625,-2375.699951171875,-400000.0625,10084.33984375,-400000.0625
220.97119617462158,-400000.0625,10771.7099609375,2126.8798828125,-400000.0625,-2383.280029296875,-400000.0625,10065.9404296875,-400000.0625
220.97664618492126,-400000.0625,10743.7099609375,2098.889892578125,-400000.0625,-2396.919921875,-400000.0625,10034.7099609375,-400000.0625
220.98204922676086,-400000.0625,10742.669921875,2100.610107421875,-400000.0625,-2380.510009765625,-400000.0625,10030.650390625,-400000.0625
220.98823833465576,-400000.0625,10756.9697265625,2122.590087890625,-400000.0625,-2359.010009765625,-400000.0625,10046.099609375,-400000.0625
220.99353313446045,-400000.0625,10768.8896484375,2141.860107421875,-400000.0625,-2356.820068359375,-400000.0625,10061.169921875,-400000.0625
220.99932289123535,-400000.0625,10762.83984375,2126.550048828125,-400000.0625,-2384.280029296875,-400000.0625,10054.490234375,-400000.0625
221.00861859321594,-400000.0625,10749.8701171875,2099.989990234375,-400000.0625,-2408.840087890625,-400000.0625,10040.1396484375,-400000.0625
221.0199167728424,-400000.0625,10742.330078125,2101.090087890625,-400000.0625,-2397.25,-400000.0625,10038.419921875,-400000.0625
221.02546048164368,-400000.0625,10756.259765625,2119.489990234375,-400000.0625,-2382.52001953125,-400000.0625,10055.830078125,-400000.0625
221.03072953224182,-400000.0625,10758.16015625,2127.60009765625,-400000.0625,-2373.840087890625,-400000.0625,10057.400390625,-400000.0625
221.0368435382843,-400000.0625,10744.48046875,2113.2900390625,-400000.0625,-2385.7099609375,-400000.0625,10035.990234375,-400000.0625
221.04233694076538,-400000.0625,10725.2099609375,2095.27001953125,-400000.0625,-2388.760009765625,-400000.0625,10015.6298828125,-400000.0625
221.04764556884766,-400000.0625,10728.5498046875,2099.469970703125,-400000.0625,-2376.75,-400000.0625,10017.25,-400000.0625
221.05497026443481,-400000.0625,10754.73046875,2122.449951171875,-400000.0625,-2365.8798828125,-400000.0625,10034.509765625,-400000.0625
221.06349778175354,-400000.0625,10771.2802734375,2140.52001953125,-400000.0625,-2347.469970703125,-400000.0625,10043.0498046875,-400000.0625
221.07090520858765,-400000.0625,10750.490234375,2125.219970703125,-400000.0625,-2366.159912109375,-400000.0625,10025.41015625,-400000.0625
221.07733011245728,-400000.0625,10725.3095703125,2098.0400390625,-400000.0625,-2395.340087890625,-400000.0625,10003.23046875,-400000.0625
221.089191198349,-400000.0625,10721.6396484375,2095.4599609375,-400000.0625,-2392.47998046875,-400000.0625,9995.1298828125,-400000.0625
221.09925413131714,-400000.0625,10741.2802734375,2114.199951171875,-400000.0625,-2375.27001953125,-400000.0625,10007.48046875,-400000.0625
221.10886335372925,-400000.0625,10757.9697265625,2129.699951171875,-400000.0625,-2368.550048828125,-400000.0625,10023.01953125,-400000.0625
221.1313784122467,-400000.0625,10746.0,2119.159912109375,-400000.0625,-2374.360107421875,-400000.0625,10008.91015625,-400000.0625
221.14578938484192,-400000.0625,10719.4404296875,2096.4599609375,-400000.0625,-2377.3701171875,-400000.0625,9982.400390625,-400000.0625
221.1560115814209,-400000.0625,10719.58984375,2096.699951171875,-400000.0625,-2375.4599609375,-400000.0625,9984.58984375,-400000.0625
221.16466546058655,-400000.0625,10741.759765625,2116.6298828125,-400000.0625,-2370.070068359375,-400000.0625,9999.2802734375,-400000.0625
221.1768295764923,-400000.0625,10756.5400390625,2135.280029296875,-400000.0625,-2368.159912109375,-400000.0625,10012.0595703125,-400000.0625
221.18630051612854,-400000.0625,10739.9501953125,2119.449951171875,-400000.0625,-2377.800048828125,-400000.0625,9997.990234375,-400000.0625
221.1959092617035,-400000.0625,10706.5703125,2092.739990234375,-400000.0625,-2403.68994140625,-400000.0625,9967.6103515625,-400000.0625
221.2065191268921,-400000.0625,10701.6103515625,2095.219970703125,-400000.0625,-2393.2900390625,-400000.0625,9963.419921875,-400000.0625
221.21710896492004,-400000.0625,10731.169921875,2115.06005859375,-400000.0625,-2359.489990234375,-400000.0625,9991.2197265625,-400000.0625
221.24120473861694,-400000.0625,10751.0595703125,2123.639892578125,-400000.0625,-2350.6201171875,-400000.0625,10009.240234375,-400000.0625
221.24777030944824,-400000.0625,10730.3203125,2108.050048828125,-400000.0625,-2371.1201171875,-400000.0625,9996.1298828125,-400000.0625
221.25648641586304,-400000.0625,10714.48046875,2090.260009765625,-400000.0625,-2388.18994140625,-400000.0625,9983.1103515625,-400000.0625
221.26360654830933,-400000.0625,10712.580078125,2094.699951171875,-400000.0625,-2393.77001953125,-400000.0625,9988.1201171875,-400000.0625
221.2745144367218,-400000.0625,10724.830078125,2113.530029296875,-400000.0625,-2377.699951171875,-400000.0625,10003.1904296875,-400000.0625
221.2822732925415,-400000.0625,10731.8896484375,2122.780029296875,-400000.0625,-2360.14990234375,-400000.0625,10011.7197265625,-400000.0625
221.29384398460388,-400000.0625,10724.6904296875,2111.010009765625,-400000.0625,-2366.39990234375,-400000.0625,9995.83984375,-400000.0625
221.3019187450409,-400000.0625,10704.7099609375,2089.2099609375,-400000.0625,-2387.090087890625,-400000.0625,9969.0400390625,-400000.0625
221.3081603050232,-400000.0625,10704.1396484375,2089.1201171875,-400000.0625,-2395.43994140625,-400000.0625,9968.6201171875,-400000.0625
221.31480932235718,-400000.0625,10720.6396484375,2106.330078125,-400000.0625,-2396.199951171875,-400000.0625,9982.2998046875,-400000.0625
221.3210780620575,-400000.0625,10727.0703125,2119.300048828125,-400000.0625,-2372.219970703125,-400000.0625,9993.26953125,-400000.0625
221.33743691444397,-400000.0625,10717.3896484375,2108.760009765625,-400000.0625,-2367.780029296875,-400000.0625,9981.58984375,-400000.0625
221.348450422287,-400000.0625,10701.1298828125,2090.1201171875,-400000.0625,-2386.669921875,-400000.0625,9960.7998046875,-400000.0625
221.35929656028748,-400000.0625,10699.419921875,2090.030029296875,-400000.0625,-2392.010009765625,-400000.0625,9960.75,-400000.0625
221.3687825202942,-400000.0625,10716.6796875,2107.760009765625,-400000.0625,-2371.929931640625,-400000.0625,9977.009765625,-400000.0625
221.37690472602844,-400000.0625,10732.080078125,2122.2099609375,-400000.0625,-2360.6298828125,-400000.0625,9984.5400390625,-400000.0625
221.38624620437622,-400000.0625,10717.73046875,2108.530029296875,-400000.0625,-2374.60009765625,-400000.0625,9962.75,-400000.0625
221.39660096168518,-400000.0625,10690.5,2085.159912109375,-400000.0625,-2398.919921875,-400000.0625,9939.3896484375,-400000.0625
221.40823316574097,-400000.0625,10690.2099609375,2087.35009765625,-400000.0625,-2398.39990234375,-400000.0625,9940.33984375,-400000.0625
221.41735219955444,-400000.0625,10714.099609375,2106.909912109375,-400000.0625,-2380.3701171875,-400000.0625,9959.650390625,-400000.0625
221.4293510913849,-400000.0625,10727.3095703125,2120.070068359375,-400000.0625,-2370.7900390625,-400000.0625,9967.330078125,-400000.0625
221.45026445388794,-400000.0625,10714.33984375,2109.909912109375,-400000.0625,-2376.219970703125,-400000.0625,9953.3603515625,-400000.0625
221.45994067192078,-400000.0625,10701.23046875,2095.64990234375,-400000.0625,-2391.77001953125,-400000.0625,9937.759765625,-400000.0625
221.47162628173828,-400000.0625,10702.4697265625,2094.27001953125,-400000.0625,-2399.110107421875,-400000.0625,9936.48046875,-400000.0625
221.47905111312866,-400000.0625,10708.9501953125,2106.760009765625,-400000.0625,-2390.530029296875,-400000.0625,9947.58984375,-400000.0625
221.48980736732483,-400000.0625,10715.150390625,2115.43994140625,-400000.0625,-2355.389892578125,-400000.0625,9954.41015625,-400000.0625
221.50084495544434,-400000.0625,10707.6201171875,2106.139892578125,-400000.0625,-2358.25,-400000.0625,9943.4404296875,-400000.0625
221.51203155517578,-400000.0625,10687.73046875,2086.449951171875,-400000.0625,-2388.2900390625,-400000.0625,9922.8896484375,-400000.0625
221.52399373054504,-400000.0625,10688.3095703125,2086.2099609375,-400000.0625,-2400.969970703125,-400000.0625,9923.0302734375,-400000.0625
221.536367893219,-400000.0625,10707.3798828125,2104.570068359375,-400000.0625,-2388.909912109375,-400000.0625,9937.5703125,-400000.0625
221.5594630241394,-400000.0625,10720.2099609375,2119.489990234375,-400000.0625,-2370.929931640625,-400000.0625,9950.4501953125,-400000.0625
221.57491493225098,-400000.0625,10706.4296875,2105.89990234375,-400000.0625,-2379.1298828125,-400000.0625,9933.900390625,-400000.0625
221.58759021759033,-400000.0625,10685.25,2085.5,-400000.0625,-2390.669921875,-400000.0625,9907.3896484375,-400000.0625
221.60553312301636,-400000.0625,10684.400390625,2086.969970703125,-400000.0625,-2393.389892578125,-400000.0625,9910.2998046875,-400000.0625
221.6161825656891,-400000.0625,10707.1396484375,2110.10009765625,-400000.0625,-2374.030029296875,-400000.0625,9926.6103515625,-400000.0625
221.6308445930481,-400000.0625,10719.73046875,2120.5400390625,-400000.0625,-2356.820068359375,-400000.0625,9936.669921875,-400000.0625
221.64634728431702,-400000.0625,10706.240234375,2108.3798828125,-400000.0625,-2370.1201171875,-400000.0625,9923.75,-400000.0625
221.70014810562134,-400000.0625,10685.9697265625,2091.31005859375,-400000.0625,-2395.340087890625,-400000.0625,9905.6298828125,-400000.0625
221.72506713867188,-400000.0625,10685.01953125,2091.840087890625,-400000.0625,-2390.3798828125,-400000.0625,9903.8095703125,-400000.0625
221.75076460838318,-400000.0625,10704.3798828125,2109.0,-400000.0625,-2376.800048828125,-400000.0625,9919.4501953125,-400000.0625
221.79165601730347,-400000.0625,10716.5302734375,2122.2099609375,-400000.0625,-2365.300048828125,-400000.0625,9931.990234375,-400000.0625
221.8074131011963,-400000.0625,10702.08984375,2108.340087890625,-400000.0625,-2357.909912109375,-400000.0625,9921.5498046875,-400000.0625
221.82178616523743,-400000.0625,10680.0595703125,2087.639892578125,-400000.0625,-2378.64990234375,-400000.0625,9900.9501953125,-400000.0625
221.84207272529602,-400000.0625,10680.25,2091.219970703125,-400000.0625,-2382.610107421875,-400000.0625,9897.6103515625,-400000.0625
221.85876631736755,-400000.0625,10701.4697265625,2111.719970703125,-400000.0625,-2372.550048828125,-400000.0625,9913.4501953125,-400000.0625
221.88265776634216,-400000.0625,10712.669921875,2124.02001953125,-400000.0625,-2362.6298828125,-400000.0625,9923.4599609375,-400000.0625
221.8974895477295,-400000.0625,10698.080078125,2109.580078125,-400000.0625,-2379.75,-400000.0625,9910.7802734375,-400000.0625
221.9150459766388,-400000.0625,10677.009765625,2089.830078125,-400000.0625,-2388.909912109375,-400000.0625,9887.650390625,-400000.0625
221.93104577064514,-400000.0625,10675.8095703125,2088.739990234375,-400000.0625,-2379.22998046875,-400000.0625,9881.9296875,-400000.0625
221.94514322280884,-400000.0625,10696.599609375,2108.669921875,-400000.0625,-2376.75,-400000.0625,9902.1396484375,-400000.0625
221.95711636543274,-400000.0625,10706.0,2121.929931640625,-400000.0625,-2370.169921875,-400000.0625,9909.490234375,-400000.0625
221.97264337539673,-400000.0625,10690.6396484375,2106.090087890625,-400000.0625,-2371.030029296875,-400000.0625,9892.0400390625,-400000.0625
221.99666166305542,-400000.0625,10671.330078125,2086.1201171875,-400000.0625,-2379.419921875,-400000.0625,9871.9599609375,-400000.0625
222.01097011566162,-400000.0625,10673.330078125,2087.39990234375,-400000.0625,-2378.030029296875,-400000.0625,9872.7197265625,-400000.0625
222.0248885154724,-400000.0625,10690.4501953125,2104.52001953125,-400000.0625,-2370.7900390625,-400000.0625,9887.7001953125,-400000.0625
222.0391709804535,-400000.0625,10704.900390625,2121.639892578125,-400000.0625,-2368.260009765625,-400000.0625,9900.1396484375,-400000.0625
222.05642437934875,-400000.0625,10691.9296875,2108.9599609375,-400000.0625,-2377.889892578125,-400000.0625,9887.83984375,-400000.0625
222.0701220035553,-400000.0625,10668.0400390625,2085.780029296875,-400000.0625,-2389.10009765625,-400000.0625,9867.1904296875,-400000.0625
222.08231472969055,-400000.0625,10669.23046875,2087.2099609375,-400000.0625,-2384.090087890625,-400000.0625,9866.9501953125,-400000.0625
222.11199069023132,-400000.0625,10688.349609375,2107.10009765625,-400000.0625,-2361.06005859375,-400000.0625,9886.3603515625,-400000.0625
222.13181734085083,-400000.0625,10699.9404296875,2120.590087890625,-400000.0625,-2358.10009765625,-400000.0625,9896.1796875,-400000.0625
222.14973664283752,-400000.0625,10683.4404296875,2108.47998046875,-400000.0625,-2364.969970703125,-400000.0625,9884.3095703125,-400000.0625
222.1637363433838,-400000.0625,10666.1796875,2089.5,-400000.0625,-2379.85009765625,-400000.0625,9863.4296875,-400000.0625
222.17801308631897,-400000.0625,10669.51953125,2088.5,-400000.0625,-2379.0400390625,-400000.0625,9864.0498046875,-400000.0625
222.1913115978241,-400000.0625,10686.0703125,2109.0,-400000.0625,-2373.64990234375,-400000.0625,9885.2197265625,-400000.0625
222.21356582641602,-400000.0625,10702.330078125,2123.639892578125,-400000.0625,-2365.5400390625,-400000.0625,9894.75,-400000.0625
222.2274990081787,-400000.0625,10687.7802734375,2111.389892578125,-400000.0625,-2364.35009765625,-400000.0625,9879.01953125,-400000.0625
222.24320673942566,-400000.0625,10665.3203125,2091.929931640625,-400000.0625,-2374.409912109375,-400000.0625,9856.75,-400000.0625
222.25745463371277,-400000.0625,10668.4697265625,2093.889892578125,-400000.0625,-2376.320068359375,-400000.0625,9858.2802734375,-400000.0625
222.27106928825378,-400000.0625,10687.400390625,2112.719970703125,-400000.0625,-2379.22998046875,-400000.0625,9876.400390625,-400000.0625
222.28051805496216,-400000.0625,10700.990234375,2122.969970703125,-400000.0625,-2363.159912109375,-400000.0625,9882.9296875,-400000.0625
222.29234766960144,-400000.0625,10688.2099609375,2110.429931640625,-400000.0625,-2348.610107421875,-400000.0625,9867.7197265625,-400000.0625
222.31298398971558,-400000.0625,10665.4697265625,2090.840087890625,-400000.0625,-2363.159912109375,-400000.0625,9846.349609375,-400000.0625
222.32339572906494,-400000.0625,10668.419921875,2092.840087890625,-400000.0625,-2373.27001953125,-400000.0625,9843.490234375,-400000.0625
222.33367919921875,-400000.0625,10687.2998046875,2115.389892578125,-400000.0625,-2360.110107421875,-400000.0625,9862.66015625,-400000.0625
222.34421563148499,-400000.0625,10699.849609375,2129.840087890625,-400000.0625,-2350.7099609375,-400000.0625,9875.009765625,-400000.0625
222.35718154907227,-400000.0625,10690.830078125,2119.449951171875,-400000.0625,-2371.409912109375,-400000.0625,9863.23046875,-400000.0625
222.36726927757263,-400000.0625,10667.2802734375,2098.3701171875,-400000.0625,-2395.010009765625,-400000.0625,9838.33984375,-400000.0625
222.37934684753418,-400000.0625,10661.650390625,2094.75,-400000.0625,-2378.989990234375,-400000.0625,9834.6201171875,-400000.0625
222.39214491844177,-400000.0625,10678.48046875,2109.239990234375,-400000.0625,-2350.239990234375,-400000.0625,9852.4599609375,-400000.0625
222.40364861488342,-400000.0625,10687.0703125,2120.2099609375,-400000.0625,-2347.330078125,-400000.0625,9865.1396484375,-400000.0625
222.4238178730011,-400000.0625,10668.5703125,2104.7099609375,-400000.0625,-2373.7900390625,-400000.0625,9849.6904296875,-400000.0625
222.4327416419983,-400000.0625,10656.01953125,2087.070068359375,-400000.0625,-2387.139892578125,-400000.0625,9818.7900390625,-400000.0625
222.4465389251709,-400000.0625,10671.51953125,2096.64990234375,-400000.0625,-2361.25,-400000.0625,9809.1103515625,-400000.0625
222.4584858417511,-400000.0625,10693.0302734375,2118.02001953125,-400000.0625,-2347.0400390625,-400000.0625,9821.7001953125,-400000.0625
222.47045254707336,-400000.0625,10705.849609375,2135.800048828125,-400000.0625,-2341.56005859375,-400000.0625,9833.3798828125,-400000.0625
222.47964906692505,-400000.0625,10697.0302734375,2125.97998046875,-400000.0625,-2356.9599609375,-400000.0625,9816.650390625,-400000.0625
222.49095273017883,-400000.0625,10672.1396484375,2102.89990234375,-400000.0625,-2382.0400390625,-400000.0625,9790.990234375,-400000.0625
222.50783610343933,-400000.0625,10671.5703125,2101.85009765625,-400000.0625,-2376.219970703125,-400000.0625,9788.3203125,-400000.0625
222.52751421928406,-400000.0625,10689.6396484375,2116.35009765625,-400000.0625,-2354.239990234375,-400000.0625,9805.3896484375,-400000.0625
222.54276704788208,-400000.0625,10698.7001953125,2128.27001953125,-400000.0625,-2352.52001953125,-400000.0625,9810.5,-400000.0625
222.55428981781006,-400000.0625,10689.3095703125,2118.39990234375,-400000.0625,-2366.72998046875,-400000.0625,9792.66015625,-400000.0625
222.56617832183838,-400000.0625,10665.3701171875,2097.800048828125,-400000.0625,-2384.090087890625,-400000.0625,9771.5400390625,-400000.0625
222.5824704170227,-400000.0625,10663.1796875,2097.030029296875,-400000.0625,-2384.52001953125,-400000.0625,9771.8701171875,-400000.0625
222.60148406028748,-400000.0625,10682.5400390625,2113.10009765625,-400000.0625,-2354.9599609375,-400000.0625,9788.6103515625,-400000.0625
222.6117205619812,-400000.0625,10699.080078125,2130.93994140625,-400000.0625,-2332.31005859375,-400000.0625,9801.6796875,-400000.0625
222.64275121688843,-400000.0625,10682.2998046875,2117.489990234375,-400000.0625,-2341.989990234375,-400000.0625,9784.7001953125,-400000.0625
222.6579623222351,-400000.0625,10662.3701171875,2097.320068359375,-400000.0625,-2360.199951171875,-400000.0625,9763.1904296875,-400000.0625
222.67306303977966,-400000.0625,10662.7998046875,2100.7099609375,-400000.0625,-2370.68994140625,-400000.0625,9765.8603515625,-400000.0625
222.6906361579895,-400000.0625,10677.91015625,2115.969970703125,-400000.0625,-2377.889892578125,-400000.0625,9787.6103515625,-400000.0625
222.70639777183533,-400000.0625,10688.9697265625,2129.75,-400000.0625,-2363.5400390625,-400000.0625,9798.9599609375,-400000.0625
222.71909523010254,-400000.0625,10675.669921875,2118.02001953125,-400000.0625,-2361.25,-400000.0625,9782.8896484375,-400000.0625
222.7498002052307,-400000.0625,10657.599609375,2099.89990234375,-400000.0625,-2373.739990234375,-400000.0625,9762.33984375,-400000.0625
222.7670602798462,-400000.0625,10659.1201171875,2101.85009765625,-400000.0625,-2366.110107421875,-400000.0625,9761.9501953125,-400000.0625
222.78342413902283,-400000.0625,10677.6298828125,2122.31005859375,-400000.0625,-2351.81005859375,-400000.0625,9776.259765625,-400000.0625
222.80013823509216,-400000.0625,10690.3603515625,2136.800048828125,-400000.0625,-2346.949951171875,-400000.0625,9788.23046875,-400000.0625
222.81341433525085,-400000.0625,10677.4296875,2125.5,-400000.0625,-2359.25,-400000.0625,9775.349609375,-400000.0625
222.82685613632202,-400000.0625,10658.2197265625,2106.239990234375,-400000.0625,-2379.510009765625,-400000.0625,9752.5595703125,-400000.0625
222.85014963150024,-400000.0625,10653.8798828125,2102.469970703125,-400000.0625,-2382.330078125,-400000.0625,9751.9404296875,-400000.0625
222.86064624786377,-400000.0625,10674.3798828125,2124.929931640625,-400000.0625,-2360.14990234375,-400000.0625,9770.6796875,-400000.0625
222.87298822402954,-400000.0625,10691.98046875,2142.239990234375,-400000.0625,-2339.409912109375,-400000.0625,9785.3203125,-400000.0625
222.8859839439392,-400000.0625,10678.48046875,2127.4599609375,-400000.0625,-2351.81005859375,-400000.0625,9771.25,-400000.0625
222.89579248428345,-400000.0625,10648.8701171875,2099.699951171875,-400000.0625,-2389.050048828125,-400000.0625,9743.01953125,-400000.0625
222.9114499092102,-400000.0625,10649.919921875,2100.659912109375,-400000.0625,-2381.179931640625,-400000.0625,9736.4404296875,-400000.0625
222.92300581932068,-400000.0625,10667.1298828125,2119.5400390625,-400000.0625,-2346.22998046875,-400000.0625,9754.2802734375,-400000.0625
222.93757915496826,-400000.0625,10680.9599609375,2132.56005859375,-400000.0625,-2334.449951171875,-400000.0625,9768.580078125,-400000.0625
222.96139216423035,-400000.0625,10667.990234375,2118.25,-400000.0625,-2358.199951171875,-400000.0625,9753.4697265625,-400000.0625
222.97410225868225,-400000.0625,10644.91015625,2094.64990234375,-400000.0625,-2387.52001953125,-400000.0625,9734.919921875,-400000.0625
222.98925709724426,-400000.0625,10645.8701171875,2094.699951171875,-400000.0625,-2372.169921875,-400000.0625,9731.33984375,-400000.0625
222.99707126617432,-400000.0625,10663.83984375,2116.969970703125,-400000.0625,-2342.840087890625,-400000.0625,9748.3603515625,-400000.0625
223.0076880455017,-400000.0625,10676.099609375,2130.699951171875,-400000.0625,-2345.93994140625,-400000.0625,9757.6201171875,-400000.0625
223.01689386367798,-400000.0625,10661.080078125,2117.35009765625,-400000.0625,-2371.8798828125,-400000.0625,9744.41015625,-400000.0625
223.02458691596985,-400000.0625,10635.7099609375,2092.219970703125,-400000.0625,-2388.909912109375,-400000.0625,9721.9501953125,-400000.0625
223.0327112674713,-400000.0625,10635.0,2090.5,-400000.0625,-2375.64990234375,-400000.0625,9718.75,-400000.0625
223.04493856430054,-400000.0625,10654.740234375,2112.43994140625,-400000.0625,-2359.010009765625,-400000.0625,9735.1103515625,-400000.0625
223.06635737419128,-400000.0625,10669.9501953125,2128.320068359375,-400000.0625,-2347.7099609375,-400000.0625,9747.98046875,-400000.0625
223.08041763305664,-400000.0625,10657.740234375,2117.6298828125,-400000.0625,-2354.47998046875,-400000.0625,9734.150390625,-400000.0625
223.092205286026,-400000.0625,10637.240234375,2096.4599609375,-400000.0625,-2375.409912109375,-400000.0625,9708.9296875,-400000.0625
223.1016833782196,-400000.0625,10636.0400390625,2095.3701171875,-400000.0625,-2385.090087890625,-400000.0625,9710.83984375,-400000.0625
223.11085176467896,-400000.0625,10657.0302734375,2115.6298828125,-400000.0625,-2364.72998046875,-400000.0625,9730.240234375,-400000.0625
223.1219139099121,-400000.0625,10669.759765625,2133.800048828125,-400000.0625,-2356.820068359375,-400000.0625,9741.3603515625,-400000.0625
223.12912154197693,-400000.0625,10655.3095703125,2118.72998046875,-400000.0625,-2363.969970703125,-400000.0625,9727.6201171875,-400000.0625
223.14180517196655,-400000.0625,10634.6103515625,2098.419921875,-400000.0625,-2370.449951171875,-400000.0625,9705.4501953125,-400000.0625
223.1506757736206,-400000.0625,10639.5703125,2101.800048828125,-400000.0625,-2382.22998046875,-400000.0625,9709.8798828125,-400000.0625
223.1733500957489,-400000.0625,10658.3603515625,2121.35009765625,-400000.0625,-2376.030029296875,-400000.0625,9724.2802734375,-400000.0625
223.18211603164673,-400000.0625,10667.5595703125,2132.3701171875,-400000.0625,-2354.050048828125,-400000.0625,9735.3896484375,-400000.0625
223.19583582878113,-400000.0625,10656.169921875,2120.300048828125,-400000.0625,-2353.6201171875,-400000.0625,9718.849609375,-400000.0625
223.20917224884033,-400000.0625,10632.7998046875,2098.419921875,-400000.0625,-2374.550048828125,-400000.0625,9696.8701171875,-400000.0625
223.2201690673828,-400000.0625,10631.1796875,2096.1298828125,-400000.0625,-2374.889892578125,-400000.0625,9695.240234375,-400000.0625
223.22709918022156,-400000.0625,10651.2099609375,2114.9599609375,-400000.0625,-2358.06005859375,-400000.0625,9713.4599609375,-400000.0625
223.23964858055115,-400000.0625,10665.990234375,2130.080078125,-400000.0625,-2354.429931640625,-400000.0625,9727.6201171875,-400000.0625
223.25001788139343,-400000.0625,10657.2197265625,2121.070068359375,-400000.0625,-2366.35009765625,-400000.0625,9713.4599609375,-400000.0625
223.25898718833923,-400000.0625,10632.5595703125,2098.699951171875,-400000.0625,-2374.219970703125,-400000.0625,9690.0,-400000.0625
223.27790546417236,-400000.0625,10628.990234375,2098.610107421875,-400000.0625,-2369.2099609375,-400000.0625,9688.8095703125,-400000.0625
223.28736305236816,-400000.0625,10648.3896484375,2114.820068359375,-400000.0625,-2365.35009765625,-400000.0625,9705.58984375,-400000.0625
223.2977430820465,-400000.0625,10661.0302734375,2126.739990234375,-400000.0625,-2370.60009765625,-400000.0625,9721.2802734375,-400000.0625
223.31129360198975,-400000.0625,10644.0595703125,2117.780029296875,-400000.0625,-2383.760009765625,-400000.0625,9709.5498046875,-400000.0625
223.32429885864258,-400000.0625,10627.2197265625,2100.1298828125,-400000.0625,-2382.7099609375,-400000.0625,9684.7998046875,-400000.0625
223.3315670490265,-400000.0625,10623.650390625,2097.27001953125,-400000.0625,-2373.030029296875,-400000.0625,9679.4599609375,-400000.0625
223.342294216156,-400000.0625,10626.7900390625,2117.679931640625,-400000.0625,-2346.22998046875,-400000.0625,9690.1904296875,-400000.0625
223.35387253761292,-400000.0625,10639.1904296875,2134.469970703125,-400000.0625,-2341.030029296875,-400000.0625,9708.8798828125,-400000.0625
223.3618049621582,-400000.0625,10645.150390625,2120.39990234375,-400000.0625,-2364.72998046875,-400000.0625,9702.9697265625,-400000.0625
223.37524151802063,-400000.0625,10625.080078125,2094.56005859375,-400000.0625,-2387.949951171875,-400000.0625,9681.66015625,-400000.0625
223.38186693191528,-400000.0625,10618.349609375,2094.320068359375,-400000.0625,-2382.659912109375,-400000.0625,9684.08984375,-400000.0625
223.39510941505432,-400000.0625,10633.990234375,2116.72998046875,-400000.0625,-2368.070068359375,-400000.0625,9702.400390625,-400000.0625
223.40501356124878,-400000.0625,10645.76953125,2125.219970703125,-400000.0625,-2360.77001953125,-400000.0625,9715.9404296875,-400000.0625
223.416597366333,-400000.0625,10629.23046875,2111.010009765625,-400000.0625,-2375.889892578125,-400000.0625,9701.6796875,-400000.0625
223.4298038482666,-400000.0625,10594.8896484375,2085.35009765625,-400000.0625,-2375.27001953125,-400000.0625,9673.5,-400000.0625
223.44292497634888,-400000.0625,10590.0302734375,2080.5400390625,-400000.0625,-2371.449951171875,-400000.0625,9670.01953125,-400000.0625
223.45445466041565,-400000.0625,10611.919921875,2103.419921875,-400000.0625,-2354.14990234375,-400000.0625,9691.2900390625,-400000.0625
223.46207761764526,-400000.0625,10628.4599609375,2119.02001953125,-400000.0625,-2336.31005859375,-400000.0625,9705.8798828125,-400000.0625
223.48045825958252,-400000.0625,10616.0703125,2106.949951171875,-400000.0625,-2354.47998046875,-400000.0625,9693.4296875,-400000.0625
223.49292373657227,-400000.0625,10595.7998046875,2085.72998046875,-400000.0625,-2373.550048828125,-400000.0625,9670.7802734375,-400000.0625
223.50507521629333,-400000.0625,10592.8896484375,2084.39990234375,-400000.0625,-2371.64990234375,-400000.0625,9667.8701171875,-400000.0625
223.51438069343567,-400000.0625,10608.009765625,2102.800048828125,-400000.0625,-2359.010009765625,-400000.0625,9684.23046875,-400000.0625
223.52561163902283,-400000.0625,10622.3095703125,2115.25,-400000.0625,-2351.239990234375,-400000.0625,9698.76953125,-400000.0625
223.53400492668152,-400000.0625,10614.58984375,2105.469970703125,-400000.0625,-2368.2099609375,-400000.0625,9687.66015625,-400000.0625
223.5449080467224,-400000.0625,10591.990234375,2086.2099609375,-400000.0625,-2393.2900390625,-400000.0625,9662.4404296875,-400000.0625
223.55515789985657,-400000.0625,10591.26953125,2082.969970703125,-400000.0625,-2393.340087890625,-400000.0625,9661.2001953125,-400000.0625
223.56322693824768,-400000.0625,10604.5703125,2100.800048828125,-400000.0625,-2379.510009765625,-400000.0625,9679.2197265625,-400000.0625
223.58040475845337,-400000.0625,10615.9697265625,2114.820068359375,-400000.0625,-2351.47998046875,-400000.0625,9690.240234375,-400000.0625
223.58997416496277,-400000.0625,10608.25,2102.800048828125,-400000.0625,-2349.090087890625,-400000.0625,9679.0302734375,-400000.0625
223.60489177703857,-400000.0625,10587.0302734375,2083.639892578125,-400000.0625,-2371.169921875,-400000.0625,9655.9501953125,-400000.0625
223.61431527137756,-400000.0625,10588.0703125,2085.159912109375,-400000.0625,-2363.43994140625,-400000.0625,9656.3798828125,-400000.0625
223.62157654762268,-400000.0625,10607.3896484375,2102.85009765625,-400000.0625,-2353.6201171875,-400000.0625,9678.509765625,-400000.0625
223.62809348106384,-400000.0625,10623.0302734375,2115.43994140625,-400000.0625,-2350.760009765625,-400000.0625,9688.330078125,-400000.0625
223.6413185596466,-400000.0625,10611.490234375,2102.139892578125,-400000.0625,-2364.72998046875,-400000.0625,9672.98046875,-400000.0625
223.64959120750427,-400000.0625,10589.740234375,2081.780029296875,-400000.0625,-2404.590087890625,-400000.0625,9652.4296875,-400000.0625
223.65655279159546,-400000.0625,10581.58984375,2076.050048828125,-400000.0625,-2407.409912109375,-400000.0625,9652.5703125,-400000.0625
223.6630036830902,-400000.0625,10599.5703125,2098.320068359375,-400000.0625,-2347.56005859375,-400000.0625,9668.259765625,-400000.0625
223.67283153533936,-400000.0625,10617.4501953125,2115.110107421875,-400000.0625,-2326.969970703125,-400000.0625,9684.849609375,-400000.0625
223.6955909729004,-400000.0625,10603.8095703125,2099.280029296875,-400000.0625,-2351.6201171875,-400000.0625,9678.5595703125,-400000.0625
223.7058560848236,-400000.0625,10577.0595703125,2074.429931640625,-400000.0625,-2371.5,-400000.0625,9653.3798828125,-400000.0625
223.71602153778076,-400000.0625,10576.6796875,2076.43994140625,-400000.0625,-2371.409912109375,-400000.0625,9653.759765625,-400000.0625
223.72722101211548,-400000.0625,10591.8896484375,2092.5,-400000.0625,-2353.6201171875,-400000.0625,9677.9404296875,-400000.0625
223.7395339012146,-400000.0625,10609.91015625,2107.570068359375,-400000.0625,-2345.85009765625,-400000.0625,9694.150390625,-400000.0625
223.74724864959717,-400000.0625,10602.330078125,2100.280029296875,-400000.0625,-2373.5,-400000.0625,9687.23046875,-400000.0625
223.76129269599915,-400000.0625,10581.73046875,2077.820068359375,-400000.0625,-2396.919921875,-400000.0625,9666.9697265625,-400000.0625
223.77396249771118,-400000.0625,10573.099609375,2067.7099609375,-400000.0625,-2401.5400390625,-400000.0625,9667.1103515625,-400000.0625
223.79018330574036,-400000.0625,10586.0703125,2085.39990234375,-400000.0625,-2376.75,-400000.0625,9681.419921875,-400000.0625
223.7965214252472,-400000.0625,10598.08984375,2099.179931640625,-400000.0625,-2334.8798828125,-400000.0625,9695.7197265625,-400000.0625
223.80767560005188,-400000.0625,10590.9404296875,2087.02001953125,-400000.0625,-2342.989990234375,-400000.0625,9691.8603515625,-400000.0625
223.81732964515686,-400000.0625,10566.759765625,2066.610107421875,-400000.0625,-2388.860107421875,-400000.0625,9670.740234375,-400000.0625
223.8276071548462,-400000.0625,10567.8603515625,2071.18994140625,-400000.0625,-2382.7099609375,-400000.0625,9671.8798828125,-400000.0625
223.83551001548767,-400000.0625,10587.3603515625,2087.39990234375,-400000.0625,-2352.669921875,-400000.0625,9685.9501953125,-400000.0625
223.8432433605194,-400000.0625,10598.6103515625,2099.3701171875,-400000.0625,-2342.320068359375,-400000.0625,9704.5400390625,-400000.0625
223.8520007133484,-400000.0625,10588.169921875,2087.780029296875,-400000.0625,-2374.1201171875,-400000.0625,9699.6298828125,-400000.0625
223.86120462417603,-400000.0625,10567.330078125,2064.989990234375,-400000.0625,-2396.5400390625,-400000.0625,9678.41015625,-400000.0625
223.87373685836792,-400000.0625,10550.740234375,2048.72998046875,-400000.0625,-2385.860107421875,-400000.0625,9676.3603515625,-400000.0625
223.88576698303223,-400000.0625,10552.0302734375,2061.75,-400000.0625,-2373.080078125,-400000.0625,9690.4296875,-400000.0625
223.90602326393127,-400000.0625,10588.8896484375,2099.0400390625,-400000.0625,-2353.570068359375,-400000.0625,9699.1103515625,-400000.0625
223.9150173664093,-400000.0625,10606.9599609375,2102.330078125,-400000.0625,-2365.2099609375,-400000.0625,9669.01953125,-400000.0625
223.9247486591339,-400000.0625,10585.9296875,2076.050048828125,-400000.0625,-2397.300048828125,-400000.0625,9630.16015625,-400000.0625
223.9321150779724,-400000.0625,10595.5595703125,2083.25,-400000.0625,-2370.550048828125,-400000.0625,9609.41015625,-400000.0625
223.94010376930237,-400000.0625,10630.66015625,2119.2099609375,-400000.0625,-2357.669921875,-400000.0625,9602.7900390625,-400000.0625
223.9506049156189,-400000.0625,10666.3701171875,2144.18994140625,-400000.0625,-2342.64990234375,-400000.0625,9600.5498046875,-400000.0625
223.9613208770752,-400000.0625,10661.4599609375,2138.85009765625,-400000.0625,-2328.780029296875,-400000.0625,9556.7197265625,-400000.0625
223.97334218025208,-400000.0625,10650.1103515625,2129.75,-400000.0625,-2321.530029296875,-400000.0625,9505.080078125,-400000.0625
223.98027682304382,-400000.0625,10672.669921875,2141.2900390625,-400000.0625,-2337.97998046875,-400000.0625,9482.91015625,-400000.0625
223.99092602729797,-400000.0625,10697.5595703125,2168.3701171875,-400000.0625,-2358.9599609375,-400000.0625,9474.1796875,-400000.0625
224.00912761688232,-400000.0625,10730.9404296875,2201.219970703125,-400000.0625,-2297.830078125,-400000.0625,9462.7900390625,-400000.0625
224.01592350006104,-400000.0625,10745.2900390625,2205.7099609375,-400000.0625,-2278.81005859375,-400000.0625,9426.58984375,-400000.0625
224.02677273750305,-400000.0625,10735.3701171875,2199.080078125,-400000.0625,-2306.080078125,-400000.0625,9379.33984375,-400000.0625
224.0360643863678,-400000.0625,10746.4296875,2216.6298828125,-400000.0625,-2312.469970703125,-400000.0625,9359.26953125,-400000.0625
224.046245098114,-400000.0625,10773.849609375,2256.300048828125,-400000.0625,-2309.510009765625,-400000.0625,9354.0703125,-400000.0625
224.0594289302826,-400000.0625,10814.8095703125,2288.06005859375,-400000.0625,-2286.14990234375,-400000.0625,9348.7802734375,-400000.0625
224.0665740966797,-400000.0625,10818.8203125,2287.199951171875,-400000.0625,-2266.60009765625,-400000.0625,9313.009765625,-400000.0625
224.07607054710388,-400000.0625,10796.740234375,2280.18994140625,-400000.0625,-2295.35009765625,-400000.0625,9272.5302734375,-400000.0625
224.08722639083862,-400000.0625,10811.1396484375,2298.739990234375,-400000.0625,-2294.969970703125,-400000.0625,9256.169921875,-400000.0625
224.09754085540771,-400000.0625,10853.240234375,2331.2099609375,-400000.0625,-2278.090087890625,-400000.0625,9253.259765625,-400000.0625
224.11619973182678,-400000.0625,10866.1201171875,2360.530029296875,-400000.0625,-2264.260009765625,-400000.0625,9251.169921875,-400000.0625
224.12739062309265,-400000.0625,10862.1103515625,2368.5,-400000.0625,-2250.2900390625,-400000.0625,9223.6103515625,-400000.0625
224.1442527770996,-400000.0625,10851.240234375,2358.679931640625,-400000.0625,-2264.929931640625,-400000.0625,9183.3095703125,-400000.0625
224.1572608947754,-400000.0625,10865.0703125,2370.31005859375,-400000.0625,-2290.300048828125,-400000.0625,9173.6796875,-400000.0625
224.16790771484375,-400000.0625,10891.6796875,2400.780029296875,-400000.0625,-2325.389892578125,-400000.0625,9188.2197265625,-400000.0625
224.17667269706726,-400000.0625,10880.5703125,2403.449951171875,-400000.0625,-2274.56005859375,-400000.0625,9176.349609375,-400000.0625
224.18898224830627,-400000.0625,10868.5,2395.199951171875,-400000.0625,-2222.489990234375,-400000.0625,9152.1298828125,-400000.0625
224.20232558250427,-400000.0625,10849.4296875,2383.949951171875,-400000.0625,-2241.469970703125,-400000.0625,9128.2900390625,-400000.0625
224.21804571151733,-400000.0625,10846.1904296875,2382.22998046875,-400000.0625,-2267.889892578125,-400000.0625,9124.330078125,-400000.0625
224.2253212928772,-400000.0625,10860.490234375,2398.110107421875,-400000.0625,-2251.14990234375,-400000.0625,9143.0703125,-400000.0625
224.23211789131165,-400000.0625,10871.169921875,2407.4599609375,-400000.0625,-2231.169921875,-400000.0625,9161.3798828125,-400000.0625
224.24209666252136,-400000.0625,10857.2001953125,2395.820068359375,-400000.0625,-2252.050048828125,-400000.0625,9152.2197265625,-400000.0625
224.2516758441925,-400000.0625,10831.6396484375,2371.840087890625,-400000.0625,-2289.199951171875,-400000.0625,9136.25,-400000.0625
224.26065135002136,-400000.0625,10821.5302734375,2365.5400390625,-400000.0625,-2303.60009765625,-400000.0625,9136.73046875,-400000.0625
224.27158212661743,-400000.0625,10835.169921875,2381.75,-400000.0625,-2269.1298828125,-400000.0625,9154.9404296875,-400000.0625
224.28101229667664,-400000.0625,10844.9501953125,2393.06005859375,-400000.0625,-2251.669921875,-400000.0625,9167.9599609375,-400000.0625
224.28970003128052,-400000.0625,10832.98046875,2382.7099609375,-400000.0625,-2266.60009765625,-400000.0625,9158.1396484375,-400000.0625
224.30086159706116,-400000.0625,10799.080078125,2350.280029296875,-400000.0625,-2292.489990234375,-400000.0625,9136.2998046875,-400000.0625
224.31339526176453,-400000.0625,10782.2900390625,2351.81005859375,-400000.0625,-2283.719970703125,-400000.0625,9143.01953125,-400000.0625
224.3311698436737,-400000.0625,10781.669921875,2370.739990234375,-400000.0625,-2261.5,-400000.0625,9171.5302734375,-400000.0625
224.3434281349182,-400000.0625,10788.8203125,2377.080078125,-400000.0625,-2247.669921875,-400000.0625,9178.7802734375,-400000.0625
224.3521339893341,-400000.0625,10752.009765625,2347.56005859375,-400000.0625,-2262.1201171875,-400000.0625,9172.2998046875,-400000.0625
224.3613498210907,-400000.0625,10706.51953125,2324.389892578125,-400000.0625,-2274.56005859375,-400000.0625,9120.4697265625,-400000.0625
224.3679690361023,-400000.0625,10701.08984375,2330.590087890625,-400000.0625,-2269.550048828125,-400000.0625,9084.1796875,-400000.0625
224.37502264976501,-400000.0625,10709.240234375,2323.43994140625,-400000.0625,-2255.9599609375,-400000.0625,9150.650390625,-400000.0625
224.38216376304626,-400000.0625,10677.240234375,2316.52001953125,-400000.0625,-2255.06005859375,-400000.0625,9162.669921875,-400000.0625
224.3922381401062,-400000.0625,10672.240234375,2250.389892578125,-400000.0625,-2250.14990234375,-400000.0625,9176.7802734375,-400000.0625
224.400705575943,-400000.0625,10605.9599609375,2189.449951171875,-400000.0625,-2260.39990234375,-400000.0625,9156.23046875,-400000.0625
224.40773749351501,-400000.0625,10531.08984375,2201.3701171875,-400000.0625,-2261.35009765625,-400000.0625,9143.259765625,-400000.0625
224.4145565032959,-400000.0625,10499.0498046875,2204.610107421875,-400000.0625,-2221.110107421875,-400000.0625,9229.51953125,-400000.0625
224.42671990394592,-400000.0625,10473.919921875,2180.0,-400000.0625,-2205.469970703125,-400000.0625,9314.490234375,-400000.0625
224.44047093391418,-400000.0625,10397.33984375,2150.25,-400000.0625,-2204.1298828125,-400000.0625,9391.0703125,-400000.0625
224.44801330566406,-400000.0625,10395.76953125,2080.35009765625,-400000.0625,-2209.949951171875,-400000.0625,9594.0595703125,-400000.0625
224.45963406562805,-400000.0625,10345.98046875,2106.949951171875,-400000.0625,-2215.340087890625,-400000.0625,9832.5302734375,-400000.0625
224.47217655181885,-400000.0625,10386.2802734375,2127.1201171875,-400000.0625,-2199.169921875,-400000.0625,10142.5703125,-400000.0625
224.48461747169495,-400000.0625,10423.1396484375,2146.050048828125,-400000.0625,-2179.9599609375,-400000.0625,10476.2099609375,-400000.0625
224.49553990364075,-400000.0625,10408.8798828125,2123.739990234375,-400000.0625,-2209.3798828125,-400000.0625,10743.8095703125,-400000.0625
224.50601172447205,-400000.0625,10396.0498046875,2097.3701171875,-400000.0625,-2234.219970703125,-400000.0625,10890.33984375,-400000.0625
224.5128083229065,-400000.0625,10410.1201171875,2097.64990234375,-400000.0625,-2216.050048828125,-400000.0625,10921.48046875,-400000.0625
224.5235345363617,-400000.0625,10435.009765625,2128.080078125,-400000.0625,-2174.429931640625,-400000.0625,10821.6298828125,-400000.0625
224.54535174369812,-400000.0625,10446.3603515625,2144.530029296875,-400000.0625,-2142.3798828125,-400000.0625,10659.41015625,-400000.0625
224.55814218521118,-400000.0625,10441.1103515625,2129.1298828125,-400000.0625,-2130.219970703125,-400000.0625,10473.8203125,-400000.0625
224.57055044174194,-400000.0625,10433.9599609375,2109.81005859375,-400000.0625,-2154.06005859375,-400000.0625,10289.7197265625,-400000.0625
224.57983779907227,-400000.0625,10463.330078125,2120.969970703125,-400000.0625,-2176.3798828125,-400000.0625,10152.25,-400000.0625
224.59206295013428,-400000.0625,10508.73046875,2145.340087890625,-400000.0625,-2186.8701171875,-400000.0625,10039.9501953125,-400000.0625
224.6037368774414,-400000.0625,10512.9296875,2150.35009765625,-400000.0625,-2194.68994140625,-400000.0625,9919.0703125,-400000.0625
224.61288714408875,-400000.0625,10502.8203125,2133.659912109375,-400000.0625,-2186.820068359375,-400000.0625,9803.8203125,-400000.0625
224.62598752975464,-400000.0625,10506.6298828125,2123.929931640625,-400000.0625,-2175.469970703125,-400000.0625,9698.4404296875,-400000.0625
224.64588952064514,-400000.0625,10534.1904296875,2135.800048828125,-400000.0625,-2150.14990234375,-400000.0625,9638.3095703125,-400000.0625
224.65553975105286,-400000.0625,10579.73046875,2164.27001953125,-400000.0625,-2145.820068359375,-400000.0625,9624.150390625,-400000.0625
224.66722440719604,-400000.0625,10593.3203125,2174.0,-400000.0625,-2178.530029296875,-400000.0625,9598.400390625,-400000.0625
224.67689108848572,-400000.0625,10589.0302734375,2162.889892578125,-400000.0625,-2224.590087890625,-400000.0625,9549.4296875,-400000.0625
224.686931848526,-400000.0625,10586.169921875,2140.18994140625,-400000.0625,-2233.27001953125,-400000.0625,9497.41015625,-400000.0625
224.69608116149902,-400000.0625,10597.330078125,2147.580078125,-400000.0625,-2208.52001953125,-400000.0625,9478.9501953125,-400000.0625
224.70451045036316,-400000.0625,10620.740234375,2171.0400390625,-400000.0625,-2207.3701171875,-400000.0625,9479.5703125,-400000.0625
224.7122504711151,-400000.0625,10640.5302734375,2183.389892578125,-400000.0625,-2197.60009765625,-400000.0625,9464.5498046875,-400000.0625
224.72354245185852,-400000.0625,10644.25,2177.669921875,-400000.0625,-2215.340087890625,-400000.0625,9441.0400390625,-400000.0625
224.73178935050964,-400000.0625,10639.9501953125,2167.75,-400000.0625,-2269.360107421875,-400000.0625,9419.16015625,-400000.0625
224.75472164154053,-400000.0625,10654.1201171875,2174.6201171875,-400000.0625,-2282.719970703125,-400000.0625,9410.759765625,-400000.0625
224.7665135860443,-400000.0625,10682.1103515625,2199.409912109375,-400000.0625,-2254.820068359375,-400000.0625,9425.0703125,-400000.0625
224.77353930473328,-400000.0625,10702.7998046875,2220.110107421875,-400000.0625,-2231.97998046875,-400000.0625,9431.5498046875,-400000.0625
224.785409450531,-400000.0625,10696.83984375,2214.9599609375,-400000.0625,-2239.659912109375,-400000.0625,9411.33984375,-400000.0625
224.79800295829773,-400000.0625,10681.9599609375,2198.31005859375,-400000.0625,-2268.929931640625,-400000.0625,9388.8798828125,-400000.0625
224.81008982658386,-400000.0625,10685.5400390625,2202.419921875,-400000.0625,-2281.52001953125,-400000.0625,9390.16015625,-400000.0625
224.82349848747253,-400000.0625,10715.2001953125,2230.68994140625,-400000.0625,-2268.510009765625,-400000.0625,9406.3798828125,-400000.0625
224.8310511112213,-400000.0625,10734.990234375,2249.2900390625,-400000.0625,-2263.8798828125,-400000.0625,9416.6298828125,-400000.0625
224.83811259269714,-400000.0625,10733.6103515625,2245.570068359375,-400000.0625,-2289.719970703125,-400000.0625,9402.5595703125,-400000.0625
224.86153984069824,-400000.0625,10717.2998046875,2227.2099609375,-400000.0625,-2320.239990234375,-400000.0625,9380.580078125,-400000.0625
224.87463355064392,-400000.0625,10720.1103515625,2230.449951171875,-400000.0625,-2321.199951171875,-400000.0625,9377.0498046875,-400000.0625
224.89131498336792,-400000.0625,10744.0,2256.43994140625,-400000.0625,-2282.10009765625,-400000.0625,9390.0703125,-400000.0625
