time,ch1,ch2,ch3,ch4,ch5,ch6,ch7,ch8
139.96337580680847,-400000.0625,-2340.409912109375,2566.389892578125,-400000.0625,-3300.669921875,-400000.0625,3131.340087890625,-400000.0625
139.9759111404419,-400000.0625,-2299.5,2608.25,-400000.0625,-3265.719970703125,-400000.0625,3169.580078125,-400000.0625
139.98795437812805,-400000.0625,-2298.590087890625,2609.919921875,-400000.0625,-3267.669921875,-400000.0625,3171.8701171875,-400000.0625
139.99701356887817,-400000.0625,-2335.360107421875,2568.669921875,-400000.0625,-3302.719970703125,-400000.0625,3133.919921875,-400000.0625
140.01031160354614,-400000.0625,-2363.590087890625,2545.070068359375,-400000.0625,-3316.260009765625,-400000.0625,3106.7900390625,-400000.0625
140.02127766609192,-400000.0625,-2341.840087890625,2571.199951171875,-400000.0625,-3294.090087890625,-400000.0625,3130.25,-400000.0625
140.0315113067627,-400000.0625,-2299.360107421875,2609.919921875,-400000.0625,-3262.280029296875,-400000.0625,3173.260009765625,-400000.0625
140.04563450813293,-400000.0625,-2300.7900390625,2606.489990234375,-400000.0625,-3270.820068359375,-400000.0625,3172.159912109375,-400000.0625
140.06368231773376,-400000.0625,-2340.56005859375,2567.429931640625,-400000.0625,-3303.47998046875,-400000.0625,3130.9599609375,-400000.0625
140.0758821964264,-400000.0625,-2370.929931640625,2540.02001953125,-400000.0625,-3317.929931640625,-400000.0625,3109.1201171875,-400000.0625
140.08480787277222,-400000.0625,-2349.18994140625,2561.760009765625,-400000.0625,-3304.429931640625,-400000.0625,3128.199951171875,-400000.0625
140.09861087799072,-400000.0625,-2305.97998046875,2601.429931640625,-400000.0625,-3272.719970703125,-400000.0625,3164.389892578125,-400000.0625
140.11025857925415,-400000.0625,-2302.60009765625,2606.110107421875,-400000.0625,-3265.3798828125,-400000.0625,3166.77001953125,-400000.0625
140.1189124584198,-400000.0625,-2340.27001953125,2567.580078125,-400000.0625,-3295.469970703125,-400000.0625,3128.820068359375,-400000.0625
140.12979865074158,-400000.0625,-2366.110107421875,2542.260009765625,-400000.0625,-3314.780029296875,-400000.0625,3107.2099609375,-400000.0625
140.14067006111145,-400000.0625,-2337.7900390625,2569.25,-400000.0625,-3291.85009765625,-400000.0625,3130.6298828125,-400000.0625
140.14890098571777,-400000.0625,-2300.639892578125,2605.06005859375,-400000.0625,-3263.659912109375,-400000.0625,3166.8701171875,-400000.0625
140.17033767700195,-400000.0625,-2308.4599609375,2601.2900390625,-400000.0625,-3267.3798828125,-400000.0625,3166.43994140625,-400000.0625
140.17959308624268,-400000.0625,-2344.85009765625,2564.139892578125,-400000.0625,-3304.14990234375,-400000.0625,3129.669921875,-400000.0625
140.18907070159912,-400000.0625,-2366.159912109375,2541.72998046875,-400000.0625,-3320.5,-400000.0625,3102.02001953125,-400000.0625
140.19798946380615,-400000.0625,-2345.1298828125,2560.7099609375,-400000.0625,-3303.47998046875,-400000.0625,3121.469970703125,-400000.0625
140.2075662612915,-400000.0625,-2307.64990234375,2600.909912109375,-400000.0625,-3269.719970703125,-400000.0625,3161.860107421875,-400000.0625
140.21470189094543,-400000.0625,-2306.409912109375,2604.340087890625,-400000.0625,-3263.6201171875,-400000.0625,3170.8701171875,-400000.0625
140.2247724533081,-400000.0625,-2341.3701171875,2569.909912109375,-400000.0625,-3293.0400390625,-400000.0625,3129.14990234375,-400000.0625
140.23635482788086,-400000.0625,-2370.7900390625,2542.639892578125,-400000.0625,-3315.969970703125,-400000.0625,3098.679931640625,-400000.0625
140.24662804603577,-400000.0625,-2348.179931640625,2564.18994140625,-400000.0625,-3296.469970703125,-400000.0625,3121.659912109375,-400000.0625
140.25645685195923,-400000.0625,-2306.510009765625,2604.43994140625,-400000.0625,-3272.9599609375,-400000.0625,3162.81005859375,-400000.0625
140.2736301422119,-400000.0625,-2303.409912109375,2606.199951171875,-400000.0625,-3269.719970703125,-400000.0625,3165.8701171875,-400000.0625
140.28139352798462,-400000.0625,-2343.419921875,2565.77001953125,-400000.0625,-3300.18994140625,-400000.0625,3126.81005859375,-400000.0625
140.28964281082153,-400000.0625,-2373.31005859375,2538.489990234375,-400000.0625,-3315.260009765625,-400000.0625,3096.199951171875,-400000.0625
140.2970130443573,-400000.0625,-2348.0400390625,2564.719970703125,-400000.0625,-3291.320068359375,-400000.0625,3122.7099609375,-400000.0625
140.30711340904236,-400000.0625,-2308.4599609375,2603.25,-400000.0625,-3263.89990234375,-400000.0625,3162.340087890625,-400000.0625
140.31532263755798,-400000.0625,-2308.610107421875,2605.25,-400000.0625,-3264.3798828125,-400000.0625,3163.199951171875,-400000.0625
140.32535815238953,-400000.0625,-2351.949951171875,2562.139892578125,-400000.0625,-3300.860107421875,-400000.0625,3120.85009765625,-400000.0625
140.33277773857117,-400000.0625,-2375.699951171875,2538.199951171875,-400000.0625,-3327.27001953125,-400000.0625,3096.10009765625,-400000.0625
140.34396982192993,-400000.0625,-2348.22998046875,2563.2900390625,-400000.0625,-3302.18994140625,-400000.0625,3118.7099609375,-400000.0625
140.35296249389648,-400000.0625,-2312.090087890625,2602.389892578125,-400000.0625,-3269.530029296875,-400000.0625,3162.2900390625,-400000.0625
140.36087894439697,-400000.0625,-2307.93994140625,2608.679931640625,-400000.0625,-3263.18994140625,-400000.0625,3165.8701171875,-400000.0625
140.37660479545593,-400000.0625,-2341.840087890625,2571.06005859375,-400000.0625,-3291.3701171875,-400000.0625,3126.760009765625,-400000.0625
140.38352870941162,-400000.0625,-2375.699951171875,2540.449951171875,-400000.0625,-3314.780029296875,-400000.0625,3097.820068359375,-400000.0625
140.39380526542664,-400000.0625,-2352.52001953125,2564.860107421875,-400000.0625,-3301.530029296875,-400000.0625,3120.280029296875,-400000.0625
140.40175557136536,-400000.0625,-2312.469970703125,2604.25,-400000.0625,-3273.06005859375,-400000.0625,3162.530029296875,-400000.0625
140.41160535812378,-400000.0625,-2306.840087890625,2607.489990234375,-400000.0625,-3272.389892578125,-400000.0625,3162.719970703125,-400000.0625
140.4219515323639,-400000.0625,-2348.469970703125,2569.2900390625,-400000.0625,-3300.949951171875,-400000.0625,3119.85009765625,-400000.0625
140.43038964271545,-400000.0625,-2375.1298828125,2543.02001953125,-400000.0625,-3315.5400390625,-400000.0625,3096.06005859375,-400000.0625
140.44083952903748,-400000.0625,-2348.469970703125,2569.389892578125,-400000.0625,-3292.080078125,-400000.0625,3120.330078125,-400000.0625
140.44784474372864,-400000.0625,-2310.0400390625,2608.010009765625,-400000.0625,-3263.090087890625,-400000.0625,3155.85009765625,-400000.0625
140.4565646648407,-400000.0625,-2310.800048828125,2606.5400390625,-400000.0625,-3263.949951171875,-400000.0625,3155.52001953125,-400000.0625
140.463764667511,-400000.0625,-2348.330078125,2571.199951171875,-400000.0625,-3289.889892578125,-400000.0625,3121.18994140625,-400000.0625
140.47957515716553,-400000.0625,-2371.31005859375,2545.8798828125,-400000.0625,-3313.489990234375,-400000.0625,3093.719970703125,-400000.0625
140.48860812187195,-400000.0625,-2342.889892578125,2570.919921875,-400000.0625,-3298.469970703125,-400000.0625,3120.469970703125,-400000.0625
140.49709177017212,-400000.0625,-2303.080078125,2614.68994140625,-400000.0625,-3263.0400390625,-400000.0625,3163.9599609375,-400000.0625
140.50887846946716,-400000.0625,-2304.360107421875,2613.830078125,-400000.0625,-3264.050048828125,-400000.0625,3165.9599609375,-400000.0625
140.5183141231537,-400000.0625,-2342.64990234375,2573.5400390625,-400000.0625,-3294.330078125,-400000.0625,3123.860107421875,-400000.0625
140.52881145477295,-400000.0625,-2369.360107421875,2549.1201171875,-400000.0625,-3309.300048828125,-400000.0625,3100.43994140625,-400000.0625
140.54292917251587,-400000.0625,-2347.139892578125,2571.77001953125,-400000.0625,-3294.800048828125,-400000.0625,3122.330078125,-400000.0625
140.55701279640198,-400000.0625,-2306.030029296875,2611.2099609375,-400000.0625,-3265.909912109375,-400000.0625,3160.860107421875,-400000.0625
140.56716442108154,-400000.0625,-2303.409912109375,2612.72998046875,-400000.0625,-3266.719970703125,-400000.0625,3164.530029296875,-400000.0625
140.58607172966003,-400000.0625,-2342.3701171875,2573.159912109375,-400000.0625,-3300.050048828125,-400000.0625,3127.239990234375,-400000.0625
140.59686660766602,-400000.0625,-2373.5,2546.449951171875,-400000.0625,-3315.639892578125,-400000.0625,3105.550048828125,-400000.0625
140.60781979560852,-400000.0625,-2347.3701171875,2573.199951171875,-400000.0625,-3292.27001953125,-400000.0625,3126.050048828125,-400000.0625
140.61610054969788,-400000.0625,-2306.56005859375,2611.5400390625,-400000.0625,-3257.85009765625,-400000.0625,3161.6201171875,-400000.0625
140.6286597251892,-400000.0625,-2308.419921875,2611.590087890625,-400000.0625,-3261.52001953125,-400000.0625,3160.2900390625,-400000.0625
140.64457821846008,-400000.0625,-2348.179931640625,2574.010009765625,-400000.0625,-3297.52001953125,-400000.0625,3123.860107421875,-400000.0625
140.6542649269104,-400000.0625,-2368.68994140625,2555.419921875,-400000.0625,-3307.8701171875,-400000.0625,3101.35009765625,-400000.0625
140.66641759872437,-400000.0625,-2345.179931640625,2577.72998046875,-400000.0625,-3292.27001953125,-400000.0625,3121.469970703125,-400000.0625
140.67729663848877,-400000.0625,-2307.64990234375,2611.35009765625,-400000.0625,-3263.0400390625,-400000.0625,3159.47998046875,-400000.0625
140.69656085968018,-400000.0625,-2307.75,2613.590087890625,-400000.0625,-3258.3701171875,-400000.0625,3162.77001953125,-400000.0625
140.70648884773254,-400000.0625,-2347.330078125,2576.5400390625,-400000.0625,-3289.56005859375,-400000.0625,3121.610107421875,-400000.0625
140.71455335617065,-400000.0625,-2374.320068359375,2546.739990234375,-400000.0625,-3318.02001953125,-400000.0625,3090.669921875,-400000.0625
140.7250144481659,-400000.0625,-2346.89990234375,2570.580078125,-400000.0625,-3294.330078125,-400000.0625,3118.419921875,-400000.0625
140.73270225524902,-400000.0625,-2308.4599609375,2613.590087890625,-400000.0625,-3253.64990234375,-400000.0625,3157.81005859375,-400000.0625
140.74258470535278,-400000.0625,-2307.800048828125,2614.780029296875,-400000.0625,-3266.330078125,-400000.0625,3156.18994140625,-400000.0625
140.7502896785736,-400000.0625,-2347.89990234375,2572.72998046875,-400000.0625,-3303.9599609375,-400000.0625,3120.52001953125,-400000.0625
140.76693081855774,-400000.0625,-2373.1201171875,2549.7900390625,-400000.0625,-3314.159912109375,-400000.0625,3095.050048828125,-400000.0625
140.77770233154297,-400000.0625,-2351.090087890625,2575.679931640625,-400000.0625,-3293.93994140625,-400000.0625,3116.1298828125,-400000.0625
140.7932698726654,-400000.0625,-2312.570068359375,2612.639892578125,-400000.0625,-3262.139892578125,-400000.0625,3155.52001953125,-400000.0625
140.80091381072998,-400000.0625,-2313.090087890625,2608.780029296875,-400000.0625,-3261.280029296875,-400000.0625,3151.75,-400000.0625
140.81032037734985,-400000.0625,-2351.949951171875,2573.6298828125,-400000.0625,-3288.219970703125,-400000.0625,3113.60009765625,-400000.0625
140.82205295562744,-400000.0625,-2379.080078125,2547.64990234375,-400000.0625,-3314.919921875,-400000.0625,3088.669921875,-400000.0625
140.82973456382751,-400000.0625,-2350.52001953125,2573.8701171875,-400000.0625,-3291.93994140625,-400000.0625,3116.27001953125,-400000.0625
140.83813452720642,-400000.0625,-2313.419921875,2610.25,-400000.0625,-3262.090087890625,-400000.0625,3154.949951171875,-400000.0625
140.84620928764343,-400000.0625,-2311.469970703125,2609.780029296875,-400000.0625,-3264.18994140625,-400000.0625,3156.3798828125,-400000.0625
140.8574891090393,-400000.0625,-2353.949951171875,2571.25,-400000.0625,-3298.469970703125,-400000.0625,3112.409912109375,-400000.0625
140.86589670181274,-400000.0625,-2381.0400390625,2543.550048828125,-400000.0625,-3316.2099609375,-400000.0625,3087.18994140625,-400000.0625
140.8763439655304,-400000.0625,-2352.760009765625,2569.909912109375,-400000.0625,-3292.1298828125,-400000.0625,3118.800048828125,-400000.0625
140.8851068019867,-400000.0625,-2316.7099609375,2610.639892578125,-400000.0625,-3259.89990234375,-400000.0625,3160.0,-400000.0625
140.90350127220154,-400000.0625,-2315.860107421875,2608.919921875,-400000.0625,-3264.139892578125,-400000.0625,3157.81005859375,-400000.0625
140.91354846954346,-400000.0625,-2352.429931640625,2571.489990234375,-400000.0625,-3300.669921875,-400000.0625,3119.0400390625,-400000.0625
140.92357563972473,-400000.0625,-2380.090087890625,2548.1201171875,-400000.0625,-3315.739990234375,-400000.0625,3093.909912109375,-400000.0625
140.9308090209961,-400000.0625,-2359.43994140625,2564.429931640625,-400000.0625,-3296.52001953125,-400000.0625,3117.22998046875,-400000.0625
140.9394919872284,-400000.0625,-2319.530029296875,2604.43994140625,-400000.0625,-3264.7099609375,-400000.0625,3157.280029296875,-400000.0625
140.950213432312,-400000.0625,-2318.050048828125,2610.489990234375,-400000.0625,-3259.52001953125,-400000.0625,3160.429931640625,-400000.0625
140.96181201934814,-400000.0625,-2353.570068359375,2572.489990234375,-400000.0625,-3295.7099609375,-400000.0625,3123.429931640625,-400000.0625
140.9701018333435,-400000.0625,-2381.3701171875,2541.780029296875,-400000.0625,-3323.169921875,-400000.0625,3094.719970703125,-400000.0625
140.97928595542908,-400000.0625,-2359.820068359375,2566.389892578125,-400000.0625,-3294.89990234375,-400000.0625,3117.320068359375,-400000.0625
140.9905867576599,-400000.0625,-2318.429931640625,2608.43994140625,-400000.0625,-3265.429931640625,-400000.0625,3158.050048828125,-400000.0625
141.01066088676453,-400000.0625,-2317.18994140625,2609.2099609375,-400000.0625,-3270.820068359375,-400000.0625,3157.18994140625,-400000.0625
141.02187705039978,-400000.0625,-2357.530029296875,2568.669921875,-400000.0625,-3301.18994140625,-400000.0625,3116.510009765625,-400000.0625
141.0305254459381,-400000.0625,-2385.3798828125,2541.830078125,-400000.0625,-3317.639892578125,-400000.0625,3089.570068359375,-400000.0625
141.04060316085815,-400000.0625,-2355.429931640625,2568.6298828125,-400000.0625,-3296.0400390625,-400000.0625,3119.85009765625,-400000.0625
141.04926776885986,-400000.0625,-2308.659912109375,2612.300048828125,-400000.0625,-3256.75,-400000.0625,3161.47998046875,-400000.0625
141.06056690216064,-400000.0625,-2310.469970703125,2615.070068359375,-400000.0625,-3256.889892578125,-400000.0625,3157.85009765625,-400000.0625
141.0714771747589,-400000.0625,-2356.0,2572.199951171875,-400000.0625,-3296.610107421875,-400000.0625,3117.469970703125,-400000.0625
141.0816822052002,-400000.0625,-2387.949951171875,2543.159912109375,-400000.0625,-3319.929931640625,-400000.0625,3092.6201171875,-400000.0625
141.09478950500488,-400000.0625,-2359.580078125,2569.14990234375,-400000.0625,-3296.7099609375,-400000.0625,3117.659912109375,-400000.0625
141.11150121688843,-400000.0625,-2318.239990234375,2607.110107421875,-400000.0625,-3266.909912109375,-400000.0625,3155.3701171875,-400000.0625
141.12100458145142,-400000.0625,-2317.6201171875,2607.389892578125,-400000.0625,-3269.010009765625,-400000.0625,3156.89990234375,-400000.0625
141.13022017478943,-400000.0625,-2355.429931640625,2575.2099609375,-400000.0625,-3296.659912109375,-400000.0625,3118.179931640625,-400000.0625
141.1399164199829,-400000.0625,-2382.610107421875,2547.7900390625,-400000.0625,-3315.739990234375,-400000.0625,3090.2900390625,-400000.0625
141.14788126945496,-400000.0625,-2356.14990234375,2572.43994140625,-400000.0625,-3292.3701171875,-400000.0625,3116.610107421875,-400000.0625
141.15885043144226,-400000.0625,-2315.3798828125,2612.449951171875,-400000.0625,-3262.0400390625,-400000.0625,3155.610107421875,-400000.0625
141.16723823547363,-400000.0625,-2321.530029296875,2608.679931640625,-400000.0625,-3264.050048828125,-400000.0625,3158.860107421875,-400000.0625
141.1773853302002,-400000.0625,-2357.239990234375,2571.14990234375,-400000.0625,-3296.949951171875,-400000.0625,3122.0400390625,-400000.0625
141.19121170043945,-400000.0625,-2380.419921875,2546.360107421875,-400000.0625,-3318.1201171875,-400000.0625,3096.389892578125,-400000.0625
141.20314073562622,-400000.0625,-2358.06005859375,2569.8701171875,-400000.0625,-3292.080078125,-400000.0625,3123.669921875,-400000.0625
141.2183802127838,-400000.0625,-2319.050048828125,2607.919921875,-400000.0625,-3261.89990234375,-400000.0625,3160.47998046875,-400000.0625
141.22788548469543,-400000.0625,-2316.949951171875,2608.72998046875,-400000.0625,-3261.659912109375,-400000.0625,3153.989990234375,-400000.0625
141.2362186908722,-400000.0625,-2362.820068359375,2567.010009765625,-400000.0625,-3295.570068359375,-400000.0625,3118.93994140625,-400000.0625
141.2455554008484,-400000.0625,-2383.419921875,2545.449951171875,-400000.0625,-3319.449951171875,-400000.0625,3095.530029296875,-400000.0625
141.25372052192688,-400000.0625,-2352.330078125,2573.6298828125,-400000.0625,-3298.6201171875,-400000.0625,3118.22998046875,-400000.0625
141.26175093650818,-400000.0625,-2315.239990234375,2611.489990234375,-400000.0625,-3267.909912109375,-400000.0625,3159.81005859375,-400000.0625
141.26993799209595,-400000.0625,-2318.3798828125,2609.8701171875,-400000.0625,-3267.2900390625,-400000.0625,3159.330078125,-400000.0625
141.2788302898407,-400000.0625,-2352.52001953125,2574.8701171875,-400000.0625,-3291.320068359375,-400000.0625,3123.090087890625,-400000.0625
141.2876260280609,-400000.0625,-2377.219970703125,2548.889892578125,-400000.0625,-3313.489990234375,-400000.0625,3096.679931640625,-400000.0625
141.29740738868713,-400000.0625,-2357.010009765625,2571.489990234375,-400000.0625,-3299.81005859375,-400000.0625,3116.320068359375,-400000.0625
141.3063361644745,-400000.0625,-2318.570068359375,2610.489990234375,-400000.0625,-3266.330078125,-400000.0625,3158.139892578125,-400000.0625
141.32176446914673,-400000.0625,-2318.10009765625,2609.300048828125,-400000.0625,-3270.010009765625,-400000.0625,3154.419921875,-400000.0625
141.32897114753723,-400000.0625,-2361.35009765625,2567.429931640625,-400000.0625,-3306.340087890625,-400000.0625,3115.699951171875,-400000.0625
141.33985471725464,-400000.0625,-2386.669921875,2543.590087890625,-400000.0625,-3323.56005859375,-400000.0625,3096.820068359375,-400000.0625
141.34803533554077,-400000.0625,-2354.860107421875,2573.590087890625,-400000.0625,-3298.0,-400000.0625,3125.2900390625,-400000.0625
141.35760879516602,-400000.0625,-2307.989990234375,2617.5,-400000.0625,-3260.85009765625,-400000.0625,3163.0,-400000.0625
141.3644678592682,-400000.0625,-2305.169921875,2618.5,-400000.0625,-3259.75,-400000.0625,3163.389892578125,-400000.0625
141.37459468841553,-400000.0625,-2350.3798828125,2578.929931640625,-400000.0625,-3292.3701171875,-400000.0625,3125.52001953125,-400000.0625
141.38185262680054,-400000.0625,-2376.989990234375,2552.179931640625,-400000.0625,-3316.31005859375,-400000.0625,3099.010009765625,-400000.0625
141.39359712600708,-400000.0625,-2353.6201171875,2574.2099609375,-400000.0625,-3306.580078125,-400000.0625,3119.0400390625,-400000.0625
141.40069842338562,-400000.0625,-2311.179931640625,2613.830078125,-400000.0625,-3269.77001953125,-400000.0625,3157.280029296875,-400000.0625
141.4099144935608,-400000.0625,-2316.81005859375,2612.780029296875,-400000.0625,-3270.669921875,-400000.0625,3157.659912109375,-400000.0625
141.4273920059204,-400000.0625,-2354.909912109375,2573.43994140625,-400000.0625,-3299.429931640625,-400000.0625,3119.139892578125,-400000.0625
141.43561100959778,-400000.0625,-2379.320068359375,2551.4599609375,-400000.0625,-3314.780029296875,-400000.0625,3094.719970703125,-400000.0625
141.44526767730713,-400000.0625,-2352.570068359375,2577.72998046875,-400000.0625,-3292.85009765625,-400000.0625,3121.52001953125,-400000.0625
141.4531123638153,-400000.0625,-2313.419921875,2615.360107421875,-400000.0625,-3263.52001953125,-400000.0625,3153.610107421875,-400000.0625
141.46120142936707,-400000.0625,-2315.81005859375,2611.5400390625,-400000.0625,-3268.050048828125,-400000.0625,3152.419921875,-400000.0625
141.4691882133484,-400000.0625,-2358.6298828125,2571.43994140625,-400000.0625,-3298.469970703125,-400000.0625,3115.4599609375,-400000.0625
141.47785305976868,-400000.0625,-2386.3798828125,2546.60009765625,-400000.0625,-3319.360107421875,-400000.0625,3095.580078125,-400000.0625
141.4855146408081,-400000.0625,-2357.77001953125,2572.72998046875,-400000.0625,-3304.669921875,-400000.0625,3117.85009765625,-400000.0625
141.4933569431305,-400000.0625,-2318.0,2614.5,-400000.0625,-3264.669921875,-400000.0625,3157.18994140625,-400000.0625
141.500474691391,-400000.0625,-2321.340087890625,2612.5400390625,-400000.0625,-3267.0,-400000.0625,3155.419921875,-400000.0625
141.51061344146729,-400000.0625,-2358.719970703125,2570.14990234375,-400000.0625,-3301.909912109375,-400000.0625,3115.989990234375,-400000.0625
141.52846908569336,-400000.0625,-2382.330078125,2546.260009765625,-400000.0625,-3322.030029296875,-400000.0625,3093.389892578125,-400000.0625
141.53593039512634,-400000.0625,-2361.969970703125,2569.580078125,-400000.0625,-3299.760009765625,-400000.0625,3120.570068359375,-400000.0625
141.5475778579712,-400000.0625,-2321.14990234375,2613.070068359375,-400000.0625,-3264.7099609375,-400000.0625,3154.949951171875,-400000.0625
141.5567593574524,-400000.0625,-2319.10009765625,2613.639892578125,-400000.0625,-3270.6298828125,-400000.0625,3154.419921875,-400000.0625
141.56421279907227,-400000.0625,-2360.010009765625,2573.919921875,-400000.0625,-3307.389892578125,-400000.0625,3114.75,-400000.0625
141.5731110572815,-400000.0625,-2380.93994140625,2549.60009765625,-400000.0625,-3323.75,-400000.0625,3091.760009765625,-400000.0625
141.58073258399963,-400000.0625,-2357.77001953125,2574.35009765625,-400000.0625,-3294.85009765625,-400000.0625,3122.85009765625,-400000.0625
141.58925199508667,-400000.0625,-2314.469970703125,2615.169921875,-400000.0625,-3266.2900390625,-400000.0625,3156.81005859375,-400000.0625
141.597820520401,-400000.0625,-2321.909912109375,2612.159912109375,-400000.0625,-3272.010009765625,-400000.0625,3151.320068359375,-400000.0625
141.607675075531,-400000.0625,-2361.010009765625,2573.300048828125,-400000.0625,-3301.949951171875,-400000.0625,3115.179931640625,-400000.0625
141.61670923233032,-400000.0625,-2379.699951171875,2550.169921875,-400000.0625,-3314.639892578125,-400000.0625,3087.18994140625,-400000.0625
141.6316921710968,-400000.0625,-2355.530029296875,2574.72998046875,-400000.0625,-3298.81005859375,-400000.0625,3119.0400390625,-400000.0625
141.64465737342834,-400000.0625,-2313.18994140625,2614.590087890625,-400000.0625,-3267.3798828125,-400000.0625,3157.330078125,-400000.0625
141.65324091911316,-400000.0625,-2314.760009765625,2614.31005859375,-400000.0625,-3268.340087890625,-400000.0625,3150.840087890625,-400000.0625
141.66123342514038,-400000.0625,-2353.0,2582.97998046875,-400000.0625,-3295.7099609375,-400000.0625,3113.409912109375,-400000.0625
141.6681890487671,-400000.0625,-2378.889892578125,2556.469970703125,-400000.0625,-3315.5,-400000.0625,3092.239990234375,-400000.0625
141.67798972129822,-400000.0625,-2354.570068359375,2575.8701171875,-400000.0625,-3301.429931640625,-400000.0625,3119.659912109375,-400000.0625
141.68681502342224,-400000.0625,-2317.330078125,2613.260009765625,-400000.0625,-3268.530029296875,-400000.0625,3156.22998046875,-400000.0625
141.69564485549927,-400000.0625,-2316.090087890625,2614.639892578125,-400000.0625,-3264.6201171875,-400000.0625,3151.800048828125,-400000.0625
141.7063946723938,-400000.0625,-2357.43994140625,2573.010009765625,-400000.0625,-3300.6201171875,-400000.0625,3113.93994140625,-400000.0625
141.71367979049683,-400000.0625,-2379.0400390625,2552.840087890625,-400000.0625,-3322.93994140625,-400000.0625,3090.429931640625,-400000.0625
141.72469353675842,-400000.0625,-2350.89990234375,2580.550048828125,-400000.0625,-3299.429931640625,-400000.0625,3118.93994140625,-400000.0625
141.74026584625244,-400000.0625,-2306.800048828125,2622.27001953125,-400000.0625,-3267.10009765625,-400000.0625,3161.719970703125,-400000.0625
141.74764251708984,-400000.0625,-2306.75,2619.64990234375,-400000.0625,-3269.860107421875,-400000.0625,3160.760009765625,-400000.0625
141.75577783584595,-400000.0625,-2345.93994140625,2582.360107421875,-400000.0625,-3293.93994140625,-400000.0625,3120.949951171875,-400000.0625
141.7632119655609,-400000.0625,-2377.699951171875,2556.93994140625,-400000.0625,-3318.550048828125,-400000.0625,3094.820068359375,-400000.0625
141.77410316467285,-400000.0625,-2357.580078125,2577.5,-400000.0625,-3301.530029296875,-400000.0625,3116.56005859375,-400000.0625
141.78138613700867,-400000.0625,-2314.3798828125,2618.1201171875,-400000.0625,-3261.570068359375,-400000.0625,3155.419921875,-400000.0625
141.7902524471283,-400000.0625,-2316.570068359375,2615.169921875,-400000.0625,-3263.0,-400000.0625,3157.0,-400000.0625
141.80144691467285,-400000.0625,-2357.860107421875,2576.159912109375,-400000.0625,-3299.570068359375,-400000.0625,3117.56005859375,-400000.0625
141.81002926826477,-400000.0625,-2376.800048828125,2558.89990234375,-400000.0625,-3320.27001953125,-400000.0625,3093.530029296875,-400000.0625
141.81718277931213,-400000.0625,-2342.75,2591.510009765625,-400000.0625,-3295.989990234375,-400000.0625,3122.22998046875,-400000.0625
141.82543778419495,-400000.0625,-2308.27001953125,2626.090087890625,-400000.0625,-3262.760009765625,-400000.0625,3164.389892578125,-400000.0625
141.84461665153503,-400000.0625,-2316.090087890625,2618.5,-400000.0625,-3267.9599609375,-400000.0625,3156.280029296875,-400000.0625
141.85183191299438,-400000.0625,-2355.340087890625,2577.590087890625,-400000.0625,-3302.6201171875,-400000.0625,3113.7900390625,-400000.0625
141.86018347740173,-400000.0625,-2382.7099609375,2549.929931640625,-400000.0625,-3319.68994140625,-400000.0625,3087.949951171875,-400000.0625
141.86862301826477,-400000.0625,-2353.18994140625,2577.929931640625,-400000.0625,-3290.419921875,-400000.0625,3115.419921875,-400000.0625
141.8800413608551,-400000.0625,-2306.75,2621.030029296875,-400000.0625,-3258.89990234375,-400000.0625,3158.860107421875,-400000.0625
141.89098930358887,-400000.0625,-2314.85009765625,2615.97998046875,-400000.0625,-3269.669921875,-400000.0625,3158.949951171875,-400000.0625
141.89823055267334,-400000.0625,-2355.340087890625,2576.72998046875,-400000.0625,-3300.2900390625,-400000.0625,3118.7099609375,-400000.0625
141.90730905532837,-400000.0625,-2381.179931640625,2552.60009765625,-400000.0625,-3317.639892578125,-400000.0625,3093.669921875,-400000.0625
141.9144880771637,-400000.0625,-2352.81005859375,2578.070068359375,-400000.0625,-3299.570068359375,-400000.0625,3116.510009765625,-400000.0625
141.92690086364746,-400000.0625,-2313.330078125,2616.68994140625,-400000.0625,-3260.800048828125,-400000.0625,3157.570068359375,-400000.0625
141.9446506500244,-400000.0625,-2312.949951171875,2617.550048828125,-400000.0625,-3261.090087890625,-400000.0625,3156.610107421875,-400000.0625
141.9566113948822,-400000.0625,-2355.050048828125,2577.68994140625,-400000.0625,-3301.429931640625,-400000.0625,3115.179931640625,-400000.0625
141.965149641037,-400000.0625,-2385.6201171875,2549.080078125,-400000.0625,-3325.56005859375,-400000.0625,3093.530029296875,-400000.0625
141.9773051738739,-400000.0625,-2350.81005859375,2578.929931640625,-400000.0625,-3298.949951171875,-400000.0625,3118.090087890625,-400000.0625
141.9889543056488,-400000.0625,-2312.22998046875,2618.929931640625,-400000.0625,-3267.14990234375,-400000.0625,3157.949951171875,-400000.0625
141.99854254722595,-400000.0625,-2316.139892578125,2614.5,-400000.0625,-3271.389892578125,-400000.0625,3150.989990234375,-400000.0625
142.00688409805298,-400000.0625,-2359.43994140625,2571.6298828125,-400000.0625,-3304.9599609375,-400000.0625,3109.260009765625,-400000.0625
142.01354265213013,-400000.0625,-2385.239990234375,2550.97998046875,-400000.0625,-3320.97998046875,-400000.0625,3090.760009765625,-400000.0625
142.02420949935913,-400000.0625,-2356.050048828125,2578.780029296875,-400000.0625,-3295.469970703125,-400000.0625,3121.570068359375,-400000.0625
142.03610515594482,-400000.0625,-2313.469970703125,2616.8798828125,-400000.0625,-3268.47998046875,-400000.0625,3155.85009765625,-400000.0625
142.06041526794434,-400000.0625,-2321.77001953125,2613.2099609375,-400000.0625,-3273.77001953125,-400000.0625,3151.93994140625,-400000.0625
142.07029008865356,-400000.0625,-2360.199951171875,2575.25,-400000.0625,-3306.580078125,-400000.0625,3115.3701171875,-400000.0625
142.07947731018066,-400000.0625,-2380.469970703125,2550.97998046875,-400000.0625,-3324.60009765625,-400000.0625,3091.669921875,-400000.0625
142.08718419075012,-400000.0625,-2358.14990234375,2577.590087890625,-400000.0625,-3303.0,-400000.0625,3121.81005859375,-400000.0625
142.09538650512695,-400000.0625,-2316.52001953125,2617.97998046875,-400000.0625,-3268.429931640625,-400000.0625,3157.760009765625,-400000.0625
142.10452461242676,-400000.0625,-2317.760009765625,2616.409912109375,-400000.0625,-3266.860107421875,-400000.0625,3153.7099609375,-400000.0625
142.11207842826843,-400000.0625,-2358.719970703125,2579.360107421875,-400000.0625,-3295.139892578125,-400000.0625,3113.169921875,-400000.0625
142.12044215202332,-400000.0625,-2385.090087890625,2554.0400390625,-400000.0625,-3322.64990234375,-400000.0625,3088.330078125,-400000.0625
142.13097763061523,-400000.0625,-2357.43994140625,2580.1201171875,-400000.0625,-3299.89990234375,-400000.0625,3120.090087890625,-400000.0625
142.1407790184021,-400000.0625,-2315.330078125,2619.080078125,-400000.0625,-3267.18994140625,-400000.0625,3160.10009765625,-400000.0625
142.16285920143127,-400000.0625,-2320.860107421875,2617.070068359375,-400000.0625,-3269.77001953125,-400000.0625,3155.179931640625,-400000.0625
142.17214608192444,-400000.0625,-2362.300048828125,2575.06005859375,-400000.0625,-3305.389892578125,-400000.0625,3119.179931640625,-400000.0625
142.1810188293457,-400000.0625,-2382.760009765625,2556.52001953125,-400000.0625,-3320.889892578125,-400000.0625,3093.2900390625,-400000.0625
142.1893391609192,-400000.0625,-2360.06005859375,2582.1201171875,-400000.0625,-3293.75,-400000.0625,3118.419921875,-400000.0625
142.19759893417358,-400000.0625,-2314.6201171875,2623.4599609375,-400000.0625,-3257.1298828125,-400000.0625,3158.330078125,-400000.0625
142.20895314216614,-400000.0625,-2317.52001953125,2616.7900390625,-400000.0625,-3269.2900390625,-400000.0625,3151.989990234375,-400000.0625
142.21670031547546,-400000.0625,-2365.919921875,2575.300048828125,-400000.0625,-3308.010009765625,-400000.0625,3113.169921875,-400000.0625
142.22622799873352,-400000.0625,-2386.18994140625,2551.699951171875,-400000.0625,-3322.550048828125,-400000.0625,3095.050048828125,-400000.0625
142.23437094688416,-400000.0625,-2357.199951171875,2580.5,-400000.0625,-3299.280029296875,-400000.0625,3120.85009765625,-400000.0625
142.2432506084442,-400000.0625,-2320.389892578125,2619.699951171875,-400000.0625,-3272.25,-400000.0625,3160.2900390625,-400000.0625
142.25851798057556,-400000.0625,-2324.25,2614.31005859375,-400000.0625,-3272.14990234375,-400000.0625,3155.179931640625,-400000.0625
142.26570177078247,-400000.0625,-2366.02001953125,2574.010009765625,-400000.0625,-3301.81005859375,-400000.0625,3112.219970703125,-400000.0625
142.27627396583557,-400000.0625,-2391.580078125,2548.7900390625,-400000.0625,-3326.419921875,-400000.0625,3089.330078125,-400000.0625
142.28368091583252,-400000.0625,-2361.6298828125,2578.31005859375,-400000.0625,-3300.949951171875,-400000.0625,3118.989990234375,-400000.0625
142.2949628829956,-400000.0625,-2319.6201171875,2618.1201171875,-400000.0625,-3268.81005859375,-400000.0625,3158.6201171875,-400000.0625
142.3026475906372,-400000.0625,-2321.239990234375,2617.31005859375,-400000.0625,-3274.77001953125,-400000.0625,3154.89990234375,-400000.0625
142.3110430240631,-400000.0625,-2365.830078125,2577.5,-400000.0625,-3307.389892578125,-400000.0625,3115.320068359375,-400000.0625
142.31945633888245,-400000.0625,-2387.570068359375,2555.1298828125,-400000.0625,-3323.360107421875,-400000.0625,3089.570068359375,-400000.0625
142.3285665512085,-400000.0625,-2357.050048828125,2585.64990234375,-400000.0625,-3296.85009765625,-400000.0625,3117.659912109375,-400000.0625
142.33723664283752,-400000.0625,-2323.820068359375,2620.840087890625,-400000.0625,-3268.580078125,-400000.0625,3155.280029296875,-400000.0625
142.34667110443115,-400000.0625,-2326.489990234375,2616.830078125,-400000.0625,-3271.679931640625,-400000.0625,3152.989990234375,-400000.0625
142.3616180419922,-400000.0625,-2362.35009765625,2582.030029296875,-400000.0625,-3304.9599609375,-400000.0625,3113.889892578125,-400000.0625
142.37014770507812,-400000.0625,-2383.89990234375,2562.669921875,-400000.0625,-3321.080078125,-400000.0625,3096.10009765625,-400000.0625
142.3791790008545,-400000.0625,-2357.77001953125,2590.56005859375,-400000.0625,-3296.090087890625,-400000.0625,3118.0400390625,-400000.0625
142.38833665847778,-400000.0625,-2323.47998046875,2618.7900390625,-400000.0625,-3274.72998046875,-400000.0625,3155.989990234375,-400000.0625
142.39723372459412,-400000.0625,-2330.830078125,2610.780029296875,-400000.0625,-3279.830078125,-400000.0625,3153.22998046875,-400000.0625
142.408358335495,-400000.0625,-2367.449951171875,2575.590087890625,-400000.0625,-3306.340087890625,-400000.0625,3111.510009765625,-400000.0625
142.41649723052979,-400000.0625,-2394.489990234375,2553.3701171875,-400000.0625,-3320.7900390625,-400000.0625,3093.2900390625,-400000.0625
142.4293189048767,-400000.0625,-2363.300048828125,2582.840087890625,-400000.0625,-3302.909912109375,-400000.0625,3116.27001953125,-400000.0625
142.43859601020813,-400000.0625,-2319.77001953125,2622.60009765625,-400000.0625,-3271.389892578125,-400000.0625,3153.52001953125,-400000.0625
142.44713735580444,-400000.0625,-2322.14990234375,2619.64990234375,-400000.0625,-3268.909912109375,-400000.0625,3150.27001953125,-400000.0625
142.4632728099823,-400000.0625,-2371.64990234375,2575.06005859375,-400000.0625,-3306.47998046875,-400000.0625,3113.699951171875,-400000.0625
142.47267174720764,-400000.0625,-2391.719970703125,2555.179931640625,-400000.0625,-3322.1201171875,-400000.0625,3090.239990234375,-400000.0625
142.48041081428528,-400000.0625,-2360.199951171875,2585.7900390625,-400000.0625,-3302.340087890625,-400000.0625,3118.89990234375,-400000.0625
142.48944640159607,-400000.0625,-2318.18994140625,2627.22998046875,-400000.0625,-3266.860107421875,-400000.0625,3160.860107421875,-400000.0625
142.4968912601471,-400000.0625,-2328.830078125,2612.5,-400000.0625,-3277.590087890625,-400000.0625,3152.080078125,-400000.0625
142.5071907043457,-400000.0625,-2373.169921875,2568.8701171875,-400000.0625,-3311.010009765625,-400000.0625,3110.31005859375,-400000.0625
142.51481437683105,-400000.0625,-2395.340087890625,2547.7900390625,-400000.0625,-3329.330078125,-400000.0625,3086.610107421875,-400000.0625
142.52448105812073,-400000.0625,-2364.159912109375,2576.969970703125,-400000.0625,-3308.14990234375,-400000.0625,3116.27001953125,-400000.0625
142.53167009353638,-400000.0625,-2321.77001953125,2618.360107421875,-400000.0625,-3276.5400390625,-400000.0625,3155.989990234375,-400000.0625
142.54058051109314,-400000.0625,-2331.919921875,2613.739990234375,-400000.0625,-3277.679931640625,-400000.0625,3151.889892578125,-400000.0625
142.54807710647583,-400000.0625,-2374.699951171875,2572.72998046875,-400000.0625,-3313.110107421875,-400000.0625,3113.889892578125,-400000.0625
142.56621265411377,-400000.0625,-2382.330078125,2558.760009765625,-400000.0625,-3322.60009765625,-400000.0625,3094.10009765625,-400000.0625
142.57530426979065,-400000.0625,-2358.25,2587.840087890625,-400000.0625,-3293.7099609375,-400000.0625,3122.6201171875,-400000.0625
142.58353972434998,-400000.0625,-2326.110107421875,2620.27001953125,-400000.0625,-3269.050048828125,-400000.0625,3156.89990234375,-400000.0625
142.59352803230286,-400000.0625,-2330.5400390625,2612.8798828125,-400000.0625,-3277.830078125,-400000.0625,3151.889892578125,-400000.0625
142.60088181495667,-400000.0625,-2372.360107421875,2573.199951171875,-400000.0625,-3315.39990234375,-400000.0625,3107.8798828125,-400000.0625
142.609112739563,-400000.0625,-2394.14990234375,2554.22998046875,-400000.0625,-3332.570068359375,-400000.0625,3086.18994140625,-400000.0625
142.61753606796265,-400000.0625,-2361.199951171875,2581.31005859375,-400000.0625,-3304.389892578125,-400000.0625,3116.659912109375,-400000.0625
142.62639141082764,-400000.0625,-2321.239990234375,2618.840087890625,-400000.0625,-3274.25,-400000.0625,3157.280029296875,-400000.0625
142.63483691215515,-400000.0625,-2326.14990234375,2620.64990234375,-400000.0625,-3276.010009765625,-400000.0625,3150.889892578125,-400000.0625
142.64417791366577,-400000.0625,-2369.260009765625,2582.550048828125,-400000.0625,-3311.35009765625,-400000.0625,3108.8798828125,-400000.0625
142.6530544757843,-400000.0625,-2393.10009765625,2558.22998046875,-400000.0625,-3321.739990234375,-400000.0625,3086.469970703125,-400000.0625
142.66929602622986,-400000.0625,-2365.449951171875,2582.070068359375,-400000.0625,-3307.300048828125,-400000.0625,3114.510009765625,-400000.0625
142.6782476902008,-400000.0625,-2326.389892578125,2621.56005859375,-400000.0625,-3280.830078125,-400000.0625,3154.56005859375,-400000.0625
142.68616557121277,-400000.0625,-2326.77001953125,2616.8798828125,-400000.0625,-3278.110107421875,-400000.0625,3148.27001953125,-400000.0625
142.6945140361786,-400000.0625,-2371.409912109375,2576.780029296875,-400000.0625,-3313.639892578125,-400000.0625,3108.31005859375,-400000.0625
142.70164036750793,-400000.0625,-2394.300048828125,2553.1298828125,-400000.0625,-3331.610107421875,-400000.0625,3089.429931640625,-400000.0625
142.70949363708496,-400000.0625,-2365.110107421875,2584.550048828125,-400000.0625,-3306.340087890625,-400000.0625,3118.22998046875,-400000.0625
142.71692848205566,-400000.0625,-2320.389892578125,2627.85009765625,-400000.0625,-3266.669921875,-400000.0625,3162.669921875,-400000.0625
142.72547435760498,-400000.0625,-2326.679931640625,2618.739990234375,-400000.0625,-3276.8701171875,-400000.0625,3153.090087890625,-400000.0625
142.73302698135376,-400000.0625,-2370.639892578125,2577.159912109375,-400000.0625,-3318.409912109375,-400000.0625,3112.97998046875,-400000.0625
142.74249386787415,-400000.0625,-2388.570068359375,2561.0400390625,-400000.0625,-3329.949951171875,-400000.0625,3095.10009765625,-400000.0625
142.75043725967407,-400000.0625,-2358.2900390625,2587.75,-400000.0625,-3306.820068359375,-400000.0625,3119.89990234375,-400000.0625
142.75890731811523,-400000.0625,-2317.10009765625,2627.75,-400000.0625,-3272.43994140625,-400000.0625,3157.139892578125,-400000.0625
142.77545809745789,-400000.0625,-2323.9599609375,2625.699951171875,-400000.0625,-3272.14990234375,-400000.0625,3154.949951171875,-400000.0625
142.783789396286,-400000.0625,-2369.2099609375,2580.5,-400000.0625,-3314.8798828125,-400000.0625,3113.75,-400000.0625
142.79318189620972,-400000.0625,-2392.43994140625,2555.610107421875,-400000.0625,-3333.18994140625,-400000.0625,3093.050048828125,-400000.0625
142.80014276504517,-400000.0625,-2361.6298828125,2585.360107421875,-400000.0625,-3303.340087890625,-400000.0625,3121.090087890625,-400000.0625
142.80973100662231,-400000.0625,-2318.47998046875,2625.56005859375,-400000.0625,-3275.6298828125,-400000.0625,3160.18994140625,-400000.0625
142.81794595718384,-400000.0625,-2323.820068359375,2620.550048828125,-400000.0625,-3282.60009765625,-400000.0625,3152.469970703125,-400000.0625
142.82691383361816,-400000.0625,-2364.2099609375,2581.929931640625,-400000.0625,-3311.679931640625,-400000.0625,3116.3701171875,-400000.0625
142.8351330757141,-400000.0625,-2382.659912109375,2563.2900390625,-400000.0625,-3324.64990234375,-400000.0625,3092.81005859375,-400000.0625
142.84564781188965,-400000.0625,-2357.820068359375,2590.93994140625,-400000.0625,-3303.14990234375,-400000.0625,3119.949951171875,-400000.0625
142.85671997070312,-400000.0625,-2322.580078125,2627.89990234375,-400000.0625,-3274.5400390625,-400000.0625,3157.18994140625,-400000.0625
142.86409544944763,-400000.0625,-2322.6298828125,2624.56005859375,-400000.0625,-3274.5400390625,-400000.0625,3151.93994140625,-400000.0625
142.8795554637909,-400000.0625,-2365.780029296875,2580.68994140625,-400000.0625,-3306.909912109375,-400000.0625,3112.4599609375,-400000.0625
142.89197707176208,-400000.0625,-2382.56005859375,2561.7099609375,-400000.0625,-3329.090087890625,-400000.0625,3089.7099609375,-400000.0625
142.90007328987122,-400000.0625,-2358.9599609375,2590.469970703125,-400000.0625,-3304.199951171875,-400000.0625,3115.179931640625,-400000.0625
142.90922808647156,-400000.0625,-2319.669921875,2627.52001953125,-400000.0625,-3268.429931640625,-400000.0625,3153.7099609375,-400000.0625
142.9166600704193,-400000.0625,-2326.72998046875,2620.510009765625,-400000.0625,-3277.919921875,-400000.0625,3147.169921875,-400000.0625
142.9252166748047,-400000.0625,-2369.2099609375,2578.39990234375,-400000.0625,-3317.02001953125,-400000.0625,3108.5,-400000.0625
142.93231081962585,-400000.0625,-2386.860107421875,2560.659912109375,-400000.0625,-3329.090087890625,-400000.0625,3086.139892578125,-400000.0625
142.94233107566833,-400000.0625,-2357.050048828125,2591.179931640625,-400000.0625,-3305.77001953125,-400000.0625,3112.510009765625,-400000.0625
142.95015692710876,-400000.0625,-2317.760009765625,2629.18994140625,-400000.0625,-3271.580078125,-400000.0625,3154.7099609375,-400000.0625
142.9606897830963,-400000.0625,-2320.580078125,2626.800048828125,-400000.0625,-3269.860107421875,-400000.0625,3152.320068359375,-400000.0625
142.96931076049805,-400000.0625,-2362.5400390625,2586.409912109375,-400000.0625,-3307.06005859375,-400000.0625,3111.60009765625,-400000.0625
142.98625779151917,-400000.0625,-2385.330078125,2564.340087890625,-400000.0625,-3324.93994140625,-400000.0625,3090.330078125,-400000.0625
142.99733901023865,-400000.0625,-2357.47998046875,2590.320068359375,-400000.0625,-3305.530029296875,-400000.0625,3119.800048828125,-400000.0625
143.0062792301178,-400000.0625,-2320.0,2630.469970703125,-400000.0625,-3273.820068359375,-400000.0625,3157.659912109375,-400000.0625
143.01424169540405,-400000.0625,-2323.14990234375,2622.60009765625,-400000.0625,-3280.5400390625,-400000.0625,3155.3701171875,-400000.0625
143.02385997772217,-400000.0625,-2363.72998046875,2584.030029296875,-400000.0625,-3308.389892578125,-400000.0625,3111.889892578125,-400000.0625
143.03382205963135,-400000.0625,-2384.139892578125,2565.47998046875,-400000.0625,-3319.409912109375,-400000.0625,3094.340087890625,-400000.0625
143.04196500778198,-400000.0625,-2356.050048828125,2591.989990234375,-400000.0625,-3303.389892578125,-400000.0625,3126.10009765625,-400000.0625
143.04887104034424,-400000.0625,-2316.760009765625,2635.340087890625,-400000.0625,-3272.8701171875,-400000.0625,3166.679931640625,-400000.0625
143.06060314178467,-400000.0625,-2317.3798828125,2629.659912109375,-400000.0625,-3280.739990234375,-400000.0625,3156.52001953125,-400000.0625
143.07000470161438,-400000.0625,-2358.6298828125,2585.360107421875,-400000.0625,-3313.919921875,-400000.0625,3113.64990234375,-400000.0625
143.0858609676361,-400000.0625,-2378.800048828125,2564.3798828125,-400000.0625,-3325.93994140625,-400000.0625,3096.14990234375,-400000.0625
143.09711813926697,-400000.0625,-2353.330078125,2594.139892578125,-400000.0625,-3298.6201171875,-400000.0625,3122.139892578125,-400000.0625
143.10696482658386,-400000.0625,-2317.050048828125,2632.669921875,-400000.0625,-3265.0,-400000.0625,3163.10009765625,-400000.0625
143.11710357666016,-400000.0625,-2319.669921875,2627.179931640625,-400000.0625,-3267.239990234375,-400000.0625,3156.139892578125,-400000.0625
143.1275293827057,-400000.0625,-2362.72998046875,2584.169921875,-400000.0625,-3305.860107421875,-400000.0625,3115.320068359375,-400000.0625
143.13776779174805,-400000.0625,-2383.419921875,2565.2900390625,-400000.0625,-3324.4599609375,-400000.0625,3094.239990234375,-400000.0625
143.14819431304932,-400000.0625,-2351.7099609375,2595.330078125,-400000.0625,-3301.81005859375,-400000.0625,3122.3798828125,-400000.0625
143.15860962867737,-400000.0625,-2310.320068359375,2635.239990234375,-400000.0625,-3272.340087890625,-400000.0625,3159.7099609375,-400000.0625
143.16732811927795,-400000.0625,-2317.81005859375,2631.18994140625,-400000.0625,-3270.2900390625,-400000.0625,3156.570068359375,-400000.0625
143.1777822971344,-400000.0625,-2366.300048828125,2584.739990234375,-400000.0625,-3307.820068359375,-400000.0625,3116.1298828125,-400000.0625
143.19454836845398,-400000.0625,-2383.330078125,2565.909912109375,-400000.0625,-3320.929931640625,-400000.0625,3091.429931640625,-400000.0625
143.2029585838318,-400000.0625,-2350.0,2597.18994140625,-400000.0625,-3290.800048828125,-400000.0625,3120.949951171875,-400000.0625
143.21318697929382,-400000.0625,-2314.89990234375,2633.239990234375,-400000.0625,-3265.949951171875,-400000.0625,3158.18994140625,-400000.0625
143.22304964065552,-400000.0625,-2324.580078125,2625.659912109375,-400000.0625,-3278.919921875,-400000.0625,3154.659912109375,-400000.0625
143.2302474975586,-400000.0625,-2366.02001953125,2585.360107421875,-400000.0625,-3315.260009765625,-400000.0625,3113.4599609375,-400000.0625
143.2442421913147,-400000.0625,-2385.949951171875,2565.429931640625,-400000.0625,-3329.419921875,-400000.0625,3092.669921875,-400000.0625
143.25449514389038,-400000.0625,-2354.10009765625,2597.0,-400000.0625,-3300.7099609375,-400000.0625,3121.570068359375,-400000.0625
143.26284623146057,-400000.0625,-2314.6201171875,2636.6201171875,-400000.0625,-3267.050048828125,-400000.0625,3161.0,-400000.0625
143.27347588539124,-400000.0625,-2320.580078125,2628.469970703125,-400000.0625,-3271.77001953125,-400000.0625,3153.610107421875,-400000.0625
143.2807059288025,-400000.0625,-2365.8798828125,2582.929931640625,-400000.0625,-3301.3798828125,-400000.0625,3112.840087890625,-400000.0625
143.2975137233734,-400000.0625,-2387.3798828125,2562.3798828125,-400000.0625,-3319.360107421875,-400000.0625,3090.909912109375,-400000.0625
143.30825543403625,-400000.0625,-2357.43994140625,2592.56005859375,-400000.0625,-3305.050048828125,-400000.0625,3119.139892578125,-400000.0625
143.31845140457153,-400000.0625,-2320.0,2631.81005859375,-400000.0625,-3276.830078125,-400000.0625,3159.239990234375,-400000.0625
143.32791686058044,-400000.0625,-2325.389892578125,2625.080078125,-400000.0625,-3281.550048828125,-400000.0625,3153.610107421875,-400000.0625
143.3356170654297,-400000.0625,-2361.6298828125,2589.0400390625,-400000.0625,-3307.389892578125,-400000.0625,3111.320068359375,-400000.0625
143.34303212165833,-400000.0625,-2383.760009765625,2569.719970703125,-400000.0625,-3321.1201171875,-400000.0625,3091.530029296875,-400000.0625
143.3500292301178,-400000.0625,-2362.199951171875,2591.419921875,-400000.0625,-3297.090087890625,-400000.0625,3122.139892578125,-400000.0625
143.3585593700409,-400000.0625,-2317.2900390625,2635.18994140625,-400000.0625,-3259.610107421875,-400000.0625,3154.989990234375,-400000.0625
143.36561608314514,-400000.0625,-2326.06005859375,2627.090087890625,-400000.0625,-3269.47998046875,-400000.0625,3147.7900390625,-400000.0625
143.37541556358337,-400000.0625,-2369.639892578125,2585.93994140625,-400000.0625,-3313.2099609375,-400000.0625,3107.830078125,-400000.0625
143.38277459144592,-400000.0625,-2385.0,2566.47998046875,-400000.0625,-3330.949951171875,-400000.0625,3088.81005859375,-400000.0625
143.3997368812561,-400000.0625,-2356.050048828125,2592.949951171875,-400000.0625,-3308.25,-400000.0625,3115.030029296875,-400000.0625
143.40828156471252,-400000.0625,-2319.81005859375,2631.280029296875,-400000.0625,-3272.719970703125,-400000.0625,3153.1298828125,-400000.0625
143.41602849960327,-400000.0625,-2328.159912109375,2625.419921875,-400000.0625,-3274.8701171875,-400000.0625,3146.840087890625,-400000.0625
143.42742443084717,-400000.0625,-2371.739990234375,2583.4599609375,-400000.0625,-3311.5400390625,-400000.0625,3105.590087890625,-400000.0625
143.4346296787262,-400000.0625,-2393.909912109375,2560.89990234375,-400000.0625,-3326.610107421875,-400000.0625,3088.760009765625,-400000.0625
143.4471879005432,-400000.0625,-2360.110107421875,2594.419921875,-400000.0625,-3299.280029296875,-400000.0625,3117.510009765625,-400000.0625
143.4567494392395,-400000.0625,-2318.239990234375,2634.570068359375,-400000.0625,-3271.14990234375,-400000.0625,3158.52001953125,-400000.0625
143.46495962142944,-400000.0625,-2323.820068359375,2626.659912109375,-400000.0625,-3275.110107421875,-400000.0625,3145.929931640625,-400000.0625
143.4771430492401,-400000.0625,-2363.06005859375,2586.60009765625,-400000.0625,-3305.580078125,-400000.0625,3101.72998046875,-400000.0625
143.48744988441467,-400000.0625,-2389.239990234375,2559.570068359375,-400000.0625,-3328.800048828125,-400000.0625,3084.800048828125,-400000.0625
143.5045952796936,-400000.0625,-2364.780029296875,2587.219970703125,-400000.0625,-3308.489990234375,-400000.0625,3114.4599609375,-400000.0625
143.51343202590942,-400000.0625,-2326.010009765625,2625.3701171875,-400000.0625,-3272.719970703125,-400000.0625,3152.75,-400000.0625
143.52489471435547,-400000.0625,-2332.31005859375,2621.080078125,-400000.0625,-3275.159912109375,-400000.0625,3149.56005859375,-400000.0625
143.5318353176117,-400000.0625,-2372.070068359375,2580.639892578125,-400000.0625,-3307.679931640625,-400000.0625,3111.169921875,-400000.0625
143.54402995109558,-400000.0625,-2397.72998046875,2560.139892578125,-400000.0625,-3321.699951171875,-400000.0625,3091.760009765625,-400000.0625
143.55214047431946,-400000.0625,-2361.06005859375,2593.179931640625,-400000.0625,-3300.239990234375,-400000.0625,3117.800048828125,-400000.0625
143.55989336967468,-400000.0625,-2315.81005859375,2633.7099609375,-400000.0625,-3268.14990234375,-400000.0625,3154.0400390625,-400000.0625
143.56967282295227,-400000.0625,-2331.590087890625,2620.64990234375,-400000.0625,-3283.1201171875,-400000.0625,3141.550048828125,-400000.0625
143.57885646820068,-400000.0625,-2377.3701171875,2577.5,-400000.0625,-3314.830078125,-400000.0625,3104.5,-400000.0625
143.58714652061462,-400000.0625,-2392.050048828125,2561.139892578125,-400000.0625,-3326.800048828125,-400000.0625,3085.610107421875,-400000.0625
143.59725165367126,-400000.0625,-2362.489990234375,2592.280029296875,-400000.0625,-3304.429931640625,-400000.0625,3115.75,-400000.0625
143.61495637893677,-400000.0625,-2321.47998046875,2632.760009765625,-400000.0625,-3267.239990234375,-400000.0625,3158.050048828125,-400000.0625
143.62350606918335,-400000.0625,-2327.8701171875,2626.1298828125,-400000.0625,-3271.10009765625,-400000.0625,3151.889892578125,-400000.0625
143.63111281394958,-400000.0625,-2372.550048828125,2586.510009765625,-400000.0625,-3314.780029296875,-400000.0625,3111.889892578125,-400000.0625
143.64445090293884,-400000.0625,-2388.909912109375,2569.909912109375,-400000.0625,-3333.469970703125,-400000.0625,3091.9599609375,-400000.0625
143.65181922912598,-400000.0625,-2361.010009765625,2595.949951171875,-400000.0625,-3304.050048828125,-400000.0625,3121.570068359375,-400000.0625
143.66001629829407,-400000.0625,-2327.6298828125,2629.22998046875,-400000.0625,-3271.530029296875,-400000.0625,3159.81005859375,-400000.0625
143.66832542419434,-400000.0625,-2336.68994140625,2619.080078125,-400000.0625,-3278.590087890625,-400000.0625,3150.1298828125,-400000.0625
143.67744994163513,-400000.0625,-2375.360107421875,2578.5400390625,-400000.0625,-3316.550048828125,-400000.0625,3104.929931640625,-400000.0625
143.68683052062988,-400000.0625,-2392.43994140625,2563.6201171875,-400000.0625,-3328.0400390625,-400000.0625,3087.280029296875,-400000.0625
143.69627475738525,-400000.0625,-2362.780029296875,2595.280029296875,-400000.0625,-3301.239990234375,-400000.0625,3120.280029296875,-400000.0625
143.70510292053223,-400000.0625,-2318.570068359375,2635.9599609375,-400000.0625,-3269.530029296875,-400000.0625,3156.81005859375,-400000.0625
143.71972846984863,-400000.0625,-2329.8701171875,2627.419921875,-400000.0625,-3272.8701171875,-400000.0625,3150.320068359375,-400000.0625
143.72926139831543,-400000.0625,-2372.929931640625,2587.320068359375,-400000.0625,-3305.10009765625,-400000.0625,3108.8798828125,-400000.0625
143.73765563964844,-400000.0625,-2394.389892578125,2568.050048828125,-400000.0625,-3329.989990234375,-400000.0625,3086.280029296875,-400000.0625
143.7471640110016,-400000.0625,-2364.02001953125,2596.52001953125,-400000.0625,-3305.9599609375,-400000.0625,3114.030029296875,-400000.0625
143.75583839416504,-400000.0625,-2326.199951171875,2632.18994140625,-400000.0625,-3270.669921875,-400000.0625,3150.3701171875,-400000.0625
143.76452040672302,-400000.0625,-2332.929931640625,2623.889892578125,-400000.0625,-3279.2099609375,-400000.0625,3143.070068359375,-400000.0625
143.77393579483032,-400000.0625,-2375.320068359375,2584.739990234375,-400000.0625,-3317.31005859375,-400000.0625,3109.1201171875,-400000.0625
143.7816243171692,-400000.0625,-2391.860107421875,2567.340087890625,-400000.0625,-3328.1298828125,-400000.0625,3086.52001953125,-400000.0625
143.79048013687134,-400000.0625,-2362.43994140625,2595.419921875,-400000.0625,-3299.570068359375,-400000.0625,3117.510009765625,-400000.0625
143.79800653457642,-400000.0625,-2329.110107421875,2625.85009765625,-400000.0625,-3270.43994140625,-400000.0625,3154.22998046875,-400000.0625
143.8070948123932,-400000.0625,-2338.64990234375,2620.409912109375,-400000.0625,-3273.77001953125,-400000.0625,3144.31005859375,-400000.0625
143.82294702529907,-400000.0625,-2375.1298828125,2582.030029296875,-400000.0625,-3314.780029296875,-400000.0625,3102.780029296875,-400000.0625
143.83062386512756,-400000.0625,-2393.43994140625,2565.340087890625,-400000.0625,-3327.510009765625,-400000.0625,3090.330078125,-400000.0625
143.84403729438782,-400000.0625,-2363.780029296875,2595.469970703125,-400000.0625,-3297.280029296875,-400000.0625,3116.56005859375,-400000.0625
143.85276818275452,-400000.0625,-2321.050048828125,2635.909912109375,-400000.0625,-3266.10009765625,-400000.0625,3150.3701171875,-400000.0625
143.86175274848938,-400000.0625,-2329.919921875,2626.22998046875,-400000.0625,-3277.300048828125,-400000.0625,3148.27001953125,-400000.0625
143.8708770275116,-400000.0625,-2380.89990234375,2579.1201171875,-400000.0625,-3318.360107421875,-400000.0625,3103.969970703125,-400000.0625
143.8844928741455,-400000.0625,-2399.06005859375,2563.860107421875,-400000.0625,-3327.469970703125,-400000.0625,3078.60009765625,-400000.0625
143.89451265335083,-400000.0625,-2366.830078125,2596.330078125,-400000.0625,-3294.610107421875,-400000.0625,3115.64990234375,-400000.0625
143.90499353408813,-400000.0625,-2325.6298828125,2633.760009765625,-400000.0625,-3267.6201171875,-400000.0625,3156.18994140625,-400000.0625
143.9133322238922,-400000.0625,-2332.8798828125,2626.280029296875,-400000.0625,-3279.39990234375,-400000.0625,3150.510009765625,-400000.0625
143.93113017082214,-400000.0625,-2379.22998046875,2579.1201171875,-400000.0625,-3316.929931640625,-400000.0625,3103.969970703125,-400000.0625
143.94036602973938,-400000.0625,-2393.10009765625,2564.719970703125,-400000.0625,-3323.169921875,-400000.0625,3085.179931640625,-400000.0625
143.94770669937134,-400000.0625,-2360.340087890625,2599.429931640625,-400000.0625,-3298.3798828125,-400000.0625,3114.64990234375,-400000.0625
143.96046471595764,-400000.0625,-2326.06005859375,2635.2900390625,-400000.0625,-3266.909912109375,-400000.0625,3156.090087890625,-400000.0625
143.96879053115845,-400000.0625,-2333.68994140625,2628.179931640625,-400000.0625,-3272.14990234375,-400000.0625,3144.64990234375,-400000.0625
143.97730469703674,-400000.0625,-2375.320068359375,2585.840087890625,-400000.0625,-3313.969970703125,-400000.0625,3099.6298828125,-400000.0625
143.98656463623047,-400000.0625,-2394.14990234375,2567.580078125,-400000.0625,-3323.889892578125,-400000.0625,3082.419921875,-400000.0625
143.99481654167175,-400000.0625,-2366.110107421875,2596.090087890625,-400000.0625,-3300.0,-400000.0625,3116.659912109375,-400000.0625
144.00410771369934,-400000.0625,-2328.39990234375,2633.3798828125,-400000.0625,-3276.06005859375,-400000.0625,3158.280029296875,-400000.0625
144.0122516155243,-400000.0625,-2332.639892578125,2626.610107421875,-400000.0625,-3279.5400390625,-400000.0625,3150.22998046875,-400000.0625
144.01988577842712,-400000.0625,-2374.93994140625,2584.97998046875,-400000.0625,-3310.300048828125,-400000.0625,3102.639892578125,-400000.0625
144.03726768493652,-400000.0625,-2395.580078125,2567.9599609375,-400000.0625,-3323.510009765625,-400000.0625,3085.280029296875,-400000.0625
144.0460934638977,-400000.0625,-2366.070068359375,2598.719970703125,-400000.0625,-3296.469970703125,-400000.0625,3118.7099609375,-400000.0625
144.05571103096008,-400000.0625,-2327.010009765625,2634.81005859375,-400000.0625,-3266.81005859375,-400000.0625,3156.949951171875,-400000.0625
144.06336379051208,-400000.0625,-2335.02001953125,2625.1298828125,-400000.0625,-3277.449951171875,-400000.0625,3146.510009765625,-400000.0625
144.07123112678528,-400000.0625,-2376.840087890625,2586.27001953125,-400000.0625,-3310.159912109375,-400000.0625,3105.830078125,-400000.0625
144.07870721817017,-400000.0625,-2396.06005859375,2568.8701171875,-400000.0625,-3333.0400390625,-400000.0625,3089.429931640625,-400000.0625
144.08832001686096,-400000.0625,-2365.300048828125,2600.81005859375,-400000.0625,-3304.050048828125,-400000.0625,3119.090087890625,-400000.0625
144.09866619110107,-400000.0625,-2320.389892578125,2645.8701171875,-400000.0625,-3266.239990234375,-400000.0625,3155.610107421875,-400000.0625
144.11234641075134,-400000.0625,-2329.679931640625,2636.669921875,-400000.0625,-3275.25,-400000.0625,3147.75,-400000.0625
144.12248635292053,-400000.0625,-2374.840087890625,2592.0400390625,-400000.0625,-3313.639892578125,-400000.0625,3105.590087890625,-400000.0625
144.14140915870667,-400000.0625,-2390.719970703125,2573.110107421875,-400000.0625,-3327.419921875,-400000.0625,3082.75,-400000.0625
144.15000224113464,-400000.0625,-2360.530029296875,2605.8701171875,-400000.0625,-3297.18994140625,-400000.0625,3111.97998046875,-400000.0625
144.16171264648438,-400000.0625,-2325.8701171875,2641.489990234375,-400000.0625,-3268.669921875,-400000.0625,3158.239990234375,-400000.0625
144.17369961738586,-400000.0625,-2337.4599609375,2630.760009765625,-400000.0625,-3273.580078125,-400000.0625,3149.219970703125,-400000.0625
144.18208813667297,-400000.0625,-2379.22998046875,2589.419921875,-400000.0625,-3317.360107421875,-400000.0625,3103.68994140625,-400000.0625
144.19324779510498,-400000.0625,-2398.06005859375,2572.35009765625,-400000.0625,-3334.429931640625,-400000.0625,3085.419921875,-400000.0625
144.2020936012268,-400000.0625,-2358.580078125,2606.919921875,-400000.0625,-3297.139892578125,-400000.0625,3116.56005859375,-400000.0625
144.21114253997803,-400000.0625,-2329.780029296875,2638.2900390625,-400000.0625,-3268.340087890625,-400000.0625,3153.320068359375,-400000.0625
144.22024965286255,-400000.0625,-2336.360107421875,2626.89990234375,-400000.0625,-3281.5,-400000.0625,3143.449951171875,-400000.0625
144.23061656951904,-400000.0625,-2382.3701171875,2582.449951171875,-400000.0625,-3319.68994140625,-400000.0625,3101.39990234375,-400000.0625
144.24808502197266,-400000.0625,-2401.830078125,2564.47998046875,-400000.0625,-3329.800048828125,-400000.0625,3081.510009765625,-400000.0625
144.2577350139618,-400000.0625,-2368.739990234375,2599.429931640625,-400000.0625,-3297.0,-400000.0625,3113.080078125,-400000.0625
144.26539754867554,-400000.0625,-2331.2099609375,2635.6201171875,-400000.0625,-3263.18994140625,-400000.0625,3150.889892578125,-400000.0625
144.27668142318726,-400000.0625,-2340.219970703125,2626.610107421875,-400000.0625,-3282.39990234375,-400000.0625,3140.830078125,-400000.0625
144.28532099723816,-400000.0625,-2380.22998046875,2584.60009765625,-400000.0625,-3316.260009765625,-400000.0625,3101.72998046875,-400000.0625
144.29482293128967,-400000.0625,-2395.820068359375,2567.909912109375,-400000.0625,-3324.56005859375,-400000.0625,3082.659912109375,-400000.0625
144.30509686470032,-400000.0625,-2367.070068359375,2597.239990234375,-400000.0625,-3305.719970703125,-400000.0625,3110.1201171875,-400000.0625
144.31394743919373,-400000.0625,-2331.8798828125,2632.429931640625,-400000.0625,-3274.580078125,-400000.0625,3149.64990234375,-400000.0625
144.32373189926147,-400000.0625,-2344.179931640625,2621.4599609375,-400000.0625,-3280.68994140625,-400000.0625,3140.31005859375,-400000.0625
144.33190250396729,-400000.0625,-2387.760009765625,2582.68994140625,-400000.0625,-3311.969970703125,-400000.0625,3101.06005859375,-400000.0625
144.34941267967224,-400000.0625,-2399.39990234375,2568.669921875,-400000.0625,-3321.64990234375,-400000.0625,3083.52001953125,-400000.0625
144.35951256752014,-400000.0625,-2363.6298828125,2601.6201171875,-400000.0625,-3302.77001953125,-400000.0625,3117.3701171875,-400000.0625
144.36672377586365,-400000.0625,-2326.110107421875,2639.6298828125,-400000.0625,-3272.389892578125,-400000.0625,3154.949951171875,-400000.0625
144.37561297416687,-400000.0625,-2335.409912109375,2632.81005859375,-400000.0625,-3277.72998046875,-400000.0625,3145.929931640625,-400000.0625
144.38323211669922,-400000.0625,-2377.3701171875,2590.75,-400000.0625,-3315.35009765625,-400000.0625,3102.639892578125,-400000.0625
144.3922073841095,-400000.0625,-2397.389892578125,2570.8701171875,-400000.0625,-3329.89990234375,-400000.0625,3081.75,-400000.0625
144.4015030860901,-400000.0625,-2365.159912109375,2604.10009765625,-400000.0625,-3296.800048828125,-400000.0625,3115.56005859375,-400000.0625
144.4110176563263,-400000.0625,-2326.489990234375,2640.679931640625,-400000.0625,-3263.3798828125,-400000.0625,3153.89990234375,-400000.0625
144.4198076725006,-400000.0625,-2337.1201171875,2629.330078125,-400000.0625,-3269.010009765625,-400000.0625,3146.360107421875,-400000.0625
144.4299120903015,-400000.0625,-2384.570068359375,2585.080078125,-400000.0625,-3306.010009765625,-400000.0625,3101.639892578125,-400000.0625
144.4376175403595,-400000.0625,-2400.489990234375,2566.0,-400000.0625,-3326.800048828125,-400000.0625,3078.840087890625,-400000.0625
144.45501399040222,-400000.0625,-2365.969970703125,2603.25,-400000.0625,-3299.3798828125,-400000.0625,3114.030029296875,-400000.0625
144.46411442756653,-400000.0625,-2334.31005859375,2637.010009765625,-400000.0625,-3274.5400390625,-400000.0625,3154.56005859375,-400000.0625
144.4742352962494,-400000.0625,-2343.75,2625.080078125,-400000.0625,-3287.360107421875,-400000.0625,3145.080078125,-400000.0625
144.4811556339264,-400000.0625,-2380.510009765625,2588.889892578125,-400000.0625,-3315.02001953125,-400000.0625,3106.31005859375,-400000.0625
144.4953851699829,-400000.0625,-2394.580078125,2572.820068359375,-400000.0625,-3320.889892578125,-400000.0625,3088.860107421875,-400000.0625
144.50699019432068,-400000.0625,-2366.260009765625,2600.81005859375,-400000.0625,-3295.090087890625,-400000.0625,3119.610107421875,-400000.0625
144.51435327529907,-400000.0625,-2327.969970703125,2640.300048828125,-400000.0625,-3267.570068359375,-400000.0625,3153.0400390625,-400000.0625
144.52527928352356,-400000.0625,-2338.31005859375,2630.280029296875,-400000.0625,-3277.39990234375,-400000.0625,3140.39990234375,-400000.0625
144.5324912071228,-400000.0625,-2384.139892578125,2589.419921875,-400000.0625,-3315.590087890625,-400000.0625,3098.14990234375,-400000.0625
144.5412881374359,-400000.0625,-2399.300048828125,2572.919921875,-400000.0625,-3325.510009765625,-400000.0625,3080.510009765625,-400000.0625
144.55739402770996,-400000.0625,-2368.159912109375,2605.14990234375,-400000.0625,-3298.949951171875,-400000.0625,3111.169921875,-400000.0625
144.56524920463562,-400000.0625,-2325.820068359375,2645.39990234375,-400000.0625,-3266.3798828125,-400000.0625,3152.659912109375,-400000.0625
144.5790193080902,-400000.0625,-2336.929931640625,2632.429931640625,-400000.0625,-3274.489990234375,-400000.0625,3141.830078125,-400000.0625
144.5878608226776,-400000.0625,-2382.469970703125,2589.800048828125,-400000.0625,-3305.9599609375,-400000.0625,3095.530029296875,-400000.0625
144.59578466415405,-400000.0625,-2402.739990234375,2568.820068359375,-400000.0625,-3321.929931640625,-400000.0625,3080.93994140625,-400000.0625
144.60419750213623,-400000.0625,-2365.8798828125,2604.10009765625,-400000.0625,-3298.429931640625,-400000.0625,3112.97998046875,-400000.0625
144.61210536956787,-400000.0625,-2331.72998046875,2640.340087890625,-400000.0625,-3270.10009765625,-400000.0625,3146.31005859375,-400000.0625
144.61972570419312,-400000.0625,-2342.699951171875,2628.139892578125,-400000.0625,-3276.919921875,-400000.0625,3133.919921875,-400000.0625
144.62794947624207,-400000.0625,-2384.0400390625,2588.989990234375,-400000.0625,-3311.25,-400000.0625,3094.6298828125,-400000.0625
144.63943815231323,-400000.0625,-2401.68994140625,2572.919921875,-400000.0625,-3320.169921875,-400000.0625,3075.64990234375,-400000.0625
144.64786863327026,-400000.0625,-2366.639892578125,2601.909912109375,-400000.0625,-3293.610107421875,-400000.0625,3106.070068359375,-400000.0625
144.66884422302246,-400000.0625,-2332.1201171875,2634.81005859375,-400000.0625,-3269.2900390625,-400000.0625,3142.260009765625,-400000.0625
144.67788100242615,-400000.0625,-2349.81005859375,2623.840087890625,-400000.0625,-3284.449951171875,-400000.0625,3131.2900390625,-400000.0625
144.68558192253113,-400000.0625,-2391.429931640625,2584.60009765625,-400000.0625,-3316.97998046875,-400000.0625,3088.89990234375,-400000.0625
144.69396233558655,-400000.0625,-2408.699951171875,2564.719970703125,-400000.0625,-3330.280029296875,-400000.0625,3071.5,-400000.0625
144.7026743888855,-400000.0625,-2373.60009765625,2597.669921875,-400000.0625,-3298.239990234375,-400000.0625,3105.5,-400000.0625
144.71180868148804,-400000.0625,-2336.31005859375,2636.77001953125,-400000.0625,-3264.330078125,-400000.0625,3140.070068359375,-400000.0625
144.72005105018616,-400000.0625,-2344.320068359375,2628.0400390625,-400000.0625,-3274.25,-400000.0625,3130.820068359375,-400000.0625
144.72905707359314,-400000.0625,-2386.570068359375,2585.75,-400000.0625,-3309.5400390625,-400000.0625,3090.909912109375,-400000.0625
144.73721933364868,-400000.0625,-2406.97998046875,2565.909912109375,-400000.0625,-3322.550048828125,-400000.0625,3077.699951171875,-400000.0625
144.74715995788574,-400000.0625,-2382.56005859375,2591.800048828125,-400000.0625,-3300.239990234375,-400000.0625,3107.070068359375,-400000.0625
144.75694394111633,-400000.0625,-2343.179931640625,2629.18994140625,-400000.0625,-3272.14990234375,-400000.0625,3137.2099609375,-400000.0625
144.77426719665527,-400000.0625,-2348.469970703125,2623.080078125,-400000.0625,-3279.449951171875,-400000.0625,3131.199951171875,-400000.0625
144.78139925003052,-400000.0625,-2389.909912109375,2584.60009765625,-400000.0625,-3307.6298828125,-400000.0625,3088.860107421875,-400000.0625
144.79116988182068,-400000.0625,-2407.7900390625,2564.6201171875,-400000.0625,-3321.929931640625,-400000.0625,3074.60009765625,-400000.0625
144.79982089996338,-400000.0625,-2372.31005859375,2594.89990234375,-400000.0625,-3297.89990234375,-400000.0625,3111.60009765625,-400000.0625
144.81073474884033,-400000.0625,-2338.1201171875,2632.050048828125,-400000.0625,-3273.6298828125,-400000.0625,3140.969970703125,-400000.0625
144.81769394874573,-400000.0625,-2352.429931640625,2622.27001953125,-400000.0625,-3278.35009765625,-400000.0625,3135.110107421875,-400000.0625
144.8261797428131,-400000.0625,-2390.429931640625,2582.1201171875,-400000.0625,-3310.969970703125,-400000.0625,3096.10009765625,-400000.0625
144.83400964736938,-400000.0625,-2408.1201171875,2564.340087890625,-400000.0625,-3324.080078125,-400000.0625,3074.360107421875,-400000.0625
144.84214663505554,-400000.0625,-2380.89990234375,2593.22998046875,-400000.0625,-3301.570068359375,-400000.0625,3104.02001953125,-400000.0625
144.84987092018127,-400000.0625,-2348.89990234375,2627.75,-400000.0625,-3273.580078125,-400000.0625,3142.639892578125,-400000.0625
144.85872793197632,-400000.0625,-2352.090087890625,2623.27001953125,-400000.0625,-3282.360107421875,-400000.0625,3132.340087890625,-400000.0625
144.87702751159668,-400000.0625,-2394.010009765625,2578.68994140625,-400000.0625,-3320.739990234375,-400000.0625,3090.949951171875,-400000.0625
144.88501906394958,-400000.0625,-2411.179931640625,2563.18994140625,-400000.0625,-3332.6201171875,-400000.0625,3074.219970703125,-400000.0625
144.89669561386108,-400000.0625,-2380.280029296875,2596.330078125,-400000.0625,-3303.6201171875,-400000.0625,3107.68994140625,-400000.0625
144.90746998786926,-400000.0625,-2338.4599609375,2633.3798828125,-400000.0625,-3268.81005859375,-400000.0625,3143.639892578125,-400000.0625
144.91530680656433,-400000.0625,-2346.659912109375,2625.889892578125,-400000.0625,-3275.43994140625,-400000.0625,3135.25,-400000.0625
144.9238474369049,-400000.0625,-2391.860107421875,2584.219970703125,-400000.0625,-3317.31005859375,-400000.0625,3095.340087890625,-400000.0625
144.93102049827576,-400000.0625,-2409.169921875,2565.050048828125,-400000.0625,-3332.81005859375,-400000.0625,3076.840087890625,-400000.0625
144.94390225410461,-400000.0625,-2376.56005859375,2598.2900390625,-400000.0625,-3307.8701171875,-400000.0625,3107.60009765625,-400000.0625
144.95216012001038,-400000.0625,-2336.929931640625,2638.77001953125,-400000.0625,-3272.010009765625,-400000.0625,3146.7900390625,-400000.0625
144.97105598449707,-400000.0625,-2364.25,2652.840087890625,-400000.0625,-3302.77001953125,-400000.0625,3137.39990234375,-400000.0625
144.97109055519104,-400000.0625,-2401.449951171875,2612.070068359375,-400000.0625,-3337.719970703125,-400000.0625,3097.72998046875,-400000.0625
144.97109746932983,-400000.0625,-2404.2099609375,2615.070068359375,-400000.0625,-3332.0,-400000.0625,3098.679931640625,-400000.0625
144.9711036682129,-400000.0625,-2362.159912109375,2657.3701171875,-400000.0625,-3292.320068359375,-400000.0625,3143.840087890625,-400000.0625
144.97110962867737,-400000.0625,-2337.409912109375,2679.8701171875,-400000.0625,-3280.8798828125,-400000.0625,3168.43994140625,-400000.0625
144.9711151123047,-400000.0625,-2359.530029296875,2657.3701171875,-400000.0625,-3299.81005859375,-400000.0625,3141.070068359375,-400000.0625
144.9711208343506,-400000.0625,-2405.1201171875,2613.39990234375,-400000.0625,-3331.0400390625,-400000.0625,3097.489990234375,-400000.0625
144.97112607955933,-400000.0625,-2402.5,2615.39990234375,-400000.0625,-3328.989990234375,-400000.0625,3099.489990234375,-400000.0625
144.97113180160522,-400000.0625,-2360.530029296875,2655.699951171875,-400000.0625,-3295.469970703125,-400000.0625,3134.5400390625,-400000.0625
144.97113704681396,-400000.0625,-2335.739990234375,2679.06005859375,-400000.0625,-3276.300048828125,-400000.0625,3152.75,-400000.0625
144.97114253044128,-400000.0625,-2366.72998046875,2650.7900390625,-400000.0625,-3300.760009765625,-400000.0625,3131.8701171875,-400000.0625
144.97114753723145,-400000.0625,-2408.550048828125,2611.590087890625,-400000.0625,-3331.570068359375,-400000.0625,3093.860107421875,-400000.0625
144.97115302085876,-400000.0625,-2405.449951171875,2615.260009765625,-400000.0625,-3324.030029296875,-400000.0625,3096.06005859375,-400000.0625
144.9711582660675,-400000.0625,-2362.6298828125,2658.64990234375,-400000.0625,-3294.89990234375,-400000.0625,3137.159912109375,-400000.0625
144.97116374969482,-400000.0625,-2340.409912109375,2680.2099609375,-400000.0625,-3277.639892578125,-400000.0625,3160.52001953125,-400000.0625
144.97116923332214,-400000.0625,-2367.830078125,2650.39990234375,-400000.0625,-3300.139892578125,-400000.0625,3135.110107421875,-400000.0625
144.9711742401123,-400000.0625,-2404.639892578125,2610.969970703125,-400000.0625,-3333.0,-400000.0625,3089.429931640625,-400000.0625
144.9711790084839,-400000.0625,-2402.35009765625,2613.68994140625,-400000.0625,-3328.800048828125,-400000.0625,3093.6201171875,-400000.0625
144.9711844921112,-400000.0625,-2362.5400390625,2655.27001953125,-400000.0625,-3294.56005859375,-400000.0625,3138.300048828125,-400000.0625
144.9711892604828,-400000.0625,-2336.7900390625,2681.969970703125,-400000.0625,-3276.6298828125,-400000.0625,3159.669921875,-400000.0625
144.97119426727295,-400000.0625,-2364.489990234375,2653.169921875,-400000.0625,-3294.090087890625,-400000.0625,3136.110107421875,-400000.0625
144.97554779052734,-400000.0625,-2429.909912109375,2584.64990234375,-400000.0625,-3317.590087890625,-400000.0625,3089.669921875,-400000.0625
144.97557497024536,-400000.0625,-2422.7099609375,2596.760009765625,-400000.0625,-3313.5400390625,-400000.0625,3103.02001953125,-400000.0625
144.97558879852295,-400000.0625,-2378.179931640625,2640.06005859375,-400000.0625,-3280.260009765625,-400000.0625,3143.840087890625,-400000.0625
144.97560667991638,-400000.0625,-2358.679931640625,2658.93994140625,-400000.0625,-3262.85009765625,-400000.0625,3160.909912109375,-400000.0625
144.97561883926392,-400000.0625,-2386.89990234375,2628.800048828125,-400000.0625,-3286.550048828125,-400000.0625,3130.389892578125,-400000.0625
144.97563123703003,-400000.0625,-2430.340087890625,2586.889892578125,-400000.0625,-3321.60009765625,-400000.0625,3092.669921875,-400000.0625
144.97564339637756,-400000.0625,-2418.3798828125,2596.429931640625,-400000.0625,-3313.2099609375,-400000.0625,3098.199951171875,-400000.0625
144.97565579414368,-400000.0625,-2372.68994140625,2638.860107421875,-400000.0625,-3273.8701171875,-400000.0625,3140.8798828125,-400000.0625
144.97566843032837,-400000.0625,-2356.719970703125,2654.550048828125,-400000.0625,-3260.7099609375,-400000.0625,3161.139892578125,-400000.0625
144.97568225860596,-400000.0625,-2387.429931640625,2627.090087890625,-400000.0625,-3286.080078125,-400000.0625,3132.489990234375,-400000.0625
144.97569465637207,-400000.0625,-2426.340087890625,2589.800048828125,-400000.0625,-3319.31005859375,-400000.0625,3096.14990234375,-400000.0625
144.97570753097534,-400000.0625,-2417.659912109375,2597.090087890625,-400000.0625,-3311.679931640625,-400000.0625,3104.39990234375,-400000.0625
144.97571992874146,-400000.0625,-2376.64990234375,2637.010009765625,-400000.0625,-3276.72998046875,-400000.0625,3142.449951171875,-400000.0625
144.975732088089,-400000.0625,-2359.25,2655.4599609375,-400000.0625,-3259.419921875,-400000.0625,3156.949951171875,-400000.0625
144.97574472427368,-400000.0625,-2392.010009765625,2625.0400390625,-400000.0625,-3287.510009765625,-400000.0625,3131.530029296875,-400000.0625
144.97575640678406,-400000.0625,-2425.77001953125,2591.320068359375,-400000.0625,-3316.449951171875,-400000.0625,3096.719970703125,-400000.0625
144.97576808929443,-400000.0625,-2409.4599609375,2604.8701171875,-400000.0625,-3301.570068359375,-400000.0625,3106.31005859375,-400000.0625
144.9757800102234,-400000.0625,-2370.7900390625,2645.679931640625,-400000.0625,-3265.949951171875,-400000.0625,3149.840087890625,-400000.0625
144.9757912158966,-400000.0625,-2356.14990234375,2660.659912109375,-400000.0625,-3253.510009765625,-400000.0625,3169.489990234375,-400000.0625
144.9758026599884,-400000.0625,-2385.7099609375,2630.18994140625,-400000.0625,-3284.360107421875,-400000.0625,3141.070068359375,-400000.0625
144.97581458091736,-400000.0625,-2422.139892578125,2590.85009765625,-400000.0625,-3315.39990234375,-400000.0625,3101.919921875,-400000.0625
144.97582721710205,-400000.0625,-2419.81005859375,2596.6201171875,-400000.0625,-3307.10009765625,-400000.0625,3109.64990234375,-400000.0625
144.97584009170532,-400000.0625,-2372.840087890625,2641.8701171875,-400000.0625,-3271.06005859375,-400000.0625,3148.75,-400000.0625
144.97585320472717,-400000.0625,-2356.580078125,2653.31005859375,-400000.0625,-3256.85009765625,-400000.0625,3164.719970703125,-400000.0625
144.97586631774902,-400000.0625,-2394.300048828125,2620.409912109375,-400000.0625,-3282.97998046875,-400000.0625,3138.780029296875,-400000.0625
144.97587895393372,-400000.0625,-2421.18994140625,2592.469970703125,-400000.0625,-3311.830078125,-400000.0625,3100.25,-400000.0625
144.975891828537,-400000.0625,-2409.409912109375,2602.719970703125,-400000.0625,-3309.199951171875,-400000.0625,3109.8798828125,-400000.0625
144.97590517997742,-400000.0625,-2371.5,2637.580078125,-400000.0625,-3284.31005859375,-400000.0625,3151.22998046875,-400000.0625
144.97591853141785,-400000.0625,-2356.909912109375,2653.889892578125,-400000.0625,-3263.81005859375,-400000.0625,3164.199951171875,-400000.0625
144.97593212127686,-400000.0625,-2391.199951171875,2624.510009765625,-400000.0625,-3286.699951171875,-400000.0625,3132.72998046875,-400000.0625
144.9759440422058,-400000.0625,-2432.159912109375,2583.889892578125,-400000.0625,-3316.68994140625,-400000.0625,3099.820068359375,-400000.0625
144.9759566783905,-400000.0625,-2413.699951171875,2596.570068359375,-400000.0625,-3301.81005859375,-400000.0625,3109.550048828125,-400000.0625
144.97596859931946,-400000.0625,-2367.1201171875,2641.110107421875,-400000.0625,-3263.89990234375,-400000.0625,3149.56005859375,-400000.0625
144.97598099708557,-400000.0625,-2356.10009765625,2657.889892578125,-400000.0625,-3249.1201171875,-400000.0625,3169.300048828125,-400000.0625
144.97599339485168,-400000.0625,-2388.760009765625,2626.800048828125,-400000.0625,-3286.550048828125,-400000.0625,3137.72998046875,-400000.0625
144.97600531578064,-400000.0625,-2425.2900390625,2591.090087890625,-400000.0625,-3319.449951171875,-400000.0625,3099.8701171875,-400000.0625
144.97601795196533,-400000.0625,-2413.510009765625,2597.239990234375,-400000.0625,-3308.010009765625,-400000.0625,3106.68994140625,-400000.0625
144.97603034973145,-400000.0625,-2374.97998046875,2637.429931640625,-400000.0625,-3279.39990234375,-400000.0625,3147.510009765625,-400000.0625
144.97604274749756,-400000.0625,-2358.820068359375,2656.60009765625,-400000.0625,-3266.050048828125,-400000.0625,3165.010009765625,-400000.0625
144.9760558605194,-400000.0625,-2384.22998046875,2626.659912109375,-400000.0625,-3285.97998046875,-400000.0625,3135.159912109375,-400000.0625
144.97606873512268,-400000.0625,-2423.719970703125,2589.889892578125,-400000.0625,-3314.590087890625,-400000.0625,3101.43994140625,-400000.0625
144.98915696144104,-400000.0625,-2594.3798828125,2454.89990234375,-400000.0625,-3282.02001953125,-400000.0625,2968.1201171875,-400000.0625
145.1201205253601,-400000.0625,-2498.47998046875,2530.050048828125,-400000.0625,-3307.8701171875,-400000.0625,3000.449951171875,-400000.0625
145.17840361595154,-400000.0625,-2525.3798828125,2510.929931640625,-400000.0625,-3321.360107421875,-400000.0625,2971.7900390625,-400000.0625
145.23360061645508,-400000.0625,-2519.419921875,2515.60009765625,-400000.0625,-3309.35009765625,-400000.0625,2985.760009765625,-400000.0625
145.29426836967468,-400000.0625,-2513.7900390625,2519.659912109375,-400000.0625,-3309.8701171875,-400000.0625,2994.5400390625,-400000.0625
145.36830139160156,-400000.0625,-2489.469970703125,2545.02001953125,-400000.0625,-3290.1298828125,-400000.0625,3016.330078125,-400000.0625
145.42213654518127,-400000.0625,-2683.5,2467.43994140625,-400000.0625,-3213.840087890625,-400000.0625,2930.2099609375,-400000.0625
145.4859118461609,-400000.0625,-2756.169921875,2424.18994140625,-400000.0625,-3221.889892578125,-400000.0625,2867.169921875,-400000.0625
145.55014729499817,-400000.0625,-2605.199951171875,2478.7900390625,-400000.0625,-3305.010009765625,-400000.0625,2939.75,-400000.0625
145.68446445465088,-400000.0625,-2558.179931640625,2497.47998046875,-400000.0625,-3325.64990234375,-400000.0625,2963.260009765625,-400000.0625
145.81962203979492,-400000.0625,-2536.06005859375,2510.929931640625,-400000.0625,-3328.419921875,-400000.0625,2975.510009765625,-400000.0625
145.90455317497253,-400000.0625,-2537.820068359375,2511.7900390625,-400000.0625,-3328.510009765625,-400000.0625,2974.75,-400000.0625
145.95588541030884,-400000.0625,-2513.60009765625,2530.669921875,-400000.0625,-3307.580078125,-400000.0625,2997.449951171875,-400000.0625
146.00084447860718,-400000.0625,-2482.699951171875,2566.050048828125,-400000.0625,-3289.75,-400000.0625,3029.010009765625,-400000.0625
146.0721402168274,-400000.0625,-2498.669921875,2551.4599609375,-400000.0625,-3300.18994140625,-400000.0625,3019.52001953125,-400000.0625
146.13391137123108,-400000.0625,-2531.14990234375,2519.989990234375,-400000.0625,-3329.090087890625,-400000.0625,2988.14990234375,-400000.0625
146.19106817245483,-400000.0625,-2541.489990234375,2508.449951171875,-400000.0625,-3334.090087890625,-400000.0625,2985.429931640625,-400000.0625
146.3345947265625,-400000.0625,-2485.610107421875,2560.469970703125,-400000.0625,-3287.1298828125,-400000.0625,3026.389892578125,-400000.0625
146.44833993911743,-400000.0625,-2538.820068359375,2501.43994140625,-400000.0625,-3328.280029296875,-400000.0625,3005.219970703125,-400000.0625
146.65806126594543,-400000.0625,-2498.10009765625,2547.7900390625,-400000.0625,-3291.320068359375,-400000.0625,3044.75,-400000.0625
146.76986742019653,-400000.0625,-2538.5400390625,2507.260009765625,-400000.0625,-3322.169921875,-400000.0625,2999.5,-400000.0625
146.83203840255737,-400000.0625,-2545.639892578125,2497.9599609375,-400000.0625,-3329.22998046875,-400000.0625,2993.72998046875,-400000.0625
146.89350390434265,-400000.0625,-2517.989990234375,2523.610107421875,-400000.0625,-3303.530029296875,-400000.0625,3020.669921875,-400000.0625
146.99838423728943,-400000.0625,-2502.389892578125,2536.9599609375,-400000.0625,-3284.31005859375,-400000.0625,3029.300048828125,-400000.0625
147.02742099761963,-400000.0625,-2547.169921875,2497.47998046875,-400000.0625,-3323.409912109375,-400000.0625,2992.110107421875,-400000.0625
147.0864131450653,-400000.0625,-2548.68994140625,2503.489990234375,-400000.0625,-3319.449951171875,-400000.0625,2994.159912109375,-400000.0625
147.165753364563,-400000.0625,-2545.169921875,2509.97998046875,-400000.0625,-3314.2099609375,-400000.0625,2996.489990234375,-400000.0625
147.22210669517517,-400000.0625,-2502.25,2553.989990234375,-400000.0625,-3278.449951171875,-400000.0625,3046.75,-400000.0625
147.38427567481995,-400000.0625,-2524.949951171875,2539.39990234375,-400000.0625,-3288.93994140625,-400000.0625,3017.52001953125,-400000.0625
147.41203355789185,-400000.0625,-2564.909912109375,2509.8798828125,-400000.0625,-3312.2099609375,-400000.0625,2988.14990234375,-400000.0625
147.4723162651062,-400000.0625,-2562.860107421875,2505.72998046875,-400000.0625,-3310.780029296875,-400000.0625,2982.280029296875,-400000.0625
147.4784860610962,-400000.0625,-2535.300048828125,2535.43994140625,-400000.0625,-3288.97998046875,-400000.0625,3014.85009765625,-400000.0625
147.48564386367798,-400000.0625,-2512.409912109375,2556.610107421875,-400000.0625,-3270.47998046875,-400000.0625,3034.969970703125,-400000.0625
147.49806380271912,-400000.0625,-2530.14990234375,2535.489990234375,-400000.0625,-3280.830078125,-400000.0625,3017.429931640625,-400000.0625
147.50736331939697,-400000.0625,-2564.239990234375,2501.5400390625,-400000.0625,-3305.47998046875,-400000.0625,2983.6201171875,-400000.0625
147.51331758499146,-400000.0625,-2565.050048828125,2505.02001953125,-400000.0625,-3309.919921875,-400000.0625,2982.81005859375,-400000.0625
147.52004075050354,-400000.0625,-2534.820068359375,2537.159912109375,-400000.0625,-3287.030029296875,-400000.0625,3017.139892578125,-400000.0625
147.5267083644867,-400000.0625,-2514.169921875,2556.659912109375,-400000.0625,-3274.300048828125,-400000.0625,3034.969970703125,-400000.0625
147.5330536365509,-400000.0625,-2534.06005859375,2534.719970703125,-400000.0625,-3292.85009765625,-400000.0625,3016.7099609375,-400000.0625
147.54111099243164,-400000.0625,-2563.669921875,2504.919921875,-400000.0625,-3313.5400390625,-400000.0625,2983.429931640625,-400000.0625
147.54659795761108,-400000.0625,-2560.659912109375,2507.929931640625,-400000.0625,-3307.679931640625,-400000.0625,2979.469970703125,-400000.0625
147.5537383556366,-400000.0625,-2532.9599609375,2537.159912109375,-400000.0625,-3284.070068359375,-400000.0625,3011.27001953125,-400000.0625
147.55960965156555,-400000.0625,-2515.4599609375,2554.1298828125,-400000.0625,-3269.14990234375,-400000.0625,3036.7900390625,-400000.0625
147.56630754470825,-400000.0625,-2535.820068359375,2529.2900390625,-400000.0625,-3279.300048828125,-400000.0625,3015.52001953125,-400000.0625
147.57509469985962,-400000.0625,-2570.820068359375,2499.77001953125,-400000.0625,-3314.110107421875,-400000.0625,2981.0,-400000.0625
147.58120250701904,-400000.0625,-2563.10009765625,2505.780029296875,-400000.0625,-3313.969970703125,-400000.0625,2984.0,-400000.0625
147.58878684043884,-400000.0625,-2535.25,2535.25,-400000.0625,-3291.610107421875,-400000.0625,3014.52001953125,-400000.0625
147.60453176498413,-400000.0625,-2517.840087890625,2551.4599609375,-400000.0625,-3272.77001953125,-400000.0625,3032.8798828125,-400000.0625
147.61175560951233,-400000.0625,-2538.25,2533.14990234375,-400000.0625,-3283.7900390625,-400000.0625,3010.800048828125,-400000.0625
147.6203737258911,-400000.0625,-2569.909912109375,2503.72998046875,-400000.0625,-3305.14990234375,-400000.0625,2981.0,-400000.0625
147.62845373153687,-400000.0625,-2563.429931640625,2509.97998046875,-400000.0625,-3297.949951171875,-400000.0625,2985.760009765625,-400000.0625
147.63944244384766,-400000.0625,-2535.6298828125,2534.340087890625,-400000.0625,-3276.830078125,-400000.0625,3011.0400390625,-400000.0625
147.6475818157196,-400000.0625,-2512.070068359375,2556.22998046875,-400000.0625,-3267.6201171875,-400000.0625,3031.72998046875,-400000.0625
147.65695524215698,-400000.0625,-2535.679931640625,2531.719970703125,-400000.0625,-3288.889892578125,-400000.0625,3012.320068359375,-400000.0625
147.6641252040863,-400000.0625,-2572.919921875,2497.2900390625,-400000.0625,-3317.8798828125,-400000.0625,2983.860107421875,-400000.0625
147.67259669303894,-400000.0625,-2564.760009765625,2504.780029296875,-400000.0625,-3307.820068359375,-400000.0625,2988.47998046875,-400000.0625
147.67925691604614,-400000.0625,-2533.47998046875,2536.389892578125,-400000.0625,-3281.68994140625,-400000.0625,3022.2900390625,-400000.0625
147.69057273864746,-400000.0625,-2514.64990234375,2555.800048828125,-400000.0625,-3268.340087890625,-400000.0625,3038.840087890625,-400000.0625
147.71032667160034,-400000.0625,-2538.969970703125,2535.6298828125,-400000.0625,-3283.929931640625,-400000.0625,3015.179931640625,-400000.0625
147.71738624572754,-400000.0625,-2570.580078125,2499.25,-400000.0625,-3314.590087890625,-400000.0625,2988.14990234375,-400000.0625
147.7263741493225,-400000.0625,-2560.0,2504.06005859375,-400000.0625,-3312.02001953125,-400000.0625,2992.820068359375,-400000.0625
147.7327480316162,-400000.0625,-2529.81005859375,2534.580078125,-400000.0625,-3279.300048828125,-400000.0625,3022.340087890625,-400000.0625
147.7417962551117,-400000.0625,-2516.409912109375,2552.60009765625,-400000.0625,-3272.43994140625,-400000.0625,3036.5,-400000.0625
147.74830603599548,-400000.0625,-2537.199951171875,2531.10009765625,-400000.0625,-3293.0400390625,-400000.0625,3017.89990234375,-400000.0625
147.7571563720703,-400000.0625,-2566.6201171875,2502.06005859375,-400000.0625,-3313.489990234375,-400000.0625,2986.340087890625,-400000.0625
147.76360321044922,-400000.0625,-2570.10009765625,2504.43994140625,-400000.0625,-3311.25,-400000.0625,2987.050048828125,-400000.0625
147.77065515518188,-400000.0625,-2537.110107421875,2535.580078125,-400000.0625,-3293.320068359375,-400000.0625,3019.139892578125,-400000.0625
147.7798833847046,-400000.0625,-2515.97998046875,2553.080078125,-400000.0625,-3280.260009765625,-400000.0625,3037.1201171875,-400000.0625
147.78783059120178,-400000.0625,-2533.389892578125,2533.10009765625,-400000.0625,-3295.52001953125,-400000.0625,3016.81005859375,-400000.0625
147.79544186592102,-400000.0625,-2567.580078125,2499.10009765625,-400000.0625,-3320.070068359375,-400000.0625,2985.2900390625,-400000.0625
147.81221294403076,-400000.0625,-2569.530029296875,2500.72998046875,-400000.0625,-3319.7900390625,-400000.0625,2985.530029296875,-400000.0625
147.8196930885315,-400000.0625,-2541.919921875,2533.14990234375,-400000.0625,-3290.75,-400000.0625,3016.52001953125,-400000.0625
147.82690572738647,-400000.0625,-2514.929931640625,2555.56005859375,-400000.0625,-3268.429931640625,-400000.0625,3035.68994140625,-400000.0625
147.83370923995972,-400000.0625,-2537.199951171875,2536.340087890625,-400000.0625,-3283.60009765625,-400000.0625,3017.52001953125,-400000.0625
147.84314274787903,-400000.0625,-2565.719970703125,2506.300048828125,-400000.0625,-3311.110107421875,-400000.0625,2984.429931640625,-400000.0625
147.85599994659424,-400000.0625,-2564.669921875,2509.169921875,-400000.0625,-3311.010009765625,-400000.0625,2986.239990234375,-400000.0625
147.86411571502686,-400000.0625,-2535.300048828125,2535.530029296875,-400000.0625,-3285.030029296875,-400000.0625,3015.139892578125,-400000.0625
147.87311553955078,-400000.0625,-2518.989990234375,2552.56005859375,-400000.0625,-3269.429931640625,-400000.0625,3037.260009765625,-400000.0625
147.8795564174652,-400000.0625,-2542.2099609375,2530.580078125,-400000.0625,-3294.75,-400000.0625,3011.320068359375,-400000.0625
147.8868329524994,-400000.0625,-2571.679931640625,2499.530029296875,-400000.0625,-3317.260009765625,-400000.0625,2978.949951171875,-400000.0625
147.89666509628296,-400000.0625,-2564.530029296875,2504.159912109375,-400000.0625,-3308.8701171875,-400000.0625,2983.6201171875,-400000.0625
147.9121391773224,-400000.0625,-2535.06005859375,2535.77001953125,-400000.0625,-3281.159912109375,-400000.0625,3020.949951171875,-400000.0625
147.919908285141,-400000.0625,-2516.56005859375,2554.22998046875,-400000.0625,-3269.580078125,-400000.0625,3035.1201171875,-400000.0625
147.92777967453003,-400000.0625,-2537.43994140625,2535.77001953125,-400000.0625,-3291.64990234375,-400000.0625,3015.0400390625,-400000.0625
147.93556928634644,-400000.0625,-2572.489990234375,2499.9599609375,-400000.0625,-3321.7900390625,-400000.0625,2984.090087890625,-400000.0625
147.94490122795105,-400000.0625,-2564.18994140625,2507.260009765625,-400000.0625,-3307.8701171875,-400000.0625,2987.050048828125,-400000.0625
147.9517903327942,-400000.0625,-2534.820068359375,2537.679931640625,-400000.0625,-3284.169921875,-400000.0625,3019.2900390625,-400000.0625
147.96034407615662,-400000.0625,-2518.4599609375,2551.889892578125,-400000.0625,-3271.679931640625,-400000.0625,3037.8798828125,-400000.0625
148.01726150512695,-400000.0625,-2560.570068359375,2515.93994140625,-400000.0625,-3290.699951171875,-400000.0625,3013.659912109375,-400000.0625
148.04459524154663,-400000.0625,-2577.31005859375,2491.7099609375,-400000.0625,-3315.8798828125,-400000.0625,2988.77001953125,-400000.0625
148.12450909614563,-400000.0625,-2553.56005859375,2512.5,-400000.0625,-3308.489990234375,-400000.0625,2998.8798828125,-400000.0625
148.1838574409485,-400000.0625,-2512.97998046875,2549.7900390625,-400000.0625,-3277.159912109375,-400000.0625,3039.169921875,-400000.0625
148.30341124534607,-400000.0625,-2535.489990234375,2522.610107421875,-400000.0625,-3297.419921875,-400000.0625,3017.760009765625,-400000.0625
148.36560034751892,-400000.0625,-2565.0,2491.139892578125,-400000.0625,-3321.219970703125,-400000.0625,2990.580078125,-400000.0625
148.53381156921387,-400000.0625,-2500.72998046875,2552.699951171875,-400000.0625,-3282.97998046875,-400000.0625,3042.510009765625,-400000.0625
148.55713152885437,-400000.0625,-2525.85009765625,2526.18994140625,-400000.0625,-3304.6201171875,-400000.0625,3021.18994140625,-400000.0625
148.64337730407715,-400000.0625,-2560.429931640625,2494.6201171875,-400000.0625,-3327.3701171875,-400000.0625,2990.14990234375,-400000.0625
148.68585729599,-400000.0625,-2551.219970703125,2503.969970703125,-400000.0625,-3322.510009765625,-400000.0625,2995.590087890625,-400000.0625
148.75439476966858,-400000.0625,-2540.2099609375,2514.60009765625,-400000.0625,-3318.360107421875,-400000.0625,3003.739990234375,-400000.0625
148.8458731174469,-400000.0625,-2510.5,2545.39990234375,-400000.0625,-3292.080078125,-400000.0625,3036.7900390625,-400000.0625
148.87865710258484,-400000.0625,-2493.81005859375,2553.1298828125,-400000.0625,-3281.68994140625,-400000.0625,3039.7900390625,-400000.0625
148.94465970993042,-400000.0625,-2526.3798828125,2524.469970703125,-400000.0625,-3300.949951171875,-400000.0625,3016.760009765625,-400000.0625
149.0224051475525,-400000.0625,-2551.889892578125,2499.530029296875,-400000.0625,-3324.60009765625,-400000.0625,2993.300048828125,-400000.0625
149.07845878601074,-400000.0625,-2536.25,2515.75,-400000.0625,-3302.2900390625,-400000.0625,2998.780029296875,-400000.0625
149.23401474952698,-400000.0625,-2506.449951171875,2545.7900390625,-400000.0625,-3272.10009765625,-400000.0625,3027.679931640625,-400000.0625
149.27966260910034,-400000.0625,-2557.610107421875,2496.429931640625,-400000.0625,-3309.35009765625,-400000.0625,2980.7099609375,-400000.0625
149.33512377738953,-400000.0625,-2561.89990234375,2494.9599609375,-400000.0625,-3308.25,-400000.0625,2985.2900390625,-400000.0625
149.38970255851746,-400000.0625,-2545.7900390625,2508.68994140625,-400000.0625,-3289.510009765625,-400000.0625,2993.72998046875,-400000.0625
149.467205286026,-400000.0625,-2498.9599609375,2554.56005859375,-400000.0625,-3256.699951171875,-400000.0625,3036.169921875,-400000.0625
149.52209615707397,-400000.0625,-2503.39990234375,2554.85009765625,-400000.0625,-3256.889892578125,-400000.0625,3034.260009765625,-400000.0625
149.59566736221313,-400000.0625,-2530.6201171875,2525.949951171875,-400000.0625,-3276.010009765625,-400000.0625,3001.360107421875,-400000.0625
149.6495704650879,-400000.0625,-2557.800048828125,2501.389892578125,-400000.0625,-3295.469970703125,-400000.0625,2979.949951171875,-400000.0625
149.71821761131287,-400000.0625,-2507.830078125,2549.929931640625,-400000.0625,-3259.469970703125,-400000.0625,3024.9599609375,-400000.0625
149.77947807312012,-400000.0625,-2516.840087890625,2541.2099609375,-400000.0625,-3255.56005859375,-400000.0625,3022.6201171875,-400000.0625
149.837140083313,-400000.0625,-2515.360107421875,2542.639892578125,-400000.0625,-3262.52001953125,-400000.0625,3026.300048828125,-400000.0625
149.96434593200684,-400000.0625,-2577.68994140625,2480.64990234375,-400000.0625,-3299.050048828125,-400000.0625,2962.39990234375,-400000.0625
150.03424429893494,-400000.0625,-2552.75,2504.5400390625,-400000.0625,-3279.68994140625,-400000.0625,2984.429931640625,-400000.0625
150.04281377792358,-400000.0625,-2519.179931640625,2540.449951171875,-400000.0625,-3252.080078125,-400000.0625,3015.949951171875,-400000.0625
150.05085635185242,-400000.0625,-2522.659912109375,2536.389892578125,-400000.0625,-3252.080078125,-400000.0625,3017.949951171875,-400000.0625
150.05947637557983,-400000.0625,-2558.469970703125,2504.639892578125,-400000.0625,-3269.9599609375,-400000.0625,2982.659912109375,-400000.0625
150.07095980644226,-400000.0625,-2573.300048828125,2491.860107421875,-400000.0625,-3287.219970703125,-400000.0625,2958.77001953125,-400000.0625
150.0889310836792,-400000.0625,-2555.699951171875,2510.97998046875,-400000.0625,-3278.2099609375,-400000.0625,2979.89990234375,-400000.0625
150.0962553024292,-400000.0625,-2520.610107421875,2538.110107421875,-400000.0625,-3252.320068359375,-400000.0625,3013.7099609375,-400000.0625
150.10722017288208,-400000.0625,-2518.179931640625,2538.8701171875,-400000.0625,-3246.97998046875,-400000.0625,3014.0400390625,-400000.0625
150.11508011817932,-400000.0625,-2548.169921875,2513.929931640625,-400000.0625,-3269.580078125,-400000.0625,2984.52001953125,-400000.0625
150.1246931552887,-400000.0625,-2569.2900390625,2490.0400390625,-400000.0625,-3284.8798828125,-400000.0625,2961.06005859375,-400000.0625
150.1329164505005,-400000.0625,-2554.22998046875,2507.68994140625,-400000.0625,-3270.6298828125,-400000.0625,2980.419921875,-400000.0625
150.1396005153656,-400000.0625,-2517.3701171875,2540.06005859375,-400000.0625,-3240.159912109375,-400000.0625,3015.3798828125,-400000.0625
150.14664149284363,-400000.0625,-2517.610107421875,2537.43994140625,-400000.0625,-3246.68994140625,-400000.0625,3012.090087890625,-400000.0625
150.15555810928345,-400000.0625,-2548.7900390625,2508.739990234375,-400000.0625,-3278.02001953125,-400000.0625,2982.280029296875,-400000.0625
150.16465663909912,-400000.0625,-2571.43994140625,2486.659912109375,-400000.0625,-3294.280029296875,-400000.0625,2960.25,-400000.0625
150.174134016037,-400000.0625,-2553.840087890625,2502.25,-400000.0625,-3279.260009765625,-400000.0625,2982.52001953125,-400000.0625
150.19712233543396,-400000.0625,-2521.419921875,2537.43994140625,-400000.0625,-3250.840087890625,-400000.0625,3018.239990234375,-400000.0625
150.2098686695099,-400000.0625,-2522.989990234375,2538.35009765625,-400000.0625,-3250.219970703125,-400000.0625,3015.949951171875,-400000.0625
150.2244906425476,-400000.0625,-2550.75,2505.969970703125,-400000.0625,-3275.110107421875,-400000.0625,2980.419921875,-400000.0625
150.24013876914978,-400000.0625,-2569.820068359375,2487.22998046875,-400000.0625,-3285.360107421875,-400000.0625,2962.159912109375,-400000.0625
150.2539701461792,-400000.0625,-2553.3701171875,2506.070068359375,-400000.0625,-3276.300048828125,-400000.0625,2982.330078125,-400000.0625
150.2651813030243,-400000.0625,-2522.090087890625,2536.110107421875,-400000.0625,-3255.93994140625,-400000.0625,3013.330078125,-400000.0625
150.27839636802673,-400000.0625,-2519.22998046875,2534.2900390625,-400000.0625,-3256.3701171875,-400000.0625,3014.3701171875,-400000.0625
150.31044960021973,-400000.0625,-2547.929931640625,2506.35009765625,-400000.0625,-3276.110107421875,-400000.0625,2983.52001953125,-400000.0625
150.32446765899658,-400000.0625,-2569.820068359375,2486.89990234375,-400000.0625,-3293.280029296875,-400000.0625,2964.830078125,-400000.0625
150.3376703262329,-400000.0625,-2554.989990234375,2504.639892578125,-400000.0625,-3274.489990234375,-400000.0625,2983.949951171875,-400000.0625
150.3480396270752,-400000.0625,-2522.52001953125,2536.820068359375,-400000.0625,-3244.919921875,-400000.0625,3008.699951171875,-400000.0625
150.3630816936493,-400000.0625,-2515.7900390625,2541.449951171875,-400000.0625,-3242.110107421875,-400000.0625,3009.56005859375,-400000.0625
150.37600421905518,-400000.0625,-2549.409912109375,2507.929931640625,-400000.0625,-3270.47998046875,-400000.0625,2981.7099609375,-400000.0625
150.39036178588867,-400000.0625,-2578.590087890625,2478.409912109375,-400000.0625,-3290.179931640625,-400000.0625,2960.969970703125,-400000.0625
150.4241783618927,-400000.0625,-2557.989990234375,2499.389892578125,-400000.0625,-3269.239990234375,-400000.0625,2980.330078125,-400000.0625
150.4423406124115,-400000.0625,-2520.800048828125,2535.14990234375,-400000.0625,-3247.97998046875,-400000.0625,3011.1298828125,-400000.0625
150.45703649520874,-400000.0625,-2525.570068359375,2530.77001953125,-400000.0625,-3255.219970703125,-400000.0625,3011.510009765625,-400000.0625
150.4658694267273,-400000.0625,-2555.469970703125,2499.77001953125,-400000.0625,-3278.35009765625,-400000.0625,2978.989990234375,-400000.0625
150.6946747303009,-400000.0625,-2525.570068359375,2511.219970703125,-400000.0625,-3287.27001953125,-400000.0625,2990.8701171875,-400000.0625
150.8012080192566,-400000.0625,-2503.43994140625,2533.25,-400000.0625,-3263.89990234375,-400000.0625,3020.3798828125,-400000.0625
150.86583709716797,-400000.0625,-2539.35009765625,2491.89990234375,-400000.0625,-3303.9599609375,-400000.0625,2986.47998046875,-400000.0625
150.92695450782776,-400000.0625,-2556.320068359375,2476.639892578125,-400000.0625,-3314.110107421875,-400000.0625,2961.830078125,-400000.0625
150.99070811271667,-400000.0625,-2526.3798828125,2507.35009765625,-400000.0625,-3294.1298828125,-400000.0625,2991.10009765625,-400000.0625
151.0934338569641,-400000.0625,-2502.06005859375,2530.18994140625,-400000.0625,-3277.590087890625,-400000.0625,3011.3701171875,-400000.0625
151.12079763412476,-400000.0625,-2542.449951171875,2489.330078125,-400000.0625,-3306.340087890625,-400000.0625,2973.989990234375,-400000.0625
151.18401765823364,-400000.0625,-2550.699951171875,2485.179931640625,-400000.0625,-3311.06005859375,-400000.0625,2970.1201171875,-400000.0625
151.2536656856537,-400000.0625,-2574.590087890625,2465.43994140625,-400000.0625,-3329.090087890625,-400000.0625,2958.489990234375,-400000.0625
151.3165590763092,-400000.0625,-2544.260009765625,2489.469970703125,-400000.0625,-3302.77001953125,-400000.0625,2978.280029296875,-400000.0625
151.40068125724792,-400000.0625,-2526.280029296875,2514.929931640625,-400000.0625,-3276.780029296875,-400000.0625,2998.830078125,-400000.0625
151.44287729263306,-400000.0625,-2536.72998046875,2503.300048828125,-400000.0625,-3295.800048828125,-400000.0625,2991.580078125,-400000.0625
151.51722168922424,-400000.0625,-2579.780029296875,2461.580078125,-400000.0625,-3322.64990234375,-400000.0625,2959.5400390625,-400000.0625
151.57271885871887,-400000.0625,-2590.699951171875,2450.93994140625,-400000.0625,-3336.47998046875,-400000.0625,2948.18994140625,-400000.0625
151.69449305534363,-400000.0625,-2534.6298828125,2503.919921875,-400000.0625,-3289.27001953125,-400000.0625,3003.5,-400000.0625
151.8209743499756,-400000.0625,-2576.590087890625,2460.2900390625,-400000.0625,-3326.85009765625,-400000.0625,2950.949951171875,-400000.0625
151.8849334716797,-400000.0625,-2591.989990234375,2444.840087890625,-400000.0625,-3337.669921875,-400000.0625,2944.280029296875,-400000.0625
151.9644799232483,-400000.0625,-2531.580078125,2504.969970703125,-400000.0625,-3293.22998046875,-400000.0625,2990.199951171875,-400000.0625
152.01758241653442,-400000.0625,-2534.43994140625,2501.010009765625,-400000.0625,-3292.3701171875,-400000.0625,2990.43994140625,-400000.0625
152.07756066322327,-400000.0625,-2583.550048828125,2451.320068359375,-400000.0625,-3327.080078125,-400000.0625,2942.56005859375,-400000.0625
152.16444039344788,-400000.0625,-2572.580078125,2467.72998046875,-400000.0625,-3323.840087890625,-400000.0625,2942.280029296875,-400000.0625
152.21723699569702,-400000.0625,-2583.070068359375,2453.22998046875,-400000.0625,-3323.169921875,-400000.0625,2937.4599609375,-400000.0625
152.26962757110596,-400000.0625,-2556.75,2483.75,-400000.0625,-3296.610107421875,-400000.0625,2971.7900390625,-400000.0625
152.4644274711609,-400000.0625,-2579.830078125,2459.570068359375,-400000.0625,-3331.610107421875,-400000.0625,2941.699951171875,-400000.0625
152.5512273311615,-400000.0625,-2595.52001953125,2444.080078125,-400000.0625,-3324.56005859375,-400000.0625,2938.699951171875,-400000.0625
152.5612816810608,-400000.0625,-2569.14990234375,2475.260009765625,-400000.0625,-3307.820068359375,-400000.0625,2965.360107421875,-400000.0625
152.57249569892883,-400000.0625,-2547.68994140625,2497.14990234375,-400000.0625,-3291.320068359375,-400000.0625,2991.820068359375,-400000.0625
152.59644269943237,-400000.0625,-2562.570068359375,2482.840087890625,-400000.0625,-3300.81005859375,-400000.0625,2977.1298828125,-400000.0625
152.60943269729614,-400000.0625,-2593.090087890625,2452.3701171875,-400000.0625,-3327.22998046875,-400000.0625,2943.22998046875,-400000.0625
152.62099432945251,-400000.0625,-2597.669921875,2442.31005859375,-400000.0625,-3327.800048828125,-400000.0625,2938.320068359375,-400000.0625
152.63120675086975,-400000.0625,-2569.820068359375,2472.2099609375,-400000.0625,-3304.669921875,-400000.0625,2965.639892578125,-400000.0625
152.64300632476807,-400000.0625,-2541.02001953125,2499.199951171875,-400000.0625,-3282.550048828125,-400000.0625,2991.679931640625,-400000.0625
152.65537810325623,-400000.0625,-2553.840087890625,2482.179931640625,-400000.0625,-3294.419921875,-400000.0625,2975.0400390625,-400000.0625
152.66982650756836,-400000.0625,-2591.610107421875,2450.469970703125,-400000.0625,-3321.840087890625,-400000.0625,2943.1298828125,-400000.0625
152.68029475212097,-400000.0625,-2605.8701171875,2443.080078125,-400000.0625,-3330.179931640625,-400000.0625,2935.929931640625,-400000.0625
152.7369396686554,-400000.0625,-2574.72998046875,2471.159912109375,-400000.0625,-3302.909912109375,-400000.0625,2963.639892578125,-400000.0625
152.75564861297607,-400000.0625,-2550.7900390625,2492.47998046875,-400000.0625,-3287.27001953125,-400000.0625,2988.239990234375,-400000.0625
152.77546429634094,-400000.0625,-2563.860107421875,2478.97998046875,-400000.0625,-3304.9599609375,-400000.0625,2970.929931640625,-400000.0625
152.7900266647339,-400000.0625,-2594.949951171875,2448.699951171875,-400000.0625,-3326.989990234375,-400000.0625,2938.4599609375,-400000.0625
152.8137023448944,-400000.0625,-2600.47998046875,2443.1201171875,-400000.0625,-3330.330078125,-400000.0625,2932.360107421875,-400000.0625
152.82852482795715,-400000.0625,-2570.25,2473.159912109375,-400000.0625,-3310.969970703125,-400000.0625,2965.68994140625,-400000.0625
152.84124755859375,-400000.0625,-2547.219970703125,2496.9599609375,-400000.0625,-3286.64990234375,-400000.0625,2988.2900390625,-400000.0625
152.85396695137024,-400000.0625,-2564.760009765625,2480.840087890625,-400000.0625,-3297.659912109375,-400000.0625,2970.31005859375,-400000.0625
152.86536741256714,-400000.0625,-2593.090087890625,2445.93994140625,-400000.0625,-3325.510009765625,-400000.0625,2938.699951171875,-400000.0625
152.87848734855652,-400000.0625,-2596.7099609375,2443.64990234375,-400000.0625,-3327.3701171875,-400000.0625,2933.070068359375,-400000.0625
152.8909661769867,-400000.0625,-2568.050048828125,2475.169921875,-400000.0625,-3300.2900390625,-400000.0625,2959.199951171875,-400000.0625
152.92061114311218,-400000.0625,-2553.080078125,2491.280029296875,-400000.0625,-3287.840087890625,-400000.0625,2978.75,-400000.0625
152.93704867362976,-400000.0625,-2573.5400390625,2472.929931640625,-400000.0625,-3309.35009765625,-400000.0625,2966.5,-400000.0625
152.94843292236328,-400000.0625,-2601.340087890625,2442.60009765625,-400000.0625,-3334.669921875,-400000.0625,2934.60009765625,-400000.0625
152.96418976783752,-400000.0625,-2606.300048828125,2438.070068359375,-400000.0625,-3332.3798828125,-400000.0625,2926.02001953125,-400000.0625
152.97910594940186,-400000.0625,-2577.449951171875,2466.489990234375,-400000.0625,-3306.340087890625,-400000.0625,2953.909912109375,-400000.0625
153.1697075366974,-400000.0625,-2589.889892578125,2456.469970703125,-400000.0625,-3322.550048828125,-400000.0625,2956.919921875,-400000.0625
153.2735481262207,-400000.0625,-2530.050048828125,2512.5,-400000.0625,-3279.8798828125,-400000.0625,3013.419921875,-400000.0625
153.2935769557953,-400000.0625,-2550.1298828125,2490.659912109375,-400000.0625,-3301.570068359375,-400000.0625,2992.679931640625,-400000.0625
153.42072415351868,-400000.0625,-2589.320068359375,2454.7099609375,-400000.0625,-3321.31005859375,-400000.0625,2953.340087890625,-400000.0625
153.48609280586243,-400000.0625,-2591.22998046875,2459.429931640625,-400000.0625,-3324.219970703125,-400000.0625,2955.679931640625,-400000.0625
153.5511863231659,-400000.0625,-2534.909912109375,2513.929931640625,-400000.0625,-3273.5400390625,-400000.0625,3002.739990234375,-400000.0625
153.67842483520508,-400000.0625,-2554.27001953125,2496.389892578125,-400000.0625,-3288.64990234375,-400000.0625,2982.429931640625,-400000.0625
153.81981587409973,-400000.0625,-2587.56005859375,2467.679931640625,-400000.0625,-3315.929931640625,-400000.0625,2949.570068359375,-400000.0625
153.87214136123657,-400000.0625,-2556.75,2499.340087890625,-400000.0625,-3302.340087890625,-400000.0625,2979.659912109375,-400000.0625
153.93346881866455,-400000.0625,-2556.3701171875,2503.43994140625,-400000.0625,-3304.6201171875,-400000.0625,2983.860107421875,-400000.0625
154.0643961429596,-400000.0625,-2583.030029296875,2468.06005859375,-400000.0625,-3325.93994140625,-400000.0625,2943.659912109375,-400000.0625
154.12612104415894,-400000.0625,-2593.469970703125,2469.25,-400000.0625,-3318.8798828125,-400000.0625,2936.550048828125,-400000.0625
154.19103002548218,-400000.0625,-2556.659912109375,2499.2900390625,-400000.0625,-3292.85009765625,-400000.0625,2969.360107421875,-400000.0625
154.2622847557068,-400000.0625,-2540.2099609375,2514.030029296875,-400000.0625,-3286.080078125,-400000.0625,2982.280029296875,-400000.0625
154.3384609222412,-400000.0625,-2588.3701171875,2462.2900390625,-400000.0625,-3329.7099609375,-400000.0625,2937.4599609375,-400000.0625
154.38714385032654,-400000.0625,-2591.7099609375,2465.389892578125,-400000.0625,-3333.18994140625,-400000.0625,2937.320068359375,-400000.0625
154.45014333724976,-400000.0625,-2557.85009765625,2502.489990234375,-400000.0625,-3284.64990234375,-400000.0625,2979.469970703125,-400000.0625
154.5208764076233,-400000.0625,-2539.2099609375,2520.699951171875,-400000.0625,-3290.75,-400000.0625,2982.860107421875,-400000.0625
154.57727336883545,-400000.0625,-2561.330078125,2501.14990234375,-400000.0625,-3304.429931640625,-400000.0625,2963.2099609375,-400000.0625
154.74562573432922,-400000.0625,-2591.419921875,2468.39990234375,-400000.0625,-3330.56005859375,-400000.0625,2936.320068359375,-400000.0625
154.76715683937073,-400000.0625,-2580.360107421875,2482.080078125,-400000.0625,-3327.22998046875,-400000.0625,2941.989990234375,-400000.0625
154.8336536884308,-400000.0625,-2546.070068359375,2519.080078125,-400000.0625,-3287.169921875,-400000.0625,2978.7099609375,-400000.0625
154.89357495307922,-400000.0625,-2564.050048828125,2504.39990234375,-400000.0625,-3296.7099609375,-400000.0625,2964.2099609375,-400000.0625
154.97233700752258,-400000.0625,-2599.669921875,2471.68994140625,-400000.0625,-3318.02001953125,-400000.0625,2935.929931640625,-400000.0625
155.02478575706482,-400000.0625,-2600.2900390625,2473.02001953125,-400000.0625,-3322.27001953125,-400000.0625,2934.5,-400000.0625
155.04414749145508,-400000.0625,-2589.800048828125,2483.080078125,-400000.0625,-3322.27001953125,-400000.0625,2942.179931640625,-400000.0625
155.05169916152954,-400000.0625,-2557.989990234375,2517.27001953125,-400000.0625,-3290.610107421875,-400000.0625,2973.93994140625,-400000.0625
155.0604076385498,-400000.0625,-2547.840087890625,2527.47998046875,-400000.0625,-3278.449951171875,-400000.0625,2987.429931640625,-400000.0625
155.06950736045837,-400000.0625,-2568.050048828125,2503.489990234375,-400000.0625,-3300.239990234375,-400000.0625,2959.969970703125,-400000.0625
155.07894134521484,-400000.0625,-2601.050048828125,2475.60009765625,-400000.0625,-3322.510009765625,-400000.0625,2934.360107421875,-400000.0625
155.0886824131012,-400000.0625,-2592.090087890625,2485.85009765625,-400000.0625,-3312.39990234375,-400000.0625,2944.7099609375,-400000.0625
155.0981113910675,-400000.0625,-2553.179931640625,2519.699951171875,-400000.0625,-3283.60009765625,-400000.0625,2979.570068359375,-400000.0625
155.10950112342834,-400000.0625,-2543.5,2530.530029296875,-400000.0625,-3278.72998046875,-400000.0625,2990.8701171875,-400000.0625
155.1195867061615,-400000.0625,-2570.199951171875,2503.820068359375,-400000.0625,-3306.6298828125,-400000.0625,2959.679931640625,-400000.0625
155.12919855117798,-400000.0625,-2596.81005859375,2476.60009765625,-400000.0625,-3327.889892578125,-400000.0625,2932.639892578125,-400000.0625
155.14672255516052,-400000.0625,-2585.97998046875,2490.570068359375,-400000.0625,-3314.110107421875,-400000.0625,2944.22998046875,-400000.0625
155.15609288215637,-400000.0625,-2549.699951171875,2527.090087890625,-400000.0625,-3283.409912109375,-400000.0625,2980.179931640625,-400000.0625
155.16366624832153,-400000.0625,-2535.580078125,2538.72998046875,-400000.0625,-3270.10009765625,-400000.0625,2992.25,-400000.0625
155.17587614059448,-400000.0625,-2563.52001953125,2513.929931640625,-400000.0625,-3292.800048828125,-400000.0625,2965.360107421875,-400000.0625
155.18546080589294,-400000.0625,-2592.52001953125,2484.27001953125,-400000.0625,-3316.5,-400000.0625,2932.929931640625,-400000.0625
155.196932554245,-400000.0625,-2581.31005859375,2495.0,-400000.0625,-3310.969970703125,-400000.0625,2945.330078125,-400000.0625
155.20798754692078,-400000.0625,-2548.64990234375,2528.6201171875,-400000.0625,-3280.969970703125,-400000.0625,2975.56005859375,-400000.0625
155.21570253372192,-400000.0625,-2542.830078125,2536.010009765625,-400000.0625,-3272.06005859375,-400000.0625,2988.050048828125,-400000.0625
155.2270050048828,-400000.0625,-2569.340087890625,2512.1201171875,-400000.0625,-3291.75,-400000.0625,2963.35009765625,-400000.0625
155.23710703849792,-400000.0625,-2593.090087890625,2485.280029296875,-400000.0625,-3316.830078125,-400000.0625,2930.830078125,-400000.0625
155.25905847549438,-400000.0625,-2586.7900390625,2493.909912109375,-400000.0625,-3311.35009765625,-400000.0625,2941.85009765625,-400000.0625
155.26738286018372,-400000.0625,-2560.469970703125,2522.419921875,-400000.0625,-3286.64990234375,-400000.0625,2974.510009765625,-400000.0625
155.2766556739807,-400000.0625,-2545.550048828125,2529.340087890625,-400000.0625,-3280.02001953125,-400000.0625,2983.52001953125,-400000.0625
155.28609800338745,-400000.0625,-2574.010009765625,2505.449951171875,-400000.0625,-3299.570068359375,-400000.0625,2954.389892578125,-400000.0625
155.29506921768188,-400000.0625,-2605.719970703125,2475.260009765625,-400000.0625,-3317.739990234375,-400000.0625,2925.969970703125,-400000.0625
155.30373549461365,-400000.0625,-2589.56005859375,2492.52001953125,-400000.0625,-3302.429931640625,-400000.0625,2936.360107421875,-400000.0625
155.31230092048645,-400000.0625,-2561.239990234375,2518.419921875,-400000.0625,-3280.35009765625,-400000.0625,2966.449951171875,-400000.0625
155.32458686828613,-400000.0625,-2565.77001953125,2534.010009765625,-400000.0625,-3276.35009765625,-400000.0625,2988.820068359375,-400000.0625
155.3348433971405,-400000.0625,-2594.81005859375,2518.56005859375,-400000.0625,-3286.360107421875,-400000.0625,2977.0400390625,-400000.0625
155.34458374977112,-400000.0625,-2625.419921875,2504.110107421875,-400000.0625,-3305.389892578125,-400000.0625,2949.760009765625,-400000.0625
155.36433005332947,-400000.0625,-2632.570068359375,2512.169921875,-400000.0625,-3300.949951171875,-400000.0625,2954.669921875,-400000.0625
155.37743020057678,-400000.0625,-2603.47998046875,2539.5400390625,-400000.0625,-3273.77001953125,-400000.0625,2990.199951171875,-400000.0625
155.3896062374115,-400000.0625,-2597.570068359375,2537.8701171875,-400000.0625,-3259.3701171875,-400000.0625,2987.18994140625,-400000.0625
155.39819931983948,-400000.0625,-2638.340087890625,2498.340087890625,-400000.0625,-3269.580078125,-400000.0625,2945.330078125,-400000.0625
155.40992069244385,-400000.0625,-2664.3798828125,2451.1298828125,-400000.0625,-3282.02001953125,-400000.0625,2894.1201171875,-400000.0625
155.4196789264679,-400000.0625,-2693.800048828125,2445.510009765625,-400000.0625,-3258.320068359375,-400000.0625,2898.1201171875,-400000.0625
155.42899131774902,-400000.0625,-2701.239990234375,2466.969970703125,-400000.0625,-3206.2099609375,-400000.0625,2919.10009765625,-400000.0625
155.43882846832275,-400000.0625,-2747.010009765625,2451.85009765625,-400000.0625,-3172.639892578125,-400000.0625,2905.080078125,-400000.0625
155.4479079246521,-400000.0625,-2841.330078125,2400.110107421875,-400000.0625,-3166.25,-400000.0625,2849.820068359375,-400000.0625
155.4708116054535,-400000.0625,-2922.679931640625,2343.22998046875,-400000.0625,-3165.580078125,-400000.0625,2800.1298828125,-400000.0625
155.47914171218872,-400000.0625,-2954.2900390625,2328.300048828125,-400000.0625,-3140.260009765625,-400000.0625,2787.969970703125,-400000.0625
155.53509950637817,-400000.0625,-2546.8798828125,2535.719970703125,-400000.0625,-3274.77001953125,-400000.0625,3000.070068359375,-400000.0625
155.66562390327454,-400000.0625,-2590.93994140625,2483.320068359375,-400000.0625,-3333.760009765625,-400000.0625,2946.89990234375,-400000.0625
155.7246356010437,-400000.0625,-2580.260009765625,2496.580078125,-400000.0625,-3310.300048828125,-400000.0625,2949.52001953125,-400000.0625
155.9182722568512,-400000.0625,-2544.5,2514.409912109375,-400000.0625,-3304.820068359375,-400000.0625,2970.4599609375,-400000.0625
155.98447799682617,-400000.0625,-2578.969970703125,2486.469970703125,-400000.0625,-3323.64990234375,-400000.0625,2947.429931640625,-400000.0625
156.0493197441101,-400000.0625,-2557.280029296875,2508.2099609375,-400000.0625,-3304.530029296875,-400000.0625,2961.8701171875,-400000.0625
156.21076488494873,-400000.0625,-2524.139892578125,2543.8798828125,-400000.0625,-3273.820068359375,-400000.0625,2989.199951171875,-400000.0625
156.25085377693176,-400000.0625,-2567.239990234375,2506.68994140625,-400000.0625,-3308.340087890625,-400000.0625,2956.580078125,-400000.0625
156.3021845817566,-400000.0625,-2584.510009765625,2482.610107421875,-400000.0625,-3317.2099609375,-400000.0625,2929.68994140625,-400000.0625
156.36780548095703,-400000.0625,-2567.340087890625,2506.159912109375,-400000.0625,-3297.139892578125,-400000.0625,2949.81005859375,-400000.0625
156.42839789390564,-400000.0625,-2544.02001953125,2527.81005859375,-400000.0625,-3277.39990234375,-400000.0625,2974.1298828125,-400000.0625
156.50542783737183,-400000.0625,-2545.8798828125,2527.050048828125,-400000.0625,-3278.2099609375,-400000.0625,2970.60009765625,-400000.0625
156.62301397323608,-400000.0625,-2591.56005859375,2478.27001953125,-400000.0625,-3312.590087890625,-400000.0625,2915.81005859375,-400000.0625
156.68442797660828,-400000.0625,-2578.1201171875,2493.909912109375,-400000.0625,-3295.3701171875,-400000.0625,2937.64990234375,-400000.0625
156.81682014465332,-400000.0625,-2546.97998046875,2523.090087890625,-400000.0625,-3271.77001953125,-400000.0625,2955.47998046875,-400000.0625
156.87817478179932,-400000.0625,-2571.25,2498.050048828125,-400000.0625,-3300.7099609375,-400000.0625,2929.969970703125,-400000.0625
156.94340825080872,-400000.0625,-2598.10009765625,2479.4599609375,-400000.0625,-3313.8798828125,-400000.0625,2908.610107421875,-400000.0625
157.01835680007935,-400000.0625,-2581.68994140625,2493.2900390625,-400000.0625,-3301.760009765625,-400000.0625,2918.239990234375,-400000.0625
157.07444500923157,-400000.0625,-2546.31005859375,2523.0400390625,-400000.0625,-3281.360107421875,-400000.0625,2964.070068359375,-400000.0625
157.13405799865723,-400000.0625,-2541.39990234375,2522.179931640625,-400000.0625,-3284.8798828125,-400000.0625,2961.300048828125,-400000.0625
157.2179605960846,-400000.0625,-2573.43994140625,2499.340087890625,-400000.0625,-3306.909912109375,-400000.0625,2937.1298828125,-400000.0625
157.30086064338684,-400000.0625,-2602.77001953125,2476.360107421875,-400000.0625,-3320.31005859375,-400000.0625,2919.820068359375,-400000.0625
157.32571506500244,-400000.0625,-2575.919921875,2501.77001953125,-400000.0625,-3300.760009765625,-400000.0625,2934.840087890625,-400000.0625
157.45711660385132,-400000.0625,-2550.409912109375,2530.530029296875,-400000.0625,-3276.72998046875,-400000.0625,2956.919921875,-400000.0625
157.52236485481262,-400000.0625,-2595.949951171875,2488.419921875,-400000.0625,-3313.5400390625,-400000.0625,2920.6298828125,-400000.0625
157.52985048294067,-400000.0625,-2610.39990234375,2474.739990234375,-400000.0625,-3325.1298828125,-400000.0625,2904.179931640625,-400000.0625
157.54215383529663,-400000.0625,-2581.7900390625,2501.43994140625,-400000.0625,-3298.0400390625,-400000.0625,2930.070068359375,-400000.0625
157.55122923851013,-400000.0625,-2558.659912109375,2526.139892578125,-400000.0625,-3274.43994140625,-400000.0625,2957.8701171875,-400000.0625
157.56213355064392,-400000.0625,-2558.760009765625,2521.93994140625,-400000.0625,-3288.320068359375,-400000.0625,2954.050048828125,-400000.0625
157.58523535728455,-400000.0625,-2585.4599609375,2494.18994140625,-400000.0625,-3313.35009765625,-400000.0625,2922.489990234375,-400000.0625
157.59821939468384,-400000.0625,-2604.679931640625,2476.260009765625,-400000.0625,-3320.68994140625,-400000.0625,2907.090087890625,-400000.0625
157.6108763217926,-400000.0625,-2584.550048828125,2499.010009765625,-400000.0625,-3300.860107421875,-400000.0625,2926.72998046875,-400000.0625
