time,ch1,ch2,ch3,ch4,ch5
timestamp,ch7,ch2,ch3,ch5,is_pause
timestamp,ch7,ch2,ch3,ch5,is_pause
timestamp,ch7,ch2,ch3,ch5,is_pause
0.055573463439941406,-400000.0625,-2880.909912109375,2214.340087890625,-400000.0625,-3230.669921875,-400000.0625,3128.580078125,-400000.0625
0.05591893196105957,-400000.0625,-2845.6201171875,2254.9599609375,-400000.0625,-3219.1298828125,-400000.0625,3124.52001953125,-400000.0625
0.05595684051513672,-400000.0625,-2862.31005859375,2236.800048828125,-400000.0625,-3245.31005859375,-400000.0625,3060.14990234375,-400000.0625
0.05596804618835449,-400000.0625,-2870.3701171875,2226.31005859375,-400000.0625,-3272.389892578125,-400000.0625,3009.93994140625,-400000.0625
0.055976152420043945,-400000.0625,-2827.5,2270.3701171875,-400000.0625,-3249.449951171875,-400000.0625,3019.2900390625,-400000.0625
0.055983781814575195,-400000.0625,-2770.090087890625,2336.7900390625,-400000.0625,-3212.7900390625,-400000.0625,3052.330078125,-400000.0625
0.05599188804626465,-400000.0625,-2743.340087890625,2365.489990234375,-400000.0625,-3204.5400390625,-400000.0625,3052.570068359375,-400000.0625
0.0559992790222168,-400000.0625,-2772.860107421875,2341.4599609375,-400000.0625,-3241.489990234375,-400000.0625,3012.179931640625,-400000.0625
0.05600619316101074,-400000.0625,-2823.070068359375,2306.27001953125,-400000.0625,-3272.43994140625,-400000.0625,2961.679931640625,-400000.0625
0.05601310729980469,-400000.0625,-2801.75,2331.919921875,-400000.0625,-3253.030029296875,-400000.0625,2969.169921875,-400000.0625
0.056020259857177734,-400000.0625,-2743.580078125,2380.1298828125,-400000.0625,-3212.1201171875,-400000.0625,3016.419921875,-400000.0625
0.05602717399597168,-400000.0625,-2729.75,2392.530029296875,-400000.0625,-3208.02001953125,-400000.0625,3031.159912109375,-400000.0625
0.056034088134765625,-400000.0625,-2774.330078125,2352.3798828125,-400000.0625,-3243.68994140625,-400000.0625,2995.969970703125,-400000.0625
0.05604100227355957,-400000.0625,-2819.489990234375,2312.139892578125,-400000.0625,-3273.010009765625,-400000.0625,2952.47998046875,-400000.0625
0.05604863166809082,-400000.0625,-2793.550048828125,2336.219970703125,-400000.0625,-3249.169921875,-400000.0625,2975.989990234375,-400000.0625
0.05606555938720703,-400000.0625,-2745.6298828125,2386.429931640625,-400000.0625,-3207.2099609375,-400000.0625,3028.679931640625,-400000.0625
timestamp,ch7,ch2,ch3,ch5,is_pause
timestamp,ch7,ch2,ch3,ch5,is_pause
0.08111715316772461,-400000.0625,-2738.2900390625,2397.35009765625,-400000.0625,-3210.780029296875,-400000.0625,3039.68994140625,-400000.0625
0.08130002021789551,-400000.0625,-2791.02001953125,2346.56005859375,-400000.0625,-3245.31005859375,-400000.0625,2993.14990234375,-400000.0625
0.08132648468017578,-400000.0625,-2828.840087890625,2310.7099609375,-400000.0625,-3270.580078125,-400000.0625,2957.8701171875,-400000.0625
0.08134722709655762,-400000.0625,-2813.719970703125,2327.5400390625,-400000.0625,-3256.3701171875,-400000.0625,2980.760009765625,-400000.0625
0.08138489723205566,-400000.0625,-2771.22998046875,2371.97998046875,-400000.0625,-3215.97998046875,-400000.0625,3025.820068359375,-400000.0625
0.08140730857849121,-400000.0625,-2758.360107421875,2382.469970703125,-400000.0625,-3214.169921875,-400000.0625,3035.2099609375,-400000.0625
0.08142662048339844,-400000.0625,-2799.699951171875,2343.510009765625,-400000.0625,-3246.780029296875,-400000.0625,3001.169921875,-400000.0625
0.08144521713256836,-400000.0625,-2842.18994140625,2308.080078125,-400000.0625,-3270.820068359375,-400000.0625,2968.8798828125,-400000.0625
0.08146286010742188,-400000.0625,-2819.159912109375,2327.820068359375,-400000.0625,-3252.4599609375,-400000.0625,2988.389892578125,-400000.0625
0.08148312568664551,-400000.0625,-2770.330078125,2379.469970703125,-400000.0625,-3203.14990234375,-400000.0625,3037.8798828125,-400000.0625
0.08150291442871094,-400000.0625,-2763.56005859375,2390.18994140625,-400000.0625,-3200.010009765625,-400000.0625,3045.800048828125,-400000.0625
0.08152174949645996,-400000.0625,-2812.669921875,2343.27001953125,-400000.0625,-3238.9599609375,-400000.0625,3007.699951171875,-400000.0625
0.08154106140136719,-400000.0625,-2854.300048828125,2300.219970703125,-400000.0625,-3273.199951171875,-400000.0625,2968.1201171875,-400000.0625
0.08156609535217285,-400000.0625,-2835.320068359375,2318.81005859375,-400000.0625,-3257.419921875,-400000.0625,2987.239990234375,-400000.0625
0.08158516883850098,-400000.0625,-2784.820068359375,2370.550048828125,-400000.0625,-3214.8798828125,-400000.0625,3038.929931640625,-400000.0625
0.0816042423248291,-400000.0625,-2785.830078125,2373.360107421875,-400000.0625,-3210.739990234375,-400000.0625,3046.93994140625,-400000.0625
timestamp,ch7,ch2,ch3,ch5,is_pause
timestamp,ch7,ch2,ch3,ch5,is_pause
timestamp,ch7,ch2,ch3,ch5,is_pause
timestamp,ch7,ch2,ch3,ch5,is_pause
0.1438279151916504,-400000.0625,-2829.739990234375,2331.590087890625,-400000.0625,-3235.14990234375,-400000.0625,3005.080078125,-400000.0625
timestamp,ch7,ch2,ch3,ch5,is_pause
0.15603923797607422,-400000.0625,-2863.68994140625,2300.550048828125,-400000.0625,-3259.949951171875,-400000.0625,2973.1298828125,-400000.0625
0.15618300437927246,-400000.0625,-2848.239990234375,2316.6201171875,-400000.0625,-3244.2099609375,-400000.0625,2991.580078125,-400000.0625
0.1562049388885498,-400000.0625,-2804.800048828125,2358.77001953125,-400000.0625,-3210.5,-400000.0625,3035.590087890625,-400000.0625
0.15622425079345703,-400000.0625,-2795.97998046875,2367.929931640625,-400000.0625,-3202.919921875,-400000.0625,3047.419921875,-400000.0625
0.15624332427978516,-400000.0625,-2839.3701171875,2326.06005859375,-400000.0625,-3234.050048828125,-400000.0625,3012.610107421875,-400000.0625
0.15626144409179688,-400000.0625,-2872.89990234375,2294.25,-400000.0625,-3256.22998046875,-400000.0625,2978.469970703125,-400000.0625
0.1562793254852295,-400000.0625,-2851.110107421875,2317.6201171875,-400000.0625,-3235.43994140625,-400000.0625,3002.830078125,-400000.0625
0.156296968460083,-400000.0625,-2803.989990234375,2364.25,-400000.0625,-3203.77001953125,-400000.0625,3051.419921875,-400000.0625
0.15631484985351562,-400000.0625,-2799.3701171875,2368.260009765625,-400000.0625,-3200.10009765625,-400000.0625,3053.81005859375,-400000.0625
0.15633940696716309,-400000.0625,-2847.14990234375,2322.860107421875,-400000.0625,-3231.909912109375,-400000.0625,3013.1298828125,-400000.0625
0.15635895729064941,-400000.0625,-2890.8701171875,2282.6201171875,-400000.0625,-3260.800048828125,-400000.0625,2975.3701171875,-400000.0625
0.15637731552124023,-400000.0625,-2868.4599609375,2305.60009765625,-400000.0625,-3237.300048828125,-400000.0625,2990.389892578125,-400000.0625
0.15639543533325195,-400000.0625,-2826.070068359375,2346.1298828125,-400000.0625,-3208.39990234375,-400000.0625,3037.449951171875,-400000.0625
0.15641355514526367,-400000.0625,-2815.530029296875,2355.340087890625,-400000.0625,-3203.110107421875,-400000.0625,3061.10009765625,-400000.0625
0.1564316749572754,-400000.0625,-2861.260009765625,2313.52001953125,-400000.0625,-3236.199951171875,-400000.0625,3020.139892578125,-400000.0625
timestamp,ch7,ch2,ch3,ch5,is_pause
timestamp,ch7,ch2,ch3,ch5,is_pause
timestamp,ch7,ch2,ch3,ch5,is_pause
timestamp,ch7,ch2,ch3,ch5,is_pause
timestamp,ch7,ch2,ch3,ch5,is_pause
0.21801257133483887,-400000.0625,-2898.739990234375,2275.1298828125,-400000.0625,-3264.81005859375,-400000.0625,2980.7099609375,-400000.0625
0.21816205978393555,-400000.0625,-2895.8798828125,2282.909912109375,-400000.0625,-3248.8798828125,-400000.0625,2988.580078125,-400000.0625
0.21817350387573242,-400000.0625,-2860.5,2328.780029296875,-400000.0625,-3217.60009765625,-400000.0625,3030.969970703125,-400000.0625
0.21818113327026367,-400000.0625,-2826.260009765625,2365.5400390625,-400000.0625,-3196.9599609375,-400000.0625,3045.510009765625,-400000.0625
0.21818828582763672,-400000.0625,-2837.85009765625,2340.699951171875,-400000.0625,-3214.31005859375,-400000.0625,3009.510009765625,-400000.0625
0.21819496154785156,-400000.0625,-2871.320068359375,2303.97998046875,-400000.0625,-3237.6298828125,-400000.0625,2958.820068359375,-400000.0625
0.21820402145385742,-400000.0625,-2847.9599609375,2330.830078125,-400000.0625,-3228.52001953125,-400000.0625,2962.02001953125,-400000.0625
0.21821141242980957,-400000.0625,-2795.320068359375,2389.050048828125,-400000.0625,-3195.2900390625,-400000.0625,2994.969970703125,-400000.0625
0.21822381019592285,-400000.0625,-2764.64990234375,2418.22998046875,-400000.0625,-3182.75,-400000.0625,2994.159912109375,-400000.0625
0.2182309627532959,-400000.0625,-2806.469970703125,2385.89990234375,-400000.0625,-3214.1201171875,-400000.0625,2934.219970703125,-400000.0625
0.21823906898498535,-400000.0625,-2840.760009765625,2360.8701171875,-400000.0625,-3245.31005859375,-400000.0625,2893.830078125,-400000.0625
0.2182462215423584,-400000.0625,-2829.840087890625,2379.22998046875,-400000.0625,-3227.760009765625,-400000.0625,2899.68994140625,-400000.0625
0.21825289726257324,-400000.0625,-2797.7900390625,2430.300048828125,-400000.0625,-3189.800048828125,-400000.0625,2940.3701171875,-400000.0625
0.2182598114013672,-400000.0625,-2765.22998046875,2466.919921875,-400000.0625,-3174.72998046875,-400000.0625,2957.6298828125,-400000.0625
0.21826910972595215,-400000.0625,-2787.590087890625,2441.97998046875,-400000.0625,-3210.739990234375,-400000.0625,2922.72998046875,-400000.0625
0.2182762622833252,-400000.0625,-2834.27001953125,2398.6298828125,-400000.0625,-3230.909912109375,-400000.0625,2876.570068359375,-400000.0625
timestamp,ch7,ch2,ch3,ch5,is_pause
timestamp,ch7,ch2,ch3,ch5,is_pause
timestamp,ch7,ch2,ch3,ch5,is_pause
0.27202701568603516,-400000.0625,-2828.070068359375,2402.39990234375,-400000.0625,-3220.510009765625,-400000.0625,2893.159912109375,-400000.0625
timestamp,ch7,ch2,ch3,ch5,is_pause
timestamp,ch7,ch2,ch3,ch5,is_pause
timestamp,ch7,ch2,ch3,ch5,is_pause
0.30873942375183105,-400000.0625,-2781.72998046875,2439.8798828125,-400000.0625,-3192.570068359375,-400000.0625,2936.75,-400000.0625
0.3204648494720459,-400000.0625,-2766.469970703125,2456.570068359375,-400000.0625,-3186.0400390625,-400000.0625,2953.580078125,-400000.0625
timestamp,ch7,ch2,ch3,ch5,is_pause
timestamp,ch7,ch2,ch3,ch5,is_pause
0.33745336532592773,-400000.0625,-2811.909912109375,2421.050048828125,-400000.0625,-3216.97998046875,-400000.0625,2918.530029296875,-400000.0625
timestamp,ch7,ch2,ch3,ch5,is_pause
0.3543856143951416,-400000.0625,-2858.8798828125,2376.60009765625,-400000.0625,-3254.4599609375,-400000.0625,2876.85009765625,-400000.0625
0.363722562789917,-400000.0625,-2833.889892578125,2399.39990234375,-400000.0625,-3230.429931640625,-400000.0625,2897.550048828125,-400000.0625
timestamp,ch7,ch2,ch3,ch5,is_pause
0.3795204162597656,-400000.0625,-2785.2099609375,2446.27001953125,-400000.0625,-3185.840087890625,-400000.0625,2953.719970703125,-400000.0625
timestamp,ch7,ch2,ch3,ch5,is_pause
timestamp,ch7,ch2,ch3,ch5,is_pause
0.4043769836425781,-400000.0625,-2780.489990234375,2451.800048828125,-400000.0625,-3187.75,-400000.0625,2964.639892578125,-400000.0625
timestamp,ch7,ch2,ch3,ch5,is_pause
0.41918420791625977,-400000.0625,-2825.929931640625,2405.68994140625,-400000.0625,-3220.030029296875,-400000.0625,2916.719970703125,-400000.0625
0.4297163486480713,-400000.0625,-2875.3798828125,2362.679931640625,-400000.0625,-3245.260009765625,-400000.0625,2874.760009765625,-400000.0625
timestamp,ch7,ch2,ch3,ch5,is_pause
0.44451022148132324,-400000.0625,-2850.010009765625,2387.429931640625,-400000.0625,-3227.3798828125,-400000.0625,2897.60009765625,-400000.0625
timestamp,ch7,ch2,ch3,ch5,is_pause
0.45885491371154785,-400000.0625,-2795.1201171875,2440.1201171875,-400000.0625,-3189.7099609375,-400000.0625,2953.6298828125,-400000.0625
timestamp,ch7,ch2,ch3,ch5,is_pause
0.47469162940979004,-400000.0625,-2781.300048828125,2451.610107421875,-400000.0625,-3179.169921875,-400000.0625,2967.7900390625,-400000.0625
timestamp,ch7,ch2,ch3,ch5,is_pause
0.4895503520965576,-400000.0625,-2816.9599609375,2414.419921875,-400000.0625,-3211.830078125,-400000.0625,2936.030029296875,-400000.0625
timestamp,ch7,ch2,ch3,ch5,is_pause
0.5143730640411377,-400000.0625,-2868.030029296875,2363.969970703125,-400000.0625,-3255.889892578125,-400000.0625,2888.72998046875,-400000.0625
timestamp,ch7,ch2,ch3,ch5,is_pause
0.5282089710235596,-400000.0625,-2859.2099609375,2375.97998046875,-400000.0625,-3251.4599609375,-400000.0625,2902.60009765625,-400000.0625
timestamp,ch7,ch2,ch3,ch5,is_pause
0.5434648990631104,-400000.0625,-2809.570068359375,2425.239990234375,-400000.0625,-3206.110107421875,-400000.0625,2953.10009765625,-400000.0625
timestamp,ch7,ch2,ch3,ch5,is_pause
0.5586059093475342,-400000.0625,-2809.429931640625,2428.10009765625,-400000.0625,-3186.419921875,-400000.0625,2956.43994140625,-400000.0625
timestamp,ch7,ch2,ch3,ch5,is_pause
0.57401442527771,-400000.0625,-2846.050048828125,2392.580078125,-400000.0625,-3212.7900390625,-400000.0625,2919.14990234375,-400000.0625
timestamp,ch7,ch2,ch3,ch5,is_pause
0.5885286331176758,-400000.0625,-2883.2900390625,2352.2900390625,-400000.0625,-3251.60009765625,-400000.0625,2877.6201171875,-400000.0625
timestamp,ch7,ch2,ch3,ch5,is_pause
0.6048393249511719,-400000.0625,-2858.780029296875,2374.840087890625,-400000.0625,-3232.6201171875,-400000.0625,2901.4599609375,-400000.0625
timestamp,ch7,ch2,ch3,ch5,is_pause
timestamp,ch7,ch2,ch3,ch5,is_pause
0.6345267295837402,-400000.0625,-2805.22998046875,2432.389892578125,-400000.0625,-3191.52001953125,-400000.0625,2956.43994140625,-400000.0625
timestamp,ch7,ch2,ch3,ch5,is_pause
0.6527228355407715,-400000.0625,-2788.590087890625,2448.27001953125,-400000.0625,-3174.8798828125,-400000.0625,2971.64990234375,-400000.0625
timestamp,ch7,ch2,ch3,ch5,is_pause
0.6675927639007568,-400000.0625,-2836.659912109375,2400.2099609375,-400000.0625,-3203.679931640625,-400000.0625,2930.97998046875,-400000.0625
timestamp,ch7,ch2,ch3,ch5,is_pause
0.6830081939697266,-400000.0625,-2881.47998046875,2355.340087890625,-400000.0625,-3241.590087890625,-400000.0625,2889.5400390625,-400000.0625
timestamp,ch7,ch2,ch3,ch5,is_pause
timestamp,ch7,ch2,ch3,ch5,is_pause
0.7056219577789307,-400000.0625,-2864.5,2372.7900390625,-400000.0625,-3229.7099609375,-400000.0625,2906.469970703125,-400000.0625
timestamp,ch7,ch2,ch3,ch5,is_pause
timestamp,ch7,ch2,ch3,ch5,is_pause
0.7316455841064453,-400000.0625,-2814.77001953125,2416.93994140625,-400000.0625,-3193.570068359375,-400000.0625,2953.719970703125,-400000.0625
0.7415018081665039,-400000.0625,-2809.0,2421.6201171875,-400000.0625,-3190.139892578125,-400000.0625,2964.8798828125,-400000.0625
timestamp,ch7,ch2,ch3,ch5,is_pause
0.7548151016235352,-400000.0625,-2853.489990234375,2381.75,-400000.0625,-3230.2900390625,-400000.0625,2929.449951171875,-400000.0625
timestamp,ch7,ch2,ch3,ch5,is_pause
0.7705070972442627,-400000.0625,-2889.679931640625,2346.1298828125,-400000.0625,-3257.889892578125,-400000.0625,2896.02001953125,-400000.0625
timestamp,ch7,ch2,ch3,ch5,is_pause
0.785184383392334,-400000.0625,-2871.800048828125,2365.02001953125,-400000.0625,-3233.389892578125,-400000.0625,2914.719970703125,-400000.0625
timestamp,ch7,ch2,ch3,ch5,is_pause
0.8022408485412598,-400000.0625,-2832.169921875,2405.60009765625,-400000.0625,-3194.47998046875,-400000.0625,2959.679931640625,-400000.0625
timestamp,ch7,ch2,ch3,ch5,is_pause
0.8174452781677246,-400000.0625,-2819.969970703125,2418.949951171875,-400000.0625,-3185.3701171875,-400000.0625,2970.030029296875,-400000.0625
timestamp,ch7,ch2,ch3,ch5,is_pause
timestamp,ch7,ch2,ch3,ch5,is_pause
timestamp,ch7,ch2,ch3,ch5,is_pause
0.8540654182434082,-400000.0625,-2850.340087890625,2388.6201171875,-400000.0625,-3213.219970703125,-400000.0625,2934.409912109375,-400000.0625
0.864295482635498,-400000.0625,-2897.360107421875,2340.4599609375,-400000.0625,-3250.169921875,-400000.0625,2897.409912109375,-400000.0625
timestamp,ch7,ch2,ch3,ch5,is_pause
0.878145694732666,-400000.0625,-2879.81005859375,2358.25,-400000.0625,-3232.10009765625,-400000.0625,2918.669921875,-400000.0625
timestamp,ch7,ch2,ch3,ch5,is_pause
0.8944964408874512,-400000.0625,-2835.56005859375,2399.639892578125,-400000.0625,-3202.530029296875,-400000.0625,2962.449951171875,-400000.0625
timestamp,ch7,ch2,ch3,ch5,is_pause
0.9084310531616211,-400000.0625,-2824.2099609375,2409.889892578125,-400000.0625,-3202.340087890625,-400000.0625,2975.889892578125,-400000.0625
timestamp,ch7,ch2,ch3,ch5,is_pause
0.9210407733917236,-400000.0625,-2860.159912109375,2376.3701171875,-400000.0625,-3224.659912109375,-400000.0625,2941.1298828125,-400000.0625
timestamp,ch7,ch2,ch3,ch5,is_pause
0.9446389675140381,-400000.0625,-2892.300048828125,2344.56005859375,-400000.0625,-3253.219970703125,-400000.0625,2904.56005859375,-400000.0625
timestamp,ch7,ch2,ch3,ch5,is_pause
0.9577367305755615,-400000.0625,-2876.0,2361.010009765625,-400000.0625,-3230.860107421875,-400000.0625,2919.47998046875,-400000.0625
timestamp,ch7,ch2,ch3,ch5,is_pause
0.9692094326019287,-400000.0625,-2827.60009765625,2411.889892578125,-400000.0625,-3196.669921875,-400000.0625,2978.419921875,-400000.0625
timestamp,ch7,ch2,ch3,ch5,is_pause
0.9818313121795654,-400000.0625,-2814.530029296875,2422.52001953125,-400000.0625,-3183.64990234375,-400000.0625,2988.909912109375,-400000.0625
0.9896435737609863,-400000.0625,-2861.68994140625,2377.64990234375,-400000.0625,-3208.590087890625,-400000.0625,2942.7099609375,-400000.0625
timestamp,ch7,ch2,ch3,ch5,is_pause
0.9986064434051514,-400000.0625,-2911.22998046875,2331.02001953125,-400000.0625,-3247.7900390625,-400000.0625,2897.260009765625,-400000.0625
timestamp,ch7,ch2,ch3,ch5,is_pause
1.0090219974517822,-400000.0625,-2888.06005859375,2350.139892578125,-400000.0625,-3231.760009765625,-400000.0625,2916.81005859375,-400000.0625
1.0171382427215576,-400000.0625,-2841.570068359375,2394.77001953125,-400000.0625,-3199.9599609375,-400000.0625,2966.639892578125,-400000.0625
timestamp,ch7,ch2,ch3,ch5,is_pause
1.0278894901275635,-400000.0625,-2827.070068359375,2410.56005859375,-400000.0625,-3192.22998046875,-400000.0625,2987.580078125,-400000.0625
timestamp,ch7,ch2,ch3,ch5,is_pause
timestamp,ch7,ch2,ch3,ch5,is_pause
1.0512819290161133,-400000.0625,-2865.739990234375,2368.969970703125,-400000.0625,-3222.659912109375,-400000.0625,2942.510009765625,-400000.0625
timestamp,ch7,ch2,ch3,ch5,is_pause
1.061678409576416,-400000.0625,-2908.989990234375,2324.389892578125,-400000.0625,-3258.610107421875,-400000.0625,2898.169921875,-400000.0625
1.0708677768707275,-400000.0625,-2887.110107421875,2347.3701171875,-400000.0625,-3232.0,-400000.0625,2921.77001953125,-400000.0625
timestamp,ch7,ch2,ch3,ch5,is_pause
1.082399606704712,-400000.0625,-2841.81005859375,2397.35009765625,-400000.0625,-3196.3798828125,-400000.0625,2975.27001953125,-400000.0625
timestamp,ch7,ch2,ch3,ch5,is_pause
1.095038652420044,-400000.0625,-2824.639892578125,2412.27001953125,-400000.0625,-3189.3701171875,-400000.0625,2991.25,-400000.0625
timestamp,ch7,ch2,ch3,ch5,is_pause
1.1057982444763184,-400000.0625,-2863.409912109375,2372.360107421875,-400000.0625,-3218.889892578125,-400000.0625,2944.52001953125,-400000.0625
1.1136584281921387,-400000.0625,-2910.659912109375,2331.5,-400000.0625,-3248.550048828125,-400000.0625,2907.659912109375,-400000.0625
timestamp,ch7,ch2,ch3,ch5,is_pause
1.1249160766601562,-400000.0625,-2880.9599609375,2355.239990234375,-400000.0625,-3231.81005859375,-400000.0625,2932.070068359375,-400000.0625
timestamp,ch7,ch2,ch3,ch5,is_pause
1.1354491710662842,-400000.0625,-2829.1201171875,2403.35009765625,-400000.0625,-3196.429931640625,-400000.0625,2977.800048828125,-400000.0625
timestamp,ch7,ch2,ch3,ch5,is_pause
1.1556761264801025,-400000.0625,-2819.489990234375,2414.320068359375,-400000.0625,-3176.739990234375,-400000.0625,2990.340087890625,-400000.0625
timestamp,ch7,ch2,ch3,ch5,is_pause
1.1679279804229736,-400000.0625,-2853.919921875,2380.56005859375,-400000.0625,-3199.6298828125,-400000.0625,2960.110107421875,-400000.0625
timestamp,ch7,ch2,ch3,ch5,is_pause
1.1780140399932861,-400000.0625,-2895.070068359375,2341.27001953125,-400000.0625,-3236.199951171875,-400000.0625,2919.909912109375,-400000.0625
timestamp,ch7,ch2,ch3,ch5,is_pause
1.1902318000793457,-400000.0625,-2888.6298828125,2344.889892578125,-400000.0625,-3235.199951171875,-400000.0625,2929.260009765625,-400000.0625
1.1986143589019775,-400000.0625,-2845.2900390625,2387.0,-400000.0625,-3200.580078125,-400000.0625,2975.0400390625,-400000.0625
timestamp,ch7,ch2,ch3,ch5,is_pause
1.2099101543426514,-400000.0625,-2833.610107421875,2398.5400390625,-400000.0625,-3187.93994140625,-400000.0625,2988.2900390625,-400000.0625
timestamp,ch7,ch2,ch3,ch5,is_pause
1.2222650051116943,-400000.0625,-2877.7099609375,2357.6298828125,-400000.0625,-3224.469970703125,-400000.0625,2946.280029296875,-400000.0625
1.2295432090759277,-400000.0625,-2917.050048828125,2319.050048828125,-400000.0625,-3260.139892578125,-400000.0625,2908.7099609375,-400000.0625
timestamp,ch7,ch2,ch3,ch5,is_pause
1.2420709133148193,-400000.0625,-2894.449951171875,2341.56005859375,-400000.0625,-3235.719970703125,-400000.0625,2928.110107421875,-400000.0625
timestamp,ch7,ch2,ch3,ch5,is_pause
timestamp,ch7,ch2,ch3,ch5,is_pause
1.2644002437591553,-400000.0625,-2846.909912109375,2389.0,-400000.0625,-3191.419921875,-400000.0625,2976.699951171875,-400000.0625
1.274510145187378,-400000.0625,-2826.639892578125,2406.169921875,-400000.0625,-3181.510009765625,-400000.0625,2986.909912109375,-400000.0625
timestamp,ch7,ch2,ch3,ch5,is_pause
1.2860770225524902,-400000.0625,-2874.949951171875,2361.969970703125,-400000.0625,-3225.22998046875,-400000.0625,2946.949951171875,-400000.0625
timestamp,ch7,ch2,ch3,ch5,is_pause
1.2985646724700928,-400000.0625,-2916.77001953125,2319.81005859375,-400000.0625,-3259.89990234375,-400000.0625,2908.090087890625,-400000.0625
timestamp,ch7,ch2,ch3,ch5,is_pause
1.310476303100586,-400000.0625,-2905.889892578125,2330.679931640625,-400000.0625,-3244.919921875,-400000.0625,2916.18994140625,-400000.0625
timestamp,ch7,ch2,ch3,ch5,is_pause
1.3220429420471191,-400000.0625,-2850.389892578125,2385.429931640625,-400000.0625,-3197.9599609375,-400000.0625,2972.97998046875,-400000.0625
1.3301060199737549,-400000.0625,-2831.27001953125,2404.2099609375,-400000.0625,-3188.56005859375,-400000.0625,2994.72998046875,-400000.0625
timestamp,ch7,ch2,ch3,ch5,is_pause
timestamp,ch7,ch2,ch3,ch5,is_pause
1.3466110229492188,-400000.0625,-2878.7099609375,2357.820068359375,-400000.0625,-3220.320068359375,-400000.0625,2950.949951171875,-400000.0625
timestamp,ch7,ch2,ch3,ch5,is_pause
timestamp,ch7,ch2,ch3,ch5,is_pause
1.373093605041504,-400000.0625,-2923.919921875,2310.659912109375,-400000.0625,-3261.800048828125,-400000.0625,2904.800048828125,-400000.0625
timestamp,ch7,ch2,ch3,ch5,is_pause
1.389601707458496,-400000.0625,-2901.510009765625,2334.8798828125,-400000.0625,-3246.070068359375,-400000.0625,2927.969970703125,-400000.0625
timestamp,ch7,ch2,ch3,ch5,is_pause
1.404883861541748,-400000.0625,-2840.280029296875,2393.8701171875,-400000.0625,-3195.81005859375,-400000.0625,2982.280029296875,-400000.0625
1.4149580001831055,-400000.0625,-2829.1201171875,2405.97998046875,-400000.0625,-3189.280029296875,-400000.0625,2995.43994140625,-400000.0625
timestamp,ch7,ch2,ch3,ch5,is_pause
1.4275627136230469,-400000.0625,-2885.06005859375,2350.570068359375,-400000.0625,-3238.6298828125,-400000.0625,2942.1298828125,-400000.0625
timestamp,ch7,ch2,ch3,ch5,is_pause
1.4450602531433105,-400000.0625,-2914.52001953125,2325.110107421875,-400000.0625,-3259.7099609375,-400000.0625,2913.429931640625,-400000.0625
timestamp,ch7,ch2,ch3,ch5,is_pause
1.4600434303283691,-400000.0625,-2900.97998046875,2337.840087890625,-400000.0625,-3237.06005859375,-400000.0625,2925.780029296875,-400000.0625
timestamp,ch7,ch2,ch3,ch5,is_pause
1.4813647270202637,-400000.0625,-2874.179931640625,2362.43994140625,-400000.0625,-3219.320068359375,-400000.0625,2959.679931640625,-400000.0625
timestamp,ch7,ch2,ch3,ch5,is_pause
1.4952616691589355,-400000.0625,-2850.10009765625,2384.0,-400000.0625,-3201.2900390625,-400000.0625,2974.889892578125,-400000.0625
timestamp,ch7,ch2,ch3,ch5,is_pause
1.5080087184906006,-400000.0625,-2883.010009765625,2353.860107421875,-400000.0625,-3223.800048828125,-400000.0625,2943.469970703125,-400000.0625
timestamp,ch7,ch2,ch3,ch5,is_pause
1.519946813583374,-400000.0625,-2915.530029296875,2320.18994140625,-400000.0625,-3253.840087890625,-400000.0625,2913.18994140625,-400000.0625
timestamp,ch7,ch2,ch3,ch5,is_pause
1.5298850536346436,-400000.0625,-2891.2099609375,2346.090087890625,-400000.0625,-3238.300048828125,-400000.0625,2935.31005859375,-400000.0625
timestamp,ch7,ch2,ch3,ch5,is_pause
1.540653944015503,-400000.0625,-2839.800048828125,2397.590087890625,-400000.0625,-3194.429931640625,-400000.0625,2984.239990234375,-400000.0625
timestamp,ch7,ch2,ch3,ch5,is_pause
1.5580768585205078,-400000.0625,-2833.64990234375,2401.39990234375,-400000.0625,-3189.3701171875,-400000.0625,2995.300048828125,-400000.0625
1.5661358833312988,-400000.0625,-2879.330078125,2354.909912109375,-400000.0625,-3231.0,-400000.0625,2952.719970703125,-400000.0625
timestamp,ch7,ch2,ch3,ch5,is_pause
timestamp,ch7,ch2,ch3,ch5,is_pause
1.5901806354522705,-400000.0625,-2922.6298828125,2311.75,-400000.0625,-3264.3798828125,-400000.0625,2911.0,-400000.0625
timestamp,ch7,ch2,ch3,ch5,is_pause
1.6031970977783203,-400000.0625,-2903.409912109375,2330.110107421875,-400000.0625,-3230.719970703125,-400000.0625,2927.159912109375,-400000.0625
timestamp,ch7,ch2,ch3,ch5,is_pause
1.620185136795044,-400000.0625,-2856.639892578125,2379.0400390625,-400000.0625,-3206.6298828125,-400000.0625,2971.1298828125,-400000.0625
timestamp,ch7,ch2,ch3,ch5,is_pause
1.6313388347625732,-400000.0625,-2839.280029296875,2395.199951171875,-400000.0625,-3200.580078125,-400000.0625,2987.429931640625,-400000.0625
timestamp,ch7,ch2,ch3,ch5,is_pause
1.6458535194396973,-400000.0625,-2879.52001953125,2358.820068359375,-400000.0625,-3222.989990234375,-400000.0625,2949.139892578125,-400000.0625
timestamp,ch7,ch2,ch3,ch5,is_pause
1.6579585075378418,-400000.0625,-2912.429931640625,2323.47998046875,-400000.0625,-3252.550048828125,-400000.0625,2905.419921875,-400000.0625
1.6672425270080566,-400000.0625,-2888.010009765625,2343.75,-400000.0625,-3245.8798828125,-400000.0625,2916.2900390625,-400000.0625
timestamp,ch7,ch2,ch3,ch5,is_pause
timestamp,ch7,ch2,ch3,ch5,is_pause
1.6928417682647705,-400000.0625,-2833.179931640625,2398.919921875,-400000.0625,-3198.9599609375,-400000.0625,2957.8701171875,-400000.0625
timestamp,ch7,ch2,ch3,ch5,is_pause
1.7061870098114014,-400000.0625,-2814.580078125,2424.2900390625,-400000.0625,-3182.169921875,-400000.0625,2970.739990234375,-400000.0625
timestamp,ch7,ch2,ch3,ch5,is_pause
1.717219352722168,-400000.0625,-2838.7099609375,2400.5400390625,-400000.0625,-3207.72998046875,-400000.0625,2927.830078125,-400000.0625
1.7280018329620361,-400000.0625,-2881.14990234375,2364.449951171875,-400000.0625,-3243.969970703125,-400000.0625,2871.85009765625,-400000.0625
timestamp,ch7,ch2,ch3,ch5,is_pause
timestamp,ch7,ch2,ch3,ch5,is_pause
1.7475147247314453,-400000.0625,-2865.64990234375,2388.330078125,-400000.0625,-3233.860107421875,-400000.0625,2876.659912109375,-400000.0625
timestamp,ch7,ch2,ch3,ch5,is_pause
1.761789083480835,-400000.0625,-2796.360107421875,2458.2900390625,-400000.0625,-3178.5,-400000.0625,2926.35009765625,-400000.0625
timestamp,ch7,ch2,ch3,ch5,is_pause
1.782590389251709,-400000.0625,-2781.110107421875,2477.409912109375,-400000.0625,-3176.590087890625,-400000.0625,2933.97998046875,-400000.0625
timestamp,ch7,ch2,ch3,ch5,is_pause
timestamp,ch7,ch2,ch3,ch5,is_pause
1.8155691623687744,-400000.0625,-2825.7900390625,2438.639892578125,-400000.0625,-3220.989990234375,-400000.0625,2886.25,-400000.0625
timestamp,ch7,ch2,ch3,ch5,is_pause
1.828911304473877,-400000.0625,-2858.590087890625,2405.550048828125,-400000.0625,-3245.1201171875,-400000.0625,2845.10009765625,-400000.0625
timestamp,ch7,ch2,ch3,ch5,is_pause
1.8455603122711182,-400000.0625,-2846.429931640625,2426.340087890625,-400000.0625,-3223.179931640625,-400000.0625,2861.39990234375,-400000.0625
timestamp,ch7,ch2,ch3,ch5,is_pause
1.8595268726348877,-400000.0625,-2803.3701171875,2476.1201171875,-400000.0625,-3182.93994140625,-400000.0625,2903.409912109375,-400000.0625
timestamp,ch7,ch2,ch3,ch5,is_pause
1.8759288787841797,-400000.0625,-2783.72998046875,2491.6201171875,-400000.0625,-3177.2099609375,-400000.0625,2924.72998046875,-400000.0625
timestamp,ch7,ch2,ch3,ch5,is_pause
1.8918840885162354,-400000.0625,-2819.780029296875,2453.7099609375,-400000.0625,-3209.8798828125,-400000.0625,2884.530029296875,-400000.0625
timestamp,ch7,ch2,ch3,ch5,is_pause
timestamp,ch7,ch2,ch3,ch5,is_pause
1.922938585281372,-400000.0625,-2864.31005859375,2413.85009765625,-400000.0625,-3243.260009765625,-400000.0625,2843.7099609375,-400000.0625
timestamp,ch7,ch2,ch3,ch5,is_pause
1.935584545135498,-400000.0625,-2853.8701171875,2423.570068359375,-400000.0625,-3235.14990234375,-400000.0625,2856.02001953125,-400000.0625
timestamp,ch7,ch2,ch3,ch5,is_pause
1.9475007057189941,-400000.0625,-2801.280029296875,2473.780029296875,-400000.0625,-3204.580078125,-400000.0625,2909.610107421875,-400000.0625
timestamp,ch7,ch2,ch3,ch5,is_pause
1.960495948791504,-400000.0625,-2783.110107421875,2489.949951171875,-400000.0625,-3185.800048828125,-400000.0625,2929.070068359375,-400000.0625
timestamp,ch7,ch2,ch3,ch5,is_pause
1.9763236045837402,-400000.0625,-2829.5,2446.60009765625,-400000.0625,-3213.68994140625,-400000.0625,2884.340087890625,-400000.0625
timestamp,ch7,ch2,ch3,ch5,is_pause
1.990325689315796,-400000.0625,-2874.659912109375,2406.64990234375,-400000.0625,-3249.5,-400000.0625,2839.760009765625,-400000.0625
timestamp,ch7,ch2,ch3,ch5,is_pause
2.0052218437194824,-400000.0625,-2857.5400390625,2422.7099609375,-400000.0625,-3234.9599609375,-400000.0625,2857.110107421875,-400000.0625
timestamp,ch7,ch2,ch3,ch5,is_pause
timestamp,ch7,ch2,ch3,ch5,is_pause
2.0328209400177,-400000.0625,-2807.760009765625,2470.590087890625,-400000.0625,-3197.9599609375,-400000.0625,2908.989990234375,-400000.0625
2.0405843257904053,-400000.0625,-2793.360107421875,2483.3701171875,-400000.0625,-3182.4599609375,-400000.0625,2920.25,-400000.0625
timestamp,ch7,ch2,ch3,ch5,is_pause
2.054723024368286,-400000.0625,-2836.320068359375,2437.5,-400000.0625,-3226.22998046875,-400000.0625,2879.3798828125,-400000.0625
timestamp,ch7,ch2,ch3,ch5,is_pause
2.0716657638549805,-400000.0625,-2875.89990234375,2400.679931640625,-400000.0625,-3260.659912109375,-400000.0625,2842.090087890625,-400000.0625
timestamp,ch7,ch2,ch3,ch5,is_pause
2.083556890487671,-400000.0625,-2853.010009765625,2425.9599609375,-400000.0625,-3236.340087890625,-400000.0625,2865.1201171875,-400000.0625
timestamp,ch7,ch2,ch3,ch5,is_pause
2.097676992416382,-400000.0625,-2798.320068359375,2479.550048828125,-400000.0625,-3195.330078125,-400000.0625,2916.239990234375,-400000.0625
timestamp,ch7,ch2,ch3,ch5,is_pause
2.1133322715759277,-400000.0625,-2783.679931640625,2491.3798828125,-400000.0625,-3191.419921875,-400000.0625,2930.929931640625,-400000.0625
timestamp,ch7,ch2,ch3,ch5,is_pause
timestamp,ch7,ch2,ch3,ch5,is_pause
2.1458795070648193,-400000.0625,-2831.510009765625,2447.27001953125,-400000.0625,-3230.760009765625,-400000.0625,2885.010009765625,-400000.0625
timestamp,ch7,ch2,ch3,ch5,is_pause
2.1592531204223633,-400000.0625,-2877.0,2404.2099609375,-400000.0625,-3257.3701171875,-400000.0625,2843.330078125,-400000.0625
timestamp,ch7,ch2,ch3,ch5,is_pause
2.1733510494232178,-400000.0625,-2857.72998046875,2423.10009765625,-400000.0625,-3243.300048828125,-400000.0625,2864.219970703125,-400000.0625
timestamp,ch7,ch2,ch3,ch5,is_pause
2.185234546661377,-400000.0625,-2799.510009765625,2479.840087890625,-400000.0625,-3207.2099609375,-400000.0625,2914.669921875,-400000.0625
timestamp,ch7,ch2,ch3,ch5,is_pause
2.1965315341949463,-400000.0625,-2786.969970703125,2491.669921875,-400000.0625,-3189.56005859375,-400000.0625,2930.449951171875,-400000.0625
timestamp,ch7,ch2,ch3,ch5,is_pause
2.2121129035949707,-400000.0625,-2827.840087890625,2448.22998046875,-400000.0625,-3221.510009765625,-400000.0625,2890.5400390625,-400000.0625
timestamp,ch7,ch2,ch3,ch5,is_pause
2.225792407989502,-400000.0625,-2869.699951171875,2405.360107421875,-400000.0625,-3273.72998046875,-400000.0625,2847.580078125,-400000.0625
timestamp,ch7,ch2,ch3,ch5,is_pause
2.25186824798584,-400000.0625,-2857.300048828125,2423.330078125,-400000.0625,-3251.030029296875,-400000.0625,2860.739990234375,-400000.0625
timestamp,ch7,ch2,ch3,ch5,is_pause
2.26777720451355,-400000.0625,-2800.989990234375,2475.550048828125,-400000.0625,-3201.909912109375,-400000.0625,2918.669921875,-400000.0625
timestamp,ch7,ch2,ch3,ch5,is_pause
2.281085252761841,-400000.0625,-2790.169921875,2484.699951171875,-400000.0625,-3192.0,-400000.0625,2929.449951171875,-400000.0625
timestamp,ch7,ch2,ch3,ch5,is_pause
2.2946619987487793,-400000.0625,-2828.31005859375,2448.85009765625,-400000.0625,-3220.889892578125,-400000.0625,2886.9599609375,-400000.0625
timestamp,ch7,ch2,ch3,ch5,is_pause
2.307218074798584,-400000.0625,-2865.64990234375,2410.360107421875,-400000.0625,-3251.080078125,-400000.0625,2852.25,-400000.0625
timestamp,ch7,ch2,ch3,ch5,is_pause
2.3166415691375732,-400000.0625,-2857.300048828125,2422.6201171875,-400000.0625,-3251.60009765625,-400000.0625,2859.639892578125,-400000.0625
2.3269565105438232,-400000.0625,-2812.9599609375,2476.409912109375,-400000.0625,-3212.02001953125,-400000.0625,2904.080078125,-400000.0625
timestamp,ch7,ch2,ch3,ch5,is_pause
timestamp,ch7,ch2,ch3,ch5,is_pause
2.3523941040039062,-400000.0625,-2804.090087890625,2481.60009765625,-400000.0625,-3206.2099609375,-400000.0625,2939.610107421875,-400000.0625
timestamp,ch7,ch2,ch3,ch5,is_pause
2.3637125492095947,-400000.0625,-2841.0,2419.419921875,-400000.0625,-3241.6298828125,-400000.0625,2910.949951171875,-400000.0625
timestamp,ch7,ch2,ch3,ch5,is_pause
2.377589702606201,-400000.0625,-2890.919921875,2363.489990234375,-400000.0625,-3276.919921875,-400000.0625,2875.280029296875,-400000.0625
2.3865699768066406,-400000.0625,-2877.3798828125,2370.409912109375,-400000.0625,-3269.2900390625,-400000.0625,2907.320068359375,-400000.0625
timestamp,ch7,ch2,ch3,ch5,is_pause
2.398932933807373,-400000.0625,-2819.300048828125,2401.969970703125,-400000.0625,-3237.919921875,-400000.0625,2973.93994140625,-400000.0625
timestamp,ch7,ch2,ch3,ch5,is_pause
2.410510540008545,-400000.0625,-2805.419921875,2400.449951171875,-400000.0625,-3212.929931640625,-400000.0625,3004.68994140625,-400000.0625
timestamp,ch7,ch2,ch3,ch5,is_pause
2.42366099357605,-400000.0625,-2844.050048828125,2347.139892578125,-400000.0625,-3249.360107421875,-400000.0625,2975.889892578125,-400000.0625
timestamp,ch7,ch2,ch3,ch5,is_pause
2.4369757175445557,-400000.0625,-2881.3798828125,2298.97998046875,-400000.0625,-3283.550048828125,-400000.0625,2953.860107421875,-400000.0625
timestamp,ch7,ch2,ch3,ch5,is_pause
2.457943916320801,-400000.0625,-2864.64990234375,2307.93994140625,-400000.0625,-3278.590087890625,-400000.0625,2994.110107421875,-400000.0625
timestamp,ch7,ch2,ch3,ch5,is_pause
2.467890501022339,-400000.0625,-2810.570068359375,2351.669921875,-400000.0625,-3245.8798828125,-400000.0625,3058.6201171875,-400000.0625
timestamp,ch7,ch2,ch3,ch5,is_pause
2.4810173511505127,-400000.0625,-2806.659912109375,2352.050048828125,-400000.0625,-3234.909912109375,-400000.0625,3071.550048828125,-400000.0625
timestamp,ch7,ch2,ch3,ch5,is_pause
2.494370460510254,-400000.0625,-2841.469970703125,2313.0400390625,-400000.0625,-3259.610107421875,-400000.0625,3031.2099609375,-400000.0625
timestamp,ch7,ch2,ch3,ch5,is_pause
2.5090692043304443,-400000.0625,-2873.85009765625,2274.510009765625,-400000.0625,-3294.52001953125,-400000.0625,2998.68994140625,-400000.0625
timestamp,ch7,ch2,ch3,ch5,is_pause
2.523940324783325,-400000.0625,-2865.360107421875,2281.81005859375,-400000.0625,-3288.409912109375,-400000.0625,3012.56005859375,-400000.0625
timestamp,ch7,ch2,ch3,ch5,is_pause
2.535574197769165,-400000.0625,-2821.2099609375,2327.389892578125,-400000.0625,-3250.070068359375,-400000.0625,3057.669921875,-400000.0625
2.5458872318267822,-400000.0625,-2794.64990234375,2348.52001953125,-400000.0625,-3245.8798828125,-400000.0625,3079.840087890625,-400000.0625
timestamp,ch7,ch2,ch3,ch5,is_pause
timestamp,ch7,ch2,ch3,ch5,is_pause
2.5725131034851074,-400000.0625,-2819.919921875,2318.429931640625,-400000.0625,-3272.489990234375,-400000.0625,3052.85009765625,-400000.0625
timestamp,ch7,ch2,ch3,ch5,is_pause
2.583575963973999,-400000.0625,-2857.300048828125,2282.2900390625,-400000.0625,-3308.14990234375,-400000.0625,3017.3798828125,-400000.0625
timestamp,ch7,ch2,ch3,ch5,is_pause
2.596238613128662,-400000.0625,-2841.280029296875,2297.2099609375,-400000.0625,-3299.330078125,-400000.0625,3026.43994140625,-400000.0625
timestamp,ch7,ch2,ch3,ch5,is_pause
2.6102633476257324,-400000.0625,-2789.39990234375,2350.6201171875,-400000.0625,-3247.169921875,-400000.0625,3080.179931640625,-400000.0625
timestamp,ch7,ch2,ch3,ch5,is_pause
2.621985912322998,-400000.0625,-2770.610107421875,2363.8701171875,-400000.0625,-3240.300048828125,-400000.0625,3094.860107421875,-400000.0625
2.6316683292388916,-400000.0625,-2812.239990234375,2323.06005859375,-400000.0625,-3274.389892578125,-400000.0625,3057.2900390625,-400000.0625
timestamp,ch7,ch2,ch3,ch5,is_pause
2.6452560424804688,-400000.0625,-2852.06005859375,2284.81005859375,-400000.0625,-3301.0,-400000.0625,3018.050048828125,-400000.0625
timestamp,ch7,ch2,ch3,ch5,is_pause
2.6588165760040283,-400000.0625,-2837.93994140625,2299.929931640625,-400000.0625,-3296.0400390625,-400000.0625,3029.679931640625,-400000.0625
timestamp,ch7,ch2,ch3,ch5,is_pause
timestamp,ch7,ch2,ch3,ch5,is_pause
2.683511257171631,-400000.0625,-2790.449951171875,2344.320068359375,-400000.0625,-3257.280029296875,-400000.0625,3077.030029296875,-400000.0625
2.693122625350952,-400000.0625,-2767.89990234375,2367.39990234375,-400000.0625,-3242.449951171875,-400000.0625,3098.389892578125,-400000.0625
timestamp,ch7,ch2,ch3,ch5,is_pause
2.701922655105591,-400000.0625,-2798.989990234375,2331.39990234375,-400000.0625,-3269.860107421875,-400000.0625,3064.6298828125,-400000.0625
2.708982467651367,-400000.0625,-2841.429931640625,2291.25,-400000.0625,-3308.110107421875,-400000.0625,3029.8701171875,-400000.0625
timestamp,ch7,ch2,ch3,ch5,is_pause
2.7207846641540527,-400000.0625,-2830.31005859375,2305.699951171875,-400000.0625,-3304.47998046875,-400000.0625,3032.590087890625,-400000.0625
timestamp,ch7,ch2,ch3,ch5,is_pause
2.7336130142211914,-400000.0625,-2783.8701171875,2348.090087890625,-400000.0625,-3258.75,-400000.0625,3082.179931640625,-400000.0625
timestamp,ch7,ch2,ch3,ch5,is_pause
2.7458760738372803,-400000.0625,-2770.659912109375,2365.39990234375,-400000.0625,-3235.14990234375,-400000.0625,3104.31005859375,-400000.0625
timestamp,ch7,ch2,ch3,ch5,is_pause
2.758721113204956,-400000.0625,-2806.89990234375,2334.260009765625,-400000.0625,-3268.580078125,-400000.0625,3065.110107421875,-400000.0625
timestamp,ch7,ch2,ch3,ch5,is_pause
2.772893190383911,-400000.0625,-2852.25,2287.050048828125,-400000.0625,-3306.14990234375,-400000.0625,3022.6201171875,-400000.0625
timestamp,ch7,ch2,ch3,ch5,is_pause
2.791318893432617,-400000.0625,-2835.659912109375,2302.840087890625,-400000.0625,-3289.3701171875,-400000.0625,3033.300048828125,-400000.0625
timestamp,ch7,ch2,ch3,ch5,is_pause
2.8027777671813965,-400000.0625,-2790.739990234375,2345.419921875,-400000.0625,-3261.52001953125,-400000.0625,3061.199951171875,-400000.0625
timestamp,ch7,ch2,ch3,ch5,is_pause
2.815983295440674,-400000.0625,-2774.81005859375,2357.530029296875,-400000.0625,-3249.260009765625,-400000.0625,3075.5,-400000.0625
timestamp,ch7,ch2,ch3,ch5,is_pause
2.828799247741699,-400000.0625,-2821.35009765625,2325.010009765625,-400000.0625,-3275.919921875,-400000.0625,3063.489990234375,-400000.0625
timestamp,ch7,ch2,ch3,ch5,is_pause
2.8450443744659424,-400000.0625,-2878.18994140625,2275.85009765625,-400000.0625,-3309.35009765625,-400000.0625,2993.72998046875,-400000.0625
timestamp,ch7,ch2,ch3,ch5,is_pause
2.8603978157043457,-400000.0625,-2903.4599609375,2273.1298828125,-400000.0625,-3290.1298828125,-400000.0625,2960.969970703125,-400000.0625
timestamp,ch7,ch2,ch3,ch5,is_pause
2.8711347579956055,-400000.0625,-2874.610107421875,2342.610107421875,-400000.0625,-3242.780029296875,-400000.0625,3064.919921875,-400000.0625
2.8809595108032227,-400000.0625,-2831.030029296875,2371.5,-400000.0625,-3224.3701171875,-400000.0625,3078.840087890625,-400000.0625
timestamp,ch7,ch2,ch3,ch5,is_pause
timestamp,ch7,ch2,ch3,ch5,is_pause
2.9105007648468018,-400000.0625,-2904.699951171875,2321.10009765625,-400000.0625,-3252.4599609375,-400000.0625,3095.199951171875,-400000.0625
timestamp,ch7,ch2,ch3,ch5,is_pause
2.922147512435913,-400000.0625,-2909.949951171875,2285.10009765625,-400000.0625,-3264.6201171875,-400000.0625,3034.31005859375,-400000.0625
timestamp,ch7,ch2,ch3,ch5,is_pause
2.9341726303100586,-400000.0625,-2940.320068359375,2232.4599609375,-400000.0625,-3268.18994140625,-400000.0625,2927.159912109375,-400000.0625
timestamp,ch7,ch2,ch3,ch5,is_pause
2.9459612369537354,-400000.0625,-2961.25,2209.090087890625,-400000.0625,-3224.179931640625,-400000.0625,3117.610107421875,-400000.0625
timestamp,ch7,ch2,ch3,ch5,is_pause
2.9571213722229004,-400000.0625,-2991.9599609375,2195.070068359375,-400000.0625,-3200.47998046875,-400000.0625,3122.139892578125,-400000.0625
2.965759038925171,-400000.0625,-3048.320068359375,2226.31005859375,-400000.0625,-3236.14990234375,-400000.0625,3075.409912109375,-400000.0625
timestamp,ch7,ch2,ch3,ch5,is_pause
2.978132963180542,-400000.0625,-3177.360107421875,2175.860107421875,-400000.0625,-3256.85009765625,-400000.0625,3136.43994140625,-400000.0625
timestamp,ch7,ch2,ch3,ch5,is_pause
2.992805242538452,-400000.0625,-3214.64990234375,2135.320068359375,-400000.0625,-3232.860107421875,-400000.0625,3157.090087890625,-400000.0625
timestamp,ch7,ch2,ch3,ch5,is_pause
timestamp,ch7,ch2,ch3,ch5,is_pause
3.0187816619873047,-400000.0625,-3222.419921875,2084.159912109375,-400000.0625,-3175.929931640625,-400000.0625,3220.419921875,-400000.0625
timestamp,ch7,ch2,ch3,ch5,is_pause
3.0337204933166504,-400000.0625,-3239.199951171875,2124.360107421875,-400000.0625,-3108.68994140625,-400000.0625,3324.989990234375,-400000.0625
timestamp,ch7,ch2,ch3,ch5,is_pause
3.0454771518707275,-400000.0625,-3357.320068359375,2134.280029296875,-400000.0625,-3120.3798828125,-400000.0625,3510.760009765625,-400000.0625
timestamp,ch7,ch2,ch3,ch5,is_pause
3.0560362339019775,-400000.0625,-3432.179931640625,2137.179931640625,-400000.0625,-3146.97998046875,-400000.0625,3530.169921875,-400000.0625
3.0665173530578613,-400000.0625,-3407.2900390625,2182.050048828125,-400000.0625,-3145.169921875,-400000.0625,3712.3701171875,-400000.0625
timestamp,ch7,ch2,ch3,ch5,is_pause
3.0785794258117676,-400000.0625,-3364.090087890625,2305.169921875,-400000.0625,-3084.469970703125,-400000.0625,3915.02001953125,-400000.0625
timestamp,ch7,ch2,ch3,ch5,is_pause
3.091207265853882,-400000.0625,-3390.64990234375,2469.969970703125,-400000.0625,-3052.090087890625,-400000.0625,3968.760009765625,-400000.0625
timestamp,ch7,ch2,ch3,ch5,is_pause
3.1058287620544434,-400000.0625,-3358.169921875,2536.489990234375,-400000.0625,-3060.14990234375,-400000.0625,4019.1201171875,-400000.0625
timestamp,ch7,ch2,ch3,ch5,is_pause
3.1277945041656494,-400000.0625,-3400.419921875,2671.0,-400000.0625,-3054.669921875,-400000.0625,4184.52978515625,-400000.0625
timestamp,ch7,ch2,ch3,ch5,is_pause
3.140965461730957,-400000.0625,-3384.260009765625,2819.110107421875,-400000.0625,-2998.39990234375,-400000.0625,4304.1201171875,-400000.0625
timestamp,ch7,ch2,ch3,ch5,is_pause
3.1534132957458496,-400000.0625,-3342.340087890625,2986.10009765625,-400000.0625,-2887.8701171875,-400000.0625,4493.81005859375,-400000.0625
3.1624696254730225,-400000.0625,-3351.260009765625,3110.60009765625,-400000.0625,-2781.010009765625,-400000.0625,4581.68994140625,-400000.0625
timestamp,ch7,ch2,ch3,ch5,is_pause
3.1763503551483154,-400000.0625,-3317.8798828125,3183.7900390625,-400000.0625,-2760.360107421875,-400000.0625,4689.5,-400000.0625
timestamp,ch7,ch2,ch3,ch5,is_pause
3.188016891479492,-400000.0625,-3311.590087890625,3244.8798828125,-400000.0625,-2701.239990234375,-400000.0625,4695.31982421875,-400000.0625
timestamp,ch7,ch2,ch3,ch5,is_pause
3.2020633220672607,-400000.0625,-3237.6298828125,3408.580078125,-400000.0625,-2588.4599609375,-400000.0625,4812.3798828125,-400000.0625
timestamp,ch7,ch2,ch3,ch5,is_pause
3.213465690612793,-400000.0625,-2929.969970703125,3611.89990234375,-400000.0625,-2489.139892578125,-400000.0625,4966.31005859375,-400000.0625
timestamp,ch7,ch2,ch3,ch5,is_pause
timestamp,ch7,ch2,ch3,ch5,is_pause
3.2384655475616455,-400000.0625,-2588.699951171875,3794.669921875,-400000.0625,-2366.2099609375,-400000.0625,5032.16015625,-400000.0625
3.2474985122680664,-400000.0625,-2312.570068359375,3941.14990234375,-400000.0625,-2301.7900390625,-400000.0625,5019.08984375,-400000.0625
timestamp,ch7,ch2,ch3,ch5,is_pause
3.2618789672851562,-400000.0625,-2053.31005859375,4043.8701171875,-400000.0625,-2246.239990234375,-400000.0625,5025.6298828125,-400000.0625
timestamp,ch7,ch2,ch3,ch5,is_pause
3.2744944095611572,-400000.0625,-1773.2099609375,4195.4501953125,-400000.0625,-2147.9599609375,-400000.0625,5073.2099609375,-400000.0625
timestamp,ch7,ch2,ch3,ch5,is_pause
3.2844440937042236,-400000.0625,-1508.280029296875,4344.93994140625,-400000.0625,-2047.25,-400000.0625,5142.259765625,-400000.0625
3.291727066040039,-400000.0625,-1339.1500244140625,4396.10986328125,-400000.0625,-2011.25,-400000.0625,5151.18017578125,-400000.0625
timestamp,ch7,ch2,ch3,ch5,is_pause
3.303452253341675,-400000.0625,-1260.469970703125,4326.490234375,-400000.0625,-2028.0400390625,-400000.0625,5053.6201171875,-400000.0625
timestamp,ch7,ch2,ch3,ch5,is_pause
3.3146705627441406,-400000.0625,-1200.2900390625,4244.89990234375,-400000.0625,-2027.75,-400000.0625,4964.97021484375,-400000.0625
timestamp,ch7,ch2,ch3,ch5,is_pause
timestamp,ch7,ch2,ch3,ch5,is_pause
3.3391411304473877,-400000.0625,-1086.0400390625,4215.14990234375,-400000.0625,-1998.7099609375,-400000.0625,4953.33984375,-400000.0625
timestamp,ch7,ch2,ch3,ch5,is_pause
3.352153778076172,-400000.0625,-910.6199951171875,4213.669921875,-400000.0625,-1949.8399658203125,-400000.0625,4959.490234375,-400000.0625
3.3616178035736084,-400000.0625,-828.4600219726562,4179.759765625,-400000.0625,-1962.6099853515625,-400000.0625,4945.419921875,-400000.0625
timestamp,ch7,ch2,ch3,ch5,is_pause
3.377586841583252,-400000.0625,-910.469970703125,4084.02001953125,-400000.0625,-2006.3900146484375,-400000.0625,4874.330078125,-400000.0625
timestamp,ch7,ch2,ch3,ch5,is_pause
3.3951737880706787,-400000.0625,-1033.1600341796875,3990.360107421875,-400000.0625,-2061.610107421875,-400000.0625,4794.169921875,-400000.0625
timestamp,ch7,ch2,ch3,ch5,is_pause
3.4123787879943848,-400000.0625,-1108.0699462890625,3969.570068359375,-400000.0625,-2056.68994140625,-400000.0625,4780.2001953125,-400000.0625
timestamp,ch7,ch2,ch3,ch5,is_pause
3.4268624782562256,-400000.0625,-1175.4000244140625,3988.699951171875,-400000.0625,-2041.199951171875,-400000.0625,4798.64990234375,-400000.0625
timestamp,ch7,ch2,ch3,ch5,is_pause
timestamp,ch7,ch2,ch3,ch5,is_pause
3.4446871280670166,-400000.0625,-1284.6500244140625,3970.909912109375,-400000.0625,-2055.97998046875,-400000.0625,4781.39013671875,-400000.0625
3.4548752307891846,-400000.0625,-1438.0,3913.39990234375,-400000.0625,-2113.199951171875,-400000.0625,4725.1201171875,-400000.0625
timestamp,ch7,ch2,ch3,ch5,is_pause
3.466625928878784,-400000.0625,-1600.4599609375,3834.77001953125,-400000.0625,-2197.889892578125,-400000.0625,4651.64013671875,-400000.0625
timestamp,ch7,ch2,ch3,ch5,is_pause
3.4788267612457275,-400000.0625,-1680.4200439453125,3817.080078125,-400000.0625,-2232.360107421875,-400000.0625,4628.56005859375,-400000.0625
timestamp,ch7,ch2,ch3,ch5,is_pause
3.4918413162231445,-400000.0625,-1691.9100341796875,3854.610107421875,-400000.0625,-2225.2099609375,-400000.0625,4663.89990234375,-400000.0625
timestamp,ch7,ch2,ch3,ch5,is_pause
3.5038986206054688,-400000.0625,-1744.699951171875,3842.8798828125,-400000.0625,-2255.300048828125,-400000.0625,4654.22021484375,-400000.0625
3.5125765800476074,-400000.0625,-1834.300048828125,3780.7900390625,-400000.0625,-2330.919921875,-400000.0625,4596.419921875,-400000.0625
timestamp,ch7,ch2,ch3,ch5,is_pause
3.524752140045166,-400000.0625,-1909.780029296875,3721.669921875,-400000.0625,-2397.6298828125,-400000.0625,4550.509765625,-400000.0625
timestamp,ch7,ch2,ch3,ch5,is_pause
3.539118528366089,-400000.0625,-1908.1099853515625,3724.860107421875,-400000.0625,-2430.43994140625,-400000.0625,4568.91015625,-400000.0625
timestamp,ch7,ch2,ch3,ch5,is_pause
timestamp,ch7,ch2,ch3,ch5,is_pause
3.5625269412994385,-400000.0625,-1859.1400146484375,3772.929931640625,-400000.0625,-2443.5,-400000.0625,4625.18017578125,-400000.0625
timestamp,ch7,ch2,ch3,ch5,is_pause
3.5737979412078857,-400000.0625,-1848.3599853515625,3775.31005859375,-400000.0625,-2482.409912109375,-400000.0625,4637.77001953125,-400000.0625
3.583527088165283,-400000.0625,-1899.050048828125,3723.139892578125,-400000.0625,-2551.030029296875,-400000.0625,4595.47021484375,-400000.0625
timestamp,ch7,ch2,ch3,ch5,is_pause
3.596263885498047,-400000.0625,-1939.8699951171875,3674.409912109375,-400000.0625,-2625.320068359375,-400000.0625,4557.75,-400000.0625
timestamp,ch7,ch2,ch3,ch5,is_pause
3.6099941730499268,-400000.0625,-1920.27001953125,3679.659912109375,-400000.0625,-2663.419921875,-400000.0625,4586.41015625,-400000.0625
timestamp,ch7,ch2,ch3,ch5,is_pause
3.6237049102783203,-400000.0625,-1852.1300048828125,3731.300048828125,-400000.0625,-2655.510009765625,-400000.0625,4658.4599609375,-400000.0625
3.632838010787964,-400000.0625,-1818.0400390625,3747.889892578125,-400000.0625,-2680.35009765625,-400000.0625,4682.58984375,-400000.0625
timestamp,ch7,ch2,ch3,ch5,is_pause
3.646193504333496,-400000.0625,-1843.7900390625,3704.02001953125,-400000.0625,-2752.2099609375,-400000.0625,4650.16015625,-400000.0625
timestamp,ch7,ch2,ch3,ch5,is_pause
timestamp,ch7,ch2,ch3,ch5,is_pause
3.6692376136779785,-400000.0625,-1880.9300537109375,3655.429931640625,-400000.0625,-2806.949951171875,-400000.0625,4610.43994140625,-400000.0625
timestamp,ch7,ch2,ch3,ch5,is_pause
3.6793220043182373,-400000.0625,-1872.969970703125,3654.239990234375,-400000.0625,-2818.780029296875,-400000.0625,4620.22021484375,-400000.0625
3.6881790161132812,-400000.0625,-1812.93994140625,3700.449951171875,-400000.0625,-2787.110107421875,-400000.0625,4674.14990234375,-400000.0625
timestamp,ch7,ch2,ch3,ch5,is_pause
3.6996545791625977,-400000.0625,-1781.800048828125,3720.090087890625,-400000.0625,-2793.31005859375,-400000.0625,4703.43017578125,-400000.0625
timestamp,ch7,ch2,ch3,ch5,is_pause
3.7126057147979736,-400000.0625,-1816.56005859375,3675.320068359375,-400000.0625,-2850.010009765625,-400000.0625,4673.240234375,-400000.0625
timestamp,ch7,ch2,ch3,ch5,is_pause
3.7274978160858154,-400000.0625,-1857.3299560546875,3625.35009765625,-400000.0625,-2894.159912109375,-400000.0625,4637.91015625,-400000.0625
timestamp,ch7,ch2,ch3,ch5,is_pause
3.742269515991211,-400000.0625,-1839.8299560546875,3631.5400390625,-400000.0625,-2896.639892578125,-400000.0625,4650.4501953125,-400000.0625
timestamp,ch7,ch2,ch3,ch5,is_pause
3.7552878856658936,-400000.0625,-1793.719970703125,3675.179931640625,-400000.0625,-2883.530029296875,-400000.0625,4704.0498046875,-400000.0625
timestamp,ch7,ch2,ch3,ch5,is_pause
timestamp,ch7,ch2,ch3,ch5,is_pause
3.783046007156372,-400000.0625,-1765.72998046875,3691.9599609375,-400000.0625,-2869.27001953125,-400000.0625,4733.990234375,-400000.0625
timestamp,ch7,ch2,ch3,ch5,is_pause
3.802306890487671,-400000.0625,-1808.2099609375,3650.81005859375,-400000.0625,-2905.659912109375,-400000.0625,4689.97998046875,-400000.0625
timestamp,ch7,ch2,ch3,ch5,is_pause
3.815962553024292,-400000.0625,-1875.5899658203125,3597.159912109375,-400000.0625,-2961.590087890625,-400000.0625,4646.10986328125,-400000.0625
timestamp,ch7,ch2,ch3,ch5,is_pause
3.829169273376465,-400000.0625,-1872.3499755859375,3596.260009765625,-400000.0625,-2947.0400390625,-400000.0625,4675.06005859375,-400000.0625
timestamp,ch7,ch2,ch3,ch5,is_pause
3.845996379852295,-400000.0625,-1788.6600341796875,3652.3798828125,-400000.0625,-2911.139892578125,-400000.0625,4721.31005859375,-400000.0625
timestamp,ch7,ch2,ch3,ch5,is_pause
3.861356258392334,-400000.0625,-1824.0,3678.22998046875,-400000.0625,-2907.7099609375,-400000.0625,4759.83984375,-400000.0625
timestamp,ch7,ch2,ch3,ch5,is_pause
timestamp,ch7,ch2,ch3,ch5,is_pause
3.891324996948242,-400000.0625,-1880.8399658203125,3636.27001953125,-400000.0625,-2953.77001953125,-400000.0625,4705.81005859375,-400000.0625
timestamp,ch7,ch2,ch3,ch5,is_pause
3.906071424484253,-400000.0625,-1868.9599609375,3573.280029296875,-400000.0625,-2968.409912109375,-400000.0625,4632.43017578125,-400000.0625
timestamp,ch7,ch2,ch3,ch5,is_pause
3.9231960773468018,-400000.0625,-1923.6099853515625,3567.550048828125,-400000.0625,-2953.580078125,-400000.0625,4651.68994140625,-400000.0625
timestamp,ch7,ch2,ch3,ch5,is_pause
3.9370951652526855,-400000.0625,-1857.760009765625,3619.0,-400000.0625,-2908.949951171875,-400000.0625,4672.33984375,-400000.0625
timestamp,ch7,ch2,ch3,ch5,is_pause
3.9495091438293457,-400000.0625,-1843.5,3575.75,-400000.0625,-2854.919921875,-400000.0625,4734.47021484375,-400000.0625
timestamp,ch7,ch2,ch3,ch5,is_pause
3.9620325565338135,-400000.0625,-1951.27001953125,3509.429931640625,-400000.0625,-2904.889892578125,-400000.0625,4670.14013671875,-400000.0625
timestamp,ch7,ch2,ch3,ch5,is_pause
3.9859328269958496,-400000.0625,-2114.580078125,3466.75,-400000.0625,-2923.580078125,-400000.0625,4550.1201171875,-400000.0625
timestamp,ch7,ch2,ch3,ch5,is_pause
4.000072240829468,-400000.0625,-2065.22998046875,3441.3798828125,-400000.0625,-2881.340087890625,-400000.0625,4629.419921875,-400000.0625
timestamp,ch7,ch2,ch3,ch5,is_pause
4.013745069503784,-400000.0625,-2060.1298828125,3469.93994140625,-400000.0625,-2815.43994140625,-400000.0625,4635.72021484375,-400000.0625
timestamp,ch7,ch2,ch3,ch5,is_pause
4.028284072875977,-400000.0625,-2114.010009765625,3460.739990234375,-400000.0625,-2821.35009765625,-400000.0625,4650.5498046875,-400000.0625
timestamp,ch7,ch2,ch3,ch5,is_pause
4.042373895645142,-400000.0625,-2241.610107421875,3392.60009765625,-400000.0625,-2840.85009765625,-400000.0625,4591.080078125,-400000.0625
timestamp,ch7,ch2,ch3,ch5,is_pause
4.056957721710205,-400000.0625,-2217.199951171875,3346.43994140625,-400000.0625,-2855.489990234375,-400000.0625,4650.740234375,-400000.0625
4.06685733795166,-400000.0625,-2095.27001953125,3446.580078125,-400000.0625,-2858.969970703125,-400000.0625,4763.22021484375,-400000.0625
timestamp,ch7,ch2,ch3,ch5,is_pause
timestamp,ch7,ch2,ch3,ch5,is_pause
4.0977783203125,-400000.0625,-2027.699951171875,3508.139892578125,-400000.0625,-2782.679931640625,-400000.0625,4857.16015625,-400000.0625
timestamp,ch7,ch2,ch3,ch5,is_pause
4.1124656200408936,-400000.0625,-1943.02001953125,3575.989990234375,-400000.0625,-2749.8701171875,-400000.0625,4882.240234375,-400000.0625
timestamp,ch7,ch2,ch3,ch5,is_pause
4.125311851501465,-400000.0625,-1836.969970703125,3573.080078125,-400000.0625,-2778.10009765625,-400000.0625,4985.330078125,-400000.0625
timestamp,ch7,ch2,ch3,ch5,is_pause
4.137679100036621,-400000.0625,-1787.7099609375,3575.659912109375,-400000.0625,-2777.6201171875,-400000.0625,4937.5498046875,-400000.0625
timestamp,ch7,ch2,ch3,ch5,is_pause
4.151148557662964,-400000.0625,-1649.7099609375,3637.030029296875,-400000.0625,-2733.800048828125,-400000.0625,5070.830078125,-400000.0625
timestamp,ch7,ch2,ch3,ch5,is_pause
4.161972522735596,-400000.0625,-1396.22998046875,3750.22998046875,-400000.0625,-2642.489990234375,-400000.0625,5216.5498046875,-400000.0625
timestamp,ch7,ch2,ch3,ch5,is_pause
4.176346302032471,-400000.0625,-1192.1400146484375,3813.169921875,-400000.0625,-2574.159912109375,-400000.0625,5246.31005859375,-400000.0625
timestamp,ch7,ch2,ch3,ch5,is_pause
timestamp,ch7,ch2,ch3,ch5,is_pause
4.202605485916138,-400000.0625,-1132.5799560546875,3906.300048828125,-400000.0625,-2533.9599609375,-400000.0625,5327.419921875,-400000.0625
4.2136359214782715,-400000.0625,-1010.0800170898438,3960.3701171875,-400000.0625,-2486.320068359375,-400000.0625,5317.64013671875,-400000.0625
timestamp,ch7,ch2,ch3,ch5,is_pause
4.2250683307647705,-400000.0625,-846.47998046875,4040.14990234375,-400000.0625,-2429.77001953125,-400000.0625,5298.0,-400000.0625
timestamp,ch7,ch2,ch3,ch5,is_pause
4.233994245529175,-400000.0625,-658.3699951171875,4185.14990234375,-400000.0625,-2309.85009765625,-400000.0625,5497.41015625,-400000.0625
4.240849494934082,-400000.0625,-512.739990234375,4299.1201171875,-400000.0625,-2208.570068359375,-400000.0625,5603.4599609375,-400000.0625
timestamp,ch7,ch2,ch3,ch5,is_pause
4.24989914894104,-400000.0625,-455.7099914550781,4326.68017578125,-400000.0625,-2207.89990234375,-400000.0625,5566.60009765625,-400000.0625
timestamp,ch7,ch2,ch3,ch5,is_pause
4.2614030838012695,-400000.0625,-409.94000244140625,4303.64990234375,-400000.0625,-2170.7099609375,-400000.0625,5595.35009765625,-400000.0625
timestamp,ch7,ch2,ch3,ch5,is_pause
4.273196220397949,-400000.0625,-191.63999938964844,4412.080078125,-400000.0625,-2116.159912109375,-400000.0625,5721.240234375,-400000.0625
4.284124374389648,-400000.0625,101.13999938964844,4498.0498046875,-400000.0625,-2047.6800537109375,-400000.0625,5787.08984375,-400000.0625
timestamp,ch7,ch2,ch3,ch5,is_pause
timestamp,ch7,ch2,ch3,ch5,is_pause
4.310235500335693,-400000.0625,329.3500061035156,4548.06982421875,-400000.0625,-1993.27001953125,-400000.0625,5804.830078125,-400000.0625
timestamp,ch7,ch2,ch3,ch5,is_pause
4.321651220321655,-400000.0625,442.54998779296875,4526.27978515625,-400000.0625,-2000.8599853515625,-400000.0625,5823.759765625,-400000.0625
4.329602241516113,-400000.0625,496.04998779296875,4487.7099609375,-400000.0625,-2002.760009765625,-400000.0625,5820.18017578125,-400000.0625
timestamp,ch7,ch2,ch3,ch5,is_pause
4.340512275695801,-400000.0625,574.9199829101562,4493.9501953125,-400000.0625,-1952.550048828125,-400000.0625,5833.81982421875,-400000.0625
timestamp,ch7,ch2,ch3,ch5,is_pause
4.349815845489502,-400000.0625,650.7899780273438,4525.14013671875,-400000.0625,-1892.9000244140625,-400000.0625,5851.7900390625,-400000.0625
timestamp,ch7,ch2,ch3,ch5,is_pause
4.360631942749023,-400000.0625,610.8800048828125,4502.68017578125,-400000.0625,-1861.760009765625,-400000.0625,5866.0,-400000.0625
4.369622468948364,-400000.0625,513.4600219726562,4450.7001953125,-400000.0625,-1896.81005859375,-400000.0625,5816.7900390625,-400000.0625
timestamp,ch7,ch2,ch3,ch5,is_pause
4.37984037399292,-400000.0625,416.2300109863281,4371.2099609375,-400000.0625,-1948.739990234375,-400000.0625,5723.18994140625,-400000.0625
timestamp,ch7,ch2,ch3,ch5,is_pause
4.392933130264282,-400000.0625,401.07000732421875,4345.080078125,-400000.0625,-1942.72998046875,-400000.0625,5696.72998046875,-400000.0625
timestamp,ch7,ch2,ch3,ch5,is_pause
timestamp,ch7,ch2,ch3,ch5,is_pause
4.41906476020813,-400000.0625,384.1400146484375,4371.4501953125,-400000.0625,-1898.1500244140625,-400000.0625,5718.08984375,-400000.0625
timestamp,ch7,ch2,ch3,ch5,is_pause
timestamp,ch7,ch2,ch3,ch5,is_pause
4.4986021518707275,-400000.0625,1942.4000244140625,5509.18994140625,-400000.0625,-1266.0999755859375,-400000.0625,6173.56005859375,-400000.0625
4.57463002204895,-400000.0625,2083.8701171875,5267.330078125,-400000.0625,-1811.739990234375,-400000.0625,6231.58984375,-400000.0625
4.685971736907959,-400000.0625,1679.6600341796875,5929.85009765625,-400000.0625,-900.5999755859375,-400000.0625,7504.60986328125,-400000.0625
4.790620803833008,-400000.0625,2215.77001953125,5457.4501953125,-400000.0625,-1649.6199951171875,-400000.0625,6619.740234375,-400000.0625
4.818339109420776,-400000.0625,2710.77001953125,5435.990234375,-400000.0625,-1835.43994140625,-400000.0625,6641.52978515625,-400000.0625
4.941927671432495,-400000.0625,2245.860107421875,5321.41015625,-400000.0625,-1957.510009765625,-400000.0625,6515.64990234375,-400000.0625
5.017337083816528,-400000.0625,1959.56005859375,5180.02978515625,-400000.0625,-2029.6099853515625,-400000.0625,6353.759765625,-400000.0625
5.182415723800659,-400000.0625,1606.3699951171875,5079.93994140625,-400000.0625,-2078.580078125,-400000.0625,6182.2900390625,-400000.0625
5.2012810707092285,-400000.0625,1404.949951171875,4984.0,-400000.0625,-2133.080078125,-400000.0625,6047.2998046875,-400000.0625
5.264296054840088,-400000.0625,1115.93994140625,4848.77001953125,-400000.0625,-2200.169921875,-400000.0625,5836.06005859375,-400000.0625
5.325788497924805,-400000.0625,1058.239990234375,4793.259765625,-400000.0625,-2244.570068359375,-400000.0625,5783.509765625,-400000.0625
5.390810966491699,-400000.0625,905.9000244140625,4704.56982421875,-400000.0625,-2286.10009765625,-400000.0625,5663.009765625,-400000.0625
5.468018054962158,-400000.0625,821.2100219726562,4678.919921875,-400000.0625,-2292.35009765625,-400000.0625,5602.97998046875,-400000.0625
5.52300500869751,-400000.0625,726.75,4636.3798828125,-400000.0625,-2315.0,-400000.0625,5533.509765625,-400000.0625
5.649529218673706,-400000.0625,501.7799987792969,4490.22998046875,-400000.0625,-2395.06005859375,-400000.0625,5334.81005859375,-400000.0625
5.716989517211914,-400000.0625,416.3699951171875,4437.16015625,-400000.0625,-2425.860107421875,-400000.0625,5259.47021484375,-400000.0625
5.840747117996216,-400000.0625,321.1499938964844,4384.7099609375,-400000.0625,-2450.0400390625,-400000.0625,5173.72998046875,-400000.0625
5.902901649475098,-400000.0625,240.85000610351562,4330.2998046875,-400000.0625,-2480.840087890625,-400000.0625,5103.39990234375,-400000.0625
5.968477487564087,-400000.0625,104.62000274658203,4220.2001953125,-400000.0625,-2558.760009765625,-400000.0625,4962.72998046875,-400000.0625
6.095667362213135,-400000.0625,78.87000274658203,4222.68017578125,-400000.0625,-2548.360107421875,-400000.0625,4944.419921875,-400000.0625
6.183408260345459,-400000.0625,11.630000114440918,4166.75,-400000.0625,-2565.719970703125,-400000.0625,4883.9599609375,-400000.0625
6.253967523574829,-400000.0625,-43.439998626708984,4129.93017578125,-400000.0625,-2593.139892578125,-400000.0625,4839.330078125,-400000.0625
6.288646936416626,-400000.0625,-151.00999450683594,4034.570068359375,-400000.0625,-2663.179931640625,-400000.0625,4740.14013671875,-400000.0625
6.414226531982422,-400000.0625,-195.69000244140625,4013.489990234375,-400000.0625,-2653.550048828125,-400000.0625,4725.93017578125,-400000.0625
6.480578660964966,-400000.0625,-213.80999755859375,3999.52001953125,-400000.0625,-2662.0400390625,-400000.0625,4708.580078125,-400000.0625
6.632694482803345,-400000.0625,-356.9100036621094,3866.050048828125,-400000.0625,-2761.27001953125,-400000.0625,4559.60986328125,-400000.0625
6.687001705169678,-400000.0625,-399.5899963378906,3831.77001953125,-400000.0625,-2777.340087890625,-400000.0625,4524.22998046875,-400000.0625
6.798086166381836,-400000.0625,-413.510009765625,3827.3798828125,-400000.0625,-2752.39990234375,-400000.0625,4526.89990234375,-400000.0625
6.932076930999756,-400000.0625,-609.8300170898438,3517.43994140625,-400000.0625,-2878.0,-400000.0625,4673.39013671875,-400000.0625
7.001993656158447,-400000.0625,-632.9500122070312,3506.280029296875,-400000.0625,-2880.340087890625,-400000.0625,4666.9501953125,-400000.0625
7.122360706329346,-400000.0625,-676.6300048828125,3476.6201171875,-400000.0625,-2873.75,-400000.0625,4648.58984375,-400000.0625
7.18257737159729,-400000.0625,-749.2100219726562,3404.469970703125,-400000.0625,-2912.0400390625,-400000.0625,4582.7900390625,-400000.0625
7.248867988586426,-400000.0625,-773.8599853515625,3385.1201171875,-400000.0625,-2930.02001953125,-400000.0625,4566.6201171875,-400000.0625
7.364308834075928,-400000.0625,-818.780029296875,3343.9599609375,-400000.0625,-2947.659912109375,-400000.0625,4542.259765625,-400000.0625
7.3848302364349365,-400000.0625,-851.489990234375,3314.68994140625,-400000.0625,-2947.3798828125,-400000.0625,4523.66015625,-400000.0625
7.444452285766602,-400000.0625,-843.8099975585938,3326.510009765625,-400000.0625,-2925.06005859375,-400000.0625,4550.4599609375,-400000.0625
7.520966053009033,-400000.0625,-930.1699829101562,3250.739990234375,-400000.0625,-2978.800048828125,-400000.0625,4475.97998046875,-400000.0625
7.629390478134155,-400000.0625,-981.3800048828125,3198.719970703125,-400000.0625,-2997.02001953125,-400000.0625,4434.77978515625,-400000.0625
7.762311935424805,-400000.0625,-1002.5999755859375,3194.52001953125,-400000.0625,-2977.659912109375,-400000.0625,4446.35986328125,-400000.0625
7.846951484680176,-400000.0625,-1033.1600341796875,3167.14990234375,-400000.0625,-2989.050048828125,-400000.0625,4428.580078125,-400000.0625
7.893011808395386,-400000.0625,-1146.3599853515625,3063.6298828125,-400000.0625,-3058.10009765625,-400000.0625,4336.740234375,-400000.0625
7.951081991195679,-400000.0625,-1148.4100341796875,3071.360107421875,-400000.0625,-3039.7900390625,-400000.0625,4341.509765625,-400000.0625
8.115434169769287,-400000.0625,-1156.81005859375,3076.1201171875,-400000.0625,-3017.949951171875,-400000.0625,4323.0498046875,-400000.0625
8.143106460571289,-400000.0625,-1078.0799560546875,3206.830078125,-400000.0625,-2971.93994140625,-400000.0625,4137.75,-400000.0625
8.218220949172974,-400000.0625,-1183.8399658203125,3133.77001953125,-400000.0625,-3028.199951171875,-400000.0625,4067.949951171875,-400000.0625
8.39693546295166,-400000.0625,-1213.6500244140625,3146.31005859375,-400000.0625,-3007.080078125,-400000.0625,4035.85009765625,-400000.0625
8.4836266040802,-400000.0625,-1291.1300048828125,3081.93994140625,-400000.0625,-3058.050048828125,-400000.0625,3985.7900390625,-400000.0625
8.537489414215088,-400000.0625,-1314.5899658203125,3064.25,-400000.0625,-3054.7099609375,-400000.0625,3973.06005859375,-400000.0625
8.592074394226074,-400000.0625,-1365.6099853515625,3028.8701171875,-400000.0625,-3074.64990234375,-400000.0625,3943.6298828125,-400000.0625
8.720519542694092,-400000.0625,-1360.800048828125,3041.1201171875,-400000.0625,-3043.409912109375,-400000.0625,3962.800048828125,-400000.0625
8.783119678497314,-400000.0625,-1379.6800537109375,3030.35009765625,-400000.0625,-3044.27001953125,-400000.0625,3960.56005859375,-400000.0625
8.849548816680908,-400000.0625,-1442.1500244140625,2972.409912109375,-400000.0625,-3089.3798828125,-400000.0625,3901.669921875,-400000.0625
8.978242874145508,-400000.0625,-1538.6600341796875,2921.340087890625,-400000.0625,-3096.010009765625,-400000.0625,3832.580078125,-400000.0625
9.117002964019775,-400000.0625,-1968.0999755859375,2755.070068359375,-400000.0625,-2908.1298828125,-400000.0625,3678.27001953125,-400000.0625
9.19831109046936,-400000.0625,-1826.8599853515625,2755.8798828125,-400000.0625,-3064.820068359375,-400000.0625,3694.43994140625,-400000.0625
9.230622291564941,-400000.0625,-1739.5,2799.27001953125,-400000.0625,-3100.25,-400000.0625,3741.64990234375,-400000.0625
9.300100803375244,-400000.0625,-1695.8199462890625,2826.739990234375,-400000.0625,-3094.719970703125,-400000.0625,3772.449951171875,-400000.0625
9.368189096450806,-400000.0625,-1640.0799560546875,2882.719970703125,-400000.0625,-3062.530029296875,-400000.0625,3824.659912109375,-400000.0625
9.429526090621948,-400000.0625,-1644.0400390625,2880.6201171875,-400000.0625,-3061.199951171875,-400000.0625,3824.0,-400000.0625
9.486939191818237,-400000.0625,-1719.52001953125,2810.139892578125,-400000.0625,-3098.300048828125,-400000.0625,3792.139892578125,-400000.0625
9.575945854187012,-400000.0625,-1778.8900146484375,2737.18994140625,-400000.0625,-3141.639892578125,-400000.0625,3758.340087890625,-400000.0625
9.616402626037598,-400000.0625,-1718.18994140625,2809.10009765625,-400000.0625,-3087.6201171875,-400000.0625,3820.419921875,-400000.0625
9.74414348602295,-400000.0625,-1729.06005859375,2814.669921875,-400000.0625,-3090.139892578125,-400000.0625,3786.610107421875,-400000.0625
9.87542200088501,-400000.0625,-2056.409912109375,2499.909912109375,-400000.0625,-3177.2099609375,-400000.0625,3773.260009765625,-400000.0625
9.953156471252441,-400000.0625,-2015.8800048828125,2561.6201171875,-400000.0625,-3136.590087890625,-400000.0625,3823.52001953125,-400000.0625
9.998792886734009,-400000.0625,-2029.9000244140625,2549.219970703125,-400000.0625,-3124.3798828125,-400000.0625,3844.169921875,-400000.0625
10.130512952804565,-400000.0625,-2571.77001953125,2357.43994140625,-400000.0625,-2932.68994140625,-400000.0625,3500.409912109375,-400000.0625
10.252909183502197,-400000.0625,-2536.340087890625,2741.14990234375,-400000.0625,-2806.469970703125,-400000.0625,3241.679931640625,-400000.0625
10.317052841186523,-400000.0625,-2546.260009765625,2870.3701171875,-400000.0625,-2788.35009765625,-400000.0625,3231.570068359375,-400000.0625
10.674299001693726,-400000.0625,-1874.3499755859375,2664.570068359375,-400000.0625,-3130.050048828125,-400000.0625,3858.610107421875,-400000.0625
10.705844402313232,-400000.0625,-1857.6099853515625,2693.179931640625,-400000.0625,-3104.070068359375,-400000.0625,3835.010009765625,-400000.0625
10.830475091934204,-400000.0625,-1970.8599853515625,2628.800048828125,-400000.0625,-3184.64990234375,-400000.0625,3708.510009765625,-400000.0625
10.893078327178955,-400000.0625,-1887.75,2826.070068359375,-400000.0625,-3135.25,-400000.0625,3475.949951171875,-400000.0625
11.0478675365448,-400000.0625,-1913.8299560546875,2883.9599609375,-400000.0625,-3066.969970703125,-400000.0625,3496.080078125,-400000.0625
11.085771560668945,-400000.0625,-2451.800048828125,2501.389892578125,-400000.0625,-2969.60009765625,-400000.0625,3448.580078125,-400000.0625
11.218340635299683,-400000.0625,-2078.14990234375,2533.580078125,-400000.0625,-3186.179931640625,-400000.0625,3690.669921875,-400000.0625
11.349142789840698,-400000.0625,-2044.25,2474.449951171875,-400000.0625,-3180.219970703125,-400000.0625,3910.590087890625,-400000.0625
11.418076992034912,-400000.0625,-2065.3701171875,2434.39990234375,-400000.0625,-3200.050048828125,-400000.0625,4019.929931640625,-400000.0625
11.472514390945435,-400000.0625,-2131.320068359375,2396.6298828125,-400000.0625,-3237.14990234375,-400000.0625,3951.360107421875,-400000.0625
11.540663480758667,-400000.0625,-2149.530029296875,2392.340087890625,-400000.0625,-3239.43994140625,-400000.0625,3946.830078125,-400000.0625
11.598262786865234,-400000.0625,-2013.8699951171875,2583.4599609375,-400000.0625,-3137.2099609375,-400000.0625,3760.580078125,-400000.0625
11.78243374824524,-400000.0625,-2079.919921875,2610.159912109375,-400000.0625,-3149.889892578125,-400000.0625,3652.239990234375,-400000.0625
11.933088541030884,-400000.0625,-2031.280029296875,2685.5,-400000.0625,-3131.489990234375,-400000.0625,3613.85009765625,-400000.0625
11.988219261169434,-400000.0625,-2068.0,2661.469970703125,-400000.0625,-3152.0400390625,-400000.0625,3587.909912109375,-400000.0625
12.146846294403076,-400000.0625,-2131.610107421875,2611.68994140625,-400000.0625,-3198.2900390625,-400000.0625,3539.510009765625,-400000.0625
12.193306684494019,-400000.0625,-2137.22998046875,2610.02001953125,-400000.0625,-3196.909912109375,-400000.0625,3535.27001953125,-400000.0625
12.432865142822266,-400000.0625,-2153.919921875,2613.35009765625,-400000.0625,-3192.469970703125,-400000.0625,3519.820068359375,-400000.0625
timestamp,ch7,ch2,ch3,ch5,is_pause
12.577275037765503,-400000.0625,-2143.909912109375,2638.010009765625,-400000.0625,-3160.18994140625,-400000.0625,3544.52001953125,-400000.0625
12.594465017318726,-400000.0625,-2107.719970703125,2671.580078125,-400000.0625,-3133.8701171875,-400000.0625,3583.669921875,-400000.0625
12.604814291000366,-400000.0625,-2128.360107421875,2655.889892578125,-400000.0625,-3155.89990234375,-400000.0625,3562.02001953125,-400000.0625
12.61258840560913,-400000.0625,-2179.719970703125,2607.580078125,-400000.0625,-3193.239990234375,-400000.0625,3509.139892578125,-400000.0625
12.622026443481445,-400000.0625,-2192.929931640625,2594.330078125,-400000.0625,-3203.010009765625,-400000.0625,3498.27001953125,-400000.0625
12.628865718841553,-400000.0625,-2149.300048828125,2636.719970703125,-400000.0625,-3166.530029296875,-400000.0625,3541.0400390625,-400000.0625
12.637498140335083,-400000.0625,-2112.43994140625,2675.25,-400000.0625,-3133.5400390625,-400000.0625,3578.659912109375,-400000.0625
12.645618915557861,-400000.0625,-2132.3701171875,2655.030029296875,-400000.0625,-3153.610107421875,-400000.0625,3561.830078125,-400000.0625
12.652567625045776,-400000.0625,-2177.2900390625,2609.780029296875,-400000.0625,-3197.0,-400000.0625,3516.25,-400000.0625
12.661364316940308,-400000.0625,-2185.199951171875,2601.77001953125,-400000.0625,-3196.3798828125,-400000.0625,3503.3701171875,-400000.0625
12.669419050216675,-400000.0625,-2153.35009765625,2636.14990234375,-400000.0625,-3171.8701171875,-400000.0625,3536.419921875,-400000.0625
12.676734685897827,-400000.0625,-2118.780029296875,2671.530029296875,-400000.0625,-3143.1201171875,-400000.0625,3574.179931640625,-400000.0625
12.683127641677856,-400000.0625,-2135.7099609375,2652.60009765625,-400000.0625,-3158.0,-400000.0625,3558.489990234375,-400000.0625
12.699511766433716,-400000.0625,-2185.919921875,2603.010009765625,-400000.0625,-3197.860107421875,-400000.0625,3511.3798828125,-400000.0625
12.710660457611084,-400000.0625,-2191.2099609375,2599.719970703125,-400000.0625,-3197.340087890625,-400000.0625,3505.659912109375,-400000.0625
12.716944932937622,-400000.0625,-2151.820068359375,2642.969970703125,-400000.0625,-3166.530029296875,-400000.0625,3542.139892578125,-400000.0625
12.724729061126709,-400000.0625,-2119.159912109375,2675.389892578125,-400000.0625,-3142.39990234375,-400000.0625,3573.93994140625,-400000.0625
12.730878353118896,-400000.0625,-2139.139892578125,2655.739990234375,-400000.0625,-3155.570068359375,-400000.0625,3552.14990234375,-400000.0625
12.738990545272827,-400000.0625,-2182.050048828125,2613.5400390625,-400000.0625,-3188.7099609375,-400000.0625,3508.81005859375,-400000.0625
12.745741605758667,-400000.0625,-2195.929931640625,2599.949951171875,-400000.0625,-3200.9599609375,-400000.0625,3497.31005859375,-400000.0625
12.756054639816284,-400000.0625,-2152.780029296875,2642.679931640625,-400000.0625,-3167.820068359375,-400000.0625,3541.3701171875,-400000.0625
12.764689922332764,-400000.0625,-2113.489990234375,2681.2099609375,-400000.0625,-3132.25,-400000.0625,3577.85009765625,-400000.0625
12.774319410324097,-400000.0625,-2140.0,2656.409912109375,-400000.0625,-3153.989990234375,-400000.0625,3552.14990234375,-400000.0625
12.781476259231567,-400000.0625,-2190.8798828125,2607.72998046875,-400000.0625,-3194.050048828125,-400000.0625,3502.75,-400000.0625
12.79001259803772,-400000.0625,-2200.030029296875,2597.139892578125,-400000.0625,-3202.25,-400000.0625,3489.159912109375,-400000.0625
12.806818008422852,-400000.0625,-2159.929931640625,2640.389892578125,-400000.0625,-3162.669921875,-400000.0625,3529.5,-400000.0625
12.813632011413574,-400000.0625,-2121.5,2677.010009765625,-400000.0625,-3135.159912109375,-400000.0625,3570.510009765625,-400000.0625
12.822845458984375,-400000.0625,-2145.389892578125,2654.030029296875,-400000.0625,-3156.949951171875,-400000.0625,3549.239990234375,-400000.0625
12.82925009727478,-400000.0625,-2189.8701171875,2610.590087890625,-400000.0625,-3188.52001953125,-400000.0625,3502.320068359375,-400000.0625
12.837562799453735,-400000.0625,-2195.219970703125,2603.6298828125,-400000.0625,-3193.139892578125,-400000.0625,3493.2099609375,-400000.0625
12.845950365066528,-400000.0625,-2149.6298828125,2648.070068359375,-400000.0625,-3167.43994140625,-400000.0625,3539.22998046875,-400000.0625
12.855990171432495,-400000.0625,-2111.14990234375,2685.5,-400000.0625,-3133.580078125,-400000.0625,3576.760009765625,-400000.0625
12.862840414047241,-400000.0625,-2145.10009765625,2654.4599609375,-400000.0625,-3157.139892578125,-400000.0625,3544.0400390625,-400000.0625
12.873962879180908,-400000.0625,-2193.830078125,2606.580078125,-400000.0625,-3194.429931640625,-400000.0625,3493.8798828125,-400000.0625
12.880782127380371,-400000.0625,-2199.60009765625,2601.340087890625,-400000.0625,-3193.469970703125,-400000.0625,3489.68994140625,-400000.0625
12.892144680023193,-400000.0625,-2159.409912109375,2640.8701171875,-400000.0625,-3162.719970703125,-400000.0625,3531.360107421875,-400000.0625
12.909645080566406,-400000.0625,-2117.39990234375,2682.830078125,-400000.0625,-3129.820068359375,-400000.0625,3568.080078125,-400000.0625
12.917502164840698,-400000.0625,-2137.469970703125,2661.610107421875,-400000.0625,-3142.260009765625,-400000.0625,3547.860107421875,-400000.0625
12.926678657531738,-400000.0625,-2198.27001953125,2607.679931640625,-400000.0625,-3192.3798828125,-400000.0625,3495.60009765625,-400000.0625
12.93386960029602,-400000.0625,-2208.469970703125,2601.050048828125,-400000.0625,-3201.580078125,-400000.0625,3484.43994140625,-400000.0625
12.942238092422485,-400000.0625,-2160.60009765625,2643.489990234375,-400000.0625,-3162.580078125,-400000.0625,3534.1298828125,-400000.0625
12.948549747467041,-400000.0625,-2120.39990234375,2670.719970703125,-400000.0625,-3136.8701171875,-400000.0625,3573.080078125,-400000.0625
12.957703113555908,-400000.0625,-2150.5400390625,2647.639892578125,-400000.0625,-3158.52001953125,-400000.0625,3553.679931640625,-400000.0625
12.965561389923096,-400000.0625,-2203.1298828125,2601.77001953125,-400000.0625,-3192.81005859375,-400000.0625,3504.469970703125,-400000.0625
12.97397255897522,-400000.0625,-2207.800048828125,2595.22998046875,-400000.0625,-3195.52001953125,-400000.0625,3493.39990234375,-400000.0625
12.981005430221558,-400000.0625,-2168.56005859375,2636.10009765625,-400000.0625,-3160.909912109375,-400000.0625,3537.4599609375,-400000.0625
12.99336051940918,-400000.0625,-2133.179931640625,2673.10009765625,-400000.0625,-3130.8701171875,-400000.0625,3573.510009765625,-400000.0625
13.010386943817139,-400000.0625,-2157.02001953125,2651.02001953125,-400000.0625,-3151.510009765625,-400000.0625,3548.429931640625,-400000.0625
13.018015384674072,-400000.0625,-2201.93994140625,2606.010009765625,-400000.0625,-3186.419921875,-400000.0625,3501.510009765625,-400000.0625
13.027726650238037,-400000.0625,-2213.909912109375,2596.090087890625,-400000.0625,-3191.659912109375,-400000.0625,3495.929931640625,-400000.0625
13.03569769859314,-400000.0625,-2175.280029296875,2632.669921875,-400000.0625,-3158.139892578125,-400000.0625,3529.840087890625,-400000.0625
13.044083595275879,-400000.0625,-2138.610107421875,2668.570068359375,-400000.0625,-3132.6298828125,-400000.0625,3564.169921875,-400000.0625
13.0529146194458,-400000.0625,-2159.2099609375,2651.639892578125,-400000.0625,-3146.31005859375,-400000.0625,3550.10009765625,-400000.0625
13.061439990997314,-400000.0625,-2207.139892578125,2604.14990234375,-400000.0625,-3186.889892578125,-400000.0625,3504.469970703125,-400000.0625
13.068494081497192,-400000.0625,-2218.530029296875,2593.090087890625,-400000.0625,-3203.06005859375,-400000.0625,3492.449951171875,-400000.0625
13.076961040496826,-400000.0625,-2175.429931640625,2634.719970703125,-400000.0625,-3170.5400390625,-400000.0625,3533.699951171875,-400000.0625
13.084930896759033,-400000.0625,-2138.0,2671.340087890625,-400000.0625,-3130.010009765625,-400000.0625,3563.1201171875,-400000.0625
13.092997074127197,-400000.0625,-2158.2099609375,2651.1201171875,-400000.0625,-3144.1201171875,-400000.0625,3542.469970703125,-400000.0625
13.099631547927856,-400000.0625,-2205.469970703125,2603.2900390625,-400000.0625,-3188.89990234375,-400000.0625,3495.360107421875,-400000.0625
13.11562728881836,-400000.0625,-2216.010009765625,2593.7099609375,-400000.0625,-3196.340087890625,-400000.0625,3486.06005859375,-400000.0625
13.123775482177734,-400000.0625,-2177.52001953125,2634.10009765625,-400000.0625,-3167.14990234375,-400000.0625,3527.070068359375,-400000.0625
13.131380796432495,-400000.0625,-2137.760009765625,2669.570068359375,-400000.0625,-3138.449951171875,-400000.0625,3564.739990234375,-400000.0625
13.13875436782837,-400000.0625,-2157.070068359375,2653.169921875,-400000.0625,-3149.27001953125,-400000.0625,3549.530029296875,-400000.0625
13.146864652633667,-400000.0625,-2210.18994140625,2603.9599609375,-400000.0625,-3187.0400390625,-400000.0625,3499.320068359375,-400000.0625
13.1549551486969,-400000.0625,-2222.6298828125,2590.22998046875,-400000.0625,-3192.330078125,-400000.0625,3483.43994140625,-400000.0625
13.162384748458862,-400000.0625,-2180.340087890625,2631.330078125,-400000.0625,-3163.2900390625,-400000.0625,3524.590087890625,-400000.0625
13.169597387313843,-400000.0625,-2140.0,2674.010009765625,-400000.0625,-3137.2099609375,-400000.0625,3566.60009765625,-400000.0625
13.178040027618408,-400000.0625,-2159.830078125,2655.320068359375,-400000.0625,-3158.3798828125,-400000.0625,3547.239990234375,-400000.0625
13.185792207717896,-400000.0625,-2214.9599609375,2601.239990234375,-400000.0625,-3195.18994140625,-400000.0625,3493.5,-400000.0625
13.195477724075317,-400000.0625,-2225.68994140625,2593.330078125,-400000.0625,-3196.570068359375,-400000.0625,3483.199951171875,-400000.0625
13.20412802696228,-400000.0625,-2187.25,2628.52001953125,-400000.0625,-3159.81005859375,-400000.0625,3522.919921875,-400000.0625
13.221863031387329,-400000.0625,-2148.489990234375,2666.6201171875,-400000.0625,-3136.02001953125,-400000.0625,3563.1201171875,-400000.0625
13.229704856872559,-400000.0625,-2163.4599609375,2652.739990234375,-400000.0625,-3147.64990234375,-400000.0625,3547.429931640625,-400000.0625
13.239245891571045,-400000.0625,-2209.090087890625,2609.969970703125,-400000.0625,-3187.469970703125,-400000.0625,3503.22998046875,-400000.0625
13.247469663619995,-400000.0625,-2226.39990234375,2593.090087890625,-400000.0625,-3198.239990234375,-400000.0625,3486.590087890625,-400000.0625
13.256224155426025,-400000.0625,-2186.8701171875,2629.760009765625,-400000.0625,-3167.389892578125,-400000.0625,3523.02001953125,-400000.0625
13.267032384872437,-400000.0625,-2143.18994140625,2673.199951171875,-400000.0625,-3133.679931640625,-400000.0625,3560.639892578125,-400000.0625
13.27714991569519,-400000.0625,-2164.93994140625,2658.800048828125,-400000.0625,-3146.27001953125,-400000.0625,3540.610107421875,-400000.0625
13.286599159240723,-400000.0625,-2233.550048828125,2599.2900390625,-400000.0625,-3200.669921875,-400000.0625,3491.35009765625,-400000.0625
13.295810461044312,-400000.0625,-2252.669921875,2571.06005859375,-400000.0625,-3220.3701171875,-400000.0625,3488.35009765625,-400000.0625
13.305302143096924,-400000.0625,-2206.090087890625,2601.429931640625,-400000.0625,-3180.550048828125,-400000.0625,3538.080078125,-400000.0625
13.322400569915771,-400000.0625,-2175.949951171875,2629.419921875,-400000.0625,-3150.610107421875,-400000.0625,3576.89990234375,-400000.0625
13.33023738861084,-400000.0625,-2195.8798828125,2607.010009765625,-400000.0625,-3169.919921875,-400000.0625,3569.97998046875,-400000.0625
13.338738679885864,-400000.0625,-2244.81005859375,2548.360107421875,-400000.0625,-3203.77001953125,-400000.0625,3534.219970703125,-400000.0625
13.349689960479736,-400000.0625,-2256.6298828125,2529.570068359375,-400000.0625,-3208.780029296875,-400000.0625,3530.840087890625,-400000.0625
13.358339071273804,-400000.0625,-2219.6298828125,2558.800048828125,-400000.0625,-3182.699951171875,-400000.0625,3580.760009765625,-400000.0625
13.366156816482544,-400000.0625,-2182.010009765625,2589.419921875,-400000.0625,-3156.570068359375,-400000.0625,3619.860107421875,-400000.0625
13.375558853149414,-400000.0625,-2203.75,2569.489990234375,-400000.0625,-3173.68994140625,-400000.0625,3603.889892578125,-400000.0625
13.383068084716797,-400000.0625,-2255.489990234375,2521.320068359375,-400000.0625,-3208.260009765625,-400000.0625,3562.360107421875,-400000.0625
13.393206357955933,-400000.0625,-2262.35009765625,2514.31005859375,-400000.0625,-3220.219970703125,-400000.0625,3551.14990234375,-400000.0625
13.4028000831604,-400000.0625,-2226.590087890625,2549.169921875,-400000.0625,-3190.610107421875,-400000.0625,3586.47998046875,-400000.0625
13.410872220993042,-400000.0625,-2190.449951171875,2585.75,-400000.0625,-3156.89990234375,-400000.0625,3622.9599609375,-400000.0625
13.43009877204895,-400000.0625,-2207.7099609375,2566.6201171875,-400000.0625,-3170.590087890625,-400000.0625,3604.56005859375,-400000.0625
13.446248292922974,-400000.0625,-2259.639892578125,2513.360107421875,-400000.0625,-3222.75,-400000.0625,3558.300048828125,-400000.0625
13.455847263336182,-400000.0625,-2270.510009765625,2501.919921875,-400000.0625,-3229.280029296875,-400000.0625,3546.429931640625,-400000.0625
13.463994264602661,-400000.0625,-2222.489990234375,2545.169921875,-400000.0625,-3190.22998046875,-400000.0625,3589.6298828125,-400000.0625
13.474490880966187,-400000.0625,-2182.050048828125,2586.169921875,-400000.0625,-3156.22998046875,-400000.0625,3631.2099609375,-400000.0625
13.48244571685791,-400000.0625,-2196.030029296875,2574.39990234375,-400000.0625,-3176.929931640625,-400000.0625,3622.679931640625,-400000.0625
13.491016149520874,-400000.0625,-2244.6201171875,2527.330078125,-400000.0625,-3218.4599609375,-400000.0625,3574.85009765625,-400000.0625
13.499574661254883,-400000.0625,-2266.68994140625,2505.590087890625,-400000.0625,-3233.860107421875,-400000.0625,3554.14990234375,-400000.0625
13.507868528366089,-400000.0625,-2228.260009765625,2544.590087890625,-400000.0625,-3200.199951171875,-400000.0625,3593.590087890625,-400000.0625
13.515128135681152,-400000.0625,-2182.2900390625,2587.1298828125,-400000.0625,-3166.719970703125,-400000.0625,3637.169921875,-400000.0625
13.530295848846436,-400000.0625,-2196.409912109375,2571.5400390625,-400000.0625,-3188.7099609375,-400000.0625,3624.110107421875,-400000.0625
13.539310932159424,-400000.0625,-2236.4599609375,2529.0,-400000.0625,-3226.949951171875,-400000.0625,3576.89990234375,-400000.0625
13.547300815582275,-400000.0625,-2249.10009765625,2518.800048828125,-400000.0625,-3230.719970703125,-400000.0625,3566.929931640625,-400000.0625
13.555884838104248,-400000.0625,-2205.85009765625,2562.949951171875,-400000.0625,-3199.6298828125,-400000.0625,3607.179931640625,-400000.0625
13.563079118728638,-400000.0625,-2168.419921875,2599.340087890625,-400000.0625,-3163.429931640625,-400000.0625,3642.889892578125,-400000.0625
13.570758581161499,-400000.0625,-2186.580078125,2580.449951171875,-400000.0625,-3179.169921875,-400000.0625,3626.25,-400000.0625
13.578728199005127,-400000.0625,-2233.27001953125,2531.530029296875,-400000.0625,-3219.60009765625,-400000.0625,3579.18994140625,-400000.0625
13.58769416809082,-400000.0625,-2237.989990234375,2527.429931640625,-400000.0625,-3229.7099609375,-400000.0625,3572.989990234375,-400000.0625
13.597232341766357,-400000.0625,-2193.780029296875,2569.820068359375,-400000.0625,-3202.25,-400000.0625,3615.6201171875,-400000.0625
13.606322526931763,-400000.0625,-2154.590087890625,2606.679931640625,-400000.0625,-3163.860107421875,-400000.0625,3654.530029296875,-400000.0625
13.613754510879517,-400000.0625,-2172.89990234375,2585.60009765625,-400000.0625,-3179.169921875,-400000.0625,3632.449951171875,-400000.0625
13.623620748519897,-400000.0625,-2227.830078125,2532.389892578125,-400000.0625,-3228.52001953125,-400000.0625,3580.81005859375,-400000.0625
13.639888286590576,-400000.0625,-2237.800048828125,2523.0400390625,-400000.0625,-3231.050048828125,-400000.0625,3568.27001953125,-400000.0625
13.647935390472412,-400000.0625,-2194.929931640625,2565.77001953125,-400000.0625,-3196.760009765625,-400000.0625,3612.570068359375,-400000.0625
13.65653920173645,-400000.0625,-2147.43994140625,2611.35009765625,-400000.0625,-3167.25,-400000.0625,3657.25,-400000.0625
13.664440155029297,-400000.0625,-2158.31005859375,2596.3798828125,-400000.0625,-3192.3798828125,-400000.0625,3644.510009765625,-400000.0625
13.674356698989868,-400000.0625,-2217.8701171875,2540.8701171875,-400000.0625,-3235.43994140625,-400000.0625,3589.679931640625,-400000.0625
13.683932304382324,-400000.0625,-2234.1298828125,2529.81005859375,-400000.0625,-3226.949951171875,-400000.0625,3573.280029296875,-400000.0625
13.694697380065918,-400000.0625,-2188.35009765625,2573.159912109375,-400000.0625,-3193.659912109375,-400000.0625,3614.659912109375,-400000.0625
13.707080602645874,-400000.0625,-2152.159912109375,2607.8701171875,-400000.0625,-3166.06005859375,-400000.0625,3653.719970703125,-400000.0625
13.71995234489441,-400000.0625,-2163.840087890625,2594.330078125,-400000.0625,-3176.739990234375,-400000.0625,3633.550048828125,-400000.0625
13.730080604553223,-400000.0625,-2210.0,2549.219970703125,-400000.0625,-3220.510009765625,-400000.0625,3587.14990234375,-400000.0625
13.759395122528076,-400000.0625,-2230.409912109375,2533.340087890625,-400000.0625,-3233.580078125,-400000.0625,3570.699951171875,-400000.0625
13.772778511047363,-400000.0625,-2184.919921875,2577.260009765625,-400000.0625,-3194.52001953125,-400000.0625,3610.800048828125,-400000.0625
13.781930685043335,-400000.0625,-2145.77001953125,2614.449951171875,-400000.0625,-3165.43994140625,-400000.0625,3646.419921875,-400000.0625
13.794368982315063,-400000.0625,-2165.64990234375,2595.659912109375,-400000.0625,-3182.97998046875,-400000.0625,3631.260009765625,-400000.0625
13.803168773651123,-400000.0625,-2215.429931640625,2552.840087890625,-400000.0625,-3223.320068359375,-400000.0625,3587.43994140625,-400000.0625
13.811771392822266,-400000.0625,-2221.919921875,2543.2099609375,-400000.0625,-3230.669921875,-400000.0625,3579.6201171875,-400000.0625
13.822119951248169,-400000.0625,-2179.429931640625,2576.830078125,-400000.0625,-3200.9599609375,-400000.0625,3629.590087890625,-400000.0625
13.830028057098389,-400000.0625,-2141.669921875,2605.77001953125,-400000.0625,-3176.02001953125,-400000.0625,3671.60009765625,-400000.0625
13.840120792388916,-400000.0625,-2163.739990234375,2581.7900390625,-400000.0625,-3189.179931640625,-400000.0625,3658.10009765625,-400000.0625
13.861605882644653,-400000.0625,-2216.860107421875,2533.719970703125,-400000.0625,-3216.840087890625,-400000.0625,3613.760009765625,-400000.0625
13.872803926467896,-400000.0625,-2231.68994140625,2519.75,-400000.0625,-3223.75,-400000.0625,3608.179931640625,-400000.0625
13.880898714065552,-400000.0625,-2185.580078125,2559.949951171875,-400000.0625,-3197.9599609375,-400000.0625,3654.2900390625,-400000.0625
13.892949104309082,-400000.0625,-2143.530029296875,2602.050048828125,-400000.0625,-3163.860107421875,-400000.0625,3695.300048828125,-400000.0625
13.902937889099121,-400000.0625,-2163.4599609375,2581.070068359375,-400000.0625,-3193.0,-400000.0625,3677.93994140625,-400000.0625
13.912487506866455,-400000.0625,-2210.330078125,2534.530029296875,-400000.0625,-3234.9599609375,-400000.0625,3629.39990234375,-400000.0625
13.924038171768188,-400000.0625,-2221.300048828125,2522.52001953125,-400000.0625,-3235.669921875,-400000.0625,3618.14990234375,-400000.0625
13.934854507446289,-400000.0625,-2182.43994140625,2557.800048828125,-400000.0625,-3198.18994140625,-400000.0625,3656.580078125,-400000.0625
13.94498896598816,-400000.0625,-2137.179931640625,2601.0,-400000.0625,-3163.77001953125,-400000.0625,3693.580078125,-400000.0625
13.96228289604187,-400000.0625,-2153.110107421875,2586.75,-400000.0625,-3177.169921875,-400000.0625,3677.080078125,-400000.0625
13.97382402420044,-400000.0625,-2204.419921875,2535.719970703125,-400000.0625,-3218.699951171875,-400000.0625,3627.06005859375,-400000.0625
13.98441743850708,-400000.0625,-2212.81005859375,2522.610107421875,-400000.0625,-3226.330078125,-400000.0625,3615.429931640625,-400000.0625
13.995011329650879,-400000.0625,-2174.89990234375,2562.0,-400000.0625,-3199.050048828125,-400000.0625,3657.06005859375,-400000.0625
14.003399133682251,-400000.0625,-2136.85009765625,2600.860107421875,-400000.0625,-3167.820068359375,-400000.0625,3699.02001953125,-400000.0625
14.012028217315674,-400000.0625,-2153.489990234375,2584.889892578125,-400000.0625,-3182.169921875,-400000.0625,3683.659912109375,-400000.0625
14.023865222930908,-400000.0625,-2202.699951171875,2537.489990234375,-400000.0625,-3226.7099609375,-400000.0625,3637.27001953125,-400000.0625
14.033874988555908,-400000.0625,-2220.199951171875,2524.52001953125,-400000.0625,-3236.719970703125,-400000.0625,3619.81005859375,-400000.0625
14.043437242507935,-400000.0625,-2180.530029296875,2565.18994140625,-400000.0625,-3191.280029296875,-400000.0625,3656.820068359375,-400000.0625
14.051087617874146,-400000.0625,-2142.669921875,2599.6201171875,-400000.0625,-3157.429931640625,-400000.0625,3688.570068359375,-400000.0625
14.069384813308716,-400000.0625,-2163.510009765625,2578.02001953125,-400000.0625,-3174.260009765625,-400000.0625,3663.39990234375,-400000.0625
14.077677726745605,-400000.0625,-2218.06005859375,2531.389892578125,-400000.0625,-3218.97998046875,-400000.0625,3617.429931640625,-400000.0625
14.091524362564087,-400000.0625,-2234.080078125,2518.080078125,-400000.0625,-3228.469970703125,-400000.0625,3609.75,-400000.0625
14.09925651550293,-400000.0625,-2222.25,2560.659912109375,-400000.0625,-3193.050048828125,-400000.0625,3650.0,-400000.0625
14.107097148895264,-400000.0625,-2172.89990234375,2613.159912109375,-400000.0625,-3148.409912109375,-400000.0625,3702.31005859375,-400000.0625
14.115377426147461,-400000.0625,-2205.85009765625,2578.35009765625,-400000.0625,-3164.77001953125,-400000.0625,3671.219970703125,-400000.0625
14.126355409622192,-400000.0625,-2282.139892578125,2524.18994140625,-400000.0625,-3204.72998046875,-400000.0625,3625.010009765625,-400000.0625
14.136036157608032,-400000.0625,-2312.610107421875,2511.449951171875,-400000.0625,-3206.2099609375,-400000.0625,3606.3701171875,-400000.0625
14.144481658935547,-400000.0625,-2264.550048828125,2511.02001953125,-400000.0625,-3170.199951171875,-400000.0625,3625.820068359375,-400000.0625
14.153869390487671,-400000.0625,-2264.639892578125,2538.25,-400000.0625,-3122.3798828125,-400000.0625,3669.8798828125,-400000.0625
14.16902232170105,-400000.0625,-2333.8798828125,2523.22998046875,-400000.0625,-3119.179931640625,-400000.0625,3637.510009765625,-400000.0625
14.177206993103027,-400000.0625,-2408.1201171875,2434.780029296875,-400000.0625,-3151.4599609375,-400000.0625,3610.52001953125,-400000.0625
14.185397148132324,-400000.0625,-2462.199951171875,2376.030029296875,-400000.0625,-3155.659912109375,-400000.0625,3543.89990234375,-400000.0625
14.193607091903687,-400000.0625,-2511.1201171875,2358.9599609375,-400000.0625,-3111.320068359375,-400000.0625,3539.0400390625,-400000.0625
14.201430320739746,-400000.0625,-2547.550048828125,2374.27001953125,-400000.0625,-3063.489990234375,-400000.0625,3575.280029296875,-400000.0625
14.209754228591919,-400000.0625,-2608.72998046875,2327.8701171875,-400000.0625,-3058.77001953125,-400000.0625,3535.889892578125,-400000.0625
14.218540906906128,-400000.0625,-2738.47998046875,2242.52001953125,-400000.0625,-3077.7900390625,-400000.0625,3439.949951171875,-400000.0625
14.227510690689087,-400000.0625,-2775.6201171875,2244.52001953125,-400000.0625,-3062.8701171875,-400000.0625,3444.239990234375,-400000.0625
14.236165523529053,-400000.0625,-2763.64990234375,2264.739990234375,-400000.0625,-3021.340087890625,-400000.0625,3510.050048828125,-400000.0625
14.244822978973389,-400000.0625,-2744.77001953125,2296.2099609375,-400000.0625,-2979.610107421875,-400000.0625,3524.02001953125,-400000.0625
14.25391173362732,-400000.0625,-2753.830078125,2282.719970703125,-400000.0625,-2982.429931640625,-400000.0625,3506.7099609375,-400000.0625
14.271367311477661,-400000.0625,-2816.679931640625,2227.2099609375,-400000.0625,-3021.570068359375,-400000.0625,3448.199951171875,-400000.0625
14.278824806213379,-400000.0625,-2859.39990234375,2204.56005859375,-400000.0625,-3031.300048828125,-400000.0625,3404.669921875,-400000.0625
14.289041757583618,-400000.0625,-2849.199951171875,2253.10009765625,-400000.0625,-2985.530029296875,-400000.0625,3434.800048828125,-400000.0625
14.296799421310425,-400000.0625,-2820.110107421875,2301.64990234375,-400000.0625,-2943.330078125,-400000.0625,3482.10009765625,-400000.0625
14.307068586349487,-400000.0625,-2825.68994140625,2269.219970703125,-400000.0625,-2960.919921875,-400000.0625,3452.159912109375,-400000.0625
14.315001726150513,-400000.0625,-2888.72998046875,2211.090087890625,-400000.0625,-3002.550048828125,-400000.0625,3390.030029296875,-400000.0625
14.328404426574707,-400000.0625,-2916.18994140625,2211.050048828125,-400000.0625,-2998.260009765625,-400000.0625,3369.760009765625,-400000.0625
14.34053659439087,-400000.0625,-2874.949951171875,2257.159912109375,-400000.0625,-2954.6298828125,-400000.0625,3400.52001953125,-400000.0625
14.347536563873291,-400000.0625,-2835.1298828125,2300.260009765625,-400000.0625,-2923.300048828125,-400000.0625,3435.659912109375,-400000.0625
14.358278274536133,-400000.0625,-2850.77001953125,2292.72998046875,-400000.0625,-2935.739990234375,-400000.0625,3427.699951171875,-400000.0625
14.3770911693573,-400000.0625,-2892.5400390625,2255.340087890625,-400000.0625,-2975.75,-400000.0625,3383.110107421875,-400000.0625
14.38718581199646,-400000.0625,-2881.340087890625,2255.580078125,-400000.0625,-2985.2900390625,-400000.0625,3370.239990234375,-400000.0625
14.395236015319824,-400000.0625,-2828.68994140625,2308.179931640625,-400000.0625,-2960.6298828125,-400000.0625,3412.43994140625,-400000.0625
14.403204202651978,-400000.0625,-2772.89990234375,2361.110107421875,-400000.0625,-2923.5400390625,-400000.0625,3454.260009765625,-400000.0625
14.410699129104614,-400000.0625,-2765.989990234375,2358.199951171875,-400000.0625,-2943.800048828125,-400000.0625,3442.760009765625,-400000.0625
14.41799545288086,-400000.0625,-2786.39990234375,2327.6298828125,-400000.0625,-2982.7099609375,-400000.0625,3398.85009765625,-400000.0625
14.426480293273926,-400000.0625,-2776.669921875,2326.5400390625,-400000.0625,-2997.02001953125,-400000.0625,3386.780029296875,-400000.0625
14.433943033218384,-400000.0625,-2708.909912109375,2378.989990234375,-400000.0625,-2971.510009765625,-400000.0625,3426.219970703125,-400000.0625
14.443798303604126,-400000.0625,-2635.909912109375,2430.010009765625,-400000.0625,-2948.0,-400000.0625,3468.22998046875,-400000.0625
14.452243566513062,-400000.0625,-2616.739990234375,2430.6298828125,-400000.0625,-2975.080078125,-400000.0625,3462.030029296875,-400000.0625
14.462286472320557,-400000.0625,-2640.06005859375,2389.6201171875,-400000.0625,-3037.1201171875,-400000.0625,3419.110107421875,-400000.0625
14.480858325958252,-400000.0625,-2628.760009765625,2383.419921875,-400000.0625,-3051.949951171875,-400000.0625,3404.050048828125,-400000.0625
14.49366283416748,-400000.0625,-2555.0400390625,2433.919921875,-400000.0625,-3022.530029296875,-400000.0625,3444.199951171875,-400000.0625
14.503479957580566,-400000.0625,-2481.1298828125,2485.699951171875,-400000.0625,-2997.260009765625,-400000.0625,3495.739990234375,-400000.0625
14.518163204193115,-400000.0625,-2469.780029296875,2477.070068359375,-400000.0625,-3028.14990234375,-400000.0625,3485.489990234375,-400000.0625
14.527659177780151,-400000.0625,-2496.669921875,2434.919921875,-400000.0625,-3086.3798828125,-400000.0625,3437.85009765625,-400000.0625
14.537183284759521,-400000.0625,-2486.659912109375,2428.77001953125,-400000.0625,-3107.68994140625,-400000.0625,3422.8798828125,-400000.0625
14.546889305114746,-400000.0625,-2418.090087890625,2482.510009765625,-400000.0625,-3081.800048828125,-400000.0625,3459.260009765625,-400000.0625
14.557983875274658,-400000.0625,-2362.43994140625,2529.429931640625,-400000.0625,-3052.81005859375,-400000.0625,3496.31005859375,-400000.0625
14.56811809539795,-400000.0625,-2354.0,2525.7099609375,-400000.0625,-3073.8798828125,-400000.0625,3488.2099609375,-400000.0625
14.589806079864502,-400000.0625,-2379.989990234375,2487.22998046875,-400000.0625,-3130.820068359375,-400000.0625,3453.159912109375,-400000.0625
14.599765062332153,-400000.0625,-2387.3798828125,2474.8798828125,-400000.0625,-3146.080078125,-400000.0625,3448.14990234375,-400000.0625
14.60989499092102,-400000.0625,-2333.780029296875,2521.179931640625,-400000.0625,-3117.419921875,-400000.0625,3496.4599609375,-400000.0625
14.623453378677368,-400000.0625,-2280.139892578125,2568.6298828125,-400000.0625,-3090.669921875,-400000.0625,3544.3798828125,-400000.0625
14.635183811187744,-400000.0625,-2283.760009765625,2560.52001953125,-400000.0625,-3110.5,-400000.0625,3538.659912109375,-400000.0625
14.64681363105774,-400000.0625,-2319.14990234375,2518.419921875,-400000.0625,-3160.330078125,-400000.0625,3497.409912109375,-400000.0625
14.657375574111938,-400000.0625,-2322.530029296875,2509.639892578125,-400000.0625,-3175.590087890625,-400000.0625,3493.830078125,-400000.0625
14.667594909667969,-400000.0625,-2273.4599609375,2556.52001953125,-400000.0625,-3141.550048828125,-400000.0625,3557.590087890625,-400000.0625
14.677561283111572,-400000.0625,-2227.39990234375,2596.860107421875,-400000.0625,-3117.56005859375,-400000.0625,3612.139892578125,-400000.0625
14.696412086486816,-400000.0625,-2233.080078125,2588.510009765625,-400000.0625,-3134.5400390625,-400000.0625,3605.510009765625,-400000.0625
14.707458019256592,-400000.0625,-2279.22998046875,2544.1201171875,-400000.0625,-3174.31005859375,-400000.0625,3564.639892578125,-400000.0625
14.716830730438232,-400000.0625,-2283.860107421875,2536.300048828125,-400000.0625,-3185.800048828125,-400000.0625,3556.199951171875,-400000.0625
14.726324558258057,-400000.0625,-2239.800048828125,2577.969970703125,-400000.0625,-3154.89990234375,-400000.0625,3597.1201171875,-400000.0625
14.734843730926514,-400000.0625,-2195.739990234375,2620.97998046875,-400000.0625,-3124.570068359375,-400000.0625,3637.169921875,-400000.0625
14.74523138999939,-400000.0625,-2205.56005859375,2607.969970703125,-400000.0625,-3142.68994140625,-400000.0625,3626.35009765625,-400000.0625
14.755359649658203,-400000.0625,-2246.570068359375,2564.3798828125,-400000.0625,-3186.93994140625,-400000.0625,3580.050048828125,-400000.0625
14.764675378799438,-400000.0625,-2257.820068359375,2554.080078125,-400000.0625,-3204.6298828125,-400000.0625,3566.409912109375,-400000.0625
14.774738073348999,-400000.0625,-2217.669921875,2593.570068359375,-400000.0625,-3168.919921875,-400000.0625,3606.699951171875,-400000.0625
14.783120155334473,-400000.0625,-2174.18994140625,2635.2900390625,-400000.0625,-3126.429931640625,-400000.0625,3646.179931640625,-400000.0625
14.799492120742798,-400000.0625,-2188.969970703125,2616.5,-400000.0625,-3140.550048828125,-400000.0625,3627.969970703125,-400000.0625
14.809298753738403,-400000.0625,-2241.469970703125,2566.340087890625,-400000.0625,-3188.419921875,-400000.0625,3580.280029296875,-400000.0625
14.819400310516357,-400000.0625,-2248.570068359375,2553.889892578125,-400000.0625,-3200.820068359375,-400000.0625,3562.360107421875,-400000.0625
14.827496528625488,-400000.0625,-2211.139892578125,2589.659912109375,-400000.0625,-3168.14990234375,-400000.0625,3596.5,-400000.0625
14.836724996566772,-400000.0625,-2171.280029296875,2628.469970703125,-400000.0625,-3139.830078125,-400000.0625,3648.7099609375,-400000.0625
14.84621286392212,-400000.0625,-2187.300048828125,2624.989990234375,-400000.0625,-3150.75,-400000.0625,3634.5,-400000.0625
14.855184316635132,-400000.0625,-2239.699951171875,2578.590087890625,-400000.0625,-3191.760009765625,-400000.0625,3583.530029296875,-400000.0625
14.863666772842407,-400000.0625,-2251.9599609375,2557.330078125,-400000.0625,-3202.43994140625,-400000.0625,3571.179931640625,-400000.0625
14.87446665763855,-400000.0625,-2219.77001953125,2596.81005859375,-400000.0625,-3170.5400390625,-400000.0625,3607.610107421875,-400000.0625
14.883289337158203,-400000.0625,-2178.340087890625,2633.860107421875,-400000.0625,-3137.260009765625,-400000.0625,3647.22998046875,-400000.0625
14.908084630966187,-400000.0625,-2197.699951171875,2619.739990234375,-400000.0625,-3143.5,-400000.0625,3629.110107421875,-400000.0625
14.921083450317383,-400000.0625,-2253.14990234375,2566.719970703125,-400000.0625,-3186.800048828125,-400000.0625,3577.18994140625,-400000.0625
14.929247379302979,-400000.0625,-2265.02001953125,2549.4599609375,-400000.0625,-3199.340087890625,-400000.0625,3557.919921875,-400000.0625
14.942241907119751,-400000.0625,-2227.31005859375,2585.219970703125,-400000.0625,-3170.25,-400000.0625,3596.35009765625,-400000.0625
14.952899694442749,-400000.0625,-2184.530029296875,2630.22998046875,-400000.0625,-3137.449951171875,-400000.0625,3638.60009765625,-400000.0625
14.962026596069336,-400000.0625,-2196.8798828125,2616.68994140625,-400000.0625,-3148.889892578125,-400000.0625,3623.06005859375,-400000.0625
14.972004890441895,-400000.0625,-2248.81005859375,2565.570068359375,-400000.0625,-3189.280029296875,-400000.0625,3571.419921875,-400000.0625
14.98084807395935,-400000.0625,-2269.510009765625,2548.409912109375,-400000.0625,-3200.050048828125,-400000.0625,3551.669921875,-400000.0625
14.99564814567566,-400000.0625,-2226.5,2586.97998046875,-400000.0625,-3171.43994140625,-400000.0625,3587.14990234375,-400000.0625
15.015745162963867,-400000.0625,-2181.860107421875,2627.610107421875,-400000.0625,-3140.780029296875,-400000.0625,3627.72998046875,-400000.0625
15.025949239730835,-400000.0625,-2190.639892578125,2619.169921875,-400000.0625,-3156.0400390625,-400000.0625,3619.530029296875,-400000.0625
15.034066915512085,-400000.0625,-2239.080078125,2570.14990234375,-400000.0625,-3192.3798828125,-400000.0625,3569.56005859375,-400000.0625
15.043200731277466,-400000.0625,-2257.39990234375,2550.840087890625,-400000.0625,-3208.72998046875,-400000.0625,3549.669921875,-400000.0625
15.055648565292358,-400000.0625,-2219.77001953125,2589.179931640625,-400000.0625,-3177.070068359375,-400000.0625,3582.860107421875,-400000.0625
15.065374374389648,-400000.0625,-2177.10009765625,2630.6201171875,-400000.0625,-3139.449951171875,-400000.0625,3621.77001953125,-400000.0625
15.075392723083496,-400000.0625,-2192.929931640625,2616.219970703125,-400000.0625,-3152.75,-400000.0625,3611.760009765625,-400000.0625
15.084620952606201,-400000.0625,-2239.85009765625,2570.300048828125,-400000.0625,-3189.85009765625,-400000.0625,3565.840087890625,-400000.0625
15.095149755477905,-400000.0625,-2251.10009765625,2556.320068359375,-400000.0625,-3205.35009765625,-400000.0625,3551.199951171875,-400000.0625
15.105114936828613,-400000.0625,-2211.52001953125,2591.85009765625,-400000.0625,-3175.780029296875,-400000.0625,3581.860107421875,-400000.0625
15.12443995475769,-400000.0625,-2172.85009765625,2631.860107421875,-400000.0625,-3140.780029296875,-400000.0625,3616.860107421875,-400000.0625
15.133200407028198,-400000.0625,-2191.110107421875,2608.820068359375,-400000.0625,-3159.050048828125,-400000.0625,3589.6298828125,-400000.0625
15.145923137664795,-400000.0625,-2258.72998046875,2568.340087890625,-400000.0625,-3194.050048828125,-400000.0625,3538.280029296875,-400000.0625
15.154174566268921,-400000.0625,-2274.85009765625,2584.929931640625,-400000.0625,-3187.419921875,-400000.0625,3596.2099609375,-400000.0625
15.161841869354248,-400000.0625,-2226.35009765625,2609.780029296875,-400000.0625,-3168.8701171875,-400000.0625,3598.97998046875,-400000.0625
15.169864654541016,-400000.0625,-2209.3798828125,2636.530029296875,-400000.0625,-3138.260009765625,-400000.0625,3586.050048828125,-400000.0625
15.180086374282837,-400000.0625,-2216.9599609375,2646.639892578125,-400000.0625,-3129.6298828125,-400000.0625,3604.7900390625,-400000.0625
15.1922447681427,-400000.0625,-2294.25,2548.550048828125,-400000.0625,-3179.409912109375,-400000.0625,3608.510009765625,-400000.0625
15.201067447662354,-400000.0625,-2349.280029296875,2499.14990234375,-400000.0625,-3188.56005859375,-400000.0625,3525.8798828125,-400000.0625
15.209997177124023,-400000.0625,-2362.5400390625,2513.360107421875,-400000.0625,-3149.4599609375,-400000.0625,3561.1201171875,-400000.0625
15.229974269866943,-400000.0625,-2340.169921875,2538.300048828125,-400000.0625,-3090.2900390625,-400000.0625,3606.75,-400000.0625
15.239394426345825,-400000.0625,-2427.77001953125,2486.0400390625,-400000.0625,-3074.1201171875,-400000.0625,3535.179931640625,-400000.0625
15.249335289001465,-400000.0625,-2573.25,2397.919921875,-400000.0625,-3095.340087890625,-400000.0625,3428.97998046875,-400000.0625
15.258552312850952,-400000.0625,-2666.860107421875,2363.06005859375,-400000.0625,-3075.030029296875,-400000.0625,3421.8798828125,-400000.0625
15.267285346984863,-400000.0625,-2674.77001953125,2374.080078125,-400000.0625,-3026.580078125,-400000.0625,3430.840087890625,-400000.0625
15.277452945709229,-400000.0625,-2665.139892578125,2386.52001953125,-400000.0625,-2991.25,-400000.0625,3458.8798828125,-400000.0625
15.289802551269531,-400000.0625,-2660.1298828125,2380.179931640625,-400000.0625,-2985.18994140625,-400000.0625,3447.25,-400000.0625
15.298328399658203,-400000.0625,-2747.6298828125,2309.510009765625,-400000.0625,-3015.090087890625,-400000.0625,3380.8701171875,-400000.0625
15.30838656425476,-400000.0625,-2791.60009765625,2296.5,-400000.0625,-3024.530029296875,-400000.0625,3361.27001953125,-400000.0625
15.316974401473999,-400000.0625,-2770.7099609375,2337.409912109375,-400000.0625,-2980.330078125,-400000.0625,3385.5,-400000.0625
15.336341619491577,-400000.0625,-2740.47998046875,2378.56005859375,-400000.0625,-2936.030029296875,-400000.0625,3415.300048828125,-400000.0625
15.344726800918579,-400000.0625,-2763.3701171875,2376.989990234375,-400000.0625,-2939.56005859375,-400000.0625,3395.510009765625,-400000.0625
15.354753494262695,-400000.0625,-2809.6201171875,2334.260009765625,-400000.0625,-2976.419921875,-400000.0625,3342.300048828125,-400000.0625
15.363382816314697,-400000.0625,-2819.39990234375,2326.35009765625,-400000.0625,-2997.260009765625,-400000.0625,3326.699951171875,-400000.0625
15.374894380569458,-400000.0625,-2786.830078125,2370.739990234375,-400000.0625,-2969.4599609375,-400000.0625,3350.159912109375,-400000.0625
15.384063482284546,-400000.0625,-2740.10009765625,2425.239990234375,-400000.0625,-2923.5400390625,-400000.0625,3379.14990234375,-400000.0625
15.393247604370117,-400000.0625,-2727.93994140625,2436.8798828125,-400000.0625,-2934.739990234375,-400000.0625,3363.800048828125,-400000.0625
15.40148663520813,-400000.0625,-2752.8798828125,2409.27001953125,-400000.0625,-2977.93994140625,-400000.0625,3313.02001953125,-400000.0625
15.412500143051147,-400000.0625,-2748.780029296875,2408.31005859375,-400000.0625,-2992.43994140625,-400000.0625,3292.1298828125,-400000.0625
15.423949718475342,-400000.0625,-2681.300048828125,2462.77001953125,-400000.0625,-2959.6298828125,-400000.0625,3330.760009765625,-400000.0625
15.442430973052979,-400000.0625,-2618.169921875,2519.659912109375,-400000.0625,-2930.449951171875,-400000.0625,3367.18994140625,-400000.0625
15.45087194442749,-400000.0625,-2609.35009765625,2521.419921875,-400000.0625,-2942.610107421875,-400000.0625,3353.929931640625,-400000.0625
15.460397958755493,-400000.0625,-2626.56005859375,2485.469970703125,-400000.0625,-2996.25,-400000.0625,3311.43994140625,-400000.0625
15.47135066986084,-400000.0625,-2608.590087890625,2480.60009765625,-400000.0625,-3019.860107421875,-400000.0625,3300.669921875,-400000.0625
15.479099988937378,-400000.0625,-2543.159912109375,2525.22998046875,-400000.0625,-3009.030029296875,-400000.0625,3346.159912109375,-400000.0625
15.488712787628174,-400000.0625,-2470.969970703125,2574.919921875,-400000.0625,-2980.469970703125,-400000.0625,3387.97998046875,-400000.0625
15.496888399124146,-400000.0625,-2459.0,2567.860107421875,-400000.0625,-2998.830078125,-400000.0625,3379.110107421875,-400000.0625
15.508253574371338,-400000.0625,-2486.179931640625,2524.280029296875,-400000.0625,-3057.10009765625,-400000.0625,3339.0,-400000.0625
15.515774011611938,-400000.0625,-2475.68994140625,2515.219970703125,-400000.0625,-3076.840087890625,-400000.0625,3328.93994140625,-400000.0625
15.524847984313965,-400000.0625,-2410.889892578125,2560.89990234375,-400000.0625,-3057.0,-400000.0625,3373.909912109375,-400000.0625
15.542980194091797,-400000.0625,-2353.909912109375,2603.669921875,-400000.0625,-3047.610107421875,-400000.0625,3415.06005859375,-400000.0625
15.551509380340576,-400000.0625,-2347.800048828125,2597.280029296875,-400000.0625,-3068.2099609375,-400000.0625,3418.590087890625,-400000.0625
15.561379671096802,-400000.0625,-2375.080078125,2559.659912109375,-400000.0625,-3108.360107421875,-400000.0625,3389.409912109375,-400000.0625
15.571693420410156,-400000.0625,-2374.699951171875,2552.1298828125,-400000.0625,-3128.050048828125,-400000.0625,3393.889892578125,-400000.0625
15.57991099357605,-400000.0625,-2320.429931640625,2595.280029296875,-400000.0625,-3105.5,-400000.0625,3449.820068359375,-400000.0625
15.590855360031128,-400000.0625,-2255.72998046875,2647.780029296875,-400000.0625,-3075.840087890625,-400000.0625,3500.510009765625,-400000.0625
15.600980281829834,-400000.0625,-2251.909912109375,2642.199951171875,-400000.0625,-3095.820068359375,-400000.0625,3498.219970703125,-400000.0625
15.611238718032837,-400000.0625,-2288.14990234375,2598.429931640625,-400000.0625,-3149.610107421875,-400000.0625,3459.639892578125,-400000.0625
15.62211561203003,-400000.0625,-2290.110107421875,2588.889892578125,-400000.0625,-3165.2900390625,-400000.0625,3448.110107421875,-400000.0625
15.632421016693115,-400000.0625,-2241.419921875,2633.429931640625,-400000.0625,-3136.2099609375,-400000.0625,3491.780029296875,-400000.0625
15.649210453033447,-400000.0625,-2197.60009765625,2673.77001953125,-400000.0625,-3112.7900390625,-400000.0625,3531.31005859375,-400000.0625
15.658500909805298,-400000.0625,-2202.3701171875,2664.139892578125,-400000.0625,-3134.820068359375,-400000.0625,3525.070068359375,-400000.0625
15.66671109199524,-400000.0625,-2239.419921875,2622.75,-400000.0625,-3174.72998046875,-400000.0625,3483.25,-400000.0625
15.676347255706787,-400000.0625,-2248.530029296875,2610.110107421875,-400000.0625,-3188.3701171875,-400000.0625,3471.280029296875,-400000.0625
15.68369436264038,-400000.0625,-2206.0400390625,2647.300048828125,-400000.0625,-3165.669921875,-400000.0625,3511.719970703125,-400000.0625
15.694122791290283,-400000.0625,-2155.969970703125,2693.510009765625,-400000.0625,-3132.25,-400000.0625,3553.919921875,-400000.0625
15.702584505081177,-400000.0625,-2162.5,2683.449951171875,-400000.0625,-3144.360107421875,-400000.0625,3546.429931640625,-400000.0625
15.712545156478882,-400000.0625,-2205.52001953125,2641.110107421875,-400000.0625,-3186.75,-400000.0625,3501.320068359375,-400000.0625
15.721961498260498,-400000.0625,-2219.8701171875,2627.75,-400000.0625,-3200.010009765625,-400000.0625,3487.679931640625,-400000.0625
15.730804681777954,-400000.0625,-2174.570068359375,2668.81005859375,-400000.0625,-3163.050048828125,-400000.0625,3522.02001953125,-400000.0625
15.7401442527771,-400000.0625,-2135.89990234375,2707.199951171875,-400000.0625,-3130.719970703125,-400000.0625,3565.070068359375,-400000.0625
15.760142803192139,-400000.0625,-2149.77001953125,2692.60009765625,-400000.0625,-3156.7099609375,-400000.0625,3552.47998046875,-400000.0625
15.770041465759277,-400000.0625,-2188.780029296875,2650.39990234375,-400000.0625,-3199.530029296875,-400000.0625,3505.85009765625,-400000.0625
15.77942180633545,-400000.0625,-2205.52001953125,2635.6201171875,-400000.0625,-3211.360107421875,-400000.0625,3495.8798828125,-400000.0625
15.788487195968628,-400000.0625,-2162.080078125,2674.820068359375,-400000.0625,-3174.02001953125,-400000.0625,3531.60009765625,-400000.0625
15.798141479492188,-400000.0625,-2117.010009765625,2718.02001953125,-400000.0625,-3141.260009765625,-400000.0625,3574.1298828125,-400000.0625
15.809056997299194,-400000.0625,-2130.510009765625,2705.77001953125,-400000.0625,-3159.949951171875,-400000.0625,3563.360107421875,-400000.0625
15.81819486618042,-400000.0625,-2178.9599609375,2659.27001953125,-400000.0625,-3195.330078125,-400000.0625,3514.6201171875,-400000.0625
15.827155351638794,-400000.0625,-2196.97998046875,2640.77001953125,-400000.0625,-3208.8798828125,-400000.0625,3496.889892578125,-400000.0625
15.836847066879272,-400000.0625,-2158.1201171875,2677.72998046875,-400000.0625,-3178.8798828125,-400000.0625,3532.080078125,-400000.0625
15.848283290863037,-400000.0625,-2114.300048828125,2718.929931640625,-400000.0625,-3146.97998046875,-400000.0625,3572.419921875,-400000.0625
15.867304801940918,-400000.0625,-2127.60009765625,2709.2900390625,-400000.0625,-3155.570068359375,-400000.0625,3559.8798828125,-400000.0625
15.878928184509277,-400000.0625,-2172.949951171875,2664.139892578125,-400000.0625,-3199.530029296875,-400000.0625,3510.280029296875,-400000.0625
15.888816595077515,-400000.0625,-2191.110107421875,2647.590087890625,-400000.0625,-3211.1201171875,-400000.0625,3491.929931640625,-400000.0625
15.899748802185059,-400000.0625,-2154.300048828125,2685.39990234375,-400000.0625,-3175.830078125,-400000.0625,3528.68994140625,-400000.0625
15.909111976623535,-400000.0625,-2110.909912109375,2726.360107421875,-400000.0625,-3143.1201171875,-400000.0625,3568.840087890625,-400000.0625
15.921438217163086,-400000.0625,-2124.409912109375,2711.8701171875,-400000.0625,-3158.860107421875,-400000.0625,3552.679931640625,-400000.0625
15.932226181030273,-400000.0625,-2173.3798828125,2665.419921875,-400000.0625,-3202.6298828125,-400000.0625,3509.7099609375,-400000.0625
15.942122459411621,-400000.0625,-2189.72998046875,2646.590087890625,-400000.0625,-3218.219970703125,-400000.0625,3490.260009765625,-400000.0625
15.95184850692749,-400000.0625,-2153.830078125,2683.449951171875,-400000.0625,-3184.800048828125,-400000.0625,3521.72998046875,-400000.0625
15.971197843551636,-400000.0625,-2114.43994140625,2724.550048828125,-400000.0625,-3147.030029296875,-400000.0625,3562.39990234375,-400000.0625
15.979284286499023,-400000.0625,-2127.31005859375,2711.9599609375,-400000.0625,-3160.10009765625,-400000.0625,3545.7099609375,-400000.0625
15.992524147033691,-400000.0625,-2176.47998046875,2663.22998046875,-400000.0625,-3197.10009765625,-400000.0625,3498.080078125,-400000.0625
16.000260829925537,-400000.0625,-2198.27001953125,2642.06005859375,-400000.0625,-3220.699951171875,-400000.0625,3478.909912109375,-400000.0625
16.009084463119507,-400000.0625,-2162.030029296875,2677.489990234375,-400000.0625,-3185.64990234375,-400000.0625,3510.669921875,-400000.0625
16.018311262130737,-400000.0625,-2119.300048828125,2720.1201171875,-400000.0625,-3147.64990234375,-400000.0625,3553.340087890625,-400000.0625
16.028115034103394,-400000.0625,-2129.4599609375,2708.47998046875,-400000.0625,-3161.0,-400000.0625,3542.090087890625,-400000.0625
16.041231632232666,-400000.0625,-2178.0,2659.4599609375,-400000.0625,-3204.919921875,-400000.0625,3491.739990234375,-400000.0625
16.051682710647583,-400000.0625,-2199.4599609375,2639.340087890625,-400000.0625,-3221.610107421875,-400000.0625,3470.179931640625,-400000.0625
16.06045889854431,-400000.0625,-2165.169921875,2674.47998046875,-400000.0625,-3189.3701171875,-400000.0625,3505.52001953125,-400000.0625
16.078368186950684,-400000.0625,-2120.830078125,2719.1201171875,-400000.0625,-3151.85009765625,-400000.0625,3547.050048828125,-400000.0625
16.08870768547058,-400000.0625,-2126.260009765625,2710.6298828125,-400000.0625,-3163.860107421875,-400000.0625,3535.989990234375,-400000.0625
16.096585273742676,-400000.0625,-2179.9599609375,2661.22998046875,-400000.0625,-3205.25,-400000.0625,3488.830078125,-400000.0625
16.109503030776978,-400000.0625,-2198.739990234375,2643.780029296875,-400000.0625,-3217.510009765625,-400000.0625,3471.989990234375,-400000.0625
16.119516611099243,-400000.0625,-2158.830078125,2681.2099609375,-400000.0625,-3184.64990234375,-400000.0625,3504.0400390625,-400000.0625
