time,ch1,ch2,ch3,ch4,ch5,ch6,ch7,ch8
198.55879497528076,-400000.0625,-18802.740234375,-15156.8896484375,-400000.0625,-400000.0625,-400000.0625,-17529.970703125,-400000.0625
198.57650566101074,-400000.0625,-18818.08984375,-15173.76953125,-400000.0625,-400000.0625,-400000.0625,-17543.029296875,-400000.0625
198.58345437049866,-400000.0625,-18820.9609375,-15179.01953125,-400000.0625,-400000.0625,-400000.0625,-17543.990234375,-400000.0625
198.59015274047852,-400000.0625,-18812.75,-15173.7197265625,-400000.0625,-400000.0625,-400000.0625,-17533.30078125,-400000.0625
198.5986042022705,-400000.0625,-18806.560546875,-15170.76953125,-400000.0625,-400000.0625,-400000.0625,-17531.109375,-400000.0625
198.6068229675293,-400000.0625,-18806.7890625,-15167.0498046875,-400000.0625,-400000.0625,-400000.0625,-17537.880859375,-400000.0625
198.6144392490387,-400000.0625,-18814.80078125,-15174.7197265625,-400000.0625,-400000.0625,-400000.0625,-17548.3203125,-400000.0625
198.62117433547974,-400000.0625,-18822.76953125,-15185.599609375,-400000.0625,-400000.0625,-400000.0625,-17555.189453125,-400000.0625
198.6289520263672,-400000.0625,-18823.099609375,-15187.650390625,-400000.0625,-400000.0625,-400000.0625,-17550.66015625,-400000.0625
198.6354944705963,-400000.0625,-18811.0390625,-15173.8701171875,-400000.0625,-400000.0625,-400000.0625,-17540.310546875,-400000.0625
198.64205265045166,-400000.0625,-18798.880859375,-15158.1298828125,-400000.0625,-400000.0625,-400000.0625,-17533.919921875,-400000.0625
198.64934134483337,-400000.0625,-18802.599609375,-15159.080078125,-400000.0625,-400000.0625,-400000.0625,-17536.259765625,-400000.0625
198.6555609703064,-400000.0625,-18815.810546875,-15171.9599609375,-400000.0625,-400000.0625,-400000.0625,-17549.23046875,-400000.0625
198.66229248046875,-400000.0625,-18824.669921875,-15182.2099609375,-400000.0625,-400000.0625,-400000.0625,-17554.240234375,-400000.0625
198.68030738830566,-400000.0625,-18813.560546875,-15176.490234375,-400000.0625,-400000.0625,-400000.0625,-17544.369140625,-400000.0625
198.68691182136536,-400000.0625,-18798.640625,-15162.4697265625,-400000.0625,-400000.0625,-400000.0625,-17532.400390625,-400000.0625
198.69284343719482,-400000.0625,-18797.58984375,-15157.080078125,-400000.0625,-400000.0625,-400000.0625,-17533.259765625,-400000.0625
198.69981718063354,-400000.0625,-18812.990234375,-15170.669921875,-400000.0625,-400000.0625,-400000.0625,-17549.609375,-400000.0625
198.70674681663513,-400000.0625,-18833.2109375,-15191.990234375,-400000.0625,-400000.0625,-400000.0625,-17562.580078125,-400000.0625
198.71896982192993,-400000.0625,-18829.25,-15192.9404296875,-400000.0625,-400000.0625,-400000.0625,-17556.529296875,-400000.0625
198.7254068851471,-400000.0625,-18814.94921875,-15178.0595703125,-400000.0625,-400000.0625,-400000.0625,-17540.650390625,-400000.0625
198.73202514648438,-400000.0625,-18805.080078125,-15163.23046875,-400000.0625,-400000.0625,-400000.0625,-17533.349609375,-400000.0625
198.73842668533325,-400000.0625,-18807.990234375,-15166.240234375,-400000.0625,-400000.0625,-400000.0625,-17541.359375,-400000.0625
198.74482035636902,-400000.0625,-18825.439453125,-15185.3095703125,-400000.0625,-400000.0625,-400000.0625,-17555.330078125,-400000.0625
198.75075221061707,-400000.0625,-18832.109375,-15192.7998046875,-400000.0625,-400000.0625,-400000.0625,-17560.2890625,-400000.0625
198.75674629211426,-400000.0625,-18819.619140625,-15183.3095703125,-400000.0625,-400000.0625,-400000.0625,-17550.140625,-400000.0625
198.7648663520813,-400000.0625,-18803.169921875,-15167.1396484375,-400000.0625,-400000.0625,-400000.0625,-17539.599609375,-400000.0625
198.78583025932312,-400000.0625,-18805.4609375,-15164.66015625,-400000.0625,-400000.0625,-400000.0625,-17543.890625,-400000.0625
198.79250717163086,-400000.0625,-18819.720703125,-15178.009765625,-400000.0625,-400000.0625,-400000.0625,-17556.48046875,-400000.0625
198.7994556427002,-400000.0625,-18828.009765625,-15188.080078125,-400000.0625,-400000.0625,-400000.0625,-17559.859375,-400000.0625
198.8055441379547,-400000.0625,-18822.2890625,-15185.4501953125,-400000.0625,-400000.0625,-400000.0625,-17551.5703125,-400000.0625
198.8124303817749,-400000.0625,-18815.849609375,-15176.8701171875,-400000.0625,-400000.0625,-400000.0625,-17545.509765625,-400000.0625
198.81825351715088,-400000.0625,-18811.130859375,-15169.0,-400000.0625,-400000.0625,-400000.0625,-17544.609375,-400000.0625
198.8238229751587,-400000.0625,-18816.94921875,-15173.33984375,-400000.0625,-400000.0625,-400000.0625,-17548.75,-400000.0625
198.83104252815247,-400000.0625,-18833.349609375,-15189.83984375,-400000.0625,-400000.0625,-400000.0625,-17561.9609375,-400000.0625
198.83748626708984,-400000.0625,-18833.970703125,-15195.7998046875,-400000.0625,-400000.0625,-400000.0625,-17563.869140625,-400000.0625
198.8438844680786,-400000.0625,-18820.9609375,-15184.740234375,-400000.0625,-400000.0625,-400000.0625,-17550.419921875,-400000.0625
198.84991431236267,-400000.0625,-18810.080078125,-15172.33984375,-400000.0625,-400000.0625,-400000.0625,-17543.69921875,-400000.0625
198.8563196659088,-400000.0625,-18810.509765625,-15169.76953125,-400000.0625,-400000.0625,-400000.0625,-17546.470703125,-400000.0625
198.86315441131592,-400000.0625,-18822.91015625,-15181.5,-400000.0625,-400000.0625,-400000.0625,-17556.619140625,-400000.0625
198.86977577209473,-400000.0625,-18828.19921875,-15188.169921875,-400000.0625,-400000.0625,-400000.0625,-17558.33984375,-400000.0625
198.8857078552246,-400000.0625,-18816.330078125,-15176.25,-400000.0625,-400000.0625,-400000.0625,-17541.509765625,-400000.0625
198.8938913345337,-400000.0625,-18802.740234375,-15162.759765625,-400000.0625,-400000.0625,-400000.0625,-17531.6796875,-400000.0625
198.89959716796875,-400000.0625,-18803.310546875,-15162.1396484375,-400000.0625,-400000.0625,-400000.0625,-17542.130859375,-400000.0625
198.90484976768494,-400000.0625,-18812.279296875,-15167.669921875,-400000.0625,-400000.0625,-400000.0625,-17551.900390625,-400000.0625
198.9101586341858,-400000.0625,-18827.73046875,-15182.7802734375,-400000.0625,-400000.0625,-400000.0625,-17557.099609375,-400000.0625
198.91574692726135,-400000.0625,-18829.060546875,-15185.98046875,-400000.0625,-400000.0625,-400000.0625,-17553.759765625,-400000.0625
198.92121577262878,-400000.0625,-18816.0390625,-15176.1103515625,-400000.0625,-400000.0625,-400000.0625,-17542.220703125,-400000.0625
198.92644619941711,-400000.0625,-18802.740234375,-15163.330078125,-400000.0625,-400000.0625,-400000.0625,-17534.259765625,-400000.0625
198.93181467056274,-400000.0625,-18803.98046875,-15162.1396484375,-400000.0625,-400000.0625,-400000.0625,-17540.169921875,-400000.0625
198.93696546554565,-400000.0625,-18819.529296875,-15172.33984375,-400000.0625,-400000.0625,-400000.0625,-17553.380859375,-400000.0625
198.94203186035156,-400000.0625,-18825.9609375,-15181.6396484375,-400000.0625,-400000.0625,-400000.0625,-17557.05078125,-400000.0625
198.9473431110382,-400000.0625,-18822.76953125,-15182.1201171875,-400000.0625,-400000.0625,-400000.0625,-17550.08984375,-400000.0625
198.95314240455627,-400000.0625,-18813.0390625,-15168.48046875,-400000.0625,-400000.0625,-400000.0625,-17537.2109375,-400000.0625
198.95882773399353,-400000.0625,-18804.26953125,-15155.2197265625,-400000.0625,-400000.0625,-400000.0625,-17535.259765625,-400000.0625
198.96416854858398,-400000.0625,-18809.080078125,-15162.5703125,-400000.0625,-400000.0625,-400000.0625,-17541.599609375,-400000.0625
198.96946811676025,-400000.0625,-18812.939453125,-15168.7197265625,-400000.0625,-400000.0625,-400000.0625,-17542.890625,-400000.0625
198.9746696949005,-400000.0625,-18821.580078125,-15180.919921875,-400000.0625,-400000.0625,-400000.0625,-17545.80078125,-400000.0625
198.99019241333008,-400000.0625,-18818.380859375,-15177.58984375,-400000.0625,-400000.0625,-400000.0625,-17542.26953125,-400000.0625
198.9962387084961,-400000.0625,-18811.609375,-15168.9501953125,-400000.0625,-400000.0625,-400000.0625,-17539.4609375,-400000.0625
199.00211930274963,-400000.0625,-18808.609375,-15164.5703125,-400000.0625,-400000.0625,-400000.0625,-17537.2109375,-400000.0625
199.00802278518677,-400000.0625,-18819.759765625,-15176.3896484375,-400000.0625,-400000.0625,-400000.0625,-17546.26953125,-400000.0625
199.01431679725647,-400000.0625,-18834.640625,-15192.2197265625,-400000.0625,-400000.0625,-400000.0625,-17556.05078125,-400000.0625
199.02052569389343,-400000.0625,-18825.91015625,-15185.6904296875,-400000.0625,-400000.0625,-400000.0625,-17546.990234375,-400000.0625
199.0260419845581,-400000.0625,-18809.23046875,-15167.3798828125,-400000.0625,-400000.0625,-400000.0625,-17538.83984375,-400000.0625
199.03229236602783,-400000.0625,-18807.7890625,-15159.7998046875,-400000.0625,-400000.0625,-400000.0625,-17536.740234375,-400000.0625
199.0380630493164,-400000.0625,-18811.279296875,-15161.849609375,-400000.0625,-400000.0625,-400000.0625,-17538.880859375,-400000.0625
199.04354119300842,-400000.0625,-18814.51953125,-15167.0498046875,-400000.0625,-400000.0625,-400000.0625,-17545.75,-400000.0625
199.0494146347046,-400000.0625,-18811.470703125,-15165.8603515625,-400000.0625,-400000.0625,-400000.0625,-17540.26953125,-400000.0625
199.05509567260742,-400000.0625,-18807.080078125,-15162.1396484375,-400000.0625,-400000.0625,-400000.0625,-17534.5390625,-400000.0625
199.06140398979187,-400000.0625,-18810.66015625,-15164.66015625,-400000.0625,-400000.0625,-400000.0625,-17540.26953125,-400000.0625
199.06703543663025,-400000.0625,-18821.76953125,-15173.3896484375,-400000.0625,-400000.0625,-400000.0625,-17548.80078125,-400000.0625
199.07262420654297,-400000.0625,-18833.109375,-15184.3603515625,-400000.0625,-400000.0625,-400000.0625,-17557.4296875,-400000.0625
199.07835936546326,-400000.0625,-18835.55078125,-15191.41015625,-400000.0625,-400000.0625,-400000.0625,-17559.9609375,-400000.0625
199.0939393043518,-400000.0625,-18826.630859375,-15184.8798828125,-400000.0625,-400000.0625,-400000.0625,-17551.0,-400000.0625
199.1037483215332,-400000.0625,-18813.330078125,-15168.9501953125,-400000.0625,-400000.0625,-400000.0625,-17541.740234375,-400000.0625
199.10988974571228,-400000.0625,-18804.169921875,-15153.740234375,-400000.0625,-400000.0625,-400000.0625,-17539.119140625,-400000.0625
199.11546421051025,-400000.0625,-18811.69921875,-15159.66015625,-400000.0625,-400000.0625,-400000.0625,-17547.279296875,-400000.0625
199.1207513809204,-400000.0625,-18827.8203125,-15177.8203125,-400000.0625,-400000.0625,-400000.0625,-17554.5703125,-400000.0625
199.12595653533936,-400000.0625,-18820.2890625,-15175.1103515625,-400000.0625,-400000.0625,-400000.0625,-17550.0390625,-400000.0625
199.13141512870789,-400000.0625,-18805.080078125,-15162.23046875,-400000.0625,-400000.0625,-400000.0625,-17535.400390625,-400000.0625
199.13688349723816,-400000.0625,-18803.98046875,-15153.080078125,-400000.0625,-400000.0625,-400000.0625,-17528.490234375,-400000.0625
199.14205026626587,-400000.0625,-18813.08984375,-15161.3701171875,-400000.0625,-400000.0625,-400000.0625,-17542.650390625,-400000.0625
199.14735341072083,-400000.0625,-18833.2109375,-15182.8798828125,-400000.0625,-400000.0625,-400000.0625,-17559.240234375,-400000.0625
199.15289211273193,-400000.0625,-18842.939453125,-15196.419921875,-400000.0625,-400000.0625,-400000.0625,-17565.349609375,-400000.0625
199.15802574157715,-400000.0625,-18834.640625,-15187.9296875,-400000.0625,-400000.0625,-400000.0625,-17555.669921875,-400000.0625
199.16322922706604,-400000.0625,-18817.0,-15171.2900390625,-400000.0625,-400000.0625,-400000.0625,-17542.560546875,-400000.0625
199.1683168411255,-400000.0625,-18811.369140625,-15161.9501953125,-400000.0625,-400000.0625,-400000.0625,-17538.599609375,-400000.0625
199.17335653305054,-400000.0625,-18819.759765625,-15166.7099609375,-400000.0625,-400000.0625,-400000.0625,-17547.279296875,-400000.0625
199.17877912521362,-400000.0625,-18831.16015625,-15179.9697265625,-400000.0625,-400000.0625,-400000.0625,-17553.759765625,-400000.0625
199.19268035888672,-400000.0625,-18830.400390625,-15183.4501953125,-400000.0625,-400000.0625,-400000.0625,-17551.08984375,-400000.0625
199.198091506958,-400000.0625,-18817.380859375,-15171.33984375,-400000.0625,-400000.0625,-400000.0625,-17541.4609375,-400000.0625
199.2033543586731,-400000.0625,-18802.259765625,-15153.2197265625,-400000.0625,-400000.0625,-400000.0625,-17532.01953125,-400000.0625
199.20845675468445,-400000.0625,-18803.9296875,-15152.41015625,-400000.0625,-400000.0625,-400000.0625,-17537.55078125,-400000.0625
199.21383595466614,-400000.0625,-18824.150390625,-15170.669921875,-400000.0625,-400000.0625,-400000.0625,-17552.08984375,-400000.0625
199.21908617019653,-400000.0625,-18836.9296875,-15186.0302734375,-400000.0625,-400000.0625,-400000.0625,-17559.859375,-400000.0625
199.2242169380188,-400000.0625,-18827.869140625,-15181.259765625,-400000.0625,-400000.0625,-400000.0625,-17553.51953125,-400000.0625
199.22960710525513,-400000.0625,-18813.849609375,-15165.3798828125,-400000.0625,-400000.0625,-400000.0625,-17539.689453125,-400000.0625
199.2348153591156,-400000.0625,-18808.560546875,-15160.1796875,-400000.0625,-400000.0625,-400000.0625,-17534.119140625,-400000.0625
199.24007415771484,-400000.0625,-18827.490234375,-15179.16015625,-400000.0625,-400000.0625,-400000.0625,-17545.75,-400000.0625
199.24547672271729,-400000.0625,-18840.029296875,-15193.1796875,-400000.0625,-400000.0625,-400000.0625,-17557.099609375,-400000.0625
199.25100588798523,-400000.0625,-18841.69921875,-15197.5595703125,-400000.0625,-400000.0625,-400000.0625,-17554.619140625,-400000.0625
199.25645661354065,-400000.0625,-18826.8203125,-15182.6396484375,-400000.0625,-400000.0625,-400000.0625,-17541.69921875,-400000.0625
199.26174449920654,-400000.0625,-18812.66015625,-15163.4697265625,-400000.0625,-400000.0625,-400000.0625,-17530.8203125,-400000.0625
199.26705121994019,-400000.0625,-18815.619140625,-15163.5703125,-400000.0625,-400000.0625,-400000.0625,-17533.880859375,-400000.0625
199.27228355407715,-400000.0625,-18830.830078125,-15179.490234375,-400000.0625,-400000.0625,-400000.0625,-17547.560546875,-400000.0625
199.27803206443787,-400000.0625,-18839.5,-15193.1796875,-400000.0625,-400000.0625,-400000.0625,-17551.140625,-400000.0625
199.28377842903137,-400000.0625,-18830.01953125,-15185.6904296875,-400000.0625,-400000.0625,-400000.0625,-17541.7890625,-400000.0625
199.29916429519653,-400000.0625,-18823.390625,-15175.33984375,-400000.0625,-400000.0625,-400000.0625,-17535.55078125,-400000.0625
199.30443024635315,-400000.0625,-18825.25,-15171.33984375,-400000.0625,-400000.0625,-400000.0625,-17536.259765625,-400000.0625
199.31014204025269,-400000.0625,-18832.73046875,-15179.1103515625,-400000.0625,-400000.0625,-400000.0625,-17547.75,-400000.0625
199.3155858516693,-400000.0625,-18838.98046875,-15186.5,-400000.0625,-400000.0625,-400000.0625,-17552.330078125,-400000.0625
199.3208613395691,-400000.0625,-18831.779296875,-15180.8798828125,-400000.0625,-400000.0625,-400000.0625,-17541.83984375,-400000.0625
199.32611775398254,-400000.0625,-18817.900390625,-15169.9599609375,-400000.0625,-400000.0625,-400000.0625,-17534.5390625,-400000.0625
199.33181285858154,-400000.0625,-18815.470703125,-15165.1396484375,-400000.0625,-400000.0625,-400000.0625,-17539.55078125,-400000.0625
199.33772444725037,-400000.0625,-18820.140625,-15165.900390625,-400000.0625,-400000.0625,-400000.0625,-17544.369140625,-400000.0625
199.34297156333923,-400000.0625,-18835.7890625,-15182.259765625,-400000.0625,-400000.0625,-400000.0625,-17553.330078125,-400000.0625
199.34862160682678,-400000.0625,-18839.98046875,-15189.9404296875,-400000.0625,-400000.0625,-400000.0625,-17554.94921875,-400000.0625
199.35398888587952,-400000.0625,-18832.830078125,-15181.830078125,-400000.0625,-400000.0625,-400000.0625,-17543.599609375,-400000.0625
199.35930609703064,-400000.0625,-18826.439453125,-15173.009765625,-400000.0625,-400000.0625,-400000.0625,-17540.5,-400000.0625
199.364887714386,-400000.0625,-18819.2890625,-15166.51953125,-400000.0625,-400000.0625,-400000.0625,-17538.029296875,-400000.0625
199.37014484405518,-400000.0625,-18829.439453125,-15175.3896484375,-400000.0625,-400000.0625,-400000.0625,-17547.939453125,-400000.0625
199.3753592967987,-400000.0625,-18842.7890625,-15188.0302734375,-400000.0625,-400000.0625,-400000.0625,-17555.0,-400000.0625
199.3808844089508,-400000.0625,-18837.7890625,-15187.1201171875,-400000.0625,-400000.0625,-400000.0625,-17543.75,-400000.0625
199.38670587539673,-400000.0625,-18825.099609375,-15177.3896484375,-400000.0625,-400000.0625,-400000.0625,-17533.01953125,-400000.0625
199.4017174243927,-400000.0625,-18818.48046875,-15163.9501953125,-400000.0625,-400000.0625,-400000.0625,-17529.109375,-400000.0625
199.40698504447937,-400000.0625,-18817.0,-15160.3701171875,-400000.0625,-400000.0625,-400000.0625,-17530.919921875,-400000.0625
199.41256523132324,-400000.0625,-18841.55078125,-15183.98046875,-400000.0625,-400000.0625,-400000.0625,-17549.470703125,-400000.0625
199.41799235343933,-400000.0625,-18853.91015625,-15197.5595703125,-400000.0625,-400000.0625,-400000.0625,-17553.4296875,-400000.0625
199.423442363739,-400000.0625,-18838.740234375,-15188.3603515625,-400000.0625,-400000.0625,-400000.0625,-17543.7890625,-400000.0625
199.4290852546692,-400000.0625,-18825.390625,-15170.3896484375,-400000.0625,-400000.0625,-400000.0625,-17534.640625,-400000.0625
199.43450617790222,-400000.0625,-18824.2890625,-15162.51953125,-400000.0625,-400000.0625,-400000.0625,-17533.779296875,-400000.0625
199.44003629684448,-400000.0625,-18834.779296875,-15172.8203125,-400000.0625,-400000.0625,-400000.0625,-17539.7890625,-400000.0625
199.44569873809814,-400000.0625,-18846.609375,-15189.98046875,-400000.0625,-400000.0625,-400000.0625,-17546.849609375,-400000.0625
199.4512038230896,-400000.0625,-18839.359375,-15186.2197265625,-400000.0625,-400000.0625,-400000.0625,-17542.560546875,-400000.0625
199.45673608779907,-400000.0625,-18831.73046875,-15176.3896484375,-400000.0625,-400000.0625,-400000.0625,-17534.9296875,-400000.0625
199.4623053073883,-400000.0625,-18828.349609375,-15173.580078125,-400000.0625,-400000.0625,-400000.0625,-17535.0703125,-400000.0625
199.4678032398224,-400000.0625,-18834.55078125,-15177.2001953125,-400000.0625,-400000.0625,-400000.0625,-17542.359375,-400000.0625
199.47416472434998,-400000.0625,-18845.23046875,-15188.26953125,-400000.0625,-400000.0625,-400000.0625,-17549.66015625,-400000.0625
199.4813494682312,-400000.0625,-18848.140625,-15195.2802734375,-400000.0625,-400000.0625,-400000.0625,-17541.650390625,-400000.0625
199.48869037628174,-400000.0625,-18832.01953125,-15180.2099609375,-400000.0625,-400000.0625,-400000.0625,-17526.91015625,-400000.0625
199.50347256660461,-400000.0625,-18819.669921875,-15165.330078125,-400000.0625,-400000.0625,-400000.0625,-17517.380859375,-400000.0625
199.50882601737976,-400000.0625,-18822.619140625,-15167.669921875,-400000.0625,-400000.0625,-400000.0625,-17526.25,-400000.0625
199.51477098464966,-400000.0625,-18836.880859375,-15181.6904296875,-400000.0625,-400000.0625,-400000.0625,-17536.9296875,-400000.0625
199.5207860469818,-400000.0625,-18846.1796875,-15195.23046875,-400000.0625,-400000.0625,-400000.0625,-17542.359375,-400000.0625
199.52639842033386,-400000.0625,-18846.849609375,-15197.5595703125,-400000.0625,-400000.0625,-400000.0625,-17540.41015625,-400000.0625
199.53193736076355,-400000.0625,-18839.080078125,-15190.169921875,-400000.0625,-400000.0625,-400000.0625,-17533.640625,-400000.0625
199.5373237133026,-400000.0625,-18828.869140625,-15178.6298828125,-400000.0625,-400000.0625,-400000.0625,-17529.5390625,-400000.0625
199.54309034347534,-400000.0625,-18833.16015625,-15183.5,-400000.0625,-400000.0625,-400000.0625,-17535.55078125,-400000.0625
199.54871821403503,-400000.0625,-18846.990234375,-15195.7099609375,-400000.0625,-400000.0625,-400000.0625,-17544.560546875,-400000.0625
199.5540795326233,-400000.0625,-18852.189453125,-15204.240234375,-400000.0625,-400000.0625,-400000.0625,-17547.279296875,-400000.0625
199.56017565727234,-400000.0625,-18840.599609375,-15196.6103515625,-400000.0625,-400000.0625,-400000.0625,-17537.5,-400000.0625
199.56578469276428,-400000.0625,-18829.400390625,-15179.01953125,-400000.0625,-400000.0625,-400000.0625,-17527.529296875,-400000.0625
199.5711920261383,-400000.0625,-18826.060546875,-15174.3896484375,-400000.0625,-400000.0625,-400000.0625,-17525.009765625,-400000.0625
199.57669067382812,-400000.0625,-18838.55078125,-15186.259765625,-400000.0625,-400000.0625,-400000.0625,-17534.0703125,-400000.0625
199.5824077129364,-400000.0625,-18848.609375,-15201.0498046875,-400000.0625,-400000.0625,-400000.0625,-17543.369140625,-400000.0625
199.58845734596252,-400000.0625,-18837.5,-15195.1298828125,-400000.0625,-400000.0625,-400000.0625,-17528.109375,-400000.0625
199.5943694114685,-400000.0625,-18830.400390625,-15185.6396484375,-400000.0625,-400000.0625,-400000.0625,-17520.48046875,-400000.0625
199.60978531837463,-400000.0625,-18828.8203125,-15178.6796875,-400000.0625,-400000.0625,-400000.0625,-17521.48046875,-400000.0625
199.6157455444336,-400000.0625,-18841.130859375,-15189.650390625,-400000.0625,-400000.0625,-400000.0625,-17533.830078125,-400000.0625
199.6217269897461,-400000.0625,-18856.099609375,-15210.2001953125,-400000.0625,-400000.0625,-400000.0625,-17547.470703125,-400000.0625
199.62795567512512,-400000.0625,-18854.669921875,-15212.349609375,-400000.0625,-400000.0625,-400000.0625,-17542.220703125,-400000.0625
199.6338849067688,-400000.0625,-18838.5,-15195.4697265625,-400000.0625,-400000.0625,-400000.0625,-17533.880859375,-400000.0625
199.64003729820251,-400000.0625,-18831.2109375,-15182.349609375,-400000.0625,-400000.0625,-400000.0625,-17529.8203125,-400000.0625
199.64629125595093,-400000.0625,-18832.16015625,-15182.349609375,-400000.0625,-400000.0625,-400000.0625,-17528.349609375,-400000.0625
199.65201234817505,-400000.0625,-18836.7890625,-15189.41015625,-400000.0625,-400000.0625,-400000.0625,-17535.400390625,-400000.0625
199.65791702270508,-400000.0625,-18848.330078125,-15201.08984375,-400000.0625,-400000.0625,-400000.0625,-17540.740234375,-400000.0625
199.66360521316528,-400000.0625,-18849.1796875,-15200.8095703125,-400000.0625,-400000.0625,-400000.0625,-17535.259765625,-400000.0625
199.66972851753235,-400000.0625,-18834.5,-15188.599609375,-400000.0625,-400000.0625,-400000.0625,-17527.30078125,-400000.0625
199.6749768257141,-400000.0625,-18829.060546875,-15182.2099609375,-400000.0625,-400000.0625,-400000.0625,-17526.33984375,-400000.0625
199.680992603302,-400000.0625,-18835.880859375,-15187.5498046875,-400000.0625,-400000.0625,-400000.0625,-17531.919921875,-400000.0625
199.68685269355774,-400000.0625,-18844.609375,-15199.51953125,-400000.0625,-400000.0625,-400000.0625,-17538.740234375,-400000.0625
199.69235157966614,-400000.0625,-18852.4296875,-15210.6796875,-400000.0625,-400000.0625,-400000.0625,-17542.83984375,-400000.0625
199.69947481155396,-400000.0625,-18839.98046875,-15196.849609375,-400000.0625,-400000.0625,-400000.0625,-17529.25,-400000.0625
199.71834635734558,-400000.0625,-18820.759765625,-15177.349609375,-400000.0625,-400000.0625,-400000.0625,-17511.69921875,-400000.0625
199.72500014305115,-400000.0625,-18828.109375,-15182.4501953125,-400000.0625,-400000.0625,-400000.0625,-17522.619140625,-400000.0625
199.7319085597992,-400000.0625,-18851.330078125,-15205.669921875,-400000.0625,-400000.0625,-400000.0625,-17543.599609375,-400000.0625
199.7387661933899,-400000.0625,-18860.490234375,-15217.5,-400000.0625,-400000.0625,-400000.0625,-17544.939453125,-400000.0625
199.74597835540771,-400000.0625,-18851.380859375,-15212.1103515625,-400000.0625,-400000.0625,-400000.0625,-17535.310546875,-400000.0625
199.7524552345276,-400000.0625,-18841.4609375,-15200.08984375,-400000.0625,-400000.0625,-400000.0625,-17524.439453125,-400000.0625
199.75859141349792,-400000.0625,-18837.98046875,-15192.5595703125,-400000.0625,-400000.0625,-400000.0625,-17523.0,-400000.0625
199.76501035690308,-400000.0625,-18841.939453125,-15195.7998046875,-400000.0625,-400000.0625,-400000.0625,-17531.109375,-400000.0625
199.7710943222046,-400000.0625,-18852.330078125,-15209.150390625,-400000.0625,-400000.0625,-400000.0625,-17540.740234375,-400000.0625
199.77708792686462,-400000.0625,-18853.189453125,-15213.2099609375,-400000.0625,-400000.0625,-400000.0625,-17536.310546875,-400000.0625
199.78350949287415,-400000.0625,-18845.130859375,-15199.759765625,-400000.0625,-400000.0625,-400000.0625,-17526.9609375,-400000.0625
199.78952598571777,-400000.0625,-18839.119140625,-15187.0703125,-400000.0625,-400000.0625,-400000.0625,-17519.91015625,-400000.0625
199.79551482200623,-400000.0625,-18836.7890625,-15185.830078125,-400000.0625,-400000.0625,-400000.0625,-17521.529296875,-400000.0625
199.8013277053833,-400000.0625,-18847.1796875,-15199.0,-400000.0625,-400000.0625,-400000.0625,-17530.349609375,-400000.0625
199.8165946006775,-400000.0625,-18858.05078125,-15212.490234375,-400000.0625,-400000.0625,-400000.0625,-17533.58984375,-400000.0625
199.82235407829285,-400000.0625,-18850.66015625,-15205.4296875,-400000.0625,-400000.0625,-400000.0625,-17527.25,-400000.0625
199.82813835144043,-400000.0625,-18831.109375,-15185.2099609375,-400000.0625,-400000.0625,-400000.0625,-17513.130859375,-400000.0625
199.83435916900635,-400000.0625,-18825.25,-15176.76953125,-400000.0625,-400000.0625,-400000.0625,-17507.939453125,-400000.0625
199.840407371521,-400000.0625,-18845.990234375,-15196.419921875,-400000.0625,-400000.0625,-400000.0625,-17524.2890625,-400000.0625
199.84604835510254,-400000.0625,-18864.19921875,-15216.6904296875,-400000.0625,-400000.0625,-400000.0625,-17537.599609375,-400000.0625
199.85163521766663,-400000.0625,-18858.859375,-15214.25,-400000.0625,-400000.0625,-400000.0625,-17529.490234375,-400000.0625
199.8572268486023,-400000.0625,-18842.7890625,-15201.900390625,-400000.0625,-400000.0625,-400000.0625,-17518.470703125,-400000.0625
199.86313390731812,-400000.0625,-18833.779296875,-15194.1796875,-400000.0625,-400000.0625,-400000.0625,-17512.279296875,-400000.0625
199.86885452270508,-400000.0625,-18839.029296875,-15195.66015625,-400000.0625,-400000.0625,-400000.0625,-17516.849609375,-400000.0625
199.87443113327026,-400000.0625,-18851.0390625,-15208.91015625,-400000.0625,-400000.0625,-400000.0625,-17526.720703125,-400000.0625
199.88018655776978,-400000.0625,-18858.48046875,-15220.2099609375,-400000.0625,-400000.0625,-400000.0625,-17533.640625,-400000.0625
199.8858573436737,-400000.0625,-18852.330078125,-15214.0595703125,-400000.0625,-400000.0625,-400000.0625,-17521.189453125,-400000.0625
199.89130926132202,-400000.0625,-18838.259765625,-15197.3701171875,-400000.0625,-400000.0625,-400000.0625,-17507.359375,-400000.0625
199.89690351486206,-400000.0625,-18833.109375,-15192.9404296875,-400000.0625,-400000.0625,-400000.0625,-17511.1796875,-400000.0625
199.9025182723999,-400000.0625,-18846.1796875,-15205.240234375,-400000.0625,-400000.0625,-400000.0625,-17529.30078125,-400000.0625
199.91739773750305,-400000.0625,-18856.619140625,-15215.919921875,-400000.0625,-400000.0625,-400000.0625,-17536.400390625,-400000.0625
199.9226574897766,-400000.0625,-18856.33984375,-15217.58984375,-400000.0625,-400000.0625,-400000.0625,-17529.19921875,-400000.0625
199.92783665657043,-400000.0625,-18844.419921875,-15204.150390625,-400000.0625,-400000.0625,-400000.0625,-17518.4296875,-400000.0625
199.9333736896515,-400000.0625,-18825.76953125,-15185.01953125,-400000.0625,-400000.0625,-400000.0625,-17507.509765625,-400000.0625
199.939040184021,-400000.0625,-18826.30078125,-15185.8798828125,-400000.0625,-400000.0625,-400000.0625,-17505.599609375,-400000.0625
199.94455862045288,-400000.0625,-18848.0390625,-15204.9599609375,-400000.0625,-400000.0625,-400000.0625,-17519.380859375,-400000.0625
199.94997191429138,-400000.0625,-18857.05078125,-15215.830078125,-400000.0625,-400000.0625,-400000.0625,-17524.150390625,-400000.0625
199.95519185066223,-400000.0625,-18850.66015625,-15216.2998046875,-400000.0625,-400000.0625,-400000.0625,-17515.609375,-400000.0625
199.96055626869202,-400000.0625,-18838.41015625,-15203.1396484375,-400000.0625,-400000.0625,-400000.0625,-17507.83984375,-400000.0625
199.96633911132812,-400000.0625,-18834.740234375,-15195.419921875,-400000.0625,-400000.0625,-400000.0625,-17509.029296875,-400000.0625
199.97173810005188,-400000.0625,-18848.419921875,-15204.9599609375,-400000.0625,-400000.0625,-400000.0625,-17521.810546875,-400000.0625
199.97711777687073,-400000.0625,-18864.490234375,-15219.5,-400000.0625,-400000.0625,-400000.0625,-17527.73046875,-400000.0625
199.98275756835938,-400000.0625,-18857.669921875,-15215.490234375,-400000.0625,-400000.0625,-400000.0625,-17519.859375,-400000.0625
199.98814868927002,-400000.0625,-18846.369140625,-15204.76953125,-400000.0625,-400000.0625,-400000.0625,-17510.130859375,-400000.0625
199.9935483932495,-400000.0625,-18839.9296875,-15195.419921875,-400000.0625,-400000.0625,-400000.0625,-17503.220703125,-400000.0625
199.99906277656555,-400000.0625,-18842.560546875,-15194.419921875,-400000.0625,-400000.0625,-400000.0625,-17504.650390625,-400000.0625
200.00429248809814,-400000.0625,-18850.140625,-15205.4296875,-400000.0625,-400000.0625,-400000.0625,-17513.130859375,-400000.0625
200.01850605010986,-400000.0625,-18858.150390625,-15217.9697265625,-400000.0625,-400000.0625,-400000.0625,-17518.330078125,-400000.0625
200.02349042892456,-400000.0625,-18853.240234375,-15215.1103515625,-400000.0625,-400000.0625,-400000.0625,-17505.7890625,-400000.0625
200.02350163459778,-400000.0625,-18842.3203125,-15207.2001953125,-400000.0625,-400000.0625,-400000.0625,-17496.640625,-400000.0625
200.02350640296936,-400000.0625,-18833.880859375,-15195.419921875,-400000.0625,-400000.0625,-400000.0625,-17497.16015625,-400000.0625
200.02351117134094,-400000.0625,-18851.330078125,-15208.48046875,-400000.0625,-400000.0625,-400000.0625,-17511.80078125,-400000.0625
200.02904510498047,-400000.0625,-18867.490234375,-15226.7998046875,-400000.0625,-400000.0625,-400000.0625,-17519.94921875,-400000.0625
200.03432250022888,-400000.0625,-18865.349609375,-15228.3701171875,-400000.0625,-400000.0625,-400000.0625,-17510.80078125,-400000.0625
200.0392861366272,-400000.0625,-18856.33984375,-15222.740234375,-400000.0625,-400000.0625,-400000.0625,-17505.359375,-400000.0625
200.0392951965332,-400000.0625,-18845.80078125,-15206.33984375,-400000.0625,-400000.0625,-400000.0625,-17496.439453125,-400000.0625
200.03930068016052,-400000.0625,-18846.23046875,-15202.5703125,-400000.0625,-400000.0625,-400000.0625,-17493.30078125,-400000.0625
200.03930521011353,-400000.0625,-18860.8203125,-15219.2099609375,-400000.0625,-400000.0625,-400000.0625,-17505.080078125,-400000.0625
200.03930950164795,-400000.0625,-18869.970703125,-15233.1796875,-400000.0625,-400000.0625,-400000.0625,-17515.80078125,-400000.0625
200.03931522369385,-400000.0625,-18867.30078125,-15228.990234375,-400000.0625,-400000.0625,-400000.0625,-17505.98046875,-400000.0625
200.03931975364685,-400000.0625,-18850.140625,-15209.2998046875,-400000.0625,-400000.0625,-400000.0625,-17493.919921875,-400000.0625
200.039324760437,-400000.0625,-18844.609375,-15203.240234375,-400000.0625,-400000.0625,-400000.0625,-17494.25,-400000.0625
200.03932881355286,-400000.0625,-18859.869140625,-15217.259765625,-400000.0625,-400000.0625,-400000.0625,-17501.01953125,-400000.0625
200.04431915283203,-400000.0625,-18872.9296875,-15233.1796875,-400000.0625,-400000.0625,-400000.0625,-17509.41015625,-400000.0625
200.04432892799377,-400000.0625,-18877.4609375,-15240.3798828125,-400000.0625,-400000.0625,-400000.0625,-17508.509765625,-400000.0625
200.0497486591339,-400000.0625,-18862.439453125,-15224.2197265625,-400000.0625,-400000.0625,-400000.0625,-17496.400390625,-400000.0625
200.05552506446838,-400000.0625,-18849.279296875,-15209.490234375,-400000.0625,-400000.0625,-400000.0625,-17488.8203125,-400000.0625
200.0609405040741,-400000.0625,-18849.900390625,-15210.009765625,-400000.0625,-400000.0625,-400000.0625,-17494.16015625,-400000.0625
200.0661337375641,-400000.0625,-18860.720703125,-15221.5498046875,-400000.0625,-400000.0625,-400000.0625,-17504.26953125,-400000.0625
200.07122802734375,-400000.0625,-18872.98046875,-15238.48046875,-400000.0625,-400000.0625,-400000.0625,-17505.26953125,-400000.0625
200.07637429237366,-400000.0625,-18861.150390625,-15228.7998046875,-400000.0625,-400000.0625,-400000.0625,-17498.919921875,-400000.0625
200.08193707466125,-400000.0625,-18850.849609375,-15217.830078125,-400000.0625,-400000.0625,-400000.0625,-17489.580078125,-400000.0625
200.08763909339905,-400000.0625,-18857.91015625,-15222.0703125,-400000.0625,-400000.0625,-400000.0625,-17487.099609375,-400000.0625
200.0928111076355,-400000.0625,-18864.109375,-15228.8896484375,-400000.0625,-400000.0625,-400000.0625,-17494.439453125,-400000.0625
200.09831476211548,-400000.0625,-18868.5390625,-15236.6201171875,-400000.0625,-400000.0625,-400000.0625,-17498.30078125,-400000.0625
200.10360479354858,-400000.0625,-18872.0703125,-15244.3896484375,-400000.0625,-400000.0625,-400000.0625,-17496.16015625,-400000.0625
200.1086654663086,-400000.0625,-18859.19921875,-15231.75,-400000.0625,-400000.0625,-400000.0625,-17485.330078125,-400000.0625
200.1225106716156,-400000.0625,-18856.9609375,-15224.8896484375,-400000.0625,-400000.0625,-400000.0625,-17490.6796875,-400000.0625
200.12756323814392,-400000.0625,-18865.439453125,-15232.66015625,-400000.0625,-400000.0625,-400000.0625,-17500.9296875,-400000.0625
200.13277387619019,-400000.0625,-18874.5,-15243.150390625,-400000.0625,-400000.0625,-400000.0625,-17502.259765625,-400000.0625
200.13781833648682,-400000.0625,-18872.55078125,-15244.8203125,-400000.0625,-400000.0625,-400000.0625,-17499.880859375,-400000.0625
200.14282321929932,-400000.0625,-18862.73046875,-15237.3798828125,-400000.0625,-400000.0625,-400000.0625,-17492.9609375,-400000.0625
200.1482961177826,-400000.0625,-18860.150390625,-15227.7998046875,-400000.0625,-400000.0625,-400000.0625,-17481.51953125,-400000.0625
200.1542103290558,-400000.0625,-18859.91015625,-15223.3095703125,-400000.0625,-400000.0625,-400000.0625,-17488.19921875,-400000.0625
200.1595494747162,-400000.0625,-18872.220703125,-15239.1904296875,-400000.0625,-400000.0625,-400000.0625,-17504.740234375,-400000.0625
200.16486859321594,-400000.0625,-18885.5703125,-15257.26953125,-400000.0625,-400000.0625,-400000.0625,-17509.560546875,-400000.0625
200.1699573993683,-400000.0625,-18883.419921875,-15257.3095703125,-400000.0625,-400000.0625,-400000.0625,-17507.169921875,-400000.0625
200.17520809173584,-400000.0625,-18868.640625,-15241.240234375,-400000.0625,-400000.0625,-400000.0625,-17493.76953125,-400000.0625
200.18077278137207,-400000.0625,-18836.310546875,-15213.16015625,-400000.0625,-400000.0625,-400000.0625,-17488.2890625,-400000.0625
200.1859610080719,-400000.0625,-18821.05078125,-15203.1396484375,-400000.0625,-400000.0625,-400000.0625,-17499.259765625,-400000.0625
200.19098496437073,-400000.0625,-18823.19921875,-15208.33984375,-400000.0625,-400000.0625,-400000.0625,-17516.08984375,-400000.0625
200.19635653495789,-400000.0625,-18812.1796875,-15197.4697265625,-400000.0625,-400000.0625,-400000.0625,-17523.9609375,-400000.0625
200.20157933235168,-400000.0625,-18769.890625,-15163.1396484375,-400000.0625,-400000.0625,-400000.0625,-17518.7109375,-400000.0625
200.20682883262634,-400000.0625,-18735.69921875,-15129.419921875,-400000.0625,-400000.0625,-400000.0625,-17515.470703125,-400000.0625
200.21214246749878,-400000.0625,-18714.140625,-15103.8701171875,-400000.0625,-400000.0625,-400000.0625,-17525.9609375,-400000.0625
200.22820496559143,-400000.0625,-18701.169921875,-15093.1396484375,-400000.0625,-400000.0625,-400000.0625,-17544.83984375,-400000.0625
200.23433446884155,-400000.0625,-18683.580078125,-15080.259765625,-400000.0625,-400000.0625,-400000.0625,-17556.0,-400000.0625
200.23996591567993,-400000.0625,-18647.720703125,-15052.7001953125,-400000.0625,-400000.0625,-400000.0625,-17554.810546875,-400000.0625
200.2457137107849,-400000.0625,-18608.669921875,-15013.7001953125,-400000.0625,-400000.0625,-400000.0625,-17548.66015625,-400000.0625
200.25142407417297,-400000.0625,-18581.060546875,-14976.83984375,-400000.0625,-400000.0625,-400000.0625,-17549.330078125,-400000.0625
200.2566168308258,-400000.0625,-18577.529296875,-14967.0595703125,-400000.0625,-400000.0625,-400000.0625,-17565.6796875,-400000.0625
200.2624955177307,-400000.0625,-18581.73046875,-14967.73046875,-400000.0625,-400000.0625,-400000.0625,-17580.130859375,-400000.0625
200.2682318687439,-400000.0625,-18573.0,-14957.240234375,-400000.0625,-400000.0625,-400000.0625,-17580.130859375,-400000.0625
200.27383399009705,-400000.0625,-18552.58984375,-14929.6298828125,-400000.0625,-400000.0625,-400000.0625,-17574.689453125,-400000.0625
200.28060698509216,-400000.0625,-18536.189453125,-14906.6904296875,-400000.0625,-400000.0625,-400000.0625,-17569.640625,-400000.0625
200.28598046302795,-400000.0625,-18539.720703125,-14900.830078125,-400000.0625,-400000.0625,-400000.0625,-17572.98046875,-400000.0625
200.29119610786438,-400000.0625,-18551.640625,-14908.740234375,-400000.0625,-400000.0625,-400000.0625,-17589.4296875,-400000.0625
200.29701685905457,-400000.0625,-18559.4609375,-14916.419921875,-400000.0625,-400000.0625,-400000.0625,-17592.380859375,-400000.0625
200.30229997634888,-400000.0625,-18545.19921875,-14904.9296875,-400000.0625,-400000.0625,-400000.0625,-17577.83984375,-400000.0625
200.307626247406,-400000.0625,-18529.1796875,-14890.9599609375,-400000.0625,-400000.0625,-400000.0625,-17566.30078125,-400000.0625
200.3143346309662,-400000.0625,-18527.26953125,-14883.1396484375,-400000.0625,-400000.0625,-400000.0625,-17564.630859375,-400000.0625
200.33003067970276,-400000.0625,-18540.240234375,-14891.580078125,-400000.0625,-400000.0625,-400000.0625,-17574.55078125,-400000.0625
200.3353304862976,-400000.0625,-18557.169921875,-14905.0302734375,-400000.0625,-400000.0625,-400000.0625,-17585.330078125,-400000.0625
200.34088826179504,-400000.0625,-18556.41015625,-14905.7900390625,-400000.0625,-400000.0625,-400000.0625,-17582.80078125,-400000.0625
200.34667658805847,-400000.0625,-18547.109375,-14898.7802734375,-400000.0625,-400000.0625,-400000.0625,-17571.259765625,-400000.0625
200.3523724079132,-400000.0625,-18544.9609375,-14893.8701171875,-400000.0625,-400000.0625,-400000.0625,-17571.58984375,-400000.0625
200.35801815986633,-400000.0625,-18551.689453125,-14897.2998046875,-400000.0625,-400000.0625,-400000.0625,-17577.83984375,-400000.0625
200.3636064529419,-400000.0625,-18566.3203125,-14911.7001953125,-400000.0625,-400000.0625,-400000.0625,-17590.0,-400000.0625
200.36985802650452,-400000.0625,-18574.859375,-14926.009765625,-400000.0625,-400000.0625,-400000.0625,-17590.810546875,-400000.0625
200.37556910514832,-400000.0625,-18567.900390625,-14921.48046875,-400000.0625,-400000.0625,-400000.0625,-17581.80078125,-400000.0625
200.38130593299866,-400000.0625,-18557.259765625,-14905.6904296875,-400000.0625,-400000.0625,-400000.0625,-17565.779296875,-400000.0625
200.3866786956787,-400000.0625,-18556.41015625,-14900.16015625,-400000.0625,-400000.0625,-400000.0625,-17563.5390625,-400000.0625
200.3920817375183,-400000.0625,-18566.1796875,-14907.599609375,-400000.0625,-400000.0625,-400000.0625,-17577.3203125,-400000.0625
200.39857125282288,-400000.0625,-18582.779296875,-14925.33984375,-400000.0625,-400000.0625,-400000.0625,-17586.140625,-400000.0625
200.40391731262207,-400000.0625,-18584.01953125,-14928.150390625,-400000.0625,-400000.0625,-400000.0625,-17580.23046875,-400000.0625
200.40945553779602,-400000.0625,-18566.23046875,-14911.1796875,-400000.0625,-400000.0625,-400000.0625,-17567.109375,-400000.0625
200.41491389274597,-400000.0625,-18554.689453125,-14896.73046875,-400000.0625,-400000.0625,-400000.0625,-17556.240234375,-400000.0625
200.43030261993408,-400000.0625,-18558.220703125,-14897.2099609375,-400000.0625,-400000.0625,-400000.0625,-17559.05078125,-400000.0625
200.43584609031677,-400000.0625,-18584.25,-14922.3798828125,-400000.0625,-400000.0625,-400000.0625,-17582.369140625,-400000.0625
200.44094061851501,-400000.0625,-18596.130859375,-14939.3603515625,-400000.0625,-400000.0625,-400000.0625,-17591.9609375,-400000.0625
200.44673228263855,-400000.0625,-18589.259765625,-14935.919921875,-400000.0625,-400000.0625,-400000.0625,-17577.75,-400000.0625
200.45200896263123,-400000.0625,-18577.390625,-14917.9501953125,-400000.0625,-400000.0625,-400000.0625,-17565.58984375,-400000.0625
200.4571933746338,-400000.0625,-18570.94921875,-14906.6904296875,-400000.0625,-400000.0625,-400000.0625,-17563.5390625,-400000.0625
200.4625539779663,-400000.0625,-18584.830078125,-14915.75,-400000.0625,-400000.0625,-400000.0625,-17573.0703125,-400000.0625
200.46778082847595,-400000.0625,-18592.689453125,-14926.76953125,-400000.0625,-400000.0625,-400000.0625,-17582.990234375,-400000.0625
200.4739911556244,-400000.0625,-18590.259765625,-14927.5302734375,-400000.0625,-400000.0625,-400000.0625,-17577.98046875,-400000.0625
200.47937059402466,-400000.0625,-18581.490234375,-14914.7998046875,-400000.0625,-400000.0625,-400000.0625,-17565.439453125,-400000.0625
200.48511385917664,-400000.0625,-18567.08984375,-14897.73046875,-400000.0625,-400000.0625,-400000.0625,-17559.439453125,-400000.0625
200.49102568626404,-400000.0625,-18573.810546875,-14901.1201171875,-400000.0625,-400000.0625,-400000.0625,-17565.349609375,-400000.0625
200.49667239189148,-400000.0625,-18595.75,-14920.8603515625,-400000.0625,-400000.0625,-400000.0625,-17579.029296875,-400000.0625
200.50213265419006,-400000.0625,-18602.140625,-14932.009765625,-400000.0625,-400000.0625,-400000.0625,-17580.650390625,-400000.0625
200.50744342803955,-400000.0625,-18590.880859375,-14924.580078125,-400000.0625,-400000.0625,-400000.0625,-17568.400390625,-400000.0625
200.51321029663086,-400000.0625,-18581.33984375,-14913.75,-400000.0625,-400000.0625,-400000.0625,-17560.580078125,-400000.0625
200.51870036125183,-400000.0625,-18576.4296875,-14905.8798828125,-400000.0625,-400000.0625,-400000.0625,-17562.25,-400000.0625
200.53329944610596,-400000.0625,-18589.44921875,-14915.5595703125,-400000.0625,-400000.0625,-400000.0625,-17572.599609375,-400000.0625
200.53881168365479,-400000.0625,-18600.3203125,-14929.6298828125,-400000.0625,-400000.0625,-400000.0625,-17582.369140625,-400000.0625
200.54428505897522,-400000.0625,-18593.169921875,-14926.099609375,-400000.0625,-400000.0625,-400000.0625,-17577.130859375,-400000.0625
200.5497531890869,-400000.0625,-18577.009765625,-14907.080078125,-400000.0625,-400000.0625,-400000.0625,-17561.869140625,-400000.0625
200.5550503730774,-400000.0625,-18570.470703125,-14898.6796875,-400000.0625,-400000.0625,-400000.0625,-17561.630859375,-400000.0625
200.56108570098877,-400000.0625,-18587.349609375,-14914.419921875,-400000.0625,-400000.0625,-400000.0625,-17582.1796875,-400000.0625
200.56666040420532,-400000.0625,-18611.189453125,-14937.400390625,-400000.0625,-400000.0625,-400000.0625,-17597.919921875,-400000.0625
200.57196187973022,-400000.0625,-18615.30078125,-14946.0302734375,-400000.0625,-400000.0625,-400000.0625,-17595.48046875,-400000.0625
200.57724356651306,-400000.0625,-18599.75,-14932.4404296875,-400000.0625,-400000.0625,-400000.0625,-17579.560546875,-400000.0625
200.58267378807068,-400000.0625,-18580.490234375,-14912.1796875,-400000.0625,-400000.0625,-400000.0625,-17560.630859375,-400000.0625
200.58806610107422,-400000.0625,-18575.76953125,-14904.8798828125,-400000.0625,-400000.0625,-400000.0625,-17560.529296875,-400000.0625
200.59377360343933,-400000.0625,-18593.98046875,-14920.0498046875,-400000.0625,-400000.0625,-400000.0625,-17575.220703125,-400000.0625
200.59946584701538,-400000.0625,-18603.66015625,-14933.2099609375,-400000.0625,-400000.0625,-400000.0625,-17579.650390625,-400000.0625
200.60492539405823,-400000.0625,-18595.029296875,-14929.25,-400000.0625,-400000.0625,-400000.0625,-17569.689453125,-400000.0625
200.61049580574036,-400000.0625,-18583.630859375,-14916.3701171875,-400000.0625,-400000.0625,-400000.0625,-17562.490234375,-400000.0625
200.61658883094788,-400000.0625,-18575.9609375,-14907.169921875,-400000.0625,-400000.0625,-400000.0625,-17560.05078125,-400000.0625
200.6222665309906,-400000.0625,-18581.439453125,-14910.75,-400000.0625,-400000.0625,-400000.0625,-17564.109375,-400000.0625
200.63716554641724,-400000.0625,-18598.4609375,-14928.099609375,-400000.0625,-400000.0625,-400000.0625,-17576.98046875,-400000.0625
200.64250659942627,-400000.0625,-18598.26953125,-14931.490234375,-400000.0625,-400000.0625,-400000.0625,-17576.509765625,-400000.0625
200.64813232421875,-400000.0625,-18581.490234375,-14917.4697265625,-400000.0625,-400000.0625,-400000.0625,-17559.33984375,-400000.0625
200.65353679656982,-400000.0625,-18571.4296875,-14907.8896484375,-400000.0625,-400000.0625,-400000.0625,-17558.19921875,-400000.0625
200.65877985954285,-400000.0625,-18568.900390625,-14900.259765625,-400000.0625,-400000.0625,-400000.0625,-17558.859375,-400000.0625
200.66421484947205,-400000.0625,-18583.25,-14912.8896484375,-400000.0625,-400000.0625,-400000.0625,-17571.689453125,-400000.0625
200.66975569725037,-400000.0625,-18603.279296875,-14938.3095703125,-400000.0625,-400000.0625,-400000.0625,-17590.330078125,-400000.0625
200.6750190258026,-400000.0625,-18607.380859375,-14941.650390625,-400000.0625,-400000.0625,-400000.0625,-17582.509765625,-400000.0625
200.68044590950012,-400000.0625,-18599.1796875,-14931.009765625,-400000.0625,-400000.0625,-400000.0625,-17574.4609375,-400000.0625
200.68606853485107,-400000.0625,-18603.849609375,-14922.8603515625,-400000.0625,-400000.0625,-400000.0625,-17573.98046875,-400000.0625
200.691326379776,-400000.0625,-18623.2109375,-14939.599609375,-400000.0625,-400000.0625,-400000.0625,-17567.830078125,-400000.0625
200.6968071460724,-400000.0625,-18628.0703125,-14959.91015625,-400000.0625,-400000.0625,-400000.0625,-17566.439453125,-400000.0625
200.70218658447266,-400000.0625,-18643.669921875,-14986.990234375,-400000.0625,-400000.0625,-400000.0625,-17570.55078125,-400000.0625
200.70739340782166,-400000.0625,-18643.4296875,-14997.2001953125,-400000.0625,-400000.0625,-400000.0625,-17557.810546875,-400000.0625
200.71297597885132,-400000.0625,-18635.849609375,-14997.099609375,-400000.0625,-400000.0625,-400000.0625,-17534.259765625,-400000.0625
200.71832489967346,-400000.0625,-18643.48046875,-15014.83984375,-400000.0625,-400000.0625,-400000.0625,-17527.869140625,-400000.0625
200.72352027893066,-400000.0625,-18677.7109375,-15054.6103515625,-400000.0625,-400000.0625,-400000.0625,-17539.359375,-400000.0625
200.73960900306702,-400000.0625,-18704.080078125,-15089.849609375,-400000.0625,-400000.0625,-400000.0625,-17539.689453125,-400000.0625
200.7459807395935,-400000.0625,-18703.1796875,-15106.349609375,-400000.0625,-400000.0625,-400000.0625,-17513.419921875,-400000.0625
200.75143122673035,-400000.0625,-18711.859375,-15121.1796875,-400000.0625,-400000.0625,-400000.0625,-17492.9609375,-400000.0625
200.75701379776,-400000.0625,-18722.30078125,-15133.5703125,-400000.0625,-400000.0625,-400000.0625,-17482.380859375,-400000.0625
200.7636377811432,-400000.0625,-18760.01953125,-15169.0,-400000.0625,-400000.0625,-400000.0625,-17498.5390625,-400000.0625
200.76982975006104,-400000.0625,-18792.30078125,-15202.669921875,-400000.0625,-400000.0625,-400000.0625,-17509.130859375,-400000.0625
200.7754521369934,-400000.0625,-18800.7890625,-15231.51953125,-400000.0625,-400000.0625,-400000.0625,-17492.8203125,-400000.0625
200.78164863586426,-400000.0625,-18802.310546875,-15240.0498046875,-400000.0625,-400000.0625,-400000.0625,-17476.419921875,-400000.0625
200.78764581680298,-400000.0625,-18792.970703125,-15224.83984375,-400000.0625,-400000.0625,-400000.0625,-17455.060546875,-400000.0625
200.79333662986755,-400000.0625,-18797.16015625,-15228.1298828125,-400000.0625,-400000.0625,-400000.0625,-17455.19921875,-400000.0625
200.79906940460205,-400000.0625,-18823.150390625,-15258.2197265625,-400000.0625,-400000.0625,-400000.0625,-17468.98046875,-400000.0625
200.80439710617065,-400000.0625,-18835.689453125,-15284.4404296875,-400000.0625,-400000.0625,-400000.0625,-17473.41015625,-400000.0625
200.81037545204163,-400000.0625,-18843.509765625,-15285.2998046875,-400000.0625,-400000.0625,-400000.0625,-17468.310546875,-400000.0625
200.8168385028839,-400000.0625,-18829.400390625,-15265.990234375,-400000.0625,-400000.0625,-400000.0625,-17447.279296875,-400000.0625
200.823228597641,-400000.0625,-18816.0390625,-15254.6396484375,-400000.0625,-400000.0625,-400000.0625,-17435.83984375,-400000.0625
200.83025360107422,-400000.0625,-18819.140625,-15257.6904296875,-400000.0625,-400000.0625,-400000.0625,-17450.94921875,-400000.0625
200.84707260131836,-400000.0625,-18824.19921875,-15264.1796875,-400000.0625,-400000.0625,-400000.0625,-17459.6796875,-400000.0625
200.85295152664185,-400000.0625,-18824.669921875,-15266.75,-400000.0625,-400000.0625,-400000.0625,-17454.240234375,-400000.0625
200.85879373550415,-400000.0625,-18817.140625,-15263.5595703125,-400000.0625,-400000.0625,-400000.0625,-17447.859375,-400000.0625
200.86461925506592,-400000.0625,-18805.220703125,-15249.9697265625,-400000.0625,-400000.0625,-400000.0625,-17444.470703125,-400000.0625
200.8708086013794,-400000.0625,-18800.689453125,-15238.7197265625,-400000.0625,-400000.0625,-400000.0625,-17442.66015625,-400000.0625
200.8765687942505,-400000.0625,-18813.80078125,-15251.5,-400000.0625,-400000.0625,-400000.0625,-17456.869140625,-400000.0625
200.88256430625916,-400000.0625,-18828.8203125,-15268.6103515625,-400000.0625,-400000.0625,-400000.0625,-17465.779296875,-400000.0625
200.88857865333557,-400000.0625,-18821.91015625,-15265.0400390625,-400000.0625,-400000.0625,-400000.0625,-17460.630859375,-400000.0625
200.90049481391907,-400000.0625,-18806.650390625,-15248.73046875,-400000.0625,-400000.0625,-400000.0625,-17447.759765625,-400000.0625
200.91656684875488,-400000.0625,-18797.970703125,-15234.5703125,-400000.0625,-400000.0625,-400000.0625,-17442.08984375,-400000.0625
200.93183660507202,-400000.0625,-18801.98046875,-15233.6103515625,-400000.0625,-400000.0625,-400000.0625,-17452.529296875,-400000.0625
200.9502992630005,-400000.0625,-18818.0,-15247.919921875,-400000.0625,-400000.0625,-400000.0625,-17466.400390625,-400000.0625
200.9568967819214,-400000.0625,-18822.0,-15254.259765625,-400000.0625,-400000.0625,-400000.0625,-17469.689453125,-400000.0625
200.96294283866882,-400000.0625,-18805.83984375,-15239.5703125,-400000.0625,-400000.0625,-400000.0625,-17456.33984375,-400000.0625
200.96909642219543,-400000.0625,-18792.5390625,-15221.4501953125,-400000.0625,-400000.0625,-400000.0625,-17440.990234375,-400000.0625
200.9745945930481,-400000.0625,-18795.109375,-15220.259765625,-400000.0625,-400000.0625,-400000.0625,-17441.609375,-400000.0625
200.9809546470642,-400000.0625,-18804.55078125,-15233.23046875,-400000.0625,-400000.0625,-400000.0625,-17457.9609375,-400000.0625
200.98719787597656,-400000.0625,-18811.66015625,-15243.6298828125,-400000.0625,-400000.0625,-400000.0625,-17462.259765625,-400000.0625
200.99298119544983,-400000.0625,-18812.369140625,-15246.1103515625,-400000.0625,-400000.0625,-400000.0625,-17457.109375,-400000.0625
201.00076985359192,-400000.0625,-18801.5,-15230.849609375,-400000.0625,-400000.0625,-400000.0625,-17446.94921875,-400000.0625
201.00650215148926,-400000.0625,-18796.01953125,-15221.169921875,-400000.0625,-400000.0625,-400000.0625,-17446.849609375,-400000.0625
201.01234817504883,-400000.0625,-18807.939453125,-15232.1396484375,-400000.0625,-400000.0625,-400000.0625,-17464.9296875,-400000.0625
201.01785159111023,-400000.0625,-18825.099609375,-15247.009765625,-400000.0625,-400000.0625,-400000.0625,-17476.990234375,-400000.0625
201.02325248718262,-400000.0625,-18825.490234375,-15250.2998046875,-400000.0625,-400000.0625,-400000.0625,-17472.69921875,-400000.0625
201.0295569896698,-400000.0625,-18801.41015625,-15228.8896484375,-400000.0625,-400000.0625,-400000.0625,-17453.48046875,-400000.0625
201.03583645820618,-400000.0625,-18793.19921875,-15215.16015625,-400000.0625,-400000.0625,-400000.0625,-17449.759765625,-400000.0625
201.0521945953369,-400000.0625,-18795.970703125,-15212.3896484375,-400000.0625,-400000.0625,-400000.0625,-17450.140625,-400000.0625
201.05806159973145,-400000.0625,-18816.189453125,-15229.3701171875,-400000.0625,-400000.0625,-400000.0625,-17463.30078125,-400000.0625
201.06428265571594,-400000.0625,-18829.400390625,-15243.8203125,-400000.0625,-400000.0625,-400000.0625,-17475.080078125,-400000.0625
201.07026076316833,-400000.0625,-18823.099609375,-15240.76953125,-400000.0625,-400000.0625,-400000.0625,-17466.259765625,-400000.0625
201.0760087966919,-400000.0625,-18804.359375,-15221.599609375,-400000.0625,-400000.0625,-400000.0625,-17452.580078125,-400000.0625
201.08192896842957,-400000.0625,-18791.8203125,-15209.009765625,-400000.0625,-400000.0625,-400000.0625,-17448.619140625,-400000.0625
201.08793115615845,-400000.0625,-18802.5,-15216.6904296875,-400000.0625,-400000.0625,-400000.0625,-17456.580078125,-400000.0625
201.0932424068451,-400000.0625,-18828.919921875,-15240.9599609375,-400000.0625,-400000.0625,-400000.0625,-17482.94921875,-400000.0625
201.09928798675537,-400000.0625,-18827.73046875,-15242.150390625,-400000.0625,-400000.0625,-400000.0625,-17482.240234375,-400000.0625
201.10452127456665,-400000.0625,-18805.7890625,-15221.4501953125,-400000.0625,-400000.0625,-400000.0625,-17458.5390625,-400000.0625
201.11029148101807,-400000.0625,-18793.869140625,-15205.099609375,-400000.0625,-400000.0625,-400000.0625,-17451.240234375,-400000.0625
201.116277217865,-400000.0625,-18798.689453125,-15205.4296875,-400000.0625,-400000.0625,-400000.0625,-17462.830078125,-400000.0625
201.1218340396881,-400000.0625,-18818.91015625,-15226.650390625,-400000.0625,-400000.0625,-400000.0625,-17475.939453125,-400000.0625
201.1275177001953,-400000.0625,-18830.109375,-15241.9599609375,-400000.0625,-400000.0625,-400000.0625,-17481.189453125,-400000.0625
201.13318014144897,-400000.0625,-18820.240234375,-15233.1396484375,-400000.0625,-400000.0625,-400000.0625,-17469.5,-400000.0625
201.13958978652954,-400000.0625,-18800.400390625,-15213.7802734375,-400000.0625,-400000.0625,-400000.0625,-17455.9609375,-400000.0625
201.15506863594055,-400000.0625,-18796.060546875,-15201.1904296875,-400000.0625,-400000.0625,-400000.0625,-17453.76953125,-400000.0625
201.16088390350342,-400000.0625,-18802.98046875,-15209.8701171875,-400000.0625,-400000.0625,-400000.0625,-17461.640625,-400000.0625
201.16729259490967,-400000.0625,-18816.810546875,-15228.080078125,-400000.0625,-400000.0625,-400000.0625,-17478.0390625,-400000.0625
201.1726598739624,-400000.0625,-18820.140625,-15231.4697265625,-400000.0625,-400000.0625,-400000.0625,-17478.419921875,-400000.0625
201.17847800254822,-400000.0625,-18809.369140625,-15219.7900390625,-400000.0625,-400000.0625,-400000.0625,-17465.880859375,-400000.0625
201.18390011787415,-400000.0625,-18809.4609375,-15208.91015625,-400000.0625,-400000.0625,-400000.0625,-17461.6796875,-400000.0625
201.1899709701538,-400000.0625,-18819.859375,-15209.6298828125,-400000.0625,-400000.0625,-400000.0625,-17469.689453125,-400000.0625
201.19561791419983,-400000.0625,-18822.9609375,-15218.9697265625,-400000.0625,-400000.0625,-400000.0625,-17480.66015625,-400000.0625
201.2013328075409,-400000.0625,-18806.26953125,-15220.41015625,-400000.0625,-400000.0625,-400000.0625,-17487.380859375,-400000.0625
201.20703744888306,-400000.0625,-18788.439453125,-15208.3896484375,-400000.0625,-400000.0625,-400000.0625,-17483.810546875,-400000.0625
201.21244525909424,-400000.0625,-18779.330078125,-15188.3603515625,-400000.0625,-400000.0625,-400000.0625,-17472.080078125,-400000.0625
201.2189712524414,-400000.0625,-18776.7109375,-15173.48046875,-400000.0625,-400000.0625,-400000.0625,-17463.779296875,-400000.0625
201.224280834198,-400000.0625,-18789.099609375,-15179.8701171875,-400000.0625,-400000.0625,-400000.0625,-17474.130859375,-400000.0625
201.2304093837738,-400000.0625,-18796.779296875,-15187.3603515625,-400000.0625,-400000.0625,-400000.0625,-17483.189453125,-400000.0625
201.23601531982422,-400000.0625,-18793.779296875,-15189.41015625,-400000.0625,-400000.0625,-400000.0625,-17480.419921875,-400000.0625
201.24133896827698,-400000.0625,-18785.5703125,-15184.400390625,-400000.0625,-400000.0625,-400000.0625,-17478.75,-400000.0625
201.2592101097107,-400000.0625,-18777.849609375,-15171.3896484375,-400000.0625,-400000.0625,-400000.0625,-17477.08984375,-400000.0625
201.26528120040894,-400000.0625,-18781.5703125,-15174.25,-400000.0625,-400000.0625,-400000.0625,-17479.470703125,-400000.0625
201.27092742919922,-400000.0625,-18796.5390625,-15187.3603515625,-400000.0625,-400000.0625,-400000.0625,-17492.630859375,-400000.0625
201.27698707580566,-400000.0625,-18800.9296875,-15194.0400390625,-400000.0625,-400000.0625,-400000.0625,-17498.58984375,-400000.0625
201.28281331062317,-400000.0625,-18791.8203125,-15185.3095703125,-400000.0625,-400000.0625,-400000.0625,-17486.189453125,-400000.0625
201.2887659072876,-400000.0625,-18771.169921875,-15160.990234375,-400000.0625,-400000.0625,-400000.0625,-17474.369140625,-400000.0625
201.29452180862427,-400000.0625,-18767.359375,-15154.2197265625,-400000.0625,-400000.0625,-400000.0625,-17476.66015625,-400000.0625
201.30058598518372,-400000.0625,-18780.849609375,-15164.1904296875,-400000.0625,-400000.0625,-400000.0625,-17489.76953125,-400000.0625
201.30656003952026,-400000.0625,-18790.869140625,-15176.8701171875,-400000.0625,-400000.0625,-400000.0625,-17497.640625,-400000.0625
201.31431341171265,-400000.0625,-18791.25,-15178.2099609375,-400000.0625,-400000.0625,-400000.0625,-17488.240234375,-400000.0625
201.32010865211487,-400000.0625,-18771.130859375,-15162.759765625,-400000.0625,-400000.0625,-400000.0625,-17469.599609375,-400000.0625
201.32651257514954,-400000.0625,-18763.970703125,-15153.9296875,-400000.0625,-400000.0625,-400000.0625,-17470.4609375,-400000.0625
201.33244061470032,-400000.0625,-18772.220703125,-15158.3701171875,-400000.0625,-400000.0625,-400000.0625,-17482.0,-400000.0625
201.33877563476562,-400000.0625,-18781.619140625,-15167.759765625,-400000.0625,-400000.0625,-400000.0625,-17488.05078125,-400000.0625
201.3450150489807,-400000.0625,-18791.060546875,-15180.4501953125,-400000.0625,-400000.0625,-400000.0625,-17501.0703125,-400000.0625
201.36150360107422,-400000.0625,-18787.529296875,-15179.919921875,-400000.0625,-400000.0625,-400000.0625,-17493.8203125,-400000.0625
201.3675456047058,-400000.0625,-18778.849609375,-15170.3896484375,-400000.0625,-400000.0625,-400000.0625,-17484.669921875,-400000.0625
201.37287998199463,-400000.0625,-18778.51953125,-15167.91015625,-400000.0625,-400000.0625,-400000.0625,-17488.580078125,-400000.0625
201.3787887096405,-400000.0625,-18785.05078125,-15178.7802734375,-400000.0625,-400000.0625,-400000.0625,-17498.349609375,-400000.0625
201.3845043182373,-400000.0625,-18795.16015625,-15191.83984375,-400000.0625,-400000.0625,-400000.0625,-17504.310546875,-400000.0625
201.39044046401978,-400000.0625,-18791.6796875,-15189.98046875,-400000.0625,-400000.0625,-400000.0625,-17496.869140625,-400000.0625
201.39665913581848,-400000.0625,-18779.08984375,-15179.73046875,-400000.0625,-400000.0625,-400000.0625,-17488.91015625,-400000.0625
201.40200233459473,-400000.0625,-18773.75,-15170.669921875,-400000.0625,-400000.0625,-400000.0625,-17488.529296875,-400000.0625
201.40769004821777,-400000.0625,-18772.69921875,-15167.099609375,-400000.0625,-400000.0625,-400000.0625,-17492.390625,-400000.0625
201.4131953716278,-400000.0625,-18784.619140625,-15176.2998046875,-400000.0625,-400000.0625,-400000.0625,-17502.5,-400000.0625
201.41946506500244,-400000.0625,-18793.5390625,-15186.599609375,-400000.0625,-400000.0625,-400000.0625,-17504.029296875,-400000.0625
201.42512106895447,-400000.0625,-18787.580078125,-15183.1201171875,-400000.0625,-400000.0625,-400000.0625,-17497.44921875,-400000.0625
201.4312243461609,-400000.0625,-18773.650390625,-15167.4296875,-400000.0625,-400000.0625,-400000.0625,-17488.099609375,-400000.0625
201.43699431419373,-400000.0625,-18774.650390625,-15163.7998046875,-400000.0625,-400000.0625,-400000.0625,-17483.900390625,-400000.0625
201.44217991828918,-400000.0625,-18798.5,-15184.599609375,-400000.0625,-400000.0625,-400000.0625,-17505.4609375,-400000.0625
201.44836974143982,-400000.0625,-18821.189453125,-15202.8095703125,-400000.0625,-400000.0625,-400000.0625,-17519.189453125,-400000.0625
201.46412682533264,-400000.0625,-18809.1796875,-15197.9501953125,-400000.0625,-400000.0625,-400000.0625,-17507.98046875,-400000.0625
201.47134470939636,-400000.0625,-18779.470703125,-15181.0703125,-400000.0625,-400000.0625,-400000.0625,-17491.76953125,-400000.0625
201.4792184829712,-400000.0625,-18773.80078125,-15171.669921875,-400000.0625,-400000.0625,-400000.0625,-17486.859375,-400000.0625
201.48797750473022,-400000.0625,-18784.529296875,-15175.73046875,-400000.0625,-400000.0625,-400000.0625,-17495.73046875,-400000.0625
201.49392795562744,-400000.0625,-18798.830078125,-15189.1201171875,-400000.0625,-400000.0625,-400000.0625,-17504.310546875,-400000.0625
201.50017404556274,-400000.0625,-18796.16015625,-15190.080078125,-400000.0625,-400000.0625,-400000.0625,-17494.490234375,-400000.0625
201.50588703155518,-400000.0625,-18796.970703125,-15190.7900390625,-400000.0625,-400000.0625,-400000.0625,-17495.58984375,-400000.0625
201.51252269744873,-400000.0625,-18794.400390625,-15181.400390625,-400000.0625,-400000.0625,-400000.0625,-17498.58984375,-400000.0625
201.51910138130188,-400000.0625,-18787.48046875,-15171.240234375,-400000.0625,-400000.0625,-400000.0625,-17495.779296875,-400000.0625
201.52455353736877,-400000.0625,-18793.919921875,-15179.400390625,-400000.0625,-400000.0625,-400000.0625,-17506.41015625,-400000.0625
201.53160548210144,-400000.0625,-18805.55078125,-15193.650390625,-400000.0625,-400000.0625,-400000.0625,-17515.51953125,-400000.0625
201.53711485862732,-400000.0625,-18806.599609375,-15197.990234375,-400000.0625,-400000.0625,-400000.0625,-17509.990234375,-400000.0625
201.543221950531,-400000.0625,-18794.400390625,-15184.6396484375,-400000.0625,-400000.0625,-400000.0625,-17502.0703125,-400000.0625
201.54980850219727,-400000.0625,-18784.759765625,-15171.669921875,-400000.0625,-400000.0625,-400000.0625,-17496.73046875,-400000.0625
201.56706714630127,-400000.0625,-18791.76953125,-15176.6298828125,-400000.0625,-400000.0625,-400000.0625,-17499.310546875,-400000.0625
201.57245779037476,-400000.0625,-18805.41015625,-15188.3095703125,-400000.0625,-400000.0625,-400000.0625,-17506.55078125,-400000.0625
201.57856726646423,-400000.0625,-18806.359375,-15193.7998046875,-400000.0625,-400000.0625,-400000.0625,-17505.169921875,-400000.0625
201.5846302509308,-400000.0625,-18792.30078125,-15182.740234375,-400000.0625,-400000.0625,-400000.0625,-17497.919921875,-400000.0625
201.59106373786926,-400000.0625,-18776.80078125,-15164.0,-400000.0625,-400000.0625,-400000.0625,-17488.0,-400000.0625
201.5986406803131,-400000.0625,-18778.0390625,-15162.759765625,-400000.0625,-400000.0625,-400000.0625,-17488.619140625,-400000.0625
201.60407829284668,-400000.0625,-18794.630859375,-15179.349609375,-400000.0625,-400000.0625,-400000.0625,-17500.880859375,-400000.0625
201.60955286026,-400000.0625,-18810.80078125,-15194.990234375,-400000.0625,-400000.0625,-400000.0625,-17508.939453125,-400000.0625
201.61532592773438,-400000.0625,-18801.55078125,-15188.740234375,-400000.0625,-400000.0625,-400000.0625,-17501.0703125,-400000.0625
201.6208348274231,-400000.0625,-18785.240234375,-15172.8203125,-400000.0625,-400000.0625,-400000.0625,-17490.33984375,-400000.0625
201.6268949508667,-400000.0625,-18788.390625,-15169.9599609375,-400000.0625,-400000.0625,-400000.0625,-17492.25,-400000.0625
201.63321089744568,-400000.0625,-18800.5,-15180.0703125,-400000.0625,-400000.0625,-400000.0625,-17500.970703125,-400000.0625
201.63921117782593,-400000.0625,-18806.3203125,-15189.509765625,-400000.0625,-400000.0625,-400000.0625,-17506.509765625,-400000.0625
201.6447832584381,-400000.0625,-18808.939453125,-15194.3701171875,-400000.0625,-400000.0625,-400000.0625,-17504.029296875,-400000.0625
201.6511526107788,-400000.0625,-18801.740234375,-15186.650390625,-400000.0625,-400000.0625,-400000.0625,-17496.6796875,-400000.0625
201.66679525375366,-400000.0625,-18792.439453125,-15173.2001953125,-400000.0625,-400000.0625,-400000.0625,-17489.439453125,-400000.0625
201.67203402519226,-400000.0625,-18788.859375,-15167.51953125,-400000.0625,-400000.0625,-400000.0625,-17491.099609375,-400000.0625
201.67829060554504,-400000.0625,-18797.109375,-15175.73046875,-400000.0625,-400000.0625,-400000.0625,-17499.119140625,-400000.0625
201.68426823616028,-400000.0625,-18804.41015625,-15187.1201171875,-400000.0625,-400000.0625,-400000.0625,-17504.029296875,-400000.0625
201.69058847427368,-400000.0625,-18797.640625,-15183.3603515625,-400000.0625,-400000.0625,-400000.0625,-17496.5390625,-400000.0625
201.69642043113708,-400000.0625,-18786.4296875,-15174.009765625,-400000.0625,-400000.0625,-400000.0625,-17492.630859375,-400000.0625
201.70189690589905,-400000.0625,-18778.0390625,-15165.1904296875,-400000.0625,-400000.0625,-400000.0625,-17495.009765625,-400000.0625
201.70759773254395,-400000.0625,-18784.240234375,-15165.5703125,-400000.0625,-400000.0625,-400000.0625,-17497.880859375,-400000.0625
201.71346378326416,-400000.0625,-18793.869140625,-15175.2001953125,-400000.0625,-400000.0625,-400000.0625,-17504.5,-400000.0625
201.7190980911255,-400000.0625,-18802.0703125,-15187.740234375,-400000.0625,-400000.0625,-400000.0625,-17506.599609375,-400000.0625
201.72439622879028,-400000.0625,-18802.259765625,-15188.98046875,-400000.0625,-400000.0625,-400000.0625,-17504.41015625,-400000.0625
201.73045921325684,-400000.0625,-18793.439453125,-15176.9697265625,-400000.0625,-400000.0625,-400000.0625,-17504.83984375,-400000.0625
201.73636102676392,-400000.0625,-18789.76953125,-15170.0498046875,-400000.0625,-400000.0625,-400000.0625,-17505.69921875,-400000.0625
201.74184036254883,-400000.0625,-18801.2109375,-15178.0595703125,-400000.0625,-400000.0625,-400000.0625,-17506.080078125,-400000.0625
201.7478449344635,-400000.0625,-18809.849609375,-15191.1796875,-400000.0625,-400000.0625,-400000.0625,-17506.939453125,-400000.0625
201.75300002098083,-400000.0625,-18806.169921875,-15190.7001953125,-400000.0625,-400000.0625,-400000.0625,-17502.169921875,-400000.0625
201.76972126960754,-400000.0625,-18799.740234375,-15184.5498046875,-400000.0625,-400000.0625,-400000.0625,-17495.919921875,-400000.0625
201.7748818397522,-400000.0625,-18804.26953125,-15178.6298828125,-400000.0625,-400000.0625,-400000.0625,-17495.5390625,-400000.0625
201.78086042404175,-400000.0625,-18814.08984375,-15180.6796875,-400000.0625,-400000.0625,-400000.0625,-17501.58984375,-400000.0625
201.7871437072754,-400000.0625,-18820.33984375,-15193.990234375,-400000.0625,-400000.0625,-400000.0625,-17506.080078125,-400000.0625
201.7925808429718,-400000.0625,-18809.029296875,-15195.3701171875,-400000.0625,-400000.0625,-400000.0625,-17501.400390625,-400000.0625
201.79896354675293,-400000.0625,-18803.310546875,-15192.2197265625,-400000.0625,-400000.0625,-400000.0625,-17490.060546875,-400000.0625
201.8047378063202,-400000.0625,-18804.55078125,-15189.8896484375,-400000.0625,-400000.0625,-400000.0625,-17493.8203125,-400000.0625
201.81096839904785,-400000.0625,-18803.259765625,-15183.400390625,-400000.0625,-400000.0625,-400000.0625,-17498.2109375,-400000.0625
201.8171045780182,-400000.0625,-18814.380859375,-15191.41015625,-400000.0625,-400000.0625,-400000.0625,-17502.98046875,-400000.0625
201.82238483428955,-400000.0625,-18826.73046875,-15205.8095703125,-400000.0625,-400000.0625,-400000.0625,-17510.26953125,-400000.0625
201.82881569862366,-400000.0625,-18822.76953125,-15201.5703125,-400000.0625,-400000.0625,-400000.0625,-17500.0703125,-400000.0625
201.8344690799713,-400000.0625,-18809.130859375,-15185.599609375,-400000.0625,-400000.0625,-400000.0625,-17490.2890625,-400000.0625
201.84041714668274,-400000.0625,-18804.650390625,-15178.400390625,-400000.0625,-400000.0625,-400000.0625,-17492.150390625,-400000.0625
201.84624242782593,-400000.0625,-18816.94921875,-15191.3701171875,-400000.0625,-400000.0625,-400000.0625,-17504.689453125,-400000.0625
201.85209202766418,-400000.0625,-18825.099609375,-15203.6201171875,-400000.0625,-400000.0625,-400000.0625,-17515.94921875,-400000.0625
201.85761427879333,-400000.0625,-18822.48046875,-15201.1904296875,-400000.0625,-400000.0625,-400000.0625,-17508.939453125,-400000.0625
201.87237668037415,-400000.0625,-18812.990234375,-15191.509765625,-400000.0625,-400000.0625,-400000.0625,-17501.2109375,-400000.0625
201.87871313095093,-400000.0625,-18805.080078125,-15179.25,-400000.0625,-400000.0625,-400000.0625,-17491.91015625,-400000.0625
201.8848533630371,-400000.0625,-18806.359375,-15178.009765625,-400000.0625,-400000.0625,-400000.0625,-17495.970703125,-400000.0625
201.89013481140137,-400000.0625,-18825.869140625,-15197.419921875,-400000.0625,-400000.0625,-400000.0625,-17514.0390625,-400000.0625
201.8958191871643,-400000.0625,-18831.6796875,-15209.580078125,-400000.0625,-400000.0625,-400000.0625,-17519.240234375,-400000.0625
201.90099668502808,-400000.0625,-18814.849609375,-15195.1796875,-400000.0625,-400000.0625,-400000.0625,-17505.080078125,-400000.0625
201.90597224235535,-400000.0625,-18801.5,-15177.8701171875,-400000.0625,-400000.0625,-400000.0625,-17492.630859375,-400000.0625
201.90598034858704,-400000.0625,-18803.359375,-15175.76953125,-400000.0625,-400000.0625,-400000.0625,-17493.30078125,-400000.0625
201.90598559379578,-400000.0625,-18813.7109375,-15186.0302734375,-400000.0625,-400000.0625,-400000.0625,-17501.9296875,-400000.0625
201.90599060058594,-400000.0625,-18825.19921875,-15200.51953125,-400000.0625,-400000.0625,-400000.0625,-17515.94921875,-400000.0625
201.90599513053894,-400000.0625,-18830.6796875,-15206.2001953125,-400000.0625,-400000.0625,-400000.0625,-17510.130859375,-400000.0625
201.90599942207336,-400000.0625,-18816.140625,-15193.3701171875,-400000.0625,-400000.0625,-400000.0625,-17497.109375,-400000.0625
201.9060034751892,-400000.0625,-18805.599609375,-15179.830078125,-400000.0625,-400000.0625,-400000.0625,-17495.5390625,-400000.0625
201.91130805015564,-400000.0625,-18805.98046875,-15177.6796875,-400000.0625,-400000.0625,-400000.0625,-17501.640625,-400000.0625
201.91686010360718,-400000.0625,-18812.130859375,-15183.400390625,-400000.0625,-400000.0625,-400000.0625,-17499.740234375,-400000.0625
201.9223666191101,-400000.0625,-18826.109375,-15200.5703125,-400000.0625,-400000.0625,-400000.0625,-17510.029296875,-400000.0625
201.92763781547546,-400000.0625,-18821.669921875,-15200.8095703125,-400000.0625,-400000.0625,-400000.0625,-17504.029296875,-400000.0625
201.93281769752502,-400000.0625,-18813.330078125,-15191.9404296875,-400000.0625,-400000.0625,-400000.0625,-17497.970703125,-400000.0625
201.93794345855713,-400000.0625,-18812.990234375,-15188.7900390625,-400000.0625,-400000.0625,-400000.0625,-17503.220703125,-400000.0625
201.94377756118774,-400000.0625,-18819.94921875,-15193.75,-400000.0625,-400000.0625,-400000.0625,-17508.1796875,-400000.0625
201.94940638542175,-400000.0625,-18834.400390625,-15207.7197265625,-400000.0625,-400000.0625,-400000.0625,-17515.380859375,-400000.0625
201.95481133460999,-400000.0625,-18828.970703125,-15204.7197265625,-400000.0625,-400000.0625,-400000.0625,-17514.609375,-400000.0625
201.9600532054901,-400000.0625,-18806.69921875,-15183.740234375,-400000.0625,-400000.0625,-400000.0625,-17492.73046875,-400000.0625
201.9745273590088,-400000.0625,-18798.0703125,-15171.7197265625,-400000.0625,-400000.0625,-400000.0625,-17484.5703125,-400000.0625
201.97989535331726,-400000.0625,-18810.369140625,-15182.6904296875,-400000.0625,-400000.0625,-400000.0625,-17498.349609375,-400000.0625
201.98511171340942,-400000.0625,-18824.2890625,-15193.5595703125,-400000.0625,-400000.0625,-400000.0625,-17506.41015625,-400000.0625
201.99037885665894,-400000.0625,-18827.150390625,-15198.7998046875,-400000.0625,-400000.0625,-400000.0625,-17502.169921875,-400000.0625
201.99569439888,-400000.0625,-18823.630859375,-15200.7099609375,-400000.0625,-400000.0625,-400000.0625,-17503.599609375,-400000.0625
202.00113892555237,-400000.0625,-18811.80078125,-15187.740234375,-400000.0625,-400000.0625,-400000.0625,-17497.16015625,-400000.0625
202.0066578388214,-400000.0625,-18814.380859375,-15183.6396484375,-400000.0625,-400000.0625,-400000.0625,-17496.919921875,-400000.0625
202.01200938224792,-400000.0625,-18822.05078125,-15191.41015625,-400000.0625,-400000.0625,-400000.0625,-17508.080078125,-400000.0625
202.01725387573242,-400000.0625,-18832.400390625,-15203.0,-400000.0625,-400000.0625,-400000.0625,-17512.560546875,-400000.0625
202.02258348464966,-400000.0625,-18833.9296875,-15208.25,-400000.0625,-400000.0625,-400000.0625,-17508.26953125,-400000.0625
202.02837014198303,-400000.0625,-18822.150390625,-15193.849609375,-400000.0625,-400000.0625,-400000.0625,-17499.779296875,-400000.0625
202.03407335281372,-400000.0625,-18813.419921875,-15184.1201171875,-400000.0625,-400000.0625,-400000.0625,-17490.869140625,-400000.0625
202.0394446849823,-400000.0625,-18818.619140625,-15187.0302734375,-400000.0625,-400000.0625,-400000.0625,-17496.640625,-400000.0625
202.04478216171265,-400000.0625,-18830.109375,-15199.419921875,-400000.0625,-400000.0625,-400000.0625,-17512.419921875,-400000.0625
202.05003881454468,-400000.0625,-18829.919921875,-15205.9599609375,-400000.0625,-400000.0625,-400000.0625,-17508.7890625,-400000.0625
202.05550003051758,-400000.0625,-18824.630859375,-15204.4296875,-400000.0625,-400000.0625,-400000.0625,-17499.779296875,-400000.0625
202.06107187271118,-400000.0625,-18814.51953125,-15191.509765625,-400000.0625,-400000.0625,-400000.0625,-17496.779296875,-400000.0625
202.0752739906311,-400000.0625,-18814.140625,-15187.9296875,-400000.0625,-400000.0625,-400000.0625,-17502.55078125,-400000.0625
202.0807650089264,-400000.0625,-18823.580078125,-15197.23046875,-400000.0625,-400000.0625,-400000.0625,-17508.75,-400000.0625
202.0861735343933,-400000.0625,-18835.359375,-15213.4404296875,-400000.0625,-400000.0625,-400000.0625,-17519.189453125,-400000.0625
202.0914478302002,-400000.0625,-18833.0703125,-15212.8701171875,-400000.0625,-400000.0625,-400000.0625,-17516.419921875,-400000.0625
202.09702134132385,-400000.0625,-18818.91015625,-15200.240234375,-400000.0625,-400000.0625,-400000.0625,-17508.1796875,-400000.0625
202.10269784927368,-400000.0625,-18805.740234375,-15184.599609375,-400000.0625,-400000.0625,-400000.0625,-17499.5390625,-400000.0625
202.10789251327515,-400000.0625,-18812.51953125,-15188.7900390625,-400000.0625,-400000.0625,-400000.0625,-17504.650390625,-400000.0625
202.11315631866455,-400000.0625,-18827.490234375,-15202.3798828125,-400000.0625,-400000.0625,-400000.0625,-17516.330078125,-400000.0625
202.11870050430298,-400000.0625,-18832.919921875,-15209.8701171875,-400000.0625,-400000.0625,-400000.0625,-17517.5703125,-400000.0625
202.12386989593506,-400000.0625,-18820.5703125,-15199.419921875,-400000.0625,-400000.0625,-400000.0625,-17505.9296875,-400000.0625
202.1291139125824,-400000.0625,-18802.880859375,-15179.919921875,-400000.0625,-400000.0625,-400000.0625,-17489.33984375,-400000.0625
202.1347620487213,-400000.0625,-18798.16015625,-15173.3896484375,-400000.0625,-400000.0625,-400000.0625,-17486.4296875,-400000.0625
202.1405735015869,-400000.0625,-18819.669921875,-15191.990234375,-400000.0625,-400000.0625,-400000.0625,-17507.939453125,-400000.0625
202.14619874954224,-400000.0625,-18845.130859375,-15217.58984375,-400000.0625,-400000.0625,-400000.0625,-17527.919921875,-400000.0625
202.15169596672058,-400000.0625,-18842.26953125,-15220.169921875,-400000.0625,-400000.0625,-400000.0625,-17520.240234375,-400000.0625
202.15699768066406,-400000.0625,-18827.630859375,-15205.3896484375,-400000.0625,-400000.0625,-400000.0625,-17509.990234375,-400000.0625
202.16269254684448,-400000.0625,-18816.759765625,-15193.080078125,-400000.0625,-400000.0625,-400000.0625,-17505.9296875,-400000.0625
202.17722916603088,-400000.0625,-18818.94921875,-15193.5595703125,-400000.0625,-400000.0625,-400000.0625,-17511.23046875,-400000.0625
202.18284606933594,-400000.0625,-18831.970703125,-15208.9599609375,-400000.0625,-400000.0625,-400000.0625,-17522.48046875,-400000.0625
202.18831300735474,-400000.0625,-18837.220703125,-15219.169921875,-400000.0625,-400000.0625,-400000.0625,-17523.099609375,-400000.0625
202.1937108039856,-400000.0625,-18825.33984375,-15208.099609375,-400000.0625,-400000.0625,-400000.0625,-17509.650390625,-400000.0625
202.1993327140808,-400000.0625,-18812.75,-15191.080078125,-400000.0625,-400000.0625,-400000.0625,-17497.400390625,-400000.0625
202.2046570777893,-400000.0625,-18809.650390625,-15183.58984375,-400000.0625,-400000.0625,-400000.0625,-17500.44921875,-400000.0625
202.20986080169678,-400000.0625,-18823.9609375,-15194.849609375,-400000.0625,-400000.0625,-400000.0625,-17508.83984375,-400000.0625
202.21543431282043,-400000.0625,-18834.0703125,-15206.669921875,-400000.0625,-400000.0625,-400000.0625,-17514.990234375,-400000.0625
202.22064924240112,-400000.0625,-18828.439453125,-15205.669921875,-400000.0625,-400000.0625,-400000.0625,-17505.599609375,-400000.0625
202.22578859329224,-400000.0625,-18818.0,-15196.2802734375,-400000.0625,-400000.0625,-400000.0625,-17495.490234375,-400000.0625
202.23115134239197,-400000.0625,-18820.33984375,-15193.650390625,-400000.0625,-400000.0625,-400000.0625,-17501.2109375,-400000.0625
202.23662686347961,-400000.0625,-18821.05078125,-15198.759765625,-400000.0625,-400000.0625,-400000.0625,-17508.220703125,-400000.0625
202.24170541763306,-400000.0625,-18838.310546875,-15221.2197265625,-400000.0625,-400000.0625,-400000.0625,-17525.33984375,-400000.0625
202.2468457221985,-400000.0625,-18849.470703125,-15228.3701171875,-400000.0625,-400000.0625,-400000.0625,-17523.48046875,-400000.0625
202.25190114974976,-400000.0625,-18831.349609375,-15213.73046875,-400000.0625,-400000.0625,-400000.0625,-17507.220703125,-400000.0625
202.25705981254578,-400000.0625,-18810.849609375,-15193.990234375,-400000.0625,-400000.0625,-400000.0625,-17492.009765625,-400000.0625
202.26255583763123,-400000.0625,-18807.130859375,-15187.98046875,-400000.0625,-400000.0625,-400000.0625,-17489.48046875,-400000.0625
202.2681918144226,-400000.0625,-18818.94921875,-15198.9501953125,-400000.0625,-400000.0625,-400000.0625,-17500.349609375,-400000.0625
202.28265738487244,-400000.0625,-18831.400390625,-15212.2998046875,-400000.0625,-400000.0625,-400000.0625,-17512.3203125,-400000.0625
202.28800511360168,-400000.0625,-18825.6796875,-15212.25,-400000.0625,-400000.0625,-400000.0625,-17503.7890625,-400000.0625
202.2940216064453,-400000.0625,-18807.990234375,-15198.330078125,-400000.0625,-400000.0625,-400000.0625,-17491.6796875,-400000.0625
202.29947137832642,-400000.0625,-18799.970703125,-15186.8798828125,-400000.0625,-400000.0625,-400000.0625,-17487.150390625,-400000.0625
202.30479884147644,-400000.0625,-18807.69921875,-15193.1796875,-400000.0625,-400000.0625,-400000.0625,-17497.830078125,-400000.0625
202.31010484695435,-400000.0625,-18820.05078125,-15207.009765625,-400000.0625,-400000.0625,-400000.0625,-17507.509765625,-400000.0625
202.31566786766052,-400000.0625,-18826.919921875,-15216.6396484375,-400000.0625,-400000.0625,-400000.0625,-17508.7890625,-400000.0625
202.32119250297546,-400000.0625,-18814.759765625,-15207.9599609375,-400000.0625,-400000.0625,-400000.0625,-17501.55078125,-400000.0625
202.32652473449707,-400000.0625,-18799.119140625,-15188.98046875,-400000.0625,-400000.0625,-400000.0625,-17489.2890625,-400000.0625
202.3321602344513,-400000.0625,-18801.359375,-15183.9296875,-400000.0625,-400000.0625,-400000.0625,-17490.19921875,-400000.0625
202.33755016326904,-400000.0625,-18814.900390625,-15196.66015625,-400000.0625,-400000.0625,-400000.0625,-17505.740234375,-400000.0625
202.34283542633057,-400000.0625,-18828.970703125,-15217.2099609375,-400000.0625,-400000.0625,-400000.0625,-17515.23046875,-400000.0625
202.34847736358643,-400000.0625,-18827.5390625,-15216.01953125,-400000.0625,-400000.0625,-400000.0625,-17503.880859375,-400000.0625
202.35373091697693,-400000.0625,-18807.509765625,-15197.08984375,-400000.0625,-400000.0625,-400000.0625,-17491.91015625,-400000.0625
202.35878729820251,-400000.0625,-18797.830078125,-15183.5,-400000.0625,-400000.0625,-400000.0625,-17487.05078125,-400000.0625
202.3640809059143,-400000.0625,-18808.220703125,-15191.1796875,-400000.0625,-400000.0625,-400000.0625,-17494.060546875,-400000.0625
202.36992502212524,-400000.0625,-18816.7109375,-15202.48046875,-400000.0625,-400000.0625,-400000.0625,-17507.83984375,-400000.0625
202.38488483428955,-400000.0625,-18820.0,-15205.0,-400000.0625,-400000.0625,-400000.0625,-17507.599609375,-400000.0625
202.39014077186584,-400000.0625,-18805.83984375,-15191.1298828125,-400000.0625,-400000.0625,-400000.0625,-17488.9609375,-400000.0625
202.3957760334015,-400000.0625,-18790.8203125,-15173.0595703125,-400000.0625,-400000.0625,-400000.0625,-17475.4609375,-400000.0625
202.4012496471405,-400000.0625,-18797.349609375,-15177.58984375,-400000.0625,-400000.0625,-400000.0625,-17484.859375,-400000.0625
202.40657925605774,-400000.0625,-18815.23046875,-15195.75,-400000.0625,-400000.0625,-400000.0625,-17501.880859375,-400000.0625
202.41198420524597,-400000.0625,-18824.390625,-15206.9599609375,-400000.0625,-400000.0625,-400000.0625,-17502.119140625,-400000.0625
202.41743421554565,-400000.0625,-18826.76953125,-15210.150390625,-400000.0625,-400000.0625,-400000.0625,-17495.400390625,-400000.0625
202.42277145385742,-400000.0625,-18814.0390625,-15195.66015625,-400000.0625,-400000.0625,-400000.0625,-17487.150390625,-400000.0625
202.4282717704773,-400000.0625,-18804.4609375,-15183.2099609375,-400000.0625,-400000.0625,-400000.0625,-17483.470703125,-400000.0625
202.43368649482727,-400000.0625,-18809.849609375,-15189.98046875,-400000.0625,-400000.0625,-400000.0625,-17487.810546875,-400000.0625
202.43919444084167,-400000.0625,-18824.060546875,-15206.3896484375,-400000.0625,-400000.0625,-400000.0625,-17494.919921875,-400000.0625
202.44461750984192,-400000.0625,-18824.48046875,-15208.2001953125,-400000.0625,-400000.0625,-400000.0625,-17490.869140625,-400000.0625
202.44999647140503,-400000.0625,-18813.94921875,-15199.1904296875,-400000.0625,-400000.0625,-400000.0625,-17483.94921875,-400000.0625
202.45517110824585,-400000.0625,-18800.169921875,-15183.740234375,-400000.0625,-400000.0625,-400000.0625,-17477.369140625,-400000.0625
202.4603521823883,-400000.0625,-18808.69921875,-15188.4599609375,-400000.0625,-400000.0625,-400000.0625,-17483.669921875,-400000.0625
202.46585059165955,-400000.0625,-18824.19921875,-15206.76953125,-400000.0625,-400000.0625,-400000.0625,-17492.490234375,-400000.0625
202.47244596481323,-400000.0625,-18829.400390625,-15214.6796875,-400000.0625,-400000.0625,-400000.0625,-17496.970703125,-400000.0625
202.49063920974731,-400000.0625,-18817.94921875,-15203.6201171875,-400000.0625,-400000.0625,-400000.0625,-17486.2890625,-400000.0625
202.4977502822876,-400000.0625,-18802.9296875,-15186.8798828125,-400000.0625,-400000.0625,-400000.0625,-17472.939453125,-400000.0625
202.50329542160034,-400000.0625,-18792.25,-15173.5302734375,-400000.0625,-400000.0625,-400000.0625,-17471.509765625,-400000.0625
202.50871634483337,-400000.0625,-18806.130859375,-15184.98046875,-400000.0625,-400000.0625,-400000.0625,-17479.849609375,-400000.0625
202.5145227909088,-400000.0625,-18824.9609375,-15203.8603515625,-400000.0625,-400000.0625,-400000.0625,-17495.2109375,-400000.0625
202.51983499526978,-400000.0625,-18828.16015625,-15209.76953125,-400000.0625,-400000.0625,-400000.0625,-17498.689453125,-400000.0625
202.5253005027771,-400000.0625,-18820.720703125,-15203.240234375,-400000.0625,-400000.0625,-400000.0625,-17489.9609375,-400000.0625
202.53085255622864,-400000.0625,-18809.369140625,-15189.3603515625,-400000.0625,-400000.0625,-400000.0625,-17485.330078125,-400000.0625
202.53612065315247,-400000.0625,-18803.169921875,-15180.7802734375,-400000.0625,-400000.0625,-400000.0625,-17485.140625,-400000.0625
202.54133343696594,-400000.0625,-18810.69921875,-15191.2197265625,-400000.0625,-400000.0625,-400000.0625,-17485.94921875,-400000.0625
202.54675030708313,-400000.0625,-18821.05078125,-15202.6201171875,-400000.0625,-400000.0625,-400000.0625,-17492.869140625,-400000.0625
202.55226159095764,-400000.0625,-18827.009765625,-15207.7197265625,-400000.0625,-400000.0625,-400000.0625,-17491.30078125,-400000.0625
202.55754709243774,-400000.0625,-18813.470703125,-15194.9404296875,-400000.0625,-400000.0625,-400000.0625,-17482.759765625,-400000.0625
202.56340503692627,-400000.0625,-18805.080078125,-15181.7802734375,-400000.0625,-400000.0625,-400000.0625,-17479.470703125,-400000.0625
202.56868410110474,-400000.0625,-18815.23046875,-15187.3095703125,-400000.0625,-400000.0625,-400000.0625,-17488.099609375,-400000.0625
202.57386541366577,-400000.0625,-18826.8203125,-15200.240234375,-400000.0625,-400000.0625,-400000.0625,-17496.2109375,-400000.0625
202.58886194229126,-400000.0625,-18819.759765625,-15198.7998046875,-400000.0625,-400000.0625,-400000.0625,-17489.580078125,-400000.0625
202.59421515464783,-400000.0625,-18807.599609375,-15184.259765625,-400000.0625,-400000.0625,-400000.0625,-17479.900390625,-400000.0625
202.59982132911682,-400000.0625,-18796.830078125,-15169.6201171875,-400000.0625,-400000.0625,-400000.0625,-17476.66015625,-400000.0625
202.60520792007446,-400000.0625,-18799.16015625,-15170.6201171875,-400000.0625,-400000.0625,-400000.0625,-17484.2890625,-400000.0625
202.61060976982117,-400000.0625,-18812.80078125,-15189.509765625,-400000.0625,-400000.0625,-400000.0625,-17499.9296875,-400000.0625
202.61614871025085,-400000.0625,-18819.0,-15200.66015625,-400000.0625,-400000.0625,-400000.0625,-17498.919921875,-400000.0625
202.62144327163696,-400000.0625,-18820.240234375,-15201.48046875,-400000.0625,-400000.0625,-400000.0625,-17490.91015625,-400000.0625
202.62652206420898,-400000.0625,-18813.419921875,-15194.75,-400000.0625,-400000.0625,-400000.0625,-17487.0,-400000.0625
202.63203024864197,-400000.0625,-18807.1796875,-15185.5,-400000.0625,-400000.0625,-400000.0625,-17488.05078125,-400000.0625
202.6372389793396,-400000.0625,-18812.66015625,-15188.509765625,-400000.0625,-400000.0625,-400000.0625,-17491.630859375,-400000.0625
202.64226531982422,-400000.0625,-18822.150390625,-15200.9501953125,-400000.0625,-400000.0625,-400000.0625,-17497.5390625,-400000.0625
202.64757585525513,-400000.0625,-18820.759765625,-15202.08984375,-400000.0625,-400000.0625,-400000.0625,-17496.349609375,-400000.0625
202.65304708480835,-400000.0625,-18810.990234375,-15189.26953125,-400000.0625,-400000.0625,-400000.0625,-17485.759765625,-400000.0625
202.65813755989075,-400000.0625,-18796.16015625,-15174.25,-400000.0625,-400000.0625,-400000.0625,-17472.939453125,-400000.0625
202.66334652900696,-400000.0625,-18795.490234375,-15173.48046875,-400000.0625,-400000.0625,-400000.0625,-17474.80078125,-400000.0625
202.66881942749023,-400000.0625,-18817.189453125,-15195.1796875,-400000.0625,-400000.0625,-400000.0625,-17493.76953125,-400000.0625
202.67394757270813,-400000.0625,-18827.390625,-15209.3896484375,-400000.0625,-400000.0625,-400000.0625,-17498.830078125,-400000.0625
202.68845963478088,-400000.0625,-18817.330078125,-15197.7998046875,-400000.0625,-400000.0625,-400000.0625,-17484.05078125,-400000.0625
202.69416689872742,-400000.0625,-18807.939453125,-15186.650390625,-400000.0625,-400000.0625,-400000.0625,-17479.330078125,-400000.0625
202.69952034950256,-400000.0625,-18803.9296875,-15180.7802734375,-400000.0625,-400000.0625,-400000.0625,-17483.859375,-400000.0625
202.70477867126465,-400000.0625,-18816.279296875,-15189.7001953125,-400000.0625,-400000.0625,-400000.0625,-17491.390625,-400000.0625
202.71017217636108,-400000.0625,-18824.669921875,-15198.66015625,-400000.0625,-400000.0625,-400000.0625,-17499.740234375,-400000.0625
202.71585297584534,-400000.0625,-18816.279296875,-15192.3701171875,-400000.0625,-400000.0625,-400000.0625,-17494.30078125,-400000.0625
202.72128462791443,-400000.0625,-18799.830078125,-15177.58984375,-400000.0625,-400000.0625,-400000.0625,-17478.990234375,-400000.0625
202.72653913497925,-400000.0625,-18796.6796875,-15171.8203125,-400000.0625,-400000.0625,-400000.0625,-17478.75,-400000.0625
202.73220562934875,-400000.0625,-18810.560546875,-15182.5400390625,-400000.0625,-400000.0625,-400000.0625,-17491.720703125,-400000.0625
202.7376685142517,-400000.0625,-18822.529296875,-15196.990234375,-400000.0625,-400000.0625,-400000.0625,-17500.349609375,-400000.0625
202.7430295944214,-400000.0625,-18825.720703125,-15205.099609375,-400000.0625,-400000.0625,-400000.0625,-17499.880859375,-400000.0625
202.74862575531006,-400000.0625,-18821.9609375,-15201.6201171875,-400000.0625,-400000.0625,-400000.0625,-17491.8203125,-400000.0625
202.7539050579071,-400000.0625,-18806.650390625,-15183.01953125,-400000.0625,-400000.0625,-400000.0625,-17485.859375,-400000.0625
202.75901985168457,-400000.0625,-18801.01953125,-15174.919921875,-400000.0625,-400000.0625,-400000.0625,-17486.5703125,-400000.0625
202.7644853591919,-400000.0625,-18816.0390625,-15186.98046875,-400000.0625,-400000.0625,-400000.0625,-17494.919921875,-400000.0625
202.76999187469482,-400000.0625,-18820.810546875,-15192.3203125,-400000.0625,-400000.0625,-400000.0625,-17498.2109375,-400000.0625
202.77508211135864,-400000.0625,-18808.990234375,-15183.830078125,-400000.0625,-400000.0625,-400000.0625,-17488.529296875,-400000.0625
202.78971648216248,-400000.0625,-18801.259765625,-15176.919921875,-400000.0625,-400000.0625,-400000.0625,-17479.51953125,-400000.0625
202.7948784828186,-400000.0625,-18806.080078125,-15179.9697265625,-400000.0625,-400000.0625,-400000.0625,-17487.380859375,-400000.0625
202.80014371871948,-400000.0625,-18818.48046875,-15190.1298828125,-400000.0625,-400000.0625,-400000.0625,-17502.359375,-400000.0625
202.80518531799316,-400000.0625,-18829.349609375,-15198.66015625,-400000.0625,-400000.0625,-400000.0625,-17505.69921875,-400000.0625
202.81030344963074,-400000.0625,-18829.490234375,-15201.8603515625,-400000.0625,-400000.0625,-400000.0625,-17500.970703125,-400000.0625
202.8160960674286,-400000.0625,-18818.5703125,-15196.51953125,-400000.0625,-400000.0625,-400000.0625,-17492.9609375,-400000.0625
202.821692943573,-400000.0625,-18807.990234375,-15183.740234375,-400000.0625,-400000.0625,-400000.0625,-17484.140625,-400000.0625
202.82694339752197,-400000.0625,-18806.029296875,-15179.8701171875,-400000.0625,-400000.0625,-400000.0625,-17488.099609375,-400000.0625
202.83209681510925,-400000.0625,-18813.759765625,-15187.3603515625,-400000.0625,-400000.0625,-400000.0625,-17494.490234375,-400000.0625
202.8371684551239,-400000.0625,-18821.76953125,-15196.900390625,-400000.0625,-400000.0625,-400000.0625,-17495.349609375,-400000.0625
202.8427517414093,-400000.0625,-18822.0,-15195.3203125,-400000.0625,-400000.0625,-400000.0625,-17490.630859375,-400000.0625
202.8481891155243,-400000.0625,-18806.080078125,-15179.6796875,-400000.0625,-400000.0625,-400000.0625,-17478.66015625,-400000.0625
202.85333156585693,-400000.0625,-18809.26953125,-15182.0703125,-400000.0625,-400000.0625,-400000.0625,-17483.140625,-400000.0625
202.8584771156311,-400000.0625,-18819.669921875,-15190.2197265625,-400000.0625,-400000.0625,-400000.0625,-17491.8203125,-400000.0625
202.86382579803467,-400000.0625,-18829.25,-15201.3798828125,-400000.0625,-400000.0625,-400000.0625,-17496.58984375,-400000.0625
202.86905789375305,-400000.0625,-18825.91015625,-15197.759765625,-400000.0625,-400000.0625,-400000.0625,-17490.720703125,-400000.0625
202.87420511245728,-400000.0625,-18818.51953125,-15194.5595703125,-400000.0625,-400000.0625,-400000.0625,-17488.390625,-400000.0625
202.87948751449585,-400000.0625,-18812.7109375,-15186.83984375,-400000.0625,-400000.0625,-400000.0625,-17484.240234375,-400000.0625
202.8937509059906,-400000.0625,-18809.80078125,-15177.25,-400000.0625,-400000.0625,-400000.0625,-17485.94921875,-400000.0625
202.89935851097107,-400000.0625,-18817.240234375,-15184.5,-400000.0625,-400000.0625,-400000.0625,-17492.390625,-400000.0625
202.90498280525208,-400000.0625,-18824.48046875,-15194.75,-400000.0625,-400000.0625,-400000.0625,-17498.44921875,-400000.0625
202.91026949882507,-400000.0625,-18826.8203125,-15198.4697265625,-400000.0625,-400000.0625,-400000.0625,-17497.880859375,-400000.0625
202.91542840003967,-400000.0625,-18812.939453125,-15185.6396484375,-400000.0625,-400000.0625,-400000.0625,-17487.189453125,-400000.0625
202.92052388191223,-400000.0625,-18802.359375,-15174.2998046875,-400000.0625,-400000.0625,-400000.0625,-17481.66015625,-400000.0625
202.9260618686676,-400000.0625,-18809.369140625,-15178.8701171875,-400000.0625,-400000.0625,-400000.0625,-17488.529296875,-400000.0625
202.9317581653595,-400000.0625,-18824.76953125,-15194.5595703125,-400000.0625,-400000.0625,-400000.0625,-17506.26953125,-400000.0625
202.93734788894653,-400000.0625,-18827.970703125,-15202.1396484375,-400000.0625,-400000.0625,-400000.0625,-17504.029296875,-400000.0625
202.9427444934845,-400000.0625,-18812.23046875,-15185.9296875,-400000.0625,-400000.0625,-400000.0625,-17488.529296875,-400000.0625
202.94804906845093,-400000.0625,-18800.58984375,-15173.3896484375,-400000.0625,-400000.0625,-400000.0625,-17481.849609375,-400000.0625
202.9532825946808,-400000.0625,-18803.119140625,-15174.5302734375,-400000.0625,-400000.0625,-400000.0625,-17488.19921875,-400000.0625
202.95920515060425,-400000.0625,-18816.619140625,-15187.599609375,-400000.0625,-400000.0625,-400000.0625,-17501.0703125,-400000.0625
202.96469855308533,-400000.0625,-18829.349609375,-15201.4296875,-400000.0625,-400000.0625,-400000.0625,-17505.740234375,-400000.0625
202.96993446350098,-400000.0625,-18828.6796875,-15200.08984375,-400000.0625,-400000.0625,-400000.0625,-17503.310546875,-400000.0625
202.97497582435608,-400000.0625,-18813.369140625,-15184.4501953125,-400000.0625,-400000.0625,-400000.0625,-17490.33984375,-400000.0625
202.98040008544922,-400000.0625,-18804.83984375,-15174.6796875,-400000.0625,-400000.0625,-400000.0625,-17484.48046875,-400000.0625
202.99474167823792,-400000.0625,-18819.859375,-15182.9296875,-400000.0625,-400000.0625,-400000.0625,-17498.5390625,-400000.0625
202.9999225139618,-400000.0625,-18825.009765625,-15189.1201171875,-400000.0625,-400000.0625,-400000.0625,-17505.029296875,-400000.0625
203.0050675868988,-400000.0625,-18823.580078125,-15190.9404296875,-400000.0625,-400000.0625,-400000.0625,-17503.83984375,-400000.0625
203.01013612747192,-400000.0625,-18818.91015625,-15191.0302734375,-400000.0625,-400000.0625,-400000.0625,-17500.2109375,-400000.0625
203.01554608345032,-400000.0625,-18810.3203125,-15180.2099609375,-400000.0625,-400000.0625,-400000.0625,-17491.529296875,-400000.0625
203.021098613739,-400000.0625,-18810.3203125,-15177.6298828125,-400000.0625,-400000.0625,-400000.0625,-17495.869140625,-400000.0625
203.0265290737152,-400000.0625,-18823.439453125,-15187.9296875,-400000.0625,-400000.0625,-400000.0625,-17507.98046875,-400000.0625
203.03171300888062,-400000.0625,-18827.919921875,-15195.7998046875,-400000.0625,-400000.0625,-400000.0625,-17501.740234375,-400000.0625
203.03706550598145,-400000.0625,-18823.099609375,-15191.990234375,-400000.0625,-400000.0625,-400000.0625,-17493.109375,-400000.0625
203.04239869117737,-400000.0625,-18809.609375,-15179.490234375,-400000.0625,-400000.0625,-400000.0625,-17487.76953125,-400000.0625
203.04806470870972,-400000.0625,-18807.990234375,-15176.25,-400000.0625,-400000.0625,-400000.0625,-17488.619140625,-400000.0625
203.05335211753845,-400000.0625,-18818.7109375,-15186.4501953125,-400000.0625,-400000.0625,-400000.0625,-17496.2109375,-400000.0625
203.05868411064148,-400000.0625,-18830.779296875,-15197.7099609375,-400000.0625,-400000.0625,-400000.0625,-17510.890625,-400000.0625
203.0642831325531,-400000.0625,-18830.58984375,-15201.330078125,-400000.0625,-400000.0625,-400000.0625,-17507.69921875,-400000.0625
203.0695652961731,-400000.0625,-18816.470703125,-15189.98046875,-400000.0625,-400000.0625,-400000.0625,-17495.009765625,-400000.0625
203.07478976249695,-400000.0625,-18808.130859375,-15176.8203125,-400000.0625,-400000.0625,-400000.0625,-17489.76953125,-400000.0625
203.08026814460754,-400000.0625,-18811.130859375,-15175.76953125,-400000.0625,-400000.0625,-400000.0625,-17494.490234375,-400000.0625
203.08588337898254,-400000.0625,-18823.009765625,-15188.8896484375,-400000.0625,-400000.0625,-400000.0625,-17508.080078125,-400000.0625
203.1002480983734,-400000.0625,-18838.220703125,-15206.669921875,-400000.0625,-400000.0625,-400000.0625,-17520.0,-400000.0625
203.10540437698364,-400000.0625,-18832.779296875,-15202.5703125,-400000.0625,-400000.0625,-400000.0625,-17509.41015625,-400000.0625
203.11048793792725,-400000.0625,-18818.48046875,-15186.599609375,-400000.0625,-400000.0625,-400000.0625,-17495.919921875,-400000.0625
203.11593079566956,-400000.0625,-18810.69921875,-15178.5400390625,-400000.0625,-400000.0625,-400000.0625,-17495.970703125,-400000.0625
203.12116265296936,-400000.0625,-18817.05078125,-15183.740234375,-400000.0625,-400000.0625,-400000.0625,-17500.740234375,-400000.0625
203.12644934654236,-400000.0625,-18816.849609375,-15186.1201171875,-400000.0625,-400000.0625,-400000.0625,-17495.349609375,-400000.0625
203.1320765018463,-400000.0625,-18827.630859375,-15198.759765625,-400000.0625,-400000.0625,-400000.0625,-17501.44921875,-400000.0625
203.13724970817566,-400000.0625,-18821.810546875,-15195.7998046875,-400000.0625,-400000.0625,-400000.0625,-17497.349609375,-400000.0625
203.14237022399902,-400000.0625,-18814.609375,-15184.98046875,-400000.0625,-400000.0625,-400000.0625,-17495.109375,-400000.0625
203.1483507156372,-400000.0625,-18821.529296875,-15189.509765625,-400000.0625,-400000.0625,-400000.0625,-17507.75,-400000.0625
203.15367484092712,-400000.0625,-18834.9296875,-15201.8603515625,-400000.0625,-400000.0625,-400000.0625,-17516.0,-400000.0625
203.15917491912842,-400000.0625,-18834.830078125,-15205.8095703125,-400000.0625,-400000.0625,-400000.0625,-17515.380859375,-400000.0625
203.16477298736572,-400000.0625,-18829.19921875,-15202.1396484375,-400000.0625,-400000.0625,-400000.0625,-17504.4609375,-400000.0625
203.17005848884583,-400000.0625,-18817.470703125,-15188.169921875,-400000.0625,-400000.0625,-400000.0625,-17495.490234375,-400000.0625
203.17517113685608,-400000.0625,-18809.369140625,-15176.2998046875,-400000.0625,-400000.0625,-400000.0625,-17491.720703125,-400000.0625
203.18047738075256,-400000.0625,-18823.009765625,-15185.599609375,-400000.0625,-400000.0625,-400000.0625,-17500.689453125,-400000.0625
203.18598985671997,-400000.0625,-18832.970703125,-15199.0400390625,-400000.0625,-400000.0625,-400000.0625,-17509.509765625,-400000.0625
203.19996905326843,-400000.0625,-18829.6796875,-15201.759765625,-400000.0625,-400000.0625,-400000.0625,-17504.0703125,-400000.0625
203.20500922203064,-400000.0625,-18815.330078125,-15191.0302734375,-400000.0625,-400000.0625,-400000.0625,-17491.6796875,-400000.0625
203.2101616859436,-400000.0625,-18806.169921875,-15177.919921875,-400000.0625,-400000.0625,-400000.0625,-17485.859375,-400000.0625
203.2155737876892,-400000.0625,-18818.380859375,-15186.4501953125,-400000.0625,-400000.0625,-400000.0625,-17497.880859375,-400000.0625
203.22092700004578,-400000.0625,-18827.970703125,-15196.66015625,-400000.0625,-400000.0625,-400000.0625,-17502.98046875,-400000.0625
203.22606921195984,-400000.0625,-18823.669921875,-15197.6103515625,-400000.0625,-400000.0625,-400000.0625,-17496.109375,-400000.0625
203.23162627220154,-400000.0625,-18823.33984375,-15198.0400390625,-400000.0625,-400000.0625,-400000.0625,-17493.630859375,-400000.0625
203.23721981048584,-400000.0625,-18820.4296875,-15190.7900390625,-400000.0625,-400000.0625,-400000.0625,-17493.6796875,-400000.0625
203.2426769733429,-400000.0625,-18818.189453125,-15182.5,-400000.0625,-400000.0625,-400000.0625,-17496.490234375,-400000.0625
203.24790215492249,-400000.0625,-18828.6796875,-15189.1201171875,-400000.0625,-400000.0625,-400000.0625,-17506.3203125,-400000.0625
203.25300240516663,-400000.0625,-18839.83984375,-15203.5703125,-400000.0625,-400000.0625,-400000.0625,-17515.94921875,-400000.0625
203.25819993019104,-400000.0625,-18838.119140625,-15207.3896484375,-400000.0625,-400000.0625,-400000.0625,-17513.560546875,-400000.0625
203.2639193534851,-400000.0625,-18826.630859375,-15196.900390625,-400000.0625,-400000.0625,-400000.0625,-17501.7890625,-400000.0625
203.26935744285583,-400000.0625,-18818.0,-15185.3095703125,-400000.0625,-400000.0625,-400000.0625,-17498.689453125,-400000.0625
203.27468538284302,-400000.0625,-18817.240234375,-15182.8798828125,-400000.0625,-400000.0625,-400000.0625,-17501.5,-400000.0625
203.2801923751831,-400000.0625,-18830.25,-15197.330078125,-400000.0625,-400000.0625,-400000.0625,-17509.130859375,-400000.0625
203.2855634689331,-400000.0625,-18837.7890625,-15205.6201171875,-400000.0625,-400000.0625,-400000.0625,-17510.990234375,-400000.0625
203.29078698158264,-400000.0625,-18826.9609375,-15195.900390625,-400000.0625,-400000.0625,-400000.0625,-17505.83984375,-400000.0625
203.30514478683472,-400000.0625,-18818.240234375,-15183.6396484375,-400000.0625,-400000.0625,-400000.0625,-17495.30078125,-400000.0625
203.3104009628296,-400000.0625,-18818.330078125,-15180.8798828125,-400000.0625,-400000.0625,-400000.0625,-17496.349609375,-400000.0625
203.31593799591064,-400000.0625,-18826.919921875,-15190.83984375,-400000.0625,-400000.0625,-400000.0625,-17508.080078125,-400000.0625
203.32137656211853,-400000.0625,-18838.5,-15203.5703125,-400000.0625,-400000.0625,-400000.0625,-17507.029296875,-400000.0625
203.32656383514404,-400000.0625,-18837.98046875,-15207.9599609375,-400000.0625,-400000.0625,-400000.0625,-17504.740234375,-400000.0625
203.33200764656067,-400000.0625,-18832.44921875,-15200.4296875,-400000.0625,-400000.0625,-400000.0625,-17504.119140625,-400000.0625
203.33722853660583,-400000.0625,-18826.33984375,-15191.26953125,-400000.0625,-400000.0625,-400000.0625,-17501.7890625,-400000.0625
203.34234809875488,-400000.0625,-18830.349609375,-15194.849609375,-400000.0625,-400000.0625,-400000.0625,-17506.650390625,-400000.0625
203.3480396270752,-400000.0625,-18841.69921875,-15206.33984375,-400000.0625,-400000.0625,-400000.0625,-17513.849609375,-400000.0625
203.35374331474304,-400000.0625,-18843.220703125,-15209.3896484375,-400000.0625,-400000.0625,-400000.0625,-17514.1796875,-400000.0625
203.35902905464172,-400000.0625,-18829.349609375,-15197.900390625,-400000.0625,-400000.0625,-400000.0625,-17499.259765625,-400000.0625
203.36434864997864,-400000.0625,-18817.0,-15184.4501953125,-400000.0625,-400000.0625,-400000.0625,-17489.2890625,-400000.0625
203.36958694458008,-400000.0625,-18810.849609375,-15175.73046875,-400000.0625,-400000.0625,-400000.0625,-17490.9609375,-400000.0625
203.3750581741333,-400000.0625,-18824.869140625,-15187.169921875,-400000.0625,-400000.0625,-400000.0625,-17500.830078125,-400000.0625
203.38062000274658,-400000.0625,-18842.029296875,-15209.3896484375,-400000.0625,-400000.0625,-400000.0625,-17513.470703125,-400000.0625
203.38597917556763,-400000.0625,-18834.16015625,-15207.48046875,-400000.0625,-400000.0625,-400000.0625,-17508.41015625,-400000.0625
203.39118099212646,-400000.0625,-18825.630859375,-15197.23046875,-400000.0625,-400000.0625,-400000.0625,-17496.640625,-400000.0625
203.40592980384827,-400000.0625,-18823.150390625,-15188.740234375,-400000.0625,-400000.0625,-400000.0625,-17492.33984375,-400000.0625
203.41132640838623,-400000.0625,-18819.240234375,-15182.259765625,-400000.0625,-400000.0625,-400000.0625,-17498.830078125,-400000.0625
203.41677284240723,-400000.0625,-18832.30078125,-15196.4697265625,-400000.0625,-400000.0625,-400000.0625,-17509.80078125,-400000.0625
203.421893119812,-400000.0625,-18836.689453125,-15204.48046875,-400000.0625,-400000.0625,-400000.0625,-17505.650390625,-400000.0625
203.42715120315552,-400000.0625,-18829.490234375,-15198.1796875,-400000.0625,-400000.0625,-400000.0625,-17496.58984375,-400000.0625
203.43254947662354,-400000.0625,-18830.439453125,-15192.83984375,-400000.0625,-400000.0625,-400000.0625,-17499.5,-400000.0625
203.43771505355835,-400000.0625,-18826.060546875,-15185.830078125,-400000.0625,-400000.0625,-400000.0625,-17502.2109375,-400000.0625
203.4427993297577,-400000.0625,-18833.259765625,-15194.23046875,-400000.0625,-400000.0625,-400000.0625,-17510.23046875,-400000.0625
203.44814014434814,-400000.0625,-18851.08984375,-15210.2001953125,-400000.0625,-400000.0625,-400000.0625,-17515.849609375,-400000.0625
203.45383858680725,-400000.0625,-18850.380859375,-15210.3896484375,-400000.0625,-400000.0625,-400000.0625,-17511.890625,-400000.0625
203.45955181121826,-400000.0625,-18834.640625,-15192.83984375,-400000.0625,-400000.0625,-400000.0625,-17499.689453125,-400000.0625
203.4648859500885,-400000.0625,-18824.150390625,-15179.01953125,-400000.0625,-400000.0625,-400000.0625,-17491.490234375,-400000.0625
203.4705991744995,-400000.0625,-18832.73046875,-15187.0302734375,-400000.0625,-400000.0625,-400000.0625,-17498.779296875,-400000.0625
203.4779462814331,-400000.0625,-18848.849609375,-15201.4296875,-400000.0625,-400000.0625,-400000.0625,-17511.80078125,-400000.0625
203.48405504226685,-400000.0625,-18849.380859375,-15203.1904296875,-400000.0625,-400000.0625,-400000.0625,-17516.5703125,-400000.0625
203.48954057693481,-400000.0625,-18836.0703125,-15193.509765625,-400000.0625,-400000.0625,-400000.0625,-17502.640625,-400000.0625
203.4950888156891,-400000.0625,-18826.8203125,-15180.830078125,-400000.0625,-400000.0625,-400000.0625,-17490.099609375,-400000.0625
203.50939798355103,-400000.0625,-18823.8203125,-15177.009765625,-400000.0625,-400000.0625,-400000.0625,-17492.25,-400000.0625
203.5150763988495,-400000.0625,-18835.259765625,-15186.599609375,-400000.0625,-400000.0625,-400000.0625,-17505.890625,-400000.0625
203.52046012878418,-400000.0625,-18844.560546875,-15198.0400390625,-400000.0625,-400000.0625,-400000.0625,-17511.75,-400000.0625
203.5258367061615,-400000.0625,-18841.080078125,-15197.1796875,-400000.0625,-400000.0625,-400000.0625,-17508.41015625,-400000.0625
203.53139328956604,-400000.0625,-18832.16015625,-15187.7900390625,-400000.0625,-400000.0625,-400000.0625,-17502.640625,-400000.0625
203.53688621520996,-400000.0625,-18829.439453125,-15182.5400390625,-400000.0625,-400000.0625,-400000.0625,-17501.9296875,-400000.0625
203.542090177536,-400000.0625,-18840.69921875,-15188.650390625,-400000.0625,-400000.0625,-400000.0625,-17512.08984375,-400000.0625
203.5475242137909,-400000.0625,-18846.849609375,-15198.849609375,-400000.0625,-400000.0625,-400000.0625,-17515.900390625,-400000.0625
203.55274724960327,-400000.0625,-18845.1796875,-15204.5703125,-400000.0625,-400000.0625,-400000.0625,-17507.560546875,-400000.0625
203.55797028541565,-400000.0625,-18838.650390625,-15198.1396484375,-400000.0625,-400000.0625,-400000.0625,-17498.5390625,-400000.0625
203.5636489391327,-400000.0625,-18821.859375,-15180.830078125,-400000.0625,-400000.0625,-400000.0625,-17494.060546875,-400000.0625
203.573091506958,-400000.0625,-18846.939453125,-15195.1298828125,-400000.0625,-400000.0625,-400000.0625,-17501.169921875,-400000.0625
203.5731143951416,-400000.0625,-18854.189453125,-15203.6201171875,-400000.0625,-400000.0625,-400000.0625,-17509.26953125,-400000.0625
203.57311987876892,-400000.0625,-18860.869140625,-15214.58984375,-400000.0625,-400000.0625,-400000.0625,-17509.41015625,-400000.0625
203.57312440872192,-400000.0625,-18851.810546875,-15211.8701171875,-400000.0625,-400000.0625,-400000.0625,-17500.970703125,-400000.0625
203.57312870025635,-400000.0625,-18838.83984375,-15195.509765625,-400000.0625,-400000.0625,-400000.0625,-17490.439453125,-400000.0625
203.57313323020935,-400000.0625,-18837.98046875,-15189.509765625,-400000.0625,-400000.0625,-400000.0625,-17494.58984375,-400000.0625
203.5731382369995,-400000.0625,-18847.560546875,-15199.6201171875,-400000.0625,-400000.0625,-400000.0625,-17505.119140625,-400000.0625
203.57314229011536,-400000.0625,-18857.669921875,-15209.76953125,-400000.0625,-400000.0625,-400000.0625,-17509.939453125,-400000.0625
203.5731463432312,-400000.0625,-18859.2890625,-15213.6796875,-400000.0625,-400000.0625,-400000.0625,-17508.130859375,-400000.0625
203.57315063476562,-400000.0625,-18849.990234375,-15205.0,-400000.0625,-400000.0625,-400000.0625,-17495.630859375,-400000.0625
203.57315516471863,-400000.0625,-18839.890625,-15193.990234375,-400000.0625,-400000.0625,-400000.0625,-17490.630859375,-400000.0625
203.57315921783447,-400000.0625,-18842.3203125,-15193.650390625,-400000.0625,-400000.0625,-400000.0625,-17496.919921875,-400000.0625
203.57316374778748,-400000.0625,-18850.419921875,-15203.099609375,-400000.0625,-400000.0625,-400000.0625,-17505.26953125,-400000.0625
203.57316780090332,-400000.0625,-18859.529296875,-15215.58984375,-400000.0625,-400000.0625,-400000.0625,-17507.359375,-400000.0625
203.5731725692749,-400000.0625,-18858.76953125,-15215.73046875,-400000.0625,-400000.0625,-400000.0625,-17504.029296875,-400000.0625
203.57317686080933,-400000.0625,-18845.419921875,-15202.1396484375,-400000.0625,-400000.0625,-400000.0625,-17501.640625,-400000.0625
203.5731806755066,-400000.0625,-18846.279296875,-15200.5703125,-400000.0625,-400000.0625,-400000.0625,-17506.55078125,-400000.0625
203.57318472862244,-400000.0625,-18854.099609375,-15205.0498046875,-400000.0625,-400000.0625,-400000.0625,-17513.51953125,-400000.0625
203.57318902015686,-400000.0625,-18859.009765625,-15212.6298828125,-400000.0625,-400000.0625,-400000.0625,-17518.4296875,-400000.0625
203.57319331169128,-400000.0625,-18854.189453125,-15212.25,-400000.0625,-400000.0625,-400000.0625,-17508.69921875,-400000.0625
203.57319712638855,-400000.0625,-18841.26953125,-15201.48046875,-400000.0625,-400000.0625,-400000.0625,-17496.439453125,-400000.0625
203.57320165634155,-400000.0625,-18839.69921875,-15194.26953125,-400000.0625,-400000.0625,-400000.0625,-17497.109375,-400000.0625
203.5732057094574,-400000.0625,-18852.94921875,-15201.759765625,-400000.0625,-400000.0625,-400000.0625,-17509.1796875,-400000.0625
203.57320976257324,-400000.0625,-18862.580078125,-15210.0595703125,-400000.0625,-400000.0625,-400000.0625,-17515.759765625,-400000.0625
203.57321453094482,-400000.0625,-18871.119140625,-15222.98046875,-400000.0625,-400000.0625,-400000.0625,-17521.2890625,-400000.0625
203.57321882247925,-400000.0625,-18858.720703125,-15216.5400390625,-400000.0625,-400000.0625,-400000.0625,-17510.369140625,-400000.0625
203.57322311401367,-400000.0625,-18842.7890625,-15203.0498046875,-400000.0625,-400000.0625,-400000.0625,-17499.740234375,-400000.0625
203.57322764396667,-400000.0625,-18848.369140625,-15206.91015625,-400000.0625,-400000.0625,-400000.0625,-17509.26953125,-400000.0625
203.5732319355011,-400000.0625,-18855.4296875,-15207.91015625,-400000.0625,-400000.0625,-400000.0625,-17516.419921875,-400000.0625
203.57323598861694,-400000.0625,-18850.279296875,-15201.9501953125,-400000.0625,-400000.0625,-400000.0625,-17503.310546875,-400000.0625
203.57324028015137,-400000.0625,-18850.900390625,-15204.8095703125,-400000.0625,-400000.0625,-400000.0625,-17502.599609375,-400000.0625
203.57324409484863,-400000.0625,-18852.08984375,-15204.7197265625,-400000.0625,-400000.0625,-400000.0625,-17503.119140625,-400000.0625
203.57324862480164,-400000.0625,-18863.390625,-15209.6298828125,-400000.0625,-400000.0625,-400000.0625,-17512.609375,-400000.0625
203.57325339317322,-400000.0625,-18864.919921875,-15212.73046875,-400000.0625,-400000.0625,-400000.0625,-17522.05078125,-400000.0625
203.57325768470764,-400000.0625,-18856.810546875,-15207.580078125,-400000.0625,-400000.0625,-400000.0625,-17516.0,-400000.0625
203.57326221466064,-400000.0625,-18854.099609375,-15207.240234375,-400000.0625,-400000.0625,-400000.0625,-17500.689453125,-400000.0625
203.57326650619507,-400000.0625,-18843.3203125,-15203.5302734375,-400000.0625,-400000.0625,-400000.0625,-17491.150390625,-400000.0625
203.5732707977295,-400000.0625,-18842.41015625,-15202.330078125,-400000.0625,-400000.0625,-400000.0625,-17505.740234375,-400000.0625
203.57327485084534,-400000.0625,-18864.8203125,-15214.9697265625,-400000.0625,-400000.0625,-400000.0625,-17527.630859375,-400000.0625
203.57327961921692,-400000.0625,-18869.880859375,-15218.8798828125,-400000.0625,-400000.0625,-400000.0625,-17530.30078125,-400000.0625
203.57328391075134,-400000.0625,-18848.609375,-15204.48046875,-400000.0625,-400000.0625,-400000.0625,-17503.880859375,-400000.0625
203.5732879638672,-400000.0625,-18845.0390625,-15206.5302734375,-400000.0625,-400000.0625,-400000.0625,-17495.73046875,-400000.0625
203.5732922554016,-400000.0625,-18841.26953125,-15198.7998046875,-400000.0625,-400000.0625,-400000.0625,-17493.6796875,-400000.0625
203.57329630851746,-400000.0625,-18826.439453125,-15181.1103515625,-400000.0625,-400000.0625,-400000.0625,-17487.240234375,-400000.0625
203.57330083847046,-400000.0625,-18830.16015625,-15185.0703125,-400000.0625,-400000.0625,-400000.0625,-17495.439453125,-400000.0625
203.57330513000488,-400000.0625,-18850.94921875,-15204.33984375,-400000.0625,-400000.0625,-400000.0625,-17506.509765625,-400000.0625
203.57330918312073,-400000.0625,-18860.390625,-15214.919921875,-400000.0625,-400000.0625,-400000.0625,-17510.1796875,-400000.0625
203.573312997818,-400000.0625,-18851.619140625,-15209.2001953125,-400000.0625,-400000.0625,-400000.0625,-17499.400390625,-400000.0625
203.57331705093384,-400000.0625,-18838.259765625,-15196.08984375,-400000.0625,-400000.0625,-400000.0625,-17490.060546875,-400000.0625
203.57332134246826,-400000.0625,-18836.7890625,-15191.599609375,-400000.0625,-400000.0625,-400000.0625,-17493.30078125,-400000.0625
203.5733253955841,-400000.0625,-18846.80078125,-15199.5703125,-400000.0625,-400000.0625,-400000.0625,-17504.650390625,-400000.0625
203.57333183288574,-400000.0625,-18864.009765625,-15216.2099609375,-400000.0625,-400000.0625,-400000.0625,-17515.0390625,-400000.0625
203.5733358860016,-400000.0625,-18863.16015625,-15217.2099609375,-400000.0625,-400000.0625,-400000.0625,-17514.900390625,-400000.0625
203.57333993911743,-400000.0625,-18847.3203125,-15204.150390625,-400000.0625,-400000.0625,-400000.0625,-17502.359375,-400000.0625
203.57334399223328,-400000.0625,-18835.400390625,-15188.26953125,-400000.0625,-400000.0625,-400000.0625,-17488.669921875,-400000.0625
203.5733482837677,-400000.0625,-18832.830078125,-15183.6396484375,-400000.0625,-400000.0625,-400000.0625,-17486.619140625,-400000.0625
203.57335305213928,-400000.0625,-18853.4296875,-15203.099609375,-400000.0625,-400000.0625,-400000.0625,-17507.41015625,-400000.0625
203.5733573436737,-400000.0625,-18865.970703125,-15218.4501953125,-400000.0625,-400000.0625,-400000.0625,-17521.240234375,-400000.0625
203.57336163520813,-400000.0625,-18857.91015625,-15212.7802734375,-400000.0625,-400000.0625,-400000.0625,-17506.939453125,-400000.0625
203.57336592674255,-400000.0625,-18842.990234375,-15200.51953125,-400000.0625,-400000.0625,-400000.0625,-17494.73046875,-400000.0625
203.57337021827698,-400000.0625,-18835.7890625,-15191.1796875,-400000.0625,-400000.0625,-400000.0625,-17489.76953125,-400000.0625
203.5733745098114,-400000.0625,-18848.279296875,-15201.7099609375,-400000.0625,-400000.0625,-400000.0625,-17499.970703125,-400000.0625
203.57337880134583,-400000.0625,-18866.490234375,-15219.58984375,-400000.0625,-400000.0625,-400000.0625,-17512.419921875,-400000.0625
203.57338285446167,-400000.0625,-18860.390625,-15217.6396484375,-400000.0625,-400000.0625,-400000.0625,-17508.890625,-400000.0625
203.57338690757751,-400000.0625,-18845.990234375,-15205.099609375,-400000.0625,-400000.0625,-400000.0625,-17498.830078125,-400000.0625
203.57339143753052,-400000.0625,-18838.689453125,-15194.8896484375,-400000.0625,-400000.0625,-400000.0625,-17493.349609375,-400000.0625
203.57339549064636,-400000.0625,-18839.359375,-15195.419921875,-400000.0625,-400000.0625,-400000.0625,-17496.490234375,-400000.0625
203.5733995437622,-400000.0625,-18852.900390625,-15209.7197265625,-400000.0625,-400000.0625,-400000.0625,-17508.7890625,-400000.0625
203.57340383529663,-400000.0625,-18864.19921875,-15221.98046875,-400000.0625,-400000.0625,-400000.0625,-17510.130859375,-400000.0625
203.57340812683105,-400000.0625,-18857.2890625,-15216.8798828125,-400000.0625,-400000.0625,-400000.0625,-17499.349609375,-400000.0625
203.57341241836548,-400000.0625,-18843.3203125,-15203.5703125,-400000.0625,-400000.0625,-400000.0625,-17492.76953125,-400000.0625
203.57341647148132,-400000.0625,-18836.359375,-15193.7998046875,-400000.0625,-400000.0625,-400000.0625,-17491.439453125,-400000.0625
203.57342052459717,-400000.0625,-18837.310546875,-15196.4697265625,-400000.0625,-400000.0625,-400000.0625,-17495.8203125,-400000.0625
203.573424577713,-400000.0625,-18849.380859375,-15212.25,-400000.0625,-400000.0625,-400000.0625,-17498.2109375,-400000.0625
203.57342886924744,-400000.0625,-18856.33984375,-15220.9296875,-400000.0625,-400000.0625,-400000.0625,-17500.689453125,-400000.0625
203.57343292236328,-400000.0625,-18843.029296875,-15206.5302734375,-400000.0625,-400000.0625,-400000.0625,-17493.8203125,-400000.0625
203.5734372138977,-400000.0625,-18838.689453125,-15197.1396484375,-400000.0625,-400000.0625,-400000.0625,-17491.30078125,-400000.0625
203.57344126701355,-400000.0625,-18837.41015625,-15194.4697265625,-400000.0625,-400000.0625,-400000.0625,-17495.779296875,-400000.0625
203.57344555854797,-400000.0625,-18847.66015625,-15203.759765625,-400000.0625,-400000.0625,-400000.0625,-17504.9296875,-400000.0625
203.57345032691956,-400000.0625,-18857.9609375,-15215.58984375,-400000.0625,-400000.0625,-400000.0625,-17507.220703125,-400000.0625
203.57345461845398,-400000.0625,-18851.900390625,-15212.3896484375,-400000.0625,-400000.0625,-400000.0625,-17498.919921875,-400000.0625
203.57345914840698,-400000.0625,-18839.98046875,-15198.900390625,-400000.0625,-400000.0625,-400000.0625,-17491.580078125,-400000.0625
203.57346320152283,-400000.0625,-18835.640625,-15190.4599609375,-400000.0625,-400000.0625,-400000.0625,-17489.859375,-400000.0625
203.57346773147583,-400000.0625,-18845.509765625,-15199.330078125,-400000.0625,-400000.0625,-400000.0625,-17496.58984375,-400000.0625
203.57347202301025,-400000.0625,-18853.140625,-15209.9599609375,-400000.0625,-400000.0625,-400000.0625,-17500.740234375,-400000.0625
203.57347679138184,-400000.0625,-18851.759765625,-15208.5302734375,-400000.0625,-400000.0625,-400000.0625,-17493.73046875,-400000.0625
203.57348203659058,-400000.0625,-18839.7890625,-15197.1396484375,-400000.0625,-400000.0625,-400000.0625,-17487.9609375,-400000.0625
203.573486328125,-400000.0625,-18835.689453125,-15190.7900390625,-400000.0625,-400000.0625,-400000.0625,-17487.48046875,-400000.0625
203.57349061965942,-400000.0625,-18845.66015625,-15194.23046875,-400000.0625,-400000.0625,-400000.0625,-17486.91015625,-400000.0625
203.57349491119385,-400000.0625,-18850.279296875,-15200.9501953125,-400000.0625,-400000.0625,-400000.0625,-17489.48046875,-400000.0625
203.57349920272827,-400000.0625,-18858.05078125,-15212.25,-400000.0625,-400000.0625,-400000.0625,-17495.2109375,-400000.0625
203.57350325584412,-400000.0625,-18854.140625,-15211.2998046875,-400000.0625,-400000.0625,-400000.0625,-17490.9609375,-400000.0625
203.57350754737854,-400000.0625,-18847.419921875,-15199.0400390625,-400000.0625,-400000.0625,-400000.0625,-17485.91015625,-400000.0625
203.57351160049438,-400000.0625,-18848.419921875,-15195.849609375,-400000.0625,-400000.0625,-400000.0625,-17484.05078125,-400000.0625
203.5735158920288,-400000.0625,-18855.4296875,-15208.2900390625,-400000.0625,-400000.0625,-400000.0625,-17493.009765625,-400000.0625
203.57351994514465,-400000.0625,-18864.400390625,-15218.9697265625,-400000.0625,-400000.0625,-400000.0625,-17495.8203125,-400000.0625
