time,ch1,ch2,ch3,ch4,ch5,ch6,ch7,ch8
240.25430941581726,-400000.0625,-8731.990234375,-10151.4404296875,-400000.0625,1173.2099609375,-400000.0625,-7944.72998046875,-400000.0625
240.26469373703003,-400000.0625,-8332.01953125,-9885.8798828125,-400000.0625,1186.56005859375,-400000.0625,-7772.8798828125,-400000.0625
240.27286338806152,-400000.0625,-8023.02001953125,-9775.9296875,-400000.0625,1160.2900390625,-400000.0625,-7719.56982421875,-400000.0625
240.2856810092926,-400000.0625,-7770.77978515625,-9723.7099609375,-400000.0625,1104.1600341796875,-400000.0625,-7745.93017578125,-400000.0625
240.30094623565674,-400000.0625,-7606.5498046875,-9625.2001953125,-400000.0625,1101.300048828125,-400000.0625,-7709.06982421875,-400000.0625
240.33744049072266,-400000.0625,-7287.740234375,-9470.23046875,-400000.0625,1138.8299560546875,-400000.0625,-7523.6298828125,-400000.0625
240.35002994537354,-400000.0625,-6894.5400390625,-9232.1396484375,-400000.0625,1203.199951171875,-400000.0625,-7412.9599609375,-400000.0625
240.3611147403717,-400000.0625,-6664.31982421875,-9208.6796875,-400000.0625,1206.06005859375,-400000.0625,-7410.43017578125,-400000.0625
240.37133526802063,-400000.0625,-6550.83984375,-9239.8701171875,-400000.0625,1138.5,-400000.0625,-7436.22998046875,-400000.0625
240.38161087036133,-400000.0625,-6313.31982421875,-9107.830078125,-400000.0625,1071.6400146484375,-400000.0625,-7456.58984375,-400000.0625
240.39884424209595,-400000.0625,-6024.93017578125,-9012.83984375,-400000.0625,1097.8699951171875,-400000.0625,-7414.009765625,-400000.0625
240.41057658195496,-400000.0625,-5708.5498046875,-8930.16015625,-400000.0625,1165.1500244140625,-400000.0625,-7293.080078125,-400000.0625
240.44203352928162,-400000.0625,-5385.64013671875,-8856.3896484375,-400000.0625,1215.6500244140625,-400000.0625,-7165.52978515625,-400000.0625
240.46157693862915,-400000.0625,-5311.58984375,-8867.0302734375,-400000.0625,1161.47998046875,-400000.0625,-7265.6201171875,-400000.0625
240.46948337554932,-400000.0625,-5155.89990234375,-8932.16015625,-400000.0625,1070.449951171875,-400000.0625,-7359.22021484375,-400000.0625
240.47853994369507,-400000.0625,-5078.31982421875,-8854.7197265625,-400000.0625,1072.5,-400000.0625,-7354.77978515625,-400000.0625
240.48822116851807,-400000.0625,-4980.89990234375,-8765.98046875,-400000.0625,1140.260009765625,-400000.0625,-7230.240234375,-400000.0625
240.4976110458374,-400000.0625,-4795.169921875,-8706.900390625,-400000.0625,1203.6800537109375,-400000.0625,-7165.0498046875,-400000.0625
240.50692534446716,-400000.0625,-4741.6201171875,-8713.6796875,-400000.0625,1188.3299560546875,-400000.0625,-7229.7099609375,-400000.0625
240.51775431632996,-400000.0625,-4793.60009765625,-8796.3095703125,-400000.0625,1111.56005859375,-400000.0625,-7317.97021484375,-400000.0625
240.55403351783752,-400000.0625,-4804.330078125,-8845.0400390625,-400000.0625,1068.4000244140625,-400000.0625,-7395.169921875,-400000.0625
240.56788563728333,-400000.0625,-4702.85009765625,-8839.8896484375,-400000.0625,1097.9200439453125,-400000.0625,-7412.009765625,-400000.0625
240.57621359825134,-400000.0625,-4667.6201171875,-8806.0400390625,-400000.0625,1193.3299560546875,-400000.0625,-7393.06982421875,-400000.0625
240.59707283973694,-400000.0625,-4593.47021484375,-8750.73046875,-400000.0625,1242.4000244140625,-400000.0625,-7430.60009765625,-400000.0625
240.60758566856384,-400000.0625,-4705.0,-8801.75,-400000.0625,1185.989990234375,-400000.0625,-7533.169921875,-400000.0625
240.6199083328247,-400000.0625,-4914.18994140625,-8918.099609375,-400000.0625,1109.5,-400000.0625,-7707.97998046875,-400000.0625
240.6577501296997,-400000.0625,-5075.4599609375,-8965.349609375,-400000.0625,1097.5799560546875,-400000.0625,-7806.97021484375,-400000.0625
240.67216515541077,-400000.0625,-5197.330078125,-8948.900390625,-400000.0625,1162.5799560546875,-400000.0625,-7823.18017578125,-400000.0625
240.68296122550964,-400000.0625,-5385.259765625,-8950.5703125,-400000.0625,1230.6700439453125,-400000.0625,-7857.56005859375,-400000.0625
240.69694232940674,-400000.0625,-5684.08984375,-9038.0703125,-400000.0625,1206.6800537109375,-400000.0625,-7996.75,-400000.0625
240.70893144607544,-400000.0625,-6071.47021484375,-9166.150390625,-400000.0625,1128.8599853515625,-400000.0625,-8176.7998046875,-400000.0625
240.72078132629395,-400000.0625,-6446.7001953125,-9248.73046875,-400000.0625,1092.4300537109375,-400000.0625,-8297.73046875,-400000.0625
240.7648606300354,-400000.0625,-6784.009765625,-9272.0498046875,-400000.0625,1134.9200439453125,-400000.0625,-8358.150390625,-400000.0625
240.78408908843994,-400000.0625,-7131.47998046875,-9277.76953125,-400000.0625,1209.6400146484375,-400000.0625,-8391.759765625,-400000.0625
240.79941844940186,-400000.0625,-7561.4501953125,-9335.9501953125,-400000.0625,1229.0,-400000.0625,-8487.26953125,-400000.0625
240.81582283973694,-400000.0625,-8113.240234375,-9469.7001953125,-400000.0625,1171.489990234375,-400000.0625,-8668.759765625,-400000.0625
240.82874464988708,-400000.0625,-8685.6396484375,-9602.259765625,-400000.0625,1103.31005859375,-400000.0625,-8856.349609375,-400000.0625
240.8724262714386,-400000.0625,-9123.900390625,-9644.3203125,-400000.0625,1118.989990234375,-400000.0625,-8954.8095703125,-400000.0625
240.88643717765808,-400000.0625,-9425.1201171875,-9631.490234375,-400000.0625,1191.280029296875,-400000.0625,-8970.0703125,-400000.0625
240.90420866012573,-400000.0625,-9694.2001953125,-9640.0302734375,-400000.0625,1237.43994140625,-400000.0625,-9016.23046875,-400000.0625
240.92227125167847,-400000.0625,-9975.91015625,-9719.4697265625,-400000.0625,1211.9300537109375,-400000.0625,-9146.4501953125,-400000.0625
240.9386110305786,-400000.0625,-10253.0498046875,-9827.330078125,-400000.0625,1156.280029296875,-400000.0625,-9318.6396484375,-400000.0625
240.99530267715454,-400000.0625,-10477.2099609375,-9908.009765625,-400000.0625,1107.7900390625,-400000.0625,-9466.740234375,-400000.0625
241.01316952705383,-400000.0625,-10598.9501953125,-9906.150390625,-400000.0625,1126.81005859375,-400000.0625,-9520.48046875,-400000.0625
241.02997708320618,-400000.0625,-10680.5302734375,-9861.900390625,-400000.0625,1174.5,-400000.0625,-9520.7197265625,-400000.0625
241.04170179367065,-400000.0625,-10815.7197265625,-9879.4501953125,-400000.0625,1184.6099853515625,-400000.0625,-9586.33984375,-400000.0625
241.09314608573914,-400000.0625,-11006.3095703125,-9958.26953125,-400000.0625,1135.5400390625,-400000.0625,-9730.5302734375,-400000.0625
241.1278681755066,-400000.0625,-11179.9296875,-10032.849609375,-400000.0625,1067.1099853515625,-400000.0625,-9871.3896484375,-400000.0625
241.13956689834595,-400000.0625,-11270.8095703125,-10037.4697265625,-400000.0625,1017.3300170898438,-400000.0625,-9921.740234375,-400000.0625
241.15402364730835,-400000.0625,-11265.23046875,-9972.1396484375,-400000.0625,1001.97998046875,-400000.0625,-9890.0302734375,-400000.0625
241.19931888580322,-400000.0625,-11269.48046875,-9948.4501953125,-400000.0625,1032.5400390625,-400000.0625,-9902.33984375,-400000.0625
241.21358680725098,-400000.0625,-11380.7197265625,-10019.01953125,-400000.0625,1051.52001953125,-400000.0625,-10020.349609375,-400000.0625
241.23423147201538,-400000.0625,-11512.1904296875,-10093.8798828125,-400000.0625,989.1500244140625,-400000.0625,-10154.76953125,-400000.0625
241.25010585784912,-400000.0625,-11579.4697265625,-10123.830078125,-400000.0625,782.2000122070312,-400000.0625,-10237.4599609375,-400000.0625
241.2662477493286,-400000.0625,-11577.080078125,-10088.25,-400000.0625,536.1599731445312,-400000.0625,-10235.8798828125,-400000.0625
241.3232021331787,-400000.0625,-11547.900390625,-10032.8896484375,-400000.0625,298.45001220703125,-400000.0625,-10204.75,-400000.0625
241.33886003494263,-400000.0625,-11575.7001953125,-10042.0498046875,-400000.0625,83.58999633789062,-400000.0625,-10238.5498046875,-400000.0625
241.3578712940216,-400000.0625,-11678.83984375,-10128.0703125,-400000.0625,-115.25,-400000.0625,-10369.2998046875,-400000.0625
241.38261675834656,-400000.0625,-11764.3798828125,-10196.830078125,-400000.0625,-100.61000061035156,-400000.0625,-10486.9404296875,-400000.0625
241.44608068466187,-400000.0625,-11770.150390625,-10190.009765625,-400000.0625,-367.45001220703125,-400000.0625,-10514.6396484375,-400000.0625
241.46354508399963,-400000.0625,-11723.6201171875,-10129.01953125,-400000.0625,-1489.72998046875,-400000.0625,-10473.25,-400000.0625
241.48192405700684,-400000.0625,-11715.9404296875,-10098.7900390625,-400000.0625,-2782.679931640625,-400000.0625,-10462.6201171875,-400000.0625
241.49518251419067,-400000.0625,-11794.0,-10149.3798828125,-400000.0625,-2814.820068359375,-400000.0625,-10540.2001953125,-400000.0625
241.53827714920044,-400000.0625,-11896.0400390625,-10219.5302734375,-400000.0625,-1366.18994140625,-400000.0625,-10651.830078125,-400000.0625
241.553391456604,-400000.0625,-11961.0302734375,-10254.91015625,-400000.0625,-100.04000091552734,-400000.0625,-10724.1201171875,-400000.0625
241.56668424606323,-400000.0625,-11945.1103515625,-10220.150390625,-400000.0625,-431.20001220703125,-400000.0625,-10703.08984375,-400000.0625
241.58554697036743,-400000.0625,-11910.76953125,-10175.66015625,-400000.0625,-1227.4300537109375,-400000.0625,-10669.23046875,-400000.0625
241.6094810962677,-400000.0625,-11962.1298828125,-10203.650390625,-400000.0625,-1205.1600341796875,-400000.0625,-10718.16015625,-400000.0625
241.64602255821228,-400000.0625,-12064.7001953125,-10278.23046875,-400000.0625,-279.04998779296875,-400000.0625,-10828.3095703125,-400000.0625
241.65711569786072,-400000.0625,-12144.0400390625,-10332.4404296875,-400000.0625,494.8599853515625,-400000.0625,-10915.08984375,-400000.0625
241.6692090034485,-400000.0625,-12149.8095703125,-10314.990234375,-400000.0625,597.1900024414062,-400000.0625,-10913.900390625,-400000.0625
241.67953944206238,-400000.0625,-12097.8798828125,-10252.48046875,-400000.0625,392.3900146484375,-400000.0625,-10858.4404296875,-400000.0625
241.69232058525085,-400000.0625,-12080.0,-10224.009765625,-400000.0625,359.44000244140625,-400000.0625,-10854.5302734375,-400000.0625
241.7063329219818,-400000.0625,-12151.669921875,-10272.3603515625,-400000.0625,611.3499755859375,-400000.0625,-10928.0595703125,-400000.0625
241.71854400634766,-400000.0625,-12253.669921875,-10341.2197265625,-400000.0625,866.7000122070312,-400000.0625,-11032.5302734375,-400000.0625
241.7572741508484,-400000.0625,-12307.5,-10366.349609375,-400000.0625,823.4000244140625,-400000.0625,-11082.169921875,-400000.0625
241.77766251564026,-400000.0625,-12289.330078125,-10329.2998046875,-400000.0625,603.25,-400000.0625,-11053.900390625,-400000.0625
241.79359555244446,-400000.0625,-12264.919921875,-10288.669921875,-400000.0625,487.95001220703125,-400000.0625,-11018.9501953125,-400000.0625
241.8051152229309,-400000.0625,-12302.4501953125,-10307.98046875,-400000.0625,627.7999877929688,-400000.0625,-11047.8896484375,-400000.0625
241.81644821166992,-400000.0625,-12394.48046875,-10372.9296875,-400000.0625,844.760009765625,-400000.0625,-11143.6396484375,-400000.0625
241.82971596717834,-400000.0625,-12470.4404296875,-10424.900390625,-400000.0625,913.0499877929688,-400000.0625,-11222.4599609375,-400000.0625
241.87116694450378,-400000.0625,-12473.7802734375,-10413.83984375,-400000.0625,817.1099853515625,-400000.0625,-11227.1796875,-400000.0625
241.88353204727173,-400000.0625,-12441.9697265625,-10371.8798828125,-400000.0625,674.77001953125,-400000.0625,-11187.8896484375,-400000.0625
241.89442014694214,-400000.0625,-12446.169921875,-10359.0498046875,-400000.0625,734.52001953125,-400000.0625,-11188.5595703125,-400000.0625
241.90642857551575,-400000.0625,-12512.6904296875,-10399.8701171875,-400000.0625,868.3200073242188,-400000.0625,-11247.490234375,-400000.0625
241.92010521888733,-400000.0625,-12587.259765625,-10449.2197265625,-400000.0625,957.9199829101562,-400000.0625,-11320.16015625,-400000.0625
241.93053102493286,-400000.0625,-12634.7998046875,-10472.8701171875,-400000.0625,939.9400024414062,-400000.0625,-11368.4697265625,-400000.0625
241.96460342407227,-400000.0625,-12610.150390625,-10435.8701171875,-400000.0625,907.0399780273438,-400000.0625,-11353.58984375,-400000.0625
241.97848391532898,-400000.0625,-12574.9599609375,-10390.900390625,-400000.0625,949.719970703125,-400000.0625,-11311.9599609375,-400000.0625
241.99000549316406,-400000.0625,-12620.2099609375,-10417.26953125,-400000.0625,1000.8300170898438,-400000.0625,-11346.8701171875,-400000.0625
242.0027973651886,-400000.0625,-12708.7099609375,-10481.5498046875,-400000.0625,1012.8499755859375,-400000.0625,-11434.3701171875,-400000.0625
242.01466512680054,-400000.0625,-12772.990234375,-10522.4599609375,-400000.0625,996.72998046875,-400000.0625,-11496.259765625,-400000.0625
242.02986097335815,-400000.0625,-12766.41015625,-10500.3798828125,-400000.0625,989.47998046875,-400000.0625,-11494.4501953125,-400000.0625
242.0403220653534,-400000.0625,-12723.73046875,-10450.9404296875,-400000.0625,998.1599731445312,-400000.0625,-11447.0498046875,-400000.0625
242.0805058479309,-400000.0625,-12722.2998046875,-10440.16015625,-400000.0625,1038.3599853515625,-400000.0625,-11445.4296875,-400000.0625
242.09881806373596,-400000.0625,-12792.349609375,-10488.5595703125,-400000.0625,1052.3800048828125,-400000.0625,-11517.4296875,-400000.0625
242.11600017547607,-400000.0625,-12880.849609375,-10554.98046875,-400000.0625,1033.5899658203125,-400000.0625,-11611.419921875,-400000.0625
242.1279718875885,-400000.0625,-12928.490234375,-10577.73046875,-400000.0625,1003.1699829101562,-400000.0625,-11649.900390625,-400000.0625
242.13851356506348,-400000.0625,-12918.51953125,-10551.3603515625,-400000.0625,980.1900024414062,-400000.0625,-11598.400390625,-400000.0625
242.15048933029175,-400000.0625,-12895.490234375,-10526.9404296875,-400000.0625,1003.030029296875,-400000.0625,-11541.419921875,-400000.0625
242.18505954742432,-400000.0625,-12924.48046875,-10560.1298828125,-400000.0625,1040.5999755859375,-400000.0625,-11560.16015625,-400000.0625
242.2047302722931,-400000.0625,-13006.740234375,-10630.8896484375,-400000.0625,1034.1600341796875,-400000.0625,-11625.0498046875,-400000.0625
242.2193157672882,-400000.0625,-13081.26953125,-10692.3603515625,-400000.0625,1006.7899780273438,-400000.0625,-11677.3095703125,-400000.0625
242.23500847816467,-400000.0625,-13083.4599609375,-10703.4697265625,-400000.0625,981.0399780273438,-400000.0625,-11653.51953125,-400000.0625
242.263103723526,-400000.0625,-13030.3896484375,-10659.26953125,-400000.0625,1002.7899780273438,-400000.0625,-11568.169921875,-400000.0625
242.30559825897217,-400000.0625,-13037.6796875,-10672.5703125,-400000.0625,1032.3499755859375,-400000.0625,-11543.080078125,-400000.0625
242.32555413246155,-400000.0625,-13127.2802734375,-10766.9404296875,-400000.0625,1035.739990234375,-400000.0625,-11607.2197265625,-400000.0625
242.33971166610718,-400000.0625,-13228.23046875,-10851.240234375,-400000.0625,1020.6199951171875,-400000.0625,-11673.01953125,-400000.0625
242.35353899002075,-400000.0625,-13261.0302734375,-10877.7998046875,-400000.0625,986.719970703125,-400000.0625,-11678.0302734375,-400000.0625
242.3678116798401,-400000.0625,-13210.6796875,-10847.240234375,-400000.0625,986.719970703125,-400000.0625,-11598.7802734375,-400000.0625
242.40834188461304,-400000.0625,-13178.400390625,-10820.150390625,-400000.0625,1023.47998046875,-400000.0625,-11532.98046875,-400000.0625
242.42223811149597,-400000.0625,-13254.6904296875,-10887.0,-400000.0625,1031.3499755859375,-400000.0625,-11579.23046875,-400000.0625
242.43259358406067,-400000.0625,-13347.150390625,-10962.4404296875,-400000.0625,1032.72998046875,-400000.0625,-11645.509765625,-400000.0625
242.44200086593628,-400000.0625,-13393.9296875,-11005.259765625,-400000.0625,1002.5,-400000.0625,-11675.9296875,-400000.0625
242.45284247398376,-400000.0625,-13394.41015625,-11001.400390625,-400000.0625,975.0399780273438,-400000.0625,-11639.6396484375,-400000.0625
242.4638557434082,-400000.0625,-13354.4501953125,-10961.6298828125,-400000.0625,973.7999877929688,-400000.0625,-11577.990234375,-400000.0625
242.47580647468567,-400000.0625,-13344.0,-10957.0498046875,-400000.0625,1003.4099731445312,-400000.0625,-11542.8896484375,-400000.0625
242.52022671699524,-400000.0625,-13394.7900390625,-10996.76953125,-400000.0625,1040.8399658203125,-400000.0625,-11572.7900390625,-400000.0625
242.5351903438568,-400000.0625,-13489.33984375,-11073.9697265625,-400000.0625,1014.0399780273438,-400000.0625,-11649.900390625,-400000.0625
242.5494029521942,-400000.0625,-13522.0498046875,-11106.2099609375,-400000.0625,958.3499755859375,-400000.0625,-11663.490234375,-400000.0625
242.56323647499084,-400000.0625,-13479.0400390625,-11065.150390625,-400000.0625,936.5599975585938,-400000.0625,-11606.740234375,-400000.0625
242.58082342147827,-400000.0625,-13457.1103515625,-11039.5400390625,-400000.0625,951.3900146484375,-400000.0625,-11568.0703125,-400000.0625
242.63460206985474,-400000.0625,-13499.2099609375,-11066.76953125,-400000.0625,993.6799926757812,-400000.0625,-11594.150390625,-400000.0625
242.64740228652954,-400000.0625,-13584.4697265625,-11129.0,-400000.0625,1012.4199829101562,-400000.0625,-11668.73046875,-400000.0625
242.65935945510864,-400000.0625,-13626.8603515625,-11162.2802734375,-400000.0625,988.9600219726562,-400000.0625,-11714.7001953125,-400000.0625
242.67251563072205,-400000.0625,-13612.3701171875,-11141.9697265625,-400000.0625,975.280029296875,-400000.0625,-11698.7197265625,-400000.0625
242.68536114692688,-400000.0625,-13571.0302734375,-11094.8603515625,-400000.0625,1011.9400024414062,-400000.0625,-11647.650390625,-400000.0625
242.72048020362854,-400000.0625,-13566.5400390625,-11083.3701171875,-400000.0625,1064.489990234375,-400000.0625,-11649.0400390625,-400000.0625
242.73161125183105,-400000.0625,-13633.490234375,-11134.240234375,-400000.0625,1065.25,-400000.0625,-11724.330078125,-400000.0625
242.74331712722778,-400000.0625,-13687.7998046875,-11177.2998046875,-400000.0625,1044.4200439453125,-400000.0625,-11794.51953125,-400000.0625
242.75468683242798,-400000.0625,-13700.6298828125,-11178.490234375,-400000.0625,1038.219970703125,-400000.0625,-11807.9697265625,-400000.0625
242.76331233978271,-400000.0625,-13681.4599609375,-11153.8896484375,-400000.0625,1058.1500244140625,-400000.0625,-11782.83984375,-400000.0625
242.77344870567322,-400000.0625,-13654.3798828125,-11125.51953125,-400000.0625,1096.9200439453125,-400000.0625,-11754.1796875,-400000.0625
242.78310990333557,-400000.0625,-13688.7998046875,-11151.509765625,-400000.0625,1084.280029296875,-400000.0625,-11793.5703125,-400000.0625
242.79137563705444,-400000.0625,-13757.900390625,-11207.150390625,-400000.0625,1043.27001953125,-400000.0625,-11872.2900390625,-400000.0625
242.8209319114685,-400000.0625,-13802.009765625,-11232.51953125,-400000.0625,1020.719970703125,-400000.0625,-11930.3701171875,-400000.0625
242.83646488189697,-400000.0625,-13790.75,-11214.259765625,-400000.0625,1030.8299560546875,-400000.0625,-11923.3603515625,-400000.0625
242.84919810295105,-400000.0625,-13744.6904296875,-11167.5302734375,-400000.0625,1076.6500244140625,-400000.0625,-11867.099609375,-400000.0625
242.85883378982544,-400000.0625,-13737.7802734375,-11156.7001953125,-400000.0625,1094.43994140625,-400000.0625,-11867.51953125,-400000.0625
242.86572933197021,-400000.0625,-13790.7001953125,-11194.08984375,-400000.0625,1076.4100341796875,-400000.0625,-11927.26953125,-400000.0625
242.87329244613647,-400000.0625,-13867.08984375,-11254.5498046875,-400000.0625,1027.8699951171875,-400000.0625,-12013.2001953125,-400000.0625
242.88367652893066,-400000.0625,-13880.6396484375,-11257.9404296875,-400000.0625,1016.9000244140625,-400000.0625,-12031.509765625,-400000.0625
242.89207005500793,-400000.0625,-13828.08984375,-11206.8701171875,-400000.0625,1063.1600341796875,-400000.0625,-11982.919921875,-400000.0625
242.9223256111145,-400000.0625,-13794.900390625,-11173.25,-400000.0625,1107.030029296875,-400000.0625,-11945.76953125,-400000.0625
242.935240983963,-400000.0625,-13836.1904296875,-11204.009765625,-400000.0625,1094.1500244140625,-400000.0625,-11986.8798828125,-400000.0625
242.94740319252014,-400000.0625,-13914.8701171875,-11265.419921875,-400000.0625,1049.3800048828125,-400000.0625,-12075.08984375,-400000.0625
242.9590814113617,-400000.0625,-13961.599609375,-11299.419921875,-400000.0625,1008.6500244140625,-400000.0625,-12127.1103515625,-400000.0625
242.96826004981995,-400000.0625,-13931.849609375,-11270.8603515625,-400000.0625,1019.4299926757812,-400000.0625,-12104.6103515625,-400000.0625
242.97645902633667,-400000.0625,-13879.25,-11221.740234375,-400000.0625,1060.489990234375,-400000.0625,-12053.2099609375,-400000.0625
242.98310589790344,-400000.0625,-13894.75,-11231.3798828125,-400000.0625,1082.1300048828125,-400000.0625,-12068.8896484375,-400000.0625
242.98957920074463,-400000.0625,-13963.7001953125,-11284.0703125,-400000.0625,1063.780029296875,-400000.0625,-12138.3203125,-400000.0625
242.9971981048584,-400000.0625,-14020.01953125,-11327.26953125,-400000.0625,1028.010009765625,-400000.0625,-12200.6904296875,-400000.0625
243.02200508117676,-400000.0625,-14024.6904296875,-11327.509765625,-400000.0625,1021.1500244140625,-400000.0625,-12206.0302734375,-400000.0625
243.03131365776062,-400000.0625,-13976.48046875,-11285.16015625,-400000.0625,1062.06005859375,-400000.0625,-12159.5400390625,-400000.0625
243.03959107398987,-400000.0625,-13944.5302734375,-11254.5498046875,-400000.0625,1101.8800048828125,-400000.0625,-12130.599609375,-400000.0625
243.05089926719666,-400000.0625,-13973.91015625,-11275.8203125,-400000.0625,1102.4000244140625,-400000.0625,-12157.1103515625,-400000.0625
243.05781841278076,-400000.0625,-14065.2197265625,-11349.5400390625,-400000.0625,1042.510009765625,-400000.0625,-12250.0,-400000.0625
243.07170295715332,-400000.0625,-14112.0,-11385.2998046875,-400000.0625,1007.1300048828125,-400000.0625,-12299.58984375,-400000.0625
243.08187890052795,-400000.0625,-14087.1103515625,-11357.3095703125,-400000.0625,1031.8299560546875,-400000.0625,-12273.650390625,-400000.0625
243.08973622322083,-400000.0625,-14034.990234375,-11310.009765625,-400000.0625,1082.800048828125,-400000.0625,-12225.9599609375,-400000.0625
243.09873390197754,-400000.0625,-14035.080078125,-11310.91015625,-400000.0625,1090.1500244140625,-400000.0625,-12229.2099609375,-400000.0625
243.1318542957306,-400000.0625,-14098.4599609375,-11363.41015625,-400000.0625,1054.9100341796875,-400000.0625,-12293.4404296875,-400000.0625
243.1419038772583,-400000.0625,-14147.7099609375,-11399.990234375,-400000.0625,1021.239990234375,-400000.0625,-12354.66015625,-400000.0625
243.15561866760254,-400000.0625,-14151.8603515625,-11397.8896484375,-400000.0625,1014.6099853515625,-400000.0625,-12365.0595703125,-400000.0625
243.1664981842041,-400000.0625,-14114.099609375,-11362.1201171875,-400000.0625,1044.3199462890625,-400000.0625,-12320.849609375,-400000.0625
243.1758382320404,-400000.0625,-14078.8095703125,-11334.1298828125,-400000.0625,1089.2900390625,-400000.0625,-12289.669921875,-400000.0625
243.18647813796997,-400000.0625,-14116.150390625,-11357.7900390625,-400000.0625,1087.1400146484375,-400000.0625,-12324.5302734375,-400000.0625
243.19921588897705,-400000.0625,-14196.349609375,-11423.6796875,-400000.0625,1033.5899658203125,-400000.0625,-12410.5498046875,-400000.0625
243.22337341308594,-400000.0625,-14239.3603515625,-11460.9296875,-400000.0625,997.1099853515625,-400000.0625,-12458.51953125,-400000.0625
243.23528051376343,-400000.0625,-14213.7998046875,-11433.7001953125,-400000.0625,1012.0399780273438,-400000.0625,-12434.099609375,-400000.0625
243.24797201156616,-400000.0625,-14161.6396484375,-11388.349609375,-400000.0625,1060.8699951171875,-400000.0625,-12381.650390625,-400000.0625
243.2607228755951,-400000.0625,-14171.509765625,-11394.599609375,-400000.0625,1078.75,-400000.0625,-12385.66015625,-400000.0625
243.27378249168396,-400000.0625,-14229.25,-11442.1904296875,-400000.0625,1054.6700439453125,-400000.0625,-12440.919921875,-400000.0625
243.28662657737732,-400000.0625,-14281.26953125,-11483.7197265625,-400000.0625,1017.0499877929688,-400000.0625,-12500.8095703125,-400000.0625
243.2964367866516,-400000.0625,-14280.6103515625,-11481.1904296875,-400000.0625,1015.0900268554688,-400000.0625,-12504.3896484375,-400000.0625
243.30459666252136,-400000.0625,-14234.16015625,-11438.75,-400000.0625,1052.81005859375,-400000.0625,-12455.509765625,-400000.0625
243.33359050750732,-400000.0625,-14209.1298828125,-11415.4404296875,-400000.0625,1086.8599853515625,-400000.0625,-12427.5703125,-400000.0625
243.34306406974792,-400000.0625,-14235.7802734375,-11432.9404296875,-400000.0625,1088.2900390625,-400000.0625,-12460.8095703125,-400000.0625
243.3580195903778,-400000.0625,-14297.5302734375,-11485.91015625,-400000.0625,1048.8499755859375,-400000.0625,-12525.5595703125,-400000.0625
243.37204551696777,-400000.0625,-14330.2001953125,-11514.1396484375,-400000.0625,1010.22998046875,-400000.0625,-12568.759765625,-400000.0625
243.38587594032288,-400000.0625,-14316.26953125,-11499.8798828125,-400000.0625,1017.3800048828125,-400000.0625,-12554.98046875,-400000.0625
243.39709305763245,-400000.0625,-14277.26953125,-11470.1796875,-400000.0625,1047.9000244140625,-400000.0625,-12514.9296875,-400000.0625
243.4075858592987,-400000.0625,-14287.1904296875,-11478.51953125,-400000.0625,1066.1600341796875,-400000.0625,-12520.599609375,-400000.0625
243.43738961219788,-400000.0625,-14343.3603515625,-11520.669921875,-400000.0625,1057.9100341796875,-400000.0625,-12585.6904296875,-400000.0625
243.44597673416138,-400000.0625,-14395.51953125,-11562.6796875,-400000.0625,1021.3400268554688,-400000.0625,-12644.009765625,-400000.0625
243.45375776290894,-400000.0625,-14384.7001953125,-11552.5302734375,-400000.0625,1024.43994140625,-400000.0625,-12635.66015625,-400000.0625
243.46789073944092,-400000.0625,-14320.1396484375,-11494.73046875,-400000.0625,1077.75,-400000.0625,-12569.9501953125,-400000.0625
243.4837737083435,-400000.0625,-14314.2197265625,-11490.7802734375,-400000.0625,1092.9599609375,-400000.0625,-12561.7001953125,-400000.0625
243.4960732460022,-400000.0625,-14369.3896484375,-11541.419921875,-400000.0625,1068.3499755859375,-400000.0625,-12619.6396484375,-400000.0625
243.50690388679504,-400000.0625,-14436.2900390625,-11598.400390625,-400000.0625,1021.6699829101562,-400000.0625,-12692.169921875,-400000.0625
243.51571798324585,-400000.0625,-14450.83984375,-11607.2197265625,-400000.0625,999.5499877929688,-400000.0625,-12713.150390625,-400000.0625
243.54926228523254,-400000.0625,-14398.3896484375,-11562.73046875,-400000.0625,1037.1700439453125,-400000.0625,-12667.7998046875,-400000.0625
243.56249260902405,-400000.0625,-14359.669921875,-11527.73046875,-400000.0625,1096.77001953125,-400000.0625,-12620.58984375,-400000.0625
243.57515692710876,-400000.0625,-14394.9501953125,-11559.33984375,-400000.0625,1089.6700439453125,-400000.0625,-12656.98046875,-400000.0625
243.59654545783997,-400000.0625,-14465.2900390625,-11614.2802734375,-400000.0625,1043.8399658203125,-400000.0625,-12733.83984375,-400000.0625
243.61949563026428,-400000.0625,-14502.5703125,-11641.3095703125,-400000.0625,1016.9500122070312,-400000.0625,-12773.3701171875,-400000.0625
243.65716195106506,-400000.0625,-14481.58984375,-11622.9501953125,-400000.0625,1024.3399658203125,-400000.0625,-12759.5,-400000.0625
243.66868948936462,-400000.0625,-14425.08984375,-11574.080078125,-400000.0625,1064.8299560546875,-400000.0625,-12704.759765625,-400000.0625
243.68295240402222,-400000.0625,-14410.5498046875,-11562.8701171875,-400000.0625,1094.06005859375,-400000.0625,-12687.7802734375,-400000.0625
243.6974902153015,-400000.0625,-14465.4296875,-11612.26953125,-400000.0625,1074.8399658203125,-400000.0625,-12745.669921875,-400000.0625
243.71109557151794,-400000.0625,-14530.66015625,-11666.8203125,-400000.0625,1036.4100341796875,-400000.0625,-12823.0595703125,-400000.0625
243.72449016571045,-400000.0625,-14543.9599609375,-11676.0703125,-400000.0625,1025.1500244140625,-400000.0625,-12838.75,-400000.0625
243.761061668396,-400000.0625,-14502.3798828125,-11642.83984375,-400000.0625,1049.0899658203125,-400000.0625,-12800.5498046875,-400000.0625
243.76949667930603,-400000.0625,-14465.1396484375,-11614.2802734375,-400000.0625,1084.8499755859375,-400000.0625,-12760.6904296875,-400000.0625
243.77893662452698,-400000.0625,-14483.740234375,-11626.8203125,-400000.0625,1088.6199951171875,-400000.0625,-12782.5302734375,-400000.0625
243.78888869285583,-400000.0625,-14544.919921875,-11678.740234375,-400000.0625,1047.800048828125,-400000.0625,-12855.2900390625,-400000.0625
243.8089861869812,-400000.0625,-14579.4404296875,-11707.9697265625,-400000.0625,1025.43994140625,-400000.0625,-12892.6796875,-400000.0625
243.81983017921448,-400000.0625,-14558.75,-11682.849609375,-400000.0625,1042.4100341796875,-400000.0625,-12873.75,-400000.0625
243.83599972724915,-400000.0625,-14512.830078125,-11646.4599609375,-400000.0625,1077.989990234375,-400000.0625,-12830.400390625,-400000.0625
243.87146925926208,-400000.0625,-14509.25,-11647.3203125,-400000.0625,1089.530029296875,-400000.0625,-12818.5302734375,-400000.0625
243.88249945640564,-400000.0625,-14559.1298828125,-11690.2802734375,-400000.0625,1063.5400390625,-400000.0625,-12867.599609375,-400000.0625
243.89101123809814,-400000.0625,-14611.48046875,-11734.490234375,-400000.0625,1035.260009765625,-400000.0625,-12929.76953125,-400000.0625
243.90220499038696,-400000.0625,-14620.9697265625,-11741.259765625,-400000.0625,1027.9200439453125,-400000.0625,-12946.23046875,-400000.0625
243.9164867401123,-400000.0625,-14586.5,-11711.9296875,-400000.0625,1054.3800048828125,-400000.0625,-12913.849609375,-400000.0625
243.92845821380615,-400000.0625,-14556.8896484375,-11687.08984375,-400000.0625,1086.9000244140625,-400000.0625,-12882.51953125,-400000.0625
243.93910574913025,-400000.0625,-14568.1396484375,-11696.33984375,-400000.0625,1085.949951171875,-400000.0625,-12888.240234375,-400000.0625
243.97156429290771,-400000.0625,-14618.919921875,-11741.9296875,-400000.0625,1046.469970703125,-400000.0625,-12953.3798828125,-400000.0625
243.98266983032227,-400000.0625,-14658.740234375,-11772.73046875,-400000.0625,1017.47998046875,-400000.0625,-13000.5400390625,-400000.0625
243.9902799129486,-400000.0625,-14634.419921875,-11746.6904296875,-400000.0625,1037.4100341796875,-400000.0625,-12977.7001953125,-400000.0625
244.00303840637207,-400000.0625,-14597.509765625,-11718.6103515625,-400000.0625,1074.739990234375,-400000.0625,-12935.2099609375,-400000.0625
244.01277232170105,-400000.0625,-14599.2802734375,-11724.330078125,-400000.0625,1085.22998046875,-400000.0625,-12936.400390625,-400000.0625
244.02676153182983,-400000.0625,-14635.0400390625,-11755.0400390625,-400000.0625,1068.0699462890625,-400000.0625,-12980.509765625,-400000.0625
244.03983211517334,-400000.0625,-14678.2900390625,-11793.849609375,-400000.0625,1027.72998046875,-400000.0625,-13031.8701171875,-400000.0625
244.07084822654724,-400000.0625,-14693.6396484375,-11807.2998046875,-400000.0625,1005.5499877929688,-400000.0625,-13049.3203125,-400000.0625
244.08116745948792,-400000.0625,-14656.5498046875,-11771.8203125,-400000.0625,1049.22998046875,-400000.0625,-13012.169921875,-400000.0625
244.09713411331177,-400000.0625,-14615.4404296875,-11739.5400390625,-400000.0625,1102.5899658203125,-400000.0625,-12971.9697265625,-400000.0625
244.11081767082214,-400000.0625,-14639.7099609375,-11762.4296875,-400000.0625,1092.77001953125,-400000.0625,-12997.3896484375,-400000.0625
244.12385892868042,-400000.0625,-14695.8798828125,-11809.0595703125,-400000.0625,1050.0,-400000.0625,-13057.8095703125,-400000.0625
244.13778066635132,-400000.0625,-14732.83984375,-11840.9599609375,-400000.0625,1017.0499877929688,-400000.0625,-13107.6396484375,-400000.0625
244.1501874923706,-400000.0625,-14718.76953125,-11829.1904296875,-400000.0625,1019.719970703125,-400000.0625,-13090.6103515625,-400000.0625
244.1787829399109,-400000.0625,-14664.83984375,-11788.7001953125,-400000.0625,1060.3900146484375,-400000.0625,-13039.7802734375,-400000.0625
244.1894338130951,-400000.0625,-14664.2197265625,-11791.6103515625,-400000.0625,1082.0899658203125,-400000.0625,-13039.400390625,-400000.0625
244.2023205757141,-400000.0625,-14706.1796875,-11827.900390625,-400000.0625,1065.6400146484375,-400000.0625,-13084.169921875,-400000.0625
244.21177124977112,-400000.0625,-14759.01953125,-11872.8701171875,-400000.0625,1025.8199462890625,-400000.0625,-13144.2998046875,-400000.0625
244.2242193222046,-400000.0625,-14770.7998046875,-11885.1201171875,-400000.0625,1011.6599731445312,-400000.0625,-13159.7099609375,-400000.0625
244.23548698425293,-400000.0625,-14720.0595703125,-11845.400390625,-400000.0625,1045.989990234375,-400000.0625,-13112.3095703125,-400000.0625
244.24621176719666,-400000.0625,-14684.3896484375,-11816.3603515625,-400000.0625,1084.280029296875,-400000.0625,-13072.6796875,-400000.0625
244.2579562664032,-400000.0625,-14714.33984375,-11842.4404296875,-400000.0625,1085.22998046875,-400000.0625,-13100.9599609375,-400000.0625
244.29010200500488,-400000.0625,-14771.1298828125,-11889.98046875,-400000.0625,1043.030029296875,-400000.0625,-13164.4296875,-400000.0625
244.30107998847961,-400000.0625,-14801.1201171875,-11913.58984375,-400000.0625,1005.5999755859375,-400000.0625,-13200.0,-400000.0625
244.30855798721313,-400000.0625,-14774.1298828125,-11888.509765625,-400000.0625,1027.25,-400000.0625,-13174.8701171875,-400000.0625
244.31958198547363,-400000.0625,-14740.7998046875,-11865.330078125,-400000.0625,1059.43994140625,-400000.0625,-13140.1103515625,-400000.0625
244.32954716682434,-400000.0625,-14738.509765625,-11869.669921875,-400000.0625,1076.8900146484375,-400000.0625,-13141.2001953125,-400000.0625
244.345041513443,-400000.0625,-14772.0400390625,-11896.5595703125,-400000.0625,1057.239990234375,-400000.0625,-13183.3095703125,-400000.0625
244.36189317703247,-400000.0625,-14820.8203125,-11937.0498046875,-400000.0625,1014.3300170898438,-400000.0625,-13237.1396484375,-400000.0625
244.39194416999817,-400000.0625,-14829.6396484375,-11943.7197265625,-400000.0625,1006.97998046875,-400000.0625,-13245.9697265625,-400000.0625
244.40457963943481,-400000.0625,-14782.2900390625,-11905.7197265625,-400000.0625,1048.4200439453125,-400000.0625,-13202.240234375,-400000.0625
244.41443467140198,-400000.0625,-14738.23046875,-11873.0595703125,-400000.0625,1089.8599853515625,-400000.0625,-13160.0400390625,-400000.0625
244.4247486591339,-400000.0625,-14757.01953125,-11885.259765625,-400000.0625,1083.760009765625,-400000.0625,-13179.349609375,-400000.0625
244.43716192245483,-400000.0625,-14827.0595703125,-11944.4404296875,-400000.0625,1040.7900390625,-400000.0625,-13254.830078125,-400000.0625
244.44721126556396,-400000.0625,-14866.4501953125,-11979.2998046875,-400000.0625,1004.8400268554688,-400000.0625,-13295.599609375,-400000.0625
244.4551682472229,-400000.0625,-14835.6904296875,-11956.5498046875,-400000.0625,1021.0999755859375,-400000.0625,-13269.8603515625,-400000.0625
244.46283054351807,-400000.0625,-14792.349609375,-11923.9296875,-400000.0625,1063.489990234375,-400000.0625,-13223.599609375,-400000.0625
244.48686456680298,-400000.0625,-14785.8603515625,-11922.98046875,-400000.0625,1076.3599853515625,-400000.0625,-13212.25,-400000.0625
244.497864484787,-400000.0625,-14832.58984375,-11962.0302734375,-400000.0625,1054.18994140625,-400000.0625,-13260.75,-400000.0625
244.50780940055847,-400000.0625,-14886.0,-12005.1904296875,-400000.0625,1014.9500122070312,-400000.0625,-13315.349609375,-400000.0625
244.51940608024597,-400000.0625,-14884.7099609375,-12006.7099609375,-400000.0625,1008.510009765625,-400000.0625,-13322.7802734375,-400000.0625
244.53240537643433,-400000.0625,-14828.919921875,-11960.599609375,-400000.0625,1045.75,-400000.0625,-13266.990234375,-400000.0625
244.5416431427002,-400000.0625,-14802.1201171875,-11939.5703125,-400000.0625,1077.3699951171875,-400000.0625,-13236.48046875,-400000.0625
244.54892802238464,-400000.0625,-14837.26953125,-11974.6201171875,-400000.0625,1066.2099609375,-400000.0625,-13278.7197265625,-400000.0625
244.5566051006317,-400000.0625,-14899.1103515625,-12029.740234375,-400000.0625,1027.5799560546875,-400000.0625,-13347.8203125,-400000.0625
244.56838870048523,-400000.0625,-14925.2001953125,-12053.0595703125,-400000.0625,1000.6900024414062,-400000.0625,-13381.2001953125,-400000.0625
244.60680747032166,-400000.0625,-14889.33984375,-12026.83984375,-400000.0625,1017.0,-400000.0625,-13349.150390625,-400000.0625
244.61798763275146,-400000.0625,-14844.3701171875,-11991.7900390625,-400000.0625,1062.010009765625,-400000.0625,-13299.0400390625,-400000.0625
244.6281464099884,-400000.0625,-14842.3203125,-11990.01953125,-400000.0625,1075.0799560546875,-400000.0625,-13296.75,-400000.0625
244.63834595680237,-400000.0625,-14881.23046875,-12024.3603515625,-400000.0625,1049.469970703125,-400000.0625,-13345.7197265625,-400000.0625
244.64761686325073,-400000.0625,-14923.1904296875,-12055.1103515625,-400000.0625,1019.8099975585938,-400000.0625,-13390.349609375,-400000.0625
244.6563014984131,-400000.0625,-14929.5302734375,-12062.41015625,-400000.0625,1007.7999877929688,-400000.0625,-13395.7900390625,-400000.0625
244.66857981681824,-400000.0625,-14883.6201171875,-12029.740234375,-400000.0625,1043.93994140625,-400000.0625,-13350.1103515625,-400000.0625
244.70382857322693,-400000.0625,-14855.4296875,-12010.0,-400000.0625,1074.4599609375,-400000.0625,-13322.0703125,-400000.0625
244.71494698524475,-400000.0625,-14884.0400390625,-12035.0400390625,-400000.0625,1064.72998046875,-400000.0625,-13350.2001953125,-400000.0625
244.72355318069458,-400000.0625,-14944.1298828125,-12085.8701171875,-400000.0625,1023.719970703125,-400000.0625,-13414.1904296875,-400000.0625
244.73624420166016,-400000.0625,-14970.16015625,-12108.419921875,-400000.0625,1002.3599853515625,-400000.0625,-13444.66015625,-400000.0625
244.7490794658661,-400000.0625,-14927.6796875,-12076.900390625,-400000.0625,1027.6800537109375,-400000.0625,-13408.7099609375,-400000.0625
244.75792050361633,-400000.0625,-14880.5595703125,-12040.1904296875,-400000.0625,1067.969970703125,-400000.0625,-13355.8798828125,-400000.0625
244.7704827785492,-400000.0625,-14885.669921875,-12044.8603515625,-400000.0625,1075.510009765625,-400000.0625,-13362.0302734375,-400000.0625
244.80590057373047,-400000.0625,-14924.3798828125,-12075.759765625,-400000.0625,1053.8599853515625,-400000.0625,-13405.51953125,-400000.0625
244.8195230960846,-400000.0625,-14982.1796875,-12123.349609375,-400000.0625,1006.97998046875,-400000.0625,-13469.169921875,-400000.0625
244.83333659172058,-400000.0625,-14983.26953125,-12130.599609375,-400000.0625,997.260009765625,-400000.0625,-13475.1796875,-400000.0625
244.84320974349976,-400000.0625,-14940.2197265625,-12097.0703125,-400000.0625,1037.550048828125,-400000.0625,-13426.5400390625,-400000.0625
244.85201239585876,-400000.0625,-14907.080078125,-12071.0400390625,-400000.0625,1076.1300048828125,-400000.0625,-13393.3603515625,-400000.0625
244.8614706993103,-400000.0625,-14933.0595703125,-12090.1103515625,-400000.0625,1070.5,-400000.0625,-13425.919921875,-400000.0625
244.87110018730164,-400000.0625,-14988.4697265625,-12135.83984375,-400000.0625,1027.77001953125,-400000.0625,-13496.5,-400000.0625
244.90268445014954,-400000.0625,-15011.740234375,-12157.5400390625,-400000.0625,1004.0800170898438,-400000.0625,-13522.009765625,-400000.0625
244.9155569076538,-400000.0625,-14974.3095703125,-12126.9697265625,-400000.0625,1029.4000244140625,-400000.0625,-13480.9501953125,-400000.0625
244.92476963996887,-400000.0625,-14929.0595703125,-12094.3603515625,-400000.0625,1073.27001953125,-400000.0625,-13427.7802734375,-400000.0625
244.9356746673584,-400000.0625,-14931.25,-12099.1201171875,-400000.0625,1081.22998046875,-400000.0625,-13433.7001953125,-400000.0625
244.94396829605103,-400000.0625,-14971.16015625,-12128.400390625,-400000.0625,1053.239990234375,-400000.0625,-13482.759765625,-400000.0625
244.9579780101776,-400000.0625,-15011.650390625,-12160.400390625,-400000.0625,1025.010009765625,-400000.0625,-13528.4404296875,-400000.0625
244.97172570228577,-400000.0625,-15027.7197265625,-12182.330078125,-400000.0625,1004.8400268554688,-400000.0625,-13544.509765625,-400000.0625
245.00584030151367,-400000.0625,-14979.83984375,-12144.5703125,-400000.0625,1038.97998046875,-400000.0625,-13493.25,-400000.0625
245.01913404464722,-400000.0625,-14954.66015625,-12127.73046875,-400000.0625,1070.6400146484375,-400000.0625,-13466.83984375,-400000.0625
245.02951192855835,-400000.0625,-14988.51953125,-12155.25,-400000.0625,1059.8199462890625,-400000.0625,-13503.98046875,-400000.0625
245.04111433029175,-400000.0625,-15040.5400390625,-12198.58984375,-400000.0625,1020.719970703125,-400000.0625,-13564.0595703125,-400000.0625
245.0518741607666,-400000.0625,-15052.75,-12209.9404296875,-400000.0625,1002.9299926757812,-400000.0625,-13585.2802734375,-400000.0625
245.05998611450195,-400000.0625,-15019.6103515625,-12183.099609375,-400000.0625,1031.489990234375,-400000.0625,-13549.2802734375,-400000.0625
245.07015466690063,-400000.0625,-14973.01953125,-12152.4296875,-400000.0625,1076.8399658203125,-400000.0625,-13503.3095703125,-400000.0625
245.0791757106781,-400000.0625,-14983.1298828125,-12159.9697265625,-400000.0625,1081.469970703125,-400000.0625,-13513.900390625,-400000.0625
245.10700798034668,-400000.0625,-15034.5302734375,-12200.7900390625,-400000.0625,1044.56005859375,-400000.0625,-13556.76953125,-400000.0625
245.11853051185608,-400000.0625,-15066.240234375,-12234.9296875,-400000.0625,1010.0800170898438,-400000.0625,-13589.33984375,-400000.0625
245.12745261192322,-400000.0625,-15061.7099609375,-12238.4599609375,-400000.0625,1013.9000244140625,-400000.0625,-13587.8095703125,-400000.0625
245.13704109191895,-400000.0625,-15021.2802734375,-12205.599609375,-400000.0625,1056.5799560546875,-400000.0625,-13524.150390625,-400000.0625
245.1463963985443,-400000.0625,-14989.0,-12188.2001953125,-400000.0625,1085.0,-400000.0625,-13491.919921875,-400000.0625
245.15547490119934,-400000.0625,-15034.2001953125,-12228.919921875,-400000.0625,1059.199951171875,-400000.0625,-13531.349609375,-400000.0625
245.1652774810791,-400000.0625,-15100.669921875,-12287.0,-400000.0625,1009.75,-400000.0625,-13591.5302734375,-400000.0625
245.17531776428223,-400000.0625,-15109.400390625,-12296.8701171875,-400000.0625,998.780029296875,-400000.0625,-13602.7802734375,-400000.0625
245.18504905700684,-400000.0625,-15068.9599609375,-12267.9697265625,-400000.0625,1026.3900146484375,-400000.0625,-13559.4404296875,-400000.0625
245.21163964271545,-400000.0625,-15017.75,-12233.259765625,-400000.0625,1070.4000244140625,-400000.0625,-13514.330078125,-400000.0625
245.22268414497375,-400000.0625,-15023.2802734375,-12248.419921875,-400000.0625,1073.550048828125,-400000.0625,-13528.25,-400000.0625
245.23592019081116,-400000.0625,-15085.0302734375,-12306.6904296875,-400000.0625,1034.31005859375,-400000.0625,-13595.25,-400000.0625
245.2497000694275,-400000.0625,-15132.759765625,-12325.5703125,-400000.0625,998.02001953125,-400000.0625,-13626.669921875,-400000.0625
245.2827959060669,-400000.0625,-15104.7197265625,-12314.26953125,-400000.0625,1011.5599975585938,-400000.0625,-13608.7900390625,-400000.0625
245.30997157096863,-400000.0625,-15065.240234375,-12274.740234375,-400000.0625,1056.18994140625,-400000.0625,-13564.73046875,-400000.0625
245.34084916114807,-400000.0625,-15049.83984375,-12266.830078125,-400000.0625,1082.800048828125,-400000.0625,-13538.5498046875,-400000.0625
245.34948873519897,-400000.0625,-15084.7001953125,-12311.7001953125,-400000.0625,1059.1500244140625,-400000.0625,-13576.3203125,-400000.0625
245.35794234275818,-400000.0625,-15149.169921875,-12361.91015625,-400000.0625,1014.4199829101562,-400000.0625,-13647.7001953125,-400000.0625
245.37044143676758,-400000.0625,-15223.3095703125,-12370.16015625,-400000.0625,1001.5499877929688,-400000.0625,-13673.5498046875,-400000.0625
245.39695715904236,-400000.0625,-15161.849609375,-12322.7099609375,-400000.0625,1042.1800537109375,-400000.0625,-13597.2001953125,-400000.0625
245.40844202041626,-400000.0625,-15129.330078125,-12347.75,-400000.0625,1075.4599609375,-400000.0625,-13557.76953125,-400000.0625
245.42102479934692,-400000.0625,-15082.83984375,-12358.48046875,-400000.0625,1079.27001953125,-400000.0625,-13604.4501953125,-400000.0625
245.4655294418335,-400000.0625,-15094.7099609375,-12407.7802734375,-400000.0625,1038.31005859375,-400000.0625,-13700.2998046875,-400000.0625
245.47395515441895,-400000.0625,-15003.01953125,-12424.51953125,-400000.0625,1011.4199829101562,-400000.0625,-13665.490234375,-400000.0625
245.49394726753235,-400000.0625,-14808.1298828125,-12488.1796875,-400000.0625,1032.8800048828125,-400000.0625,-13548.7099609375,-400000.0625
245.50500535964966,-400000.0625,-14509.0595703125,-12495.23046875,-400000.0625,1073.27001953125,-400000.0625,-13396.740234375,-400000.0625
245.52571272850037,-400000.0625,-14245.9404296875,-12370.4404296875,-400000.0625,1126.6700439453125,-400000.0625,-13333.080078125,-400000.0625
245.56118845939636,-400000.0625,-14006.330078125,-12531.2802734375,-400000.0625,1099.06005859375,-400000.0625,-13279.25,-400000.0625
245.5981674194336,-400000.0625,-13927.650390625,-12550.830078125,-400000.0625,1040.8399658203125,-400000.0625,-13194.6103515625,-400000.0625
245.61822080612183,-400000.0625,-13731.099609375,-12599.51953125,-400000.0625,1041.1300048828125,-400000.0625,-13058.3798828125,-400000.0625
245.63232946395874,-400000.0625,-13198.330078125,-12605.240234375,-400000.0625,1116.6600341796875,-400000.0625,-12728.7900390625,-400000.0625
245.6629719734192,-400000.0625,-12850.3798828125,-12404.58984375,-400000.0625,1181.510009765625,-400000.0625,-12345.8896484375,-400000.0625
245.6784212589264,-400000.0625,-12594.990234375,-12428.6201171875,-400000.0625,1153.3699951171875,-400000.0625,-12171.26953125,-400000.0625
245.69261765480042,-400000.0625,-12437.919921875,-12527.23046875,-400000.0625,1105.02001953125,-400000.0625,-12095.3095703125,-400000.0625
245.71173691749573,-400000.0625,-12270.6396484375,-12571.099609375,-400000.0625,1091.47998046875,-400000.0625,-12011.48046875,-400000.0625
245.7240264415741,-400000.0625,-12269.2099609375,-12394.2900390625,-400000.0625,1136.72998046875,-400000.0625,-11793.51953125,-400000.0625
245.73559594154358,-400000.0625,-12162.400390625,-12298.0595703125,-400000.0625,1193.6700439453125,-400000.0625,-11425.0703125,-400000.0625
245.75434827804565,-400000.0625,-11952.9697265625,-12291.669921875,-400000.0625,1209.2099609375,-400000.0625,-11278.580078125,-400000.0625
245.7603657245636,-400000.0625,-11736.8203125,-12226.009765625,-400000.0625,1168.8199462890625,-400000.0625,-11168.33984375,-400000.0625
245.76674723625183,-400000.0625,-11391.0703125,-12129.2099609375,-400000.0625,1111.030029296875,-400000.0625,-11076.5498046875,-400000.0625
245.7782347202301,-400000.0625,-10939.98046875,-12155.8701171875,-400000.0625,1140.02001953125,-400000.0625,-10933.6396484375,-400000.0625
245.78652358055115,-400000.0625,-10644.25,-12064.1201171875,-400000.0625,1197.5799560546875,-400000.0625,-10777.4296875,-400000.0625
245.79241561889648,-400000.0625,-10410.740234375,-11955.4501953125,-400000.0625,1235.2900390625,-400000.0625,-10657.83984375,-400000.0625
245.79827570915222,-400000.0625,-10157.400390625,-11917.8798828125,-400000.0625,1223.22998046875,-400000.0625,-10685.919921875,-400000.0625
245.80404448509216,-400000.0625,-10023.259765625,-11858.509765625,-400000.0625,1189.1400146484375,-400000.0625,-10661.509765625,-400000.0625
245.80983543395996,-400000.0625,-10077.330078125,-11788.26953125,-400000.0625,1171.2099609375,-400000.0625,-10694.169921875,-400000.0625
245.8159101009369,-400000.0625,-10101.41015625,-11708.9296875,-400000.0625,1208.1600341796875,-400000.0625,-10706.6201171875,-400000.0625
245.82159852981567,-400000.0625,-10053.25,-11631.6796875,-400000.0625,1264.1400146484375,-400000.0625,-10738.330078125,-400000.0625
245.82805252075195,-400000.0625,-10065.3203125,-11611.5595703125,-400000.0625,1266.3800048828125,-400000.0625,-10852.5302734375,-400000.0625
245.8374559879303,-400000.0625,-10227.490234375,-11631.2001953125,-400000.0625,1225.9000244140625,-400000.0625,-11032.5302734375,-400000.0625
245.85734391212463,-400000.0625,-10378.1201171875,-11651.6103515625,-400000.0625,1180.5999755859375,-400000.0625,-11229.23046875,-400000.0625
245.86430764198303,-400000.0625,-10478.8798828125,-11619.759765625,-400000.0625,1181.0799560546875,-400000.0625,-11368.3701171875,-400000.0625
245.87193250656128,-400000.0625,-10608.580078125,-11564.259765625,-400000.0625,1237.25,-400000.0625,-11451.0498046875,-400000.0625
245.87960171699524,-400000.0625,-10783.009765625,-11548.1396484375,-400000.0625,1274.969970703125,-400000.0625,-11560.4404296875,-400000.0625
245.88651609420776,-400000.0625,-11010.26953125,-11569.169921875,-400000.0625,1255.510009765625,-400000.0625,-11726.9501953125,-400000.0625
245.89368629455566,-400000.0625,-11266.419921875,-11613.7001953125,-400000.0625,1220.75,-400000.0625,-11910.490234375,-400000.0625
245.91019678115845,-400000.0625,-11534.259765625,-11652.3798828125,-400000.0625,1190.760009765625,-400000.0625,-12071.4697265625,-400000.0625
245.92057752609253,-400000.0625,-11768.76953125,-11650.5595703125,-400000.0625,1213.5,-400000.0625,-12174.66015625,-400000.0625
245.9289276599884,-400000.0625,-11987.259765625,-11629.5400390625,-400000.0625,1258.75,-400000.0625,-12237.169921875,-400000.0625
245.93621802330017,-400000.0625,-12239.1201171875,-11647.650390625,-400000.0625,1253.1800537109375,-400000.0625,-12334.4404296875,-400000.0625
245.943838596344,-400000.0625,-12523.0302734375,-11703.6796875,-400000.0625,1203.43994140625,-400000.0625,-12492.2802734375,-400000.0625
245.96393465995789,-400000.0625,-12767.3203125,-11748.169921875,-400000.0625,1164.77001953125,-400000.0625,-12635.2802734375,-400000.0625
245.97058725357056,-400000.0625,-12921.0498046875,-11750.7900390625,-400000.0625,1168.9200439453125,-400000.0625,-12721.16015625,-400000.0625
245.98446583747864,-400000.0625,-13008.9296875,-11728.8603515625,-400000.0625,1199.3399658203125,-400000.0625,-12764.3095703125,-400000.0625
245.99615573883057,-400000.0625,-13095.4296875,-11709.830078125,-400000.0625,1230.81005859375,-400000.0625,-12807.9404296875,-400000.0625
246.00366830825806,-400000.0625,-13226.3701171875,-11724.759765625,-400000.0625,1211.9300537109375,-400000.0625,-12899.4501953125,-400000.0625
246.01178789138794,-400000.0625,-13380.099609375,-11776.0703125,-400000.0625,1156.0400390625,-400000.0625,-13019.990234375,-400000.0625
246.01958346366882,-400000.0625,-13468.9296875,-11794.3798828125,-400000.0625,1121.0899658203125,-400000.0625,-13104.6298828125,-400000.0625
246.02659559249878,-400000.0625,-13489.25,-11766.150390625,-400000.0625,1146.8399658203125,-400000.0625,-13120.509765625,-400000.0625
246.03338479995728,-400000.0625,-13499.830078125,-11741.58984375,-400000.0625,1186.800048828125,-400000.0625,-13115.4599609375,-400000.0625
246.040141582489,-400000.0625,-13540.080078125,-11749.7900390625,-400000.0625,1178.219970703125,-400000.0625,-13154.83984375,-400000.0625
246.04801988601685,-400000.0625,-13597.0595703125,-11791.7998046875,-400000.0625,1135.72998046875,-400000.0625,-13247.6796875,-400000.0625
246.07005643844604,-400000.0625,-13642.5498046875,-11840.4404296875,-400000.0625,1095.010009765625,-400000.0625,-13331.2197265625,-400000.0625
246.0775125026703,-400000.0625,-13629.7197265625,-11835.8095703125,-400000.0625,1092.3399658203125,-400000.0625,-13355.830078125,-400000.0625
246.08533787727356,-400000.0625,-13575.41015625,-11794.2802734375,-400000.0625,1128.2900390625,-400000.0625,-13328.7001953125,-400000.0625
246.0935459136963,-400000.0625,-13526.4404296875,-11772.8701171875,-400000.0625,1150.1300048828125,-400000.0625,-13320.259765625,-400000.0625
246.10209679603577,-400000.0625,-13532.4501953125,-11804.4404296875,-400000.0625,1132.8699951171875,-400000.0625,-13371.51953125,-400000.0625
246.10926461219788,-400000.0625,-13569.1201171875,-11858.75,-400000.0625,1084.949951171875,-400000.0625,-13451.5302734375,-400000.0625
246.13118839263916,-400000.0625,-13573.98046875,-11872.580078125,-400000.0625,1055.18994140625,-400000.0625,-13491.3896484375,-400000.0625
246.14772701263428,-400000.0625,-13522.25,-11844.919921875,-400000.0625,1070.7900390625,-400000.0625,-13470.75,-400000.0625
246.1578962802887,-400000.0625,-13469.7900390625,-11816.5,-400000.0625,1123.47998046875,-400000.0625,-13451.2001953125,-400000.0625
246.18977880477905,-400000.0625,-13482.6201171875,-11831.0498046875,-400000.0625,1125.2900390625,-400000.0625,-13471.650390625,-400000.0625
246.20714473724365,-400000.0625,-13530.490234375,-11871.4296875,-400000.0625,1086.8599853515625,-400000.0625,-13535.830078125,-400000.0625
246.22098588943481,-400000.0625,-13573.650390625,-11904.91015625,-400000.0625,1050.6199951171875,-400000.0625,-13597.73046875,-400000.0625
246.2376742362976,-400000.0625,-13570.6396484375,-11897.849609375,-400000.0625,1049.949951171875,-400000.0625,-13600.9697265625,-400000.0625
246.24783658981323,-400000.0625,-13535.41015625,-11865.6201171875,-400000.0625,1093.6700439453125,-400000.0625,-13567.8798828125,-400000.0625
246.25608921051025,-400000.0625,-13524.25,-11865.2802734375,-400000.0625,1119.3800048828125,-400000.0625,-13550.9501953125,-400000.0625
246.2669231891632,-400000.0625,-13555.76953125,-11882.2099609375,-400000.0625,1092.3900146484375,-400000.0625,-13587.0498046875,-400000.0625
246.29688024520874,-400000.0625,-13632.6298828125,-11911.73046875,-400000.0625,1042.030029296875,-400000.0625,-13663.2001953125,-400000.0625
246.31092262268066,-400000.0625,-13667.2001953125,-11928.1298828125,-400000.0625,988.719970703125,-400000.0625,-13680.080078125,-400000.0625
246.3228235244751,-400000.0625,-13648.4599609375,-11902.91015625,-400000.0625,949.530029296875,-400000.0625,-13657.0498046875,-400000.0625
246.33636569976807,-400000.0625,-13622.6201171875,-11878.2099609375,-400000.0625,952.6699829101562,-400000.0625,-13629.490234375,-400000.0625
246.35091948509216,-400000.0625,-13640.599609375,-11905.240234375,-400000.0625,988.0999755859375,-400000.0625,-13649.1796875,-400000.0625
246.36175394058228,-400000.0625,-13738.58984375,-11947.73046875,-400000.0625,1012.1300048828125,-400000.0625,-13710.599609375,-400000.0625
246.37417674064636,-400000.0625,-13769.2001953125,-12028.9296875,-400000.0625,999.4000244140625,-400000.0625,-13791.849609375,-400000.0625
246.39846539497375,-400000.0625,-13721.0400390625,-12012.6298828125,-400000.0625,977.7100219726562,-400000.0625,-13760.900390625,-400000.0625
246.41117691993713,-400000.0625,-13757.419921875,-11904.76953125,-400000.0625,978.22998046875,-400000.0625,-13685.900390625,-400000.0625
246.42289304733276,-400000.0625,-13736.6298828125,-11905.8603515625,-400000.0625,1027.25,-400000.0625,-13685.990234375,-400000.0625
246.43074345588684,-400000.0625,-13575.4599609375,-11955.599609375,-400000.0625,1070.7900390625,-400000.0625,-13666.5400390625,-400000.0625
246.43773484230042,-400000.0625,-13502.1201171875,-11999.1796875,-400000.0625,1065.9200439453125,-400000.0625,-13663.33984375,-400000.0625
246.44532012939453,-400000.0625,-13494.7802734375,-12041.51953125,-400000.0625,1056.3399658203125,-400000.0625,-13676.7900390625,-400000.0625
246.45239782333374,-400000.0625,-13484.76953125,-12049.009765625,-400000.0625,1091.8599853515625,-400000.0625,-13683.650390625,-400000.0625
246.45899081230164,-400000.0625,-13400.2197265625,-12036.990234375,-400000.0625,1165.06005859375,-400000.0625,-13482.6201171875,-400000.0625
246.46648335456848,-400000.0625,-13370.1298828125,-12048.91015625,-400000.0625,1178.7900390625,-400000.0625,-13347.25,-400000.0625
246.47351145744324,-400000.0625,-13447.8095703125,-12182.240234375,-400000.0625,1157.9000244140625,-400000.0625,-13255.6904296875,-400000.0625
246.48100972175598,-400000.0625,-13480.08984375,-12225.009765625,-400000.0625,1141.5,-400000.0625,-13108.1103515625,-400000.0625
246.49904251098633,-400000.0625,-13423.6796875,-12168.98046875,-400000.0625,1161.2900390625,-400000.0625,-12930.25,-400000.0625
246.50515747070312,-400000.0625,-13206.8603515625,-12168.1201171875,-400000.0625,1198.3900146484375,-400000.0625,-12697.7001953125,-400000.0625
246.51241517066956,-400000.0625,-12844.75,-12031.41015625,-400000.0625,1246.5,-400000.0625,-12453.509765625,-400000.0625
246.51878714561462,-400000.0625,-12575.48046875,-12082.669921875,-400000.0625,1239.489990234375,-400000.0625,-12296.9599609375,-400000.0625
246.5246696472168,-400000.0625,-12439.5400390625,-12081.2001953125,-400000.0625,1172.449951171875,-400000.0625,-12244.7998046875,-400000.0625
246.53146195411682,-400000.0625,-12087.5400390625,-12057.58984375,-400000.0625,1171.260009765625,-400000.0625,-12077.1396484375,-400000.0625
246.53924298286438,-400000.0625,-12004.7099609375,-11959.650390625,-400000.0625,1212.5999755859375,-400000.0625,-11890.2197265625,-400000.0625
246.54574823379517,-400000.0625,-12126.73046875,-11862.3701171875,-400000.0625,1260.1400146484375,-400000.0625,-11688.4697265625,-400000.0625
246.55225110054016,-400000.0625,-12114.7197265625,-11795.8095703125,-400000.0625,1265.4300537109375,-400000.0625,-11486.8203125,-400000.0625
246.55856490135193,-400000.0625,-12122.5400390625,-11781.98046875,-400000.0625,1214.7900390625,-400000.0625,-11484.4296875,-400000.0625
246.56534790992737,-400000.0625,-12128.16015625,-11771.580078125,-400000.0625,1184.1800537109375,-400000.0625,-11480.4296875,-400000.0625
246.57172560691833,-400000.0625,-12120.1103515625,-11714.0302734375,-400000.0625,1203.5400390625,-400000.0625,-11422.2099609375,-400000.0625
246.57826948165894,-400000.0625,-12144.900390625,-11643.98046875,-400000.0625,1257.800048828125,-400000.0625,-11378.150390625,-400000.0625
246.58863139152527,-400000.0625,-12135.83984375,-11591.25,-400000.0625,1280.31005859375,-400000.0625,-11391.1201171875,-400000.0625
246.61416268348694,-400000.0625,-12162.259765625,-11630.9697265625,-400000.0625,1252.219970703125,-400000.0625,-11543.7998046875,-400000.0625
246.62146091461182,-400000.0625,-12221.0498046875,-11721.330078125,-400000.0625,1202.9599609375,-400000.0625,-11652.51953125,-400000.0625
246.6278305053711,-400000.0625,-12155.8203125,-11686.3701171875,-400000.0625,1194.2900390625,-400000.0625,-11654.4296875,-400000.0625
246.63461065292358,-400000.0625,-12059.6396484375,-11637.01953125,-400000.0625,1237.9200439453125,-400000.0625,-11660.76953125,-400000.0625
246.6417691707611,-400000.0625,-12022.400390625,-11630.580078125,-400000.0625,1279.6400146484375,-400000.0625,-11685.08984375,-400000.0625
246.64996433258057,-400000.0625,-12069.1298828125,-11682.4599609375,-400000.0625,1264.52001953125,-400000.0625,-11789.7998046875,-400000.0625
246.65643692016602,-400000.0625,-12168.7900390625,-11752.7001953125,-400000.0625,1209.5899658203125,-400000.0625,-11909.4404296875,-400000.0625
246.6668906211853,-400000.0625,-12250.759765625,-11787.849609375,-400000.0625,1181.7900390625,-400000.0625,-12006.0498046875,-400000.0625
246.67297196388245,-400000.0625,-12309.4599609375,-11782.080078125,-400000.0625,1205.300048828125,-400000.0625,-12052.6298828125,-400000.0625
246.6808431148529,-400000.0625,-12350.75,-11753.5595703125,-400000.0625,1240.300048828125,-400000.0625,-12067.41015625,-400000.0625
246.68730306625366,-400000.0625,-12437.5400390625,-11768.7197265625,-400000.0625,1242.8800048828125,-400000.0625,-12122.4404296875,-400000.0625
246.69428968429565,-400000.0625,-12592.650390625,-11828.23046875,-400000.0625,1214.8900146484375,-400000.0625,-12248.900390625,-400000.0625
246.71292281150818,-400000.0625,-12764.0302734375,-11888.1201171875,-400000.0625,1175.449951171875,-400000.0625,-12375.6904296875,-400000.0625
246.71901297569275,-400000.0625,-12900.830078125,-11914.2099609375,-400000.0625,1163.47998046875,-400000.0625,-12464.0498046875,-400000.0625
246.72516870498657,-400000.0625,-12995.9599609375,-11894.509765625,-400000.0625,1195.81005859375,-400000.0625,-12493.419921875,-400000.0625
246.73246574401855,-400000.0625,-13093.7099609375,-11879.400390625,-400000.0625,1228.280029296875,-400000.0625,-12513.349609375,-400000.0625
246.73902034759521,-400000.0625,-13225.509765625,-11889.5498046875,-400000.0625,1209.2099609375,-400000.0625,-12598.4697265625,-400000.0625
246.74551391601562,-400000.0625,-13383.91015625,-11932.900390625,-400000.0625,1156.22998046875,-400000.0625,-12726.0703125,-400000.0625
246.7528305053711,-400000.0625,-13499.4501953125,-11960.0302734375,-400000.0625,1127.4300537109375,-400000.0625,-12828.830078125,-400000.0625
246.76123642921448,-400000.0625,-13542.6103515625,-11942.48046875,-400000.0625,1143.68994140625,-400000.0625,-12870.1201171875,-400000.0625
246.76811981201172,-400000.0625,-13544.7001953125,-11906.150390625,-400000.0625,1182.219970703125,-400000.0625,-12876.849609375,-400000.0625
246.7742462158203,-400000.0625,-13574.3203125,-11913.8701171875,-400000.0625,1176.5,-400000.0625,-12918.4296875,-400000.0625
246.7817690372467,-400000.0625,-13663.48046875,-11941.009765625,-400000.0625,1142.0699462890625,-400000.0625,-13014.4599609375,-400000.0625
246.79003143310547,-400000.0625,-13751.0302734375,-11994.650390625,-400000.0625,1097.72998046875,-400000.0625,-13117.169921875,-400000.0625
246.79787492752075,-400000.0625,-13772.9697265625,-11996.1298828125,-400000.0625,1075.1700439453125,-400000.0625,-13164.4697265625,-400000.0625
246.8154604434967,-400000.0625,-13742.5400390625,-11959.599609375,-400000.0625,1089.2900390625,-400000.0625,-13157.4599609375,-400000.0625
246.82235169410706,-400000.0625,-13725.5703125,-11934.2802734375,-400000.0625,1118.3699951171875,-400000.0625,-13148.400390625,-400000.0625
246.82961797714233,-400000.0625,-13747.0703125,-11949.1103515625,-400000.0625,1094.6300048828125,-400000.0625,-13192.0400390625,-400000.0625
246.83563947677612,-400000.0625,-13802.33984375,-11995.650390625,-400000.0625,1065.4000244140625,-400000.0625,-13278.6796875,-400000.0625
246.84144377708435,-400000.0625,-13831.6201171875,-12022.6904296875,-400000.0625,1022.0999755859375,-400000.0625,-13341.48046875,-400000.0625
246.84747767448425,-400000.0625,-13804.009765625,-11994.4599609375,-400000.0625,844.6199951171875,-400000.0625,-13340.759765625,-400000.0625
246.85349130630493,-400000.0625,-13757.759765625,-11951.73046875,-400000.0625,448.17999267578125,-400000.0625,-13303.4697265625,-400000.0625
246.8592233657837,-400000.0625,-13748.7001953125,-11952.3095703125,-400000.0625,494.04998779296875,-400000.0625,-13315.0595703125,-400000.0625
246.86523365974426,-400000.0625,-13789.23046875,-12000.1796875,-400000.0625,742.239990234375,-400000.0625,-13386.580078125,-400000.0625
246.8716902732849,-400000.0625,-13842.2001953125,-12046.0498046875,-400000.0625,871.22998046875,-400000.0625,-13457.490234375,-400000.0625
246.8780300617218,-400000.0625,-13845.01953125,-12039.330078125,-400000.0625,758.4099731445312,-400000.0625,-13473.7001953125,-400000.0625
246.88398337364197,-400000.0625,-13782.83984375,-11990.3603515625,-400000.0625,519.0800170898438,-400000.0625,-13434.4599609375,-400000.0625
246.88978242874146,-400000.0625,-13753.9404296875,-11963.6103515625,-400000.0625,203.66000366210938,-400000.0625,-13414.4296875,-400000.0625
246.89582633972168,-400000.0625,-13774.01953125,-11989.01953125,-400000.0625,-94.18000030517578,-400000.0625,-13451.099609375,-400000.0625
246.90190243721008,-400000.0625,-13838.8203125,-12035.419921875,-400000.0625,114.97000122070312,-400000.0625,-13527.73046875,-400000.0625
246.91774773597717,-400000.0625,-13874.3896484375,-12056.2099609375,-400000.0625,291.05999755859375,-400000.0625,-13575.2197265625,-400000.0625
246.92364168167114,-400000.0625,-13860.2802734375,-12035.66015625,-400000.0625,-131.4199981689453,-400000.0625,-13562.3896484375,-400000.0625
246.9348430633545,-400000.0625,-13814.5498046875,-11989.830078125,-400000.0625,-859.1699829101562,-400000.0625,-13517.7197265625,-400000.0625
246.9436182975769,-400000.0625,-13815.4501953125,-11990.169921875,-400000.0625,-1026.5799560546875,-400000.0625,-13519.33984375,-400000.0625
246.95288681983948,-400000.0625,-13865.0400390625,-12031.2197265625,-400000.0625,-332.45001220703125,-400000.0625,-13583.4697265625,-400000.0625
246.96263551712036,-400000.0625,-13922.0703125,-12074.4697265625,-400000.0625,507.1600036621094,-400000.0625,-13649.990234375,-400000.0625
246.97193908691406,-400000.0625,-13927.2197265625,-12073.6103515625,-400000.0625,772.6199951171875,-400000.0625,-13652.7099609375,-400000.0625
246.98278331756592,-400000.0625,-13885.0703125,-12034.1298828125,-400000.0625,697.1799926757812,-400000.0625,-13606.3603515625,-400000.0625
246.99304866790771,-400000.0625,-13857.599609375,-12003.3798828125,-400000.0625,701.6199951171875,-400000.0625,-13573.0302734375,-400000.0625
247.00329637527466,-400000.0625,-13893.650390625,-12026.259765625,-400000.0625,809.5700073242188,-400000.0625,-13603.58984375,-400000.0625
247.0266628265381,-400000.0625,-13958.9296875,-12080.4296875,-400000.0625,918.3400268554688,-400000.0625,-13680.169921875,-400000.0625
247.0371572971344,-400000.0625,-13989.259765625,-12094.9296875,-400000.0625,891.260009765625,-400000.0625,-13724.3798828125,-400000.0625
247.04649353027344,-400000.0625,-13966.3203125,-12068.3701171875,-400000.0625,764.0399780273438,-400000.0625,-13694.33984375,-400000.0625
247.055016040802,-400000.0625,-13928.0302734375,-12026.9296875,-400000.0625,691.9400024414062,-400000.0625,-13640.740234375,-400000.0625
247.0639204978943,-400000.0625,-13928.2197265625,-12027.599609375,-400000.0625,755.4500122070312,-400000.0625,-13645.8896484375,-400000.0625
247.07294058799744,-400000.0625,-13978.2900390625,-12071.419921875,-400000.0625,879.0999755859375,-400000.0625,-13704.490234375,-400000.0625
247.08270049095154,-400000.0625,-14028.41015625,-12109.6103515625,-400000.0625,942.1799926757812,-400000.0625,-13761.9501953125,-400000.0625
247.09201502799988,-400000.0625,-14032.0302734375,-12107.4697265625,-400000.0625,890.2999877929688,-400000.0625,-13766.150390625,-400000.0625
247.100594997406,-400000.0625,-13989.16015625,-12065.1298828125,-400000.0625,797.8900146484375,-400000.0625,-13724.0400390625,-400000.0625
247.10903763771057,-400000.0625,-13959.740234375,-12038.7998046875,-400000.0625,785.1099853515625,-400000.0625,-13692.4296875,-400000.0625
247.13775634765625,-400000.0625,-13994.5,-12067.5595703125,-400000.0625,872.1400146484375,-400000.0625,-13719.509765625,-400000.0625
247.15012669563293,-400000.0625,-14057.2998046875,-12116.6201171875,-400000.0625,951.0999755859375,-400000.0625,-13791.4697265625,-400000.0625
247.15913558006287,-400000.0625,-14085.8203125,-12137.5595703125,-400000.0625,908.1400146484375,-400000.0625,-13832.900390625,-400000.0625
247.16915202140808,-400000.0625,-14053.16015625,-12105.75,-400000.0625,806.280029296875,-400000.0625,-13799.1396484375,-400000.0625
247.17982602119446,-400000.0625,-14010.1904296875,-12065.7001953125,-400000.0625,760.7000122070312,-400000.0625,-13749.5498046875,-400000.0625
247.1863009929657,-400000.0625,-14016.490234375,-12074.3798828125,-400000.0625,819.489990234375,-400000.0625,-13759.66015625,-400000.0625
247.19485521316528,-400000.0625,-14077.1396484375,-12123.9697265625,-400000.0625,912.4299926757812,-400000.0625,-13823.3203125,-400000.0625
247.20644903182983,-400000.0625,-14126.4501953125,-12159.9697265625,-400000.0625,928.3499755859375,-400000.0625,-13885.3095703125,-400000.0625
247.2186439037323,-400000.0625,-14118.240234375,-12152.33984375,-400000.0625,848.4400024414062,-400000.0625,-13879.1103515625,-400000.0625
247.25183033943176,-400000.0625,-14072.9404296875,-12107.1796875,-400000.0625,753.5499877929688,-400000.0625,-13821.9404296875,-400000.0625
247.26302695274353,-400000.0625,-14047.91015625,-12084.3896484375,-400000.0625,754.6400146484375,-400000.0625,-13793.419921875,-400000.0625
247.27409505844116,-400000.0625,-14083.91015625,-12117.2001953125,-400000.0625,858.260009765625,-400000.0625,-13834.33984375,-400000.0625
247.28482270240784,-400000.0625,-14144.4697265625,-12168.26953125,-400000.0625,932.3599853515625,-400000.0625,-13899.419921875,-400000.0625
247.2947096824646,-400000.0625,-14177.1298828125,-12188.7197265625,-400000.0625,890.6400146484375,-400000.0625,-13932.2802734375,-400000.0625
247.3067591190338,-400000.0625,-14159.25,-12161.0703125,-400000.0625,790.02001953125,-400000.0625,-13902.0,-400000.0625
247.3188121318817,-400000.0625,-14106.6103515625,-12115.48046875,-400000.0625,742.8200073242188,-400000.0625,-13840.490234375,-400000.0625
247.36195850372314,-400000.0625,-14099.8896484375,-12128.9296875,-400000.0625,788.5,-400000.0625,-13826.7099609375,-400000.0625
247.37305736541748,-400000.0625,-14166.9296875,-12196.349609375,-400000.0625,884.25,-400000.0625,-13894.75,-400000.0625
247.38569617271423,-400000.0625,-14216.51953125,-12243.8896484375,-400000.0625,913.8099975585938,-400000.0625,-13943.9599609375,-400000.0625
247.39559292793274,-400000.0625,-14199.5400390625,-12235.5,-400000.0625,824.1199951171875,-400000.0625,-13926.5595703125,-400000.0625
247.40575337409973,-400000.0625,-14171.1298828125,-12217.330078125,-400000.0625,651.1699829101562,-400000.0625,-13886.41015625,-400000.0625
247.41434168815613,-400000.0625,-14161.9697265625,-12216.8603515625,-400000.0625,583.7899780273438,-400000.0625,-13856.2197265625,-400000.0625
247.4216125011444,-400000.0625,-14187.8603515625,-12255.2900390625,-400000.0625,711.25,-400000.0625,-13887.599609375,-400000.0625
247.45969986915588,-400000.0625,-14250.7998046875,-12311.41015625,-400000.0625,844.8099975585938,-400000.0625,-13954.259765625,-400000.0625
247.46879148483276,-400000.0625,-14283.1796875,-12326.5302734375,-400000.0625,732.8499755859375,-400000.0625,-13970.1904296875,-400000.0625
247.47695302963257,-400000.0625,-14234.9697265625,-12281.2802734375,-400000.0625,361.8699951171875,-400000.0625,-13925.98046875,-400000.0625
247.4850673675537,-400000.0625,-14189.7197265625,-12242.8896484375,-400000.0625,58.31999969482422,-400000.0625,-13880.25,-400000.0625
247.4935302734375,-400000.0625,-14203.650390625,-12260.6796875,-400000.0625,65.18000030517578,-400000.0625,-13889.98046875,-400000.0625
247.50482964515686,-400000.0625,-14258.580078125,-12310.2197265625,-400000.0625,423.9599914550781,-400000.0625,-13951.919921875,-400000.0625
247.51720261573792,-400000.0625,-14299.9697265625,-12345.650390625,-400000.0625,654.510009765625,-400000.0625,-13999.6103515625,-400000.0625
247.5257124900818,-400000.0625,-14280.5595703125,-12323.0,-400000.0625,468.9700012207031,-400000.0625,-13979.8203125,-400000.0625
247.56290817260742,-400000.0625,-14227.8203125,-12274.7900390625,-400000.0625,110.7699966430664,-400000.0625,-13920.169921875,-400000.0625
247.57286667823792,-400000.0625,-14212.7099609375,-12262.76953125,-400000.0625,126.08000183105469,-400000.0625,-13903.8095703125,-400000.0625
247.59426188468933,-400000.0625,-14258.48046875,-12305.2099609375,-400000.0625,510.5,-400000.0625,-13956.8798828125,-400000.0625
247.60857510566711,-400000.0625,-14322.23046875,-12355.849609375,-400000.0625,757.27001953125,-400000.0625,-14028.650390625,-400000.0625
247.61976075172424,-400000.0625,-14336.73046875,-12363.6298828125,-400000.0625,692.27001953125,-400000.0625,-14045.33984375,-400000.0625
247.63138389587402,-400000.0625,-14303.400390625,-12331.1103515625,-400000.0625,490.42999267578125,-400000.0625,-14004.66015625,-400000.0625
247.6756112575531,-400000.0625,-14259.0498046875,-12290.0498046875,-400000.0625,378.17999267578125,-400000.0625,-13953.349609375,-400000.0625
247.6849229335785,-400000.0625,-14269.6396484375,-12296.73046875,-400000.0625,471.8800048828125,-400000.0625,-13967.4697265625,-400000.0625
247.69305777549744,-400000.0625,-14324.759765625,-12341.0703125,-400000.0625,718.5499877929688,-400000.0625,-14028.599609375,-400000.0625
247.70325303077698,-400000.0625,-14367.73046875,-12377.3095703125,-400000.0625,779.2999877929688,-400000.0625,-14073.1796875,-400000.0625
247.7158064842224,-400000.0625,-14349.75,-12357.8095703125,-400000.0625,544.9299926757812,-400000.0625,-14057.6396484375,-400000.0625
247.72475671768188,-400000.0625,-14293.8603515625,-12308.5498046875,-400000.0625,243.19000244140625,-400000.0625,-14002.990234375,-400000.0625
247.7372808456421,-400000.0625,-14279.3203125,-12297.5400390625,-400000.0625,246.72000122070312,-400000.0625,-13984.9697265625,-400000.0625
247.76498866081238,-400000.0625,-14320.330078125,-12330.150390625,-400000.0625,517.22998046875,-400000.0625,-14031.3603515625,-400000.0625
247.77503538131714,-400000.0625,-14374.6396484375,-12375.5,-400000.0625,742.1500244140625,-400000.0625,-14089.919921875,-400000.0625
247.7885618209839,-400000.0625,-14386.8896484375,-12381.9404296875,-400000.0625,683.5,-400000.0625,-14102.8896484375,-400000.0625
247.80174803733826,-400000.0625,-14350.3701171875,-12347.2197265625,-400000.0625,573.3499755859375,-400000.0625,-14063.650390625,-400000.0625
247.81266331672668,-400000.0625,-14322.7099609375,-12322.240234375,-400000.0625,691.030029296875,-400000.0625,-14033.1796875,-400000.0625
247.8258352279663,-400000.0625,-14341.3603515625,-12337.6904296875,-400000.0625,781.3499755859375,-400000.0625,-14052.009765625,-400000.0625
247.8369264602661,-400000.0625,-14401.2900390625,-12389.7998046875,-400000.0625,904.22998046875,-400000.0625,-14116.4296875,-400000.0625
247.84470987319946,-400000.0625,-14439.6298828125,-12417.83984375,-400000.0625,927.260009765625,-400000.0625,-14161.16015625,-400000.0625
247.87013959884644,-400000.0625,-14421.7001953125,-12397.4296875,-400000.0625,874.22998046875,-400000.0625,-14137.3701171875,-400000.0625
247.88405013084412,-400000.0625,-14366.33984375,-12348.9404296875,-400000.0625,849.3400268554688,-400000.0625,-14081.76953125,-400000.0625
247.89398503303528,-400000.0625,-14345.2197265625,-12328.76953125,-400000.0625,905.1799926757812,-400000.0625,-14063.6904296875,-400000.0625
247.90395212173462,-400000.0625,-14388.08984375,-12364.9599609375,-400000.0625,958.969970703125,-400000.0625,-14104.7998046875,-400000.0625
247.9172341823578,-400000.0625,-14435.8701171875,-12415.4599609375,-400000.0625,974.5599975585938,-400000.0625,-14167.6904296875,-400000.0625
247.92608451843262,-400000.0625,-14459.75,-12418.5595703125,-400000.0625,932.3599853515625,-400000.0625,-14179.66015625,-400000.0625
247.93725657463074,-400000.0625,-14426.330078125,-12382.0302734375,-400000.0625,884.719970703125,-400000.0625,-14134.6904296875,-400000.0625
247.94563555717468,-400000.0625,-14385.650390625,-12351.419921875,-400000.0625,818.5399780273438,-400000.0625,-14091.7802734375,-400000.0625
247.9723002910614,-400000.0625,-14402.580078125,-12363.8603515625,-400000.0625,801.75,-400000.0625,-14110.1904296875,-400000.0625
247.98106956481934,-400000.0625,-14457.5595703125,-12415.169921875,-400000.0625,901.5599975585938,-400000.0625,-14166.98046875,-400000.0625
247.99160289764404,-400000.0625,-14504.2900390625,-12449.9296875,-400000.0625,893.1599731445312,-400000.0625,-14206.650390625,-400000.0625
248.00226545333862,-400000.0625,-14478.4501953125,-12429.1904296875,-400000.0625,773.3800048828125,-400000.0625,-14181.51953125,-400000.0625
248.01199984550476,-400000.0625,-14449.3095703125,-12387.990234375,-400000.0625,646.5399780273438,-400000.0625,-14135.5498046875,-400000.0625
248.0227348804474,-400000.0625,-14440.9697265625,-12383.8896484375,-400000.0625,663.5700073242188,-400000.0625,-14129.830078125,-400000.0625
248.03618049621582,-400000.0625,-14507.9599609375,-12426.849609375,-400000.0625,814.6799926757812,-400000.0625,-14181.0400390625,-400000.0625
248.0468714237213,-400000.0625,-14588.0703125,-12462.2802734375,-400000.0625,899.6500244140625,-400000.0625,-14234.9697265625,-400000.0625
248.0739393234253,-400000.0625,-14593.080078125,-12442.7802734375,-400000.0625,824.5,-400000.0625,-14244.650390625,-400000.0625
248.08615398406982,-400000.0625,-14526.419921875,-12416.599609375,-400000.0625,619.6500244140625,-400000.0625,-14193.349609375,-400000.0625
248.09486842155457,-400000.0625,-14522.41015625,-12421.1796875,-400000.0625,364.8299865722656,-400000.0625,-14131.740234375,-400000.0625
248.10532999038696,-400000.0625,-14597.419921875,-12499.4296875,-400000.0625,455.760009765625,-400000.0625,-14238.259765625,-400000.0625
248.11569118499756,-400000.0625,-14538.0,-12490.509765625,-400000.0625,819.780029296875,-400000.0625,-14234.0703125,-400000.0625
248.12440466880798,-400000.0625,-14555.98046875,-12537.1904296875,-400000.0625,867.989990234375,-400000.0625,-14201.1201171875,-400000.0625
248.13556480407715,-400000.0625,-14550.9697265625,-12550.8798828125,-400000.0625,656.5599975585938,-400000.0625,-14158.5400390625,-400000.0625
248.1437337398529,-400000.0625,-14456.6103515625,-12561.080078125,-400000.0625,606.3499755859375,-400000.0625,-14109.330078125,-400000.0625
248.15352940559387,-400000.0625,-14283.3701171875,-12604.91015625,-400000.0625,758.3599853515625,-400000.0625,-13921.7900390625,-400000.0625
248.1783561706543,-400000.0625,-14253.6201171875,-12588.2197265625,-400000.0625,986.8599853515625,-400000.0625,-13838.669921875,-400000.0625
248.1890745162964,-400000.0625,-14086.76953125,-12710.91015625,-400000.0625,1053.050048828125,-400000.0625,-13736.490234375,-400000.0625
248.19864344596863,-400000.0625,-13930.75,-12750.150390625,-400000.0625,1124.3299560546875,-400000.0625,-13516.2802734375,-400000.0625
248.20812106132507,-400000.0625,-13766.9599609375,-12648.2001953125,-400000.0625,1182.8399658203125,-400000.0625,-13311.8203125,-400000.0625
248.21845722198486,-400000.0625,-13738.73046875,-12534.5703125,-400000.0625,1240.02001953125,-400000.0625,-12987.9501953125,-400000.0625
248.22728729248047,-400000.0625,-13568.830078125,-12556.8896484375,-400000.0625,1227.4300537109375,-400000.0625,-12807.900390625,-400000.0625
248.23710775375366,-400000.0625,-13323.830078125,-12590.7001953125,-400000.0625,1161.77001953125,-400000.0625,-12674.0,-400000.0625
248.25124382972717,-400000.0625,-12952.4697265625,-12633.990234375,-400000.0625,1141.9300537109375,-400000.0625,-12541.099609375,-400000.0625
248.2637996673584,-400000.0625,-12656.5,-12523.75,-400000.0625,1190.81005859375,-400000.0625,-12267.0703125,-400000.0625
248.2952687740326,-400000.0625,-12431.669921875,-12410.6904296875,-400000.0625,1236.77001953125,-400000.0625,-12073.7998046875,-400000.0625
248.313472032547,-400000.0625,-12189.580078125,-12407.73046875,-400000.0625,1233.530029296875,-400000.0625,-11940.2900390625,-400000.0625
248.32447576522827,-400000.0625,-12070.4697265625,-12368.009765625,-400000.0625,1196.0999755859375,-400000.0625,-11738.6396484375,-400000.0625
248.34014201164246,-400000.0625,-12032.650390625,-12372.349609375,-400000.0625,1155.949951171875,-400000.0625,-11558.099609375,-400000.0625
248.3520827293396,-400000.0625,-12212.4697265625,-12378.0302734375,-400000.0625,1172.02001953125,-400000.0625,-11409.08984375,-400000.0625
248.36042475700378,-400000.0625,-12122.3896484375,-12225.099609375,-400000.0625,1230.4300537109375,-400000.0625,-11178.73046875,-400000.0625
248.3722939491272,-400000.0625,-12096.259765625,-12172.7998046875,-400000.0625,1265.3800048828125,-400000.0625,-10895.4404296875,-400000.0625
248.39783263206482,-400000.0625,-12045.099609375,-12168.7900390625,-400000.0625,1235.43994140625,-400000.0625,-10822.25,-400000.0625
248.4056751728058,-400000.0625,-11944.8203125,-12159.16015625,-400000.0625,1185.469970703125,-400000.0625,-10714.009765625,-400000.0625
248.41569352149963,-400000.0625,-11768.5302734375,-12124.400390625,-400000.0625,1174.31005859375,-400000.0625,-10582.6396484375,-400000.0625
248.43015241622925,-400000.0625,-11651.08984375,-12024.5,-400000.0625,1195.9599609375,-400000.0625,-10410.3603515625,-400000.0625
248.44049787521362,-400000.0625,-11481.5703125,-11946.6796875,-400000.0625,1242.300048828125,-400000.0625,-10283.330078125,-400000.0625
248.45185327529907,-400000.0625,-11338.900390625,-11869.3798828125,-400000.0625,1255.699951171875,-400000.0625,-10215.4697265625,-400000.0625
248.46446681022644,-400000.0625,-11191.7001953125,-11881.9296875,-400000.0625,1215.219970703125,-400000.0625,-10190.150390625,-400000.0625
248.47301506996155,-400000.0625,-11103.8701171875,-11944.6796875,-400000.0625,1158.050048828125,-400000.0625,-10238.4599609375,-400000.0625
248.49641680717468,-400000.0625,-10994.6298828125,-11960.4599609375,-400000.0625,1156.4300537109375,-400000.0625,-10230.400390625,-400000.0625
248.51078128814697,-400000.0625,-10811.2802734375,-11926.599609375,-400000.0625,1211.8299560546875,-400000.0625,-10160.9697265625,-400000.0625
248.5210828781128,-400000.0625,-10670.51953125,-11906.76953125,-400000.0625,1251.1300048828125,-400000.0625,-10140.849609375,-400000.0625
248.53581190109253,-400000.0625,-10614.830078125,-11977.5302734375,-400000.0625,1212.5999755859375,-400000.0625,-10195.2998046875,-400000.0625
248.5505726337433,-400000.0625,-10636.0,-12063.080078125,-400000.0625,1157.469970703125,-400000.0625,-10343.169921875,-400000.0625
248.55786895751953,-400000.0625,-10610.2001953125,-12096.0302734375,-400000.0625,1138.6400146484375,-400000.0625,-10439.58984375,-400000.0625
248.56859183311462,-400000.0625,-10584.01953125,-12110.0,-400000.0625,1164.8199462890625,-400000.0625,-10485.509765625,-400000.0625
248.57832407951355,-400000.0625,-10609.25,-12116.2900390625,-400000.0625,1202.1500244140625,-400000.0625,-10537.5302734375,-400000.0625
248.62301898002625,-400000.0625,-10722.16015625,-12155.490234375,-400000.0625,1206.260009765625,-400000.0625,-10624.3603515625,-400000.0625
248.63831639289856,-400000.0625,-10918.669921875,-12235.3095703125,-400000.0625,1163.050048828125,-400000.0625,-10759.6904296875,-400000.0625
248.65114164352417,-400000.0625,-11145.0703125,-12310.3603515625,-400000.0625,1124.6700439453125,-400000.0625,-10895.01953125,-400000.0625
248.66305899620056,-400000.0625,-11350.7802734375,-12340.0703125,-400000.0625,1127.3900146484375,-400000.0625,-10976.1298828125,-400000.0625
248.67251467704773,-400000.0625,-11539.990234375,-12326.91015625,-400000.0625,1169.8199462890625,-400000.0625,-10998.580078125,-400000.0625
248.68445420265198,-400000.0625,-11759.330078125,-12329.2001953125,-400000.0625,1189.8499755859375,-400000.0625,-11044.3095703125,-400000.0625
248.70698833465576,-400000.0625,-12032.83984375,-12381.650390625,-400000.0625,1162.3399658203125,-400000.0625,-11172.6796875,-400000.0625
248.71857070922852,-400000.0625,-12321.5703125,-12456.9404296875,-400000.0625,1107.5999755859375,-400000.0625,-11332.9404296875,-400000.0625
248.72993278503418,-400000.0625,-12548.259765625,-12473.2998046875,-400000.0625,1094.25,-400000.0625,-11448.240234375,-400000.0625
248.74357080459595,-400000.0625,-12717.3896484375,-12449.5,-400000.0625,1121.52001953125,-400000.0625,-11512.7099609375,-400000.0625
248.7554235458374,-400000.0625,-12834.83984375,-12427.3798828125,-400000.0625,1151.4200439453125,-400000.0625,-11567.9296875,-400000.0625
248.76833748817444,-400000.0625,-12952.1396484375,-12445.8798828125,-400000.0625,1147.3699951171875,-400000.0625,-11657.5302734375,-400000.0625
248.778977394104,-400000.0625,-13091.849609375,-12504.91015625,-400000.0625,1113.1300048828125,-400000.0625,-11793.8095703125,-400000.0625
248.78996348381042,-400000.0625,-13227.3701171875,-12549.4501953125,-400000.0625,1071.02001953125,-400000.0625,-11915.0703125,-400000.0625
248.81569457054138,-400000.0625,-13309.669921875,-12546.490234375,-400000.0625,1039.7900390625,-400000.0625,-11977.669921875,-400000.0625
248.82871675491333,-400000.0625,-13324.5498046875,-12512.6396484375,-400000.0625,1052.18994140625,-400000.0625,-11987.9697265625,-400000.0625
248.8369436264038,-400000.0625,-13348.91015625,-12491.509765625,-400000.0625,1060.010009765625,-400000.0625,-12009.8095703125,-400000.0625
248.84570121765137,-400000.0625,-13424.349609375,-12525.66015625,-400000.0625,1041.7900390625,-400000.0625,-12102.3203125,-400000.0625
248.85975766181946,-400000.0625,-13509.3701171875,-12587.740234375,-400000.0625,1030.1600341796875,-400000.0625,-12217.9501953125,-400000.0625
248.8718113899231,-400000.0625,-13550.5703125,-12602.3798828125,-400000.0625,973.0800170898438,-400000.0625,-12282.75,-400000.0625
248.8825123310089,-400000.0625,-13541.41015625,-12569.240234375,-400000.0625,718.1199951171875,-400000.0625,-12293.9599609375,-400000.0625
248.89551377296448,-400000.0625,-13508.1298828125,-12529.5703125,-400000.0625,399.0199890136719,-400000.0625,-12277.990234375,-400000.0625
248.9213707447052,-400000.0625,-13532.6396484375,-12543.490234375,-400000.0625,172.22999572753906,-400000.0625,-12323.3798828125,-400000.0625
248.93472337722778,-400000.0625,-13600.0595703125,-12588.259765625,-400000.0625,176.75999450683594,-400000.0625,-12422.75,-400000.0625
248.94490790367126,-400000.0625,-13646.1298828125,-12618.4501953125,-400000.0625,286.82000732421875,-400000.0625,-12497.0498046875,-400000.0625
248.95321798324585,-400000.0625,-13637.740234375,-12600.66015625,-400000.0625,-223.3000030517578,-400000.0625,-12515.740234375,-400000.0625
248.96205401420593,-400000.0625,-13603.6904296875,-12552.83984375,-400000.0625,-896.4500122070312,-400000.0625,-12497.1904296875,-400000.0625
248.97268414497375,-400000.0625,-13592.4404296875,-12526.080078125,-400000.0625,-1697.9200439453125,-400000.0625,-12498.330078125,-400000.0625
248.98483157157898,-400000.0625,-13643.080078125,-12560.3701171875,-400000.0625,-2279.7099609375,-400000.0625,-12572.76953125,-400000.0625
248.99275374412537,-400000.0625,-13721.51953125,-12617.0703125,-400000.0625,-2005.199951171875,-400000.0625,-12667.1298828125,-400000.0625
249.00242280960083,-400000.0625,-13747.7900390625,-12626.4599609375,-400000.0625,-1559.9300537109375,-400000.0625,-12712.76953125,-400000.0625
249.03012204170227,-400000.0625,-13722.4697265625,-12597.849609375,-400000.0625,-1879.1199951171875,-400000.0625,-12698.650390625,-400000.0625
249.03907942771912,-400000.0625,-13689.51953125,-12558.3203125,-400000.0625,-2515.169921875,-400000.0625,-12678.48046875,-400000.0625
249.04748272895813,-400000.0625,-13711.599609375,-12569.1396484375,-400000.0625,-2227.449951171875,-400000.0625,-12713.48046875,-400000.0625
249.05779242515564,-400000.0625,-13778.349609375,-12617.0703125,-400000.0625,-906.7100219726562,-400000.0625,-12792.5400390625,-400000.0625
249.06954312324524,-400000.0625,-13823.7998046875,-12642.1904296875,-400000.0625,-7.059999942779541,-400000.0625,-12851.9599609375,-400000.0625
249.08125472068787,-400000.0625,-13809.5400390625,-12616.6796875,-400000.0625,-158.60000610351562,-400000.0625,-12848.1396484375,-400000.0625
249.09215664863586,-400000.0625,-13770.150390625,-12573.4296875,-400000.0625,-984.6199951171875,-400000.0625,-12804.8896484375,-400000.0625
249.10265135765076,-400000.0625,-13766.580078125,-12559.83984375,-400000.0625,-1563.31005859375,-400000.0625,-12805.9404296875,-400000.0625
249.1291069984436,-400000.0625,-13821.4599609375,-12598.4697265625,-400000.0625,-1307.43994140625,-400000.0625,-12873.509765625,-400000.0625
249.14010739326477,-400000.0625,-13883.400390625,-12643.91015625,-400000.0625,-456.2900085449219,-400000.0625,-12948.5595703125,-400000.0625
249.14990210533142,-400000.0625,-13892.3701171875,-12647.580078125,-400000.0625,-99.5199966430664,-400000.0625,-12972.6396484375,-400000.0625
249.16027569770813,-400000.0625,-13864.6103515625,-12604.9501953125,-400000.0625,-578.1699829101562,-400000.0625,-12927.580078125,-400000.0625
249.16997146606445,-400000.0625,-13844.8701171875,-12571.91015625,-400000.0625,-1214.550048828125,-400000.0625,-12903.2197265625,-400000.0625
249.17993259429932,-400000.0625,-13874.6298828125,-12587.169921875,-400000.0625,-1260.3299560546875,-400000.0625,-12929.9697265625,-400000.0625
249.18903422355652,-400000.0625,-13941.2900390625,-12638.0498046875,-400000.0625,-626.3300170898438,-400000.0625,-13005.58984375,-400000.0625
249.20078206062317,-400000.0625,-13969.3798828125,-12663.1298828125,-400000.0625,-76.0999984741211,-400000.0625,-13053.509765625,-400000.0625
249.21477460861206,-400000.0625,-13945.2998046875,-12632.6103515625,-400000.0625,-342.0400085449219,-400000.0625,-13038.73046875,-400000.0625
249.24620032310486,-400000.0625,-13914.7802734375,-12593.1298828125,-400000.0625,-1197.47998046875,-400000.0625,-13002.0595703125,-400000.0625
249.25682258605957,-400000.0625,-13914.490234375,-12587.830078125,-400000.0625,-1715.949951171875,-400000.0625,-13001.5400390625,-400000.0625
249.26761388778687,-400000.0625,-13966.75,-12628.650390625,-400000.0625,-1177.1700439453125,-400000.0625,-13051.8896484375,-400000.0625
249.2771656513214,-400000.0625,-14031.98046875,-12683.009765625,-400000.0625,-133.1300048828125,-400000.0625,-13121.080078125,-400000.0625
249.28620767593384,-400000.0625,-14050.91015625,-12667.3701171875,-400000.0625,143.19000244140625,-400000.0625,-13136.580078125,-400000.0625
249.2995994091034,-400000.0625,-14003.66015625,-12623.83984375,-400000.0625,-363.6400146484375,-400000.0625,-13097.6201171875,-400000.0625
249.3087282180786,-400000.0625,-13986.400390625,-12606.099609375,-400000.0625,-938.7000122070312,-400000.0625,-13068.5302734375,-400000.0625
249.320383310318,-400000.0625,-13999.7998046875,-12606.8095703125,-400000.0625,-891.969970703125,-400000.0625,-13077.5498046875,-400000.0625
249.35255885124207,-400000.0625,-14112.3798828125,-12670.51953125,-400000.0625,-236.88999938964844,-400000.0625,-13183.5498046875,-400000.0625
249.36036467552185,-400000.0625,-14138.0302734375,-12679.009765625,-400000.0625,190.07000732421875,-400000.0625,-13201.5703125,-400000.0625
249.3692774772644,-400000.0625,-14110.4697265625,-12658.259765625,-400000.0625,-121.5,-400000.0625,-13183.259765625,-400000.0625
249.3787944316864,-400000.0625,-14043.51953125,-12642.7197265625,-400000.0625,-787.6900024414062,-400000.0625,-13055.6103515625,-400000.0625
249.38821649551392,-400000.0625,-13979.5302734375,-12653.2998046875,-400000.0625,-975.1799926757812,-400000.0625,-13014.75,-400000.0625
249.39791560173035,-400000.0625,-13994.3095703125,-12693.259765625,-400000.0625,-629.9500122070312,-400000.0625,-13039.5400390625,-400000.0625
249.4069790840149,-400000.0625,-14020.73046875,-12767.9404296875,-400000.0625,-193.5500030517578,-400000.0625,-13143.9697265625,-400000.0625
249.41713976860046,-400000.0625,-13949.400390625,-12775.4697265625,-400000.0625,146.5800018310547,-400000.0625,-13102.009765625,-400000.0625
249.42526483535767,-400000.0625,-13850.01953125,-12734.0302734375,-400000.0625,-253.52999877929688,-400000.0625,-13000.5400390625,-400000.0625
249.44719076156616,-400000.0625,-13785.8896484375,-12709.08984375,-400000.0625,-191.63999938964844,-400000.0625,-12936.4501953125,-400000.0625
249.45548057556152,-400000.0625,-13700.8203125,-12774.7998046875,-400000.0625,517.989990234375,-400000.0625,-12938.2099609375,-400000.0625
249.46659898757935,-400000.0625,-13682.3203125,-12840.7998046875,-400000.0625,636.6300048828125,-400000.0625,-12954.330078125,-400000.0625
249.47519731521606,-400000.0625,-13641.5498046875,-12884.900390625,-400000.0625,844.9600219726562,-400000.0625,-12936.0703125,-400000.0625
249.48561453819275,-400000.0625,-13486.669921875,-12857.919921875,-400000.0625,1007.989990234375,-400000.0625,-12754.3896484375,-400000.0625
249.49578189849854,-400000.0625,-13291.9296875,-12822.8203125,-400000.0625,966.02001953125,-400000.0625,-12578.2998046875,-400000.0625
249.5049443244934,-400000.0625,-13360.1201171875,-12829.830078125,-400000.0625,1029.780029296875,-400000.0625,-12478.6396484375,-400000.0625
249.51514506340027,-400000.0625,-13430.7900390625,-12869.5498046875,-400000.0625,1070.9300537109375,-400000.0625,-12445.4501953125,-400000.0625
249.52869582176208,-400000.0625,-13442.330078125,-12922.240234375,-400000.0625,1043.219970703125,-400000.0625,-12414.7900390625,-400000.0625
249.56483125686646,-400000.0625,-13442.6103515625,-12933.6796875,-400000.0625,1017.0900268554688,-400000.0625,-12344.650390625,-400000.0625
249.57584476470947,-400000.0625,-13391.5400390625,-12889.580078125,-400000.0625,1071.4100341796875,-400000.0625,-12237.0302734375,-400000.0625
249.59795236587524,-400000.0625,-13325.98046875,-12868.7900390625,-400000.0625,1104.5899658203125,-400000.0625,-12195.73046875,-400000.0625
249.60753655433655,-400000.0625,-13301.23046875,-12905.169921875,-400000.0625,1120.0,-400000.0625,-12211.2802734375,-400000.0625
249.6205177307129,-400000.0625,-13308.2900390625,-12953.9501953125,-400000.0625,1100.8699951171875,-400000.0625,-12280.419921875,-400000.0625
249.63161849975586,-400000.0625,-13310.6201171875,-12966.1103515625,-400000.0625,1075.93994140625,-400000.0625,-12338.9296875,-400000.0625
249.6629741191864,-400000.0625,-13295.4599609375,-12953.5703125,-400000.0625,1075.93994140625,-400000.0625,-12354.6103515625,-400000.0625
249.67327404022217,-400000.0625,-13251.830078125,-12904.0302734375,-400000.0625,1116.280029296875,-400000.0625,-12351.3203125,-400000.0625
249.6861412525177,-400000.0625,-13279.150390625,-12879.23046875,-400000.0625,1154.7099609375,-400000.0625,-12379.26953125,-400000.0625
249.69471716880798,-400000.0625,-13401.4599609375,-12937.400390625,-400000.0625,1119.949951171875,-400000.0625,-12504.0498046875,-400000.0625
249.70379829406738,-400000.0625,-13506.41015625,-12976.83984375,-400000.0625,1081.0899658203125,-400000.0625,-12635.2802734375,-400000.0625
249.71369314193726,-400000.0625,-13552.759765625,-12965.58984375,-400000.0625,1084.0400390625,-400000.0625,-12686.7802734375,-400000.0625
249.7240195274353,-400000.0625,-13570.5498046875,-12923.3896484375,-400000.0625,1127.4300537109375,-400000.0625,-12694.9296875,-400000.0625
249.7360758781433,-400000.0625,-13604.5,-12891.9599609375,-400000.0625,1154.800048828125,-400000.0625,-12718.2001953125,-400000.0625
249.76128792762756,-400000.0625,-13661.2001953125,-12894.009765625,-400000.0625,1137.68994140625,-400000.0625,-12787.5302734375,-400000.0625
249.77283811569214,-400000.0625,-13760.0400390625,-12936.830078125,-400000.0625,1096.9200439453125,-400000.0625,-12899.4501953125,-400000.0625
249.7820541858673,-400000.0625,-13847.2099609375,-12967.349609375,-400000.0625,1053.47998046875,-400000.0625,-12998.150390625,-400000.0625
249.7919716835022,-400000.0625,-13857.990234375,-12937.01953125,-400000.0625,1068.260009765625,-400000.0625,-13011.1201171875,-400000.0625
249.80402159690857,-400000.0625,-13835.7197265625,-12879.900390625,-400000.0625,1117.7099609375,-400000.0625,-12984.4697265625,-400000.0625
249.81447625160217,-400000.0625,-13869.240234375,-12870.1201171875,-400000.0625,1116.93994140625,-400000.0625,-13011.650390625,-400000.0625
249.8249020576477,-400000.0625,-13968.2802734375,-12923.1904296875,-400000.0625,1075.1700439453125,-400000.0625,-13112.1201171875,-400000.0625
249.8371262550354,-400000.0625,-14053.6298828125,-12965.25,-400000.0625,1030.25,-400000.0625,-13204.7197265625,-400000.0625
249.85862708091736,-400000.0625,-14077.0498046875,-12947.849609375,-400000.0625,1014.5700073242188,-400000.0625,-13221.0703125,-400000.0625
249.86913323402405,-400000.0625,-14061.0703125,-12900.7802734375,-400000.0625,1010.4199829101562,-400000.0625,-13195.08984375,-400000.0625
249.87889075279236,-400000.0625,-14059.5,-12868.740234375,-400000.0625,984.4299926757812,-400000.0625,-13187.509765625,-400000.0625
249.89043045043945,-400000.0625,-14110.0400390625,-12881.0400390625,-400000.0625,986.6699829101562,-400000.0625,-13238.48046875,-400000.0625
249.9004192352295,-400000.0625,-14182.240234375,-12919.4296875,-400000.0625,1015.52001953125,-400000.0625,-13319.6796875,-400000.0625
249.90823984146118,-400000.0625,-14216.08984375,-12932.58984375,-400000.0625,996.1599731445312,-400000.0625,-13370.5595703125,-400000.0625
249.92020082473755,-400000.0625,-14189.669921875,-12896.16015625,-400000.0625,976.280029296875,-400000.0625,-13350.009765625,-400000.0625
249.9306571483612,-400000.0625,-14138.599609375,-12843.9404296875,-400000.0625,968.5999755859375,-400000.0625,-13303.6201171875,-400000.0625
249.94020867347717,-400000.0625,-14132.01953125,-12832.4501953125,-400000.0625,997.02001953125,-400000.0625,-13311.240234375,-400000.0625
249.97186660766602,-400000.0625,-14202.830078125,-12887.91015625,-400000.0625,1007.1300048828125,-400000.0625,-13392.2099609375,-400000.0625
249.9819836616516,-400000.0625,-14254.7099609375,-12925.33984375,-400000.0625,979.3800048828125,-400000.0625,-13461.16015625,-400000.0625
249.99433875083923,-400000.0625,-14241.26953125,-12908.2197265625,-400000.0625,889.1099853515625,-400000.0625,-13466.8798828125,-400000.0625
250.0036187171936,-400000.0625,-14198.400390625,-12857.580078125,-400000.0625,776.9099731445312,-400000.0625,-13425.490234375,-400000.0625
250.01287698745728,-400000.0625,-14172.169921875,-12828.400390625,-400000.0625,801.1300048828125,-400000.0625,-13403.1796875,-400000.0625
250.02293062210083,-400000.0625,-14201.1201171875,-12847.2802734375,-400000.0625,895.6900024414062,-400000.0625,-13443.2802734375,-400000.0625
250.03317046165466,-400000.0625,-14257.0498046875,-12892.580078125,-400000.0625,957.0599975585938,-400000.0625,-13511.419921875,-400000.0625
250.04223203659058,-400000.0625,-14277.83984375,-12903.2197265625,-400000.0625,913.3800048828125,-400000.0625,-13539.41015625,-400000.0625
250.0719678401947,-400000.0625,-14240.4599609375,-12860.8701171875,-400000.0625,808.3800048828125,-400000.0625,-13505.41015625,-400000.0625
250.08528017997742,-400000.0625,-14203.3603515625,-12821.6298828125,-400000.0625,758.219970703125,-400000.0625,-13472.1298828125,-400000.0625
250.09933757781982,-400000.0625,-14215.849609375,-12829.349609375,-400000.0625,821.02001953125,-400000.0625,-13487.5302734375,-400000.0625
250.11054468154907,-400000.0625,-14265.8701171875,-12864.2099609375,-400000.0625,912.6199951171875,-400000.0625,-13542.419921875,-400000.0625
250.11732578277588,-400000.0625,-14320.900390625,-12905.26953125,-400000.0625,920.010009765625,-400000.0625,-13609.2197265625,-400000.0625
250.12354922294617,-400000.0625,-14317.9404296875,-12894.16015625,-400000.0625,842.0,-400000.0625,-13604.6904296875,-400000.0625
250.1369194984436,-400000.0625,-14269.6904296875,-12846.4697265625,-400000.0625,752.969970703125,-400000.0625,-13555.8603515625,-400000.0625
250.15109539031982,-400000.0625,-14245.26953125,-12822.2998046875,-400000.0625,763.7999877929688,-400000.0625,-13533.1201171875,-400000.0625
250.18200707435608,-400000.0625,-14287.0400390625,-12856.9599609375,-400000.0625,842.0,-400000.0625,-13582.419921875,-400000.0625
250.19926357269287,-400000.0625,-14352.1298828125,-12908.509765625,-400000.0625,912.0900268554688,-400000.0625,-13658.759765625,-400000.0625
250.21589183807373,-400000.0625,-14360.759765625,-12911.6103515625,-400000.0625,874.4199829101562,-400000.0625,-13677.9296875,-400000.0625
250.22976422309875,-400000.0625,-14322.7099609375,-12870.1201171875,-400000.0625,777.8599853515625,-400000.0625,-13632.6298828125,-400000.0625
250.24058318138123,-400000.0625,-14288.669921875,-12835.5498046875,-400000.0625,732.7999877929688,-400000.0625,-13593.2900390625,-400000.0625
250.25282335281372,-400000.0625,-14303.2998046875,-12845.3701171875,-400000.0625,815.6799926757812,-400000.0625,-13607.5498046875,-400000.0625
250.29242205619812,-400000.0625,-14372.490234375,-12901.01953125,-400000.0625,891.8800048828125,-400000.0625,-13683.1796875,-400000.0625
250.30403876304626,-400000.0625,-14414.599609375,-12931.490234375,-400000.0625,898.3599853515625,-400000.0625,-13734.91015625,-400000.0625
250.31989741325378,-400000.0625,-14400.009765625,-12913.6103515625,-400000.0625,829.030029296875,-400000.0625,-13717.0302734375,-400000.0625
250.32958698272705,-400000.0625,-14354.0400390625,-12869.41015625,-400000.0625,754.8300170898438,-400000.0625,-13666.490234375,-400000.0625
250.33903050422668,-400000.0625,-14334.2998046875,-12844.900390625,-400000.0625,777.47998046875,-400000.0625,-13649.7998046875,-400000.0625
250.35037231445312,-400000.0625,-14374.9697265625,-12875.26953125,-400000.0625,866.6500244140625,-400000.0625,-13695.76953125,-400000.0625
250.36200976371765,-400000.0625,-14431.8603515625,-12923.76953125,-400000.0625,922.8699951171875,-400000.0625,-13758.4697265625,-400000.0625
250.3925802707672,-400000.0625,-14452.080078125,-12934.5400390625,-400000.0625,877.52001953125,-400000.0625,-13775.9697265625,-400000.0625
250.40528440475464,-400000.0625,-14409.9296875,-12890.669921875,-400000.0625,808.8099975585938,-400000.0625,-13734.25,-400000.0625
250.41875743865967,-400000.0625,-14368.580078125,-12848.3798828125,-400000.0625,798.9400024414062,-400000.0625,-13687.66015625,-400000.0625
250.43023896217346,-400000.0625,-14383.3203125,-12859.919921875,-400000.0625,858.4000244140625,-400000.0625,-13704.8701171875,-400000.0625
250.43986749649048,-400000.0625,-14455.9404296875,-12921.8603515625,-400000.0625,918.8200073242188,-400000.0625,-13781.5,-400000.0625
250.45116591453552,-400000.0625,-14499.3798828125,-12953.3798828125,-400000.0625,915.6199951171875,-400000.0625,-13827.51953125,-400000.0625
250.46621751785278,-400000.0625,-14484.259765625,-12935.740234375,-400000.0625,842.0499877929688,-400000.0625,-13815.4501953125,-400000.0625
250.49896836280823,-400000.0625,-14434.5302734375,-12892.5302734375,-400000.0625,800.0900268554688,-400000.0625,-13764.4296875,-400000.0625
250.51081609725952,-400000.0625,-14419.2197265625,-12876.7001953125,-400000.0625,855.969970703125,-400000.0625,-13747.259765625,-400000.0625
250.523122549057,-400000.0625,-14463.51953125,-12910.5595703125,-400000.0625,922.1099853515625,-400000.0625,-13794.1904296875,-400000.0625
250.5419979095459,-400000.0625,-14509.16015625,-12946.9404296875,-400000.0625,946.8099975585938,-400000.0625,-13847.16015625,-400000.0625
250.56044960021973,-400000.0625,-14518.3603515625,-12947.849609375,-400000.0625,907.280029296875,-400000.0625,-13859.080078125,-400000.0625
250.56976985931396,-400000.0625,-14485.3095703125,-12920.4296875,-400000.0625,859.6400146484375,-400000.0625,-13822.080078125,-400000.0625
250.60760259628296,-400000.0625,-14454.7998046875,-12895.6796875,-400000.0625,856.5399780273438,-400000.0625,-13788.75,-400000.0625
250.619943857193,-400000.0625,-14470.2900390625,-12903.7900390625,-400000.0625,899.1199951171875,-400000.0625,-13798.51953125,-400000.0625
250.63459539413452,-400000.0625,-14528.5595703125,-12949.330078125,-400000.0625,942.5599975585938,-400000.0625,-13861.4697265625,-400000.0625
250.64439177513123,-400000.0625,-14566.7099609375,-12979.41015625,-400000.0625,920.9600219726562,-400000.0625,-13910.5302734375,-400000.0625
250.6556785106659,-400000.0625,-14546.6796875,-12954.51953125,-400000.0625,854.5900268554688,-400000.0625,-13890.7900390625,-400000.0625
250.66771459579468,-400000.0625,-14496.900390625,-12911.4599609375,-400000.0625,803.7999877929688,-400000.0625,-13833.759765625,-400000.0625
250.67883133888245,-400000.0625,-14494.75,-12910.080078125,-400000.0625,836.9000244140625,-400000.0625,-13831.4697265625,-400000.0625
250.7074716091156,-400000.0625,-14543.1103515625,-12949.75,-400000.0625,911.6699829101562,-400000.0625,-13876.8203125,-400000.0625
250.7235701084137,-400000.0625,-14595.3701171875,-12988.4697265625,-400000.0625,939.3200073242188,-400000.0625,-13938.51953125,-400000.0625
250.73735189437866,-400000.0625,-14600.849609375,-12988.0,-400000.0625,905.6099853515625,-400000.0625,-13948.5400390625,-400000.0625
250.75069427490234,-400000.0625,-14557.41015625,-12949.0400390625,-400000.0625,872.3300170898438,-400000.0625,-13900.849609375,-400000.0625
250.7608335018158,-400000.0625,-14522.83984375,-12914.4697265625,-400000.0625,889.489990234375,-400000.0625,-13859.5595703125,-400000.0625
250.77230644226074,-400000.0625,-14542.2001953125,-12929.76953125,-400000.0625,933.27001953125,-400000.0625,-13874.0595703125,-400000.0625
250.78236961364746,-400000.0625,-14598.3701171875,-12977.3203125,-400000.0625,966.8800048828125,-400000.0625,-13938.7099609375,-400000.0625
250.80858087539673,-400000.0625,-14639.1396484375,-13009.3095703125,-400000.0625,936.6500244140625,-400000.0625,-13983.1103515625,-400000.0625
250.82123041152954,-400000.0625,-14617.2998046875,-12989.4296875,-400000.0625,890.5900268554688,-400000.0625,-13963.8896484375,-400000.0625
250.8326873779297,-400000.0625,-14575.6298828125,-12950.849609375,-400000.0625,881.3400268554688,-400000.0625,-13912.3896484375,-400000.0625
250.84862327575684,-400000.0625,-14563.0400390625,-12938.7900390625,-400000.0625,927.1599731445312,-400000.0625,-13900.0,-400000.0625
250.8597538471222,-400000.0625,-14602.7099609375,-12971.01953125,-400000.0625,965.7899780273438,-400000.0625,-13945.2998046875,-400000.0625
250.87055945396423,-400000.0625,-14653.9697265625,-13009.650390625,-400000.0625,965.3099975585938,-400000.0625,-14001.7998046875,-400000.0625
250.87967324256897,-400000.0625,-14659.41015625,-13010.7900390625,-400000.0625,921.3400268554688,-400000.0625,-14008.08984375,-400000.0625
250.88953757286072,-400000.0625,-14623.41015625,-12973.740234375,-400000.0625,879.5700073242188,-400000.0625,-13964.990234375,-400000.0625
250.91372680664062,-400000.0625,-14590.0703125,-12939.41015625,-400000.0625,901.7000122070312,-400000.0625,-13922.2197265625,-400000.0625
250.9246678352356,-400000.0625,-14605.48046875,-12949.6103515625,-400000.0625,955.0999755859375,-400000.0625,-13943.8603515625,-400000.0625
250.93529796600342,-400000.0625,-14677.099609375,-13009.98046875,-400000.0625,960.8699951171875,-400000.0625,-14015.150390625,-400000.0625
250.94248819351196,-400000.0625,-14722.2099609375,-13040.830078125,-400000.0625,935.7899780273438,-400000.0625,-14054.73046875,-400000.0625
250.95415902137756,-400000.0625,-14699.83984375,-13018.75,-400000.0625,897.9299926757812,-400000.0625,-14035.6103515625,-400000.0625
250.96545028686523,-400000.0625,-14656.2099609375,-12978.41015625,-400000.0625,898.4099731445312,-400000.0625,-13985.6396484375,-400000.0625
250.97433853149414,-400000.0625,-14648.150390625,-12969.5,-400000.0625,955.5800170898438,-400000.0625,-13973.1904296875,-400000.0625
250.9848976135254,-400000.0625,-14692.7900390625,-13005.3095703125,-400000.0625,991.5399780273438,-400000.0625,-14024.2099609375,-400000.0625
250.99383521080017,-400000.0625,-14742.759765625,-13042.58984375,-400000.0625,975.469970703125,-400000.0625,-14074.5703125,-400000.0625
251.02160358428955,-400000.0625,-14738.7001953125,-13037.25,-400000.0625,946.3300170898438,-400000.0625,-14074.66015625,-400000.0625
251.02977204322815,-400000.0625,-14699.080078125,-13000.58984375,-400000.0625,931.97998046875,-400000.0625,-14027.0703125,-400000.0625
251.04118752479553,-400000.0625,-14662.740234375,-12967.6796875,-400000.0625,964.02001953125,-400000.0625,-13989.3095703125,-400000.0625
251.05070686340332,-400000.0625,-14681.48046875,-12983.7099609375,-400000.0625,993.8699951171875,-400000.0625,-14015.4404296875,-400000.0625
251.0583472251892,-400000.0625,-14742.849609375,-13032.5302734375,-400000.0625,991.2000122070312,-400000.0625,-14078.9501953125,-400000.0625
251.07114219665527,-400000.0625,-14778.0,-13059.1396484375,-400000.0625,945.469970703125,-400000.0625,-14113.5703125,-400000.0625
251.0805025100708,-400000.0625,-14759.919921875,-13041.259765625,-400000.0625,855.1599731445312,-400000.0625,-14095.1201171875,-400000.0625
251.09032940864563,-400000.0625,-14706.23046875,-12997.6298828125,-400000.0625,804.9500122070312,-400000.0625,-14041.08984375,-400000.0625
251.09907054901123,-400000.0625,-14697.169921875,-12987.9501953125,-400000.0625,847.6300048828125,-400000.0625,-14028.169921875,-400000.0625
251.12788915634155,-400000.0625,-14747.33984375,-13027.8603515625,-400000.0625,902.75,-400000.0625,-14077.759765625,-400000.0625
251.1379837989807,-400000.0625,-14800.650390625,-13069.8203125,-400000.0625,898.739990234375,-400000.0625,-14137.0302734375,-400000.0625
251.14771938323975,-400000.0625,-14801.1201171875,-13063.6201171875,-400000.0625,798.1799926757812,-400000.0625,-14132.259765625,-400000.0625
251.15613651275635,-400000.0625,-14754.25,-13021.3798828125,-400000.0625,627.9500122070312,-400000.0625,-14083.240234375,-400000.0625
251.16432237625122,-400000.0625,-14723.349609375,-12993.150390625,-400000.0625,640.2000122070312,-400000.0625,-14051.490234375,-400000.0625
251.1718351840973,-400000.0625,-14752.0595703125,-13018.08984375,-400000.0625,809.3400268554688,-400000.0625,-14082.91015625,-400000.0625
251.18474793434143,-400000.0625,-14820.0498046875,-13073.01953125,-400000.0625,948.0,-400000.0625,-14144.9501953125,-400000.0625
251.19438457489014,-400000.0625,-14844.2802734375,-13089.7099609375,-400000.0625,981.239990234375,-400000.0625,-14174.8896484375,-400000.0625
251.20459270477295,-400000.0625,-14815.7099609375,-13061.330078125,-400000.0625,994.25,-400000.0625,-14145.66015625,-400000.0625
251.2384910583496,-400000.0625,-14777.5703125,-13029.76953125,-400000.0625,1030.25,-400000.0625,-14099.1201171875,-400000.0625
251.2513279914856,-400000.0625,-14771.26953125,-13019.6103515625,-400000.0625,1067.5899658203125,-400000.0625,-14086.4404296875,-400000.0625
251.26291632652283,-400000.0625,-14805.83984375,-13047.7900390625,-400000.0625,1058.010009765625,-400000.0625,-14130.400390625,-400000.0625
251.27382135391235,-400000.0625,-14857.91015625,-13092.3798828125,-400000.0625,1016.1900024414062,-400000.0625,-14185.1904296875,-400000.0625
251.28891229629517,-400000.0625,-14864.5400390625,-13092.5703125,-400000.0625,1009.27001953125,-400000.0625,-14190.8203125,-400000.0625
251.30499148368835,-400000.0625,-14810.990234375,-13045.740234375,-400000.0625,1051.3299560546875,-400000.0625,-14137.26953125,-400000.0625
251.33655381202698,-400000.0625,-14783.4296875,-13021.849609375,-400000.0625,1083.1400146484375,-400000.0625,-14104.7998046875,-400000.0625
251.34712529182434,-400000.0625,-14822.580078125,-13058.4697265625,-400000.0625,1061.010009765625,-400000.0625,-14140.419921875,-400000.0625
251.35706496238708,-400000.0625,-14881.51953125,-13107.400390625,-400000.0625,1018.8599853515625,-400000.0625,-14207.080078125,-400000.0625
251.37032294273376,-400000.0625,-14902.830078125,-13119.7900390625,-400000.0625,1000.6900024414062,-400000.0625,-14233.5,-400000.0625
251.3788754940033,-400000.0625,-14867.7802734375,-13084.41015625,-400000.0625,1027.3499755859375,-400000.0625,-14193.5400390625,-400000.0625
251.39309167861938,-400000.0625,-14827.400390625,-13049.599609375,-400000.0625,1068.4000244140625,-400000.0625,-14146.1396484375,-400000.0625
251.40385937690735,-400000.0625,-14829.6904296875,-13050.26953125,-400000.0625,1076.8900146484375,-400000.0625,-14148.51953125,-400000.0625
251.41473197937012,-400000.0625,-14876.1796875,-13089.3203125,-400000.0625,1048.1800537109375,-400000.0625,-14203.599609375,-400000.0625
251.44887137413025,-400000.0625,-14930.0595703125,-13128.9501953125,-400000.0625,1005.9400024414062,-400000.0625,-14255.91015625,-400000.0625
251.46591925621033,-400000.0625,-14924.3798828125,-13119.509765625,-400000.0625,1000.8300170898438,-400000.0625,-14250.330078125,-400000.0625
251.47870874404907,-400000.0625,-14877.3701171875,-13079.5,-400000.0625,1035.7900390625,-400000.0625,-14197.8798828125,-400000.0625
251.49064946174622,-400000.0625,-14847.0400390625,-13053.3203125,-400000.0625,1065.8699951171875,-400000.0625,-14165.3095703125,-400000.0625
251.50324201583862,-400000.0625,-14874.8896484375,-13077.3603515625,-400000.0625,1058.010009765625,-400000.0625,-14197.2099609375,-400000.0625
251.51781821250916,-400000.0625,-14937.58984375,-13124.66015625,-400000.0625,1018.5700073242188,-400000.0625,-14262.8701171875,-400000.0625
251.54839658737183,-400000.0625,-14961.8203125,-13137.150390625,-400000.0625,997.2100219726562,-400000.0625,-14281.990234375,-400000.0625
251.55808281898499,-400000.0625,-14919.849609375,-13101.25,-400000.0625,1024.2900390625,-400000.0625,-14240.2197265625,-400000.0625
251.56872057914734,-400000.0625,-14874.599609375,-13062.1904296875,-400000.0625,1065.72998046875,-400000.0625,-14194.2998046875,-400000.0625
251.57768511772156,-400000.0625,-14885.759765625,-13070.6298828125,-400000.0625,1071.449951171875,-400000.0625,-14201.8798828125,-400000.0625
251.5989806652069,-400000.0625,-14931.490234375,-13108.73046875,-400000.0625,1044.6500244140625,-400000.0625,-14254.51953125,-400000.0625
251.61586737632751,-400000.0625,-14977.7001953125,-13140.7802734375,-400000.0625,1010.22998046875,-400000.0625,-14300.8701171875,-400000.0625
251.62680435180664,-400000.0625,-14973.3095703125,-13132.91015625,-400000.0625,1004.3599853515625,-400000.0625,-14296.009765625,-400000.0625
251.65711307525635,-400000.0625,-14935.2998046875,-13101.0498046875,-400000.0625,1033.449951171875,-400000.0625,-14253.0498046875,-400000.0625
251.66770577430725,-400000.0625,-14919.08984375,-13086.9404296875,-400000.0625,1069.5,-400000.0625,-14232.5400390625,-400000.0625
251.6760654449463,-400000.0625,-14949.23046875,-13104.490234375,-400000.0625,1070.1199951171875,-400000.0625,-14256.150390625,-400000.0625
251.6828076839447,-400000.0625,-14999.1103515625,-13142.25,-400000.0625,1029.43994140625,-400000.0625,-14311.509765625,-400000.0625
251.69027376174927,-400000.0625,-15014.83984375,-13158.0400390625,-400000.0625,1002.8400268554688,-400000.0625,-14333.76953125,-400000.0625
251.70088481903076,-400000.0625,-14987.2802734375,-13140.6796875,-400000.0625,1023.5800170898438,-400000.0625,-14302.490234375,-400000.0625
251.7103111743927,-400000.0625,-14955.9501953125,-13111.400390625,-400000.0625,1067.5899658203125,-400000.0625,-14257.150390625,-400000.0625
251.7208709716797,-400000.0625,-14963.2001953125,-13110.2099609375,-400000.0625,1074.6500244140625,-400000.0625,-14254.2900390625,-400000.0625
251.7320499420166,-400000.0625,-15012.5498046875,-13147.8798828125,-400000.0625,1040.699951171875,-400000.0625,-14307.3603515625,-400000.0625
251.75805115699768,-400000.0625,-15052.650390625,-13180.0703125,-400000.0625,1014.9000244140625,-400000.0625,-14355.7998046875,-400000.0625
251.76876592636108,-400000.0625,-15042.259765625,-13168.8095703125,-400000.0625,1020.0,-400000.0625,-14348.0302734375,-400000.0625
251.78059577941895,-400000.0625,-14985.6103515625,-13121.3203125,-400000.0625,1062.9200439453125,-400000.0625,-14292.5302734375,-400000.0625
251.79226112365723,-400000.0625,-14977.3095703125,-13114.3095703125,-400000.0625,1077.4599609375,-400000.0625,-14273.169921875,-400000.0625
251.80107188224792,-400000.0625,-15010.9296875,-13142.25,-400000.0625,1060.199951171875,-400000.0625,-14308.740234375,-400000.0625
251.80935215950012,-400000.0625,-15062.9501953125,-13181.5,-400000.0625,1022.3900146484375,-400000.0625,-14365.2900390625,-400000.0625
251.81875920295715,-400000.0625,-15083.26953125,-13195.66015625,-400000.0625,1001.739990234375,-400000.0625,-14384.41015625,-400000.0625
251.82961893081665,-400000.0625,-15039.8701171875,-13155.7998046875,-400000.0625,1030.6400146484375,-400000.0625,-14341.9296875,-400000.0625
251.84405875205994,-400000.0625,-14995.6201171875,-13114.2197265625,-400000.0625,1074.219970703125,-400000.0625,-14290.1904296875,-400000.0625
251.8734564781189,-400000.0625,-14999.73046875,-13116.83984375,-400000.0625,1086.6600341796875,-400000.0625,-14295.6796875,-400000.0625
251.88437294960022,-400000.0625,-15055.75,-13162.4697265625,-400000.0625,1041.699951171875,-400000.0625,-14355.759765625,-400000.0625
251.89394283294678,-400000.0625,-15103.580078125,-13198.0,-400000.0625,1001.7899780273438,-400000.0625,-14405.2998046875,-400000.0625
251.90428590774536,-400000.0625,-15086.7001953125,-13180.73046875,-400000.0625,1014.6099853515625,-400000.0625,-14386.6103515625,-400000.0625
251.91377186775208,-400000.0625,-15042.830078125,-13142.58984375,-400000.0625,1051.7099609375,-400000.0625,-14335.919921875,-400000.0625
251.9228286743164,-400000.0625,-15025.1904296875,-13130.0498046875,-400000.0625,1080.1800537109375,-400000.0625,-14320.3798828125,-400000.0625
251.93628096580505,-400000.0625,-15069.009765625,-13166.3798828125,-400000.0625,1062.1099853515625,-400000.0625,-14358.669921875,-400000.0625
251.97347712516785,-400000.0625,-15118.7001953125,-13207.9599609375,-400000.0625,1023.0999755859375,-400000.0625,-14417.7001953125,-400000.0625
252.0054247379303,-400000.0625,-15118.9296875,-13203.0498046875,-400000.0625,1015.6599731445312,-400000.0625,-14423.7099609375,-400000.0625
252.01966428756714,-400000.0625,-15076.9697265625,-13161.23046875,-400000.0625,1048.280029296875,-400000.0625,-14374.4501953125,-400000.0625
252.0263135433197,-400000.0625,-15046.0703125,-13134.33984375,-400000.0625,1082.469970703125,-400000.0625,-14331.4404296875,-400000.0625
252.03819942474365,-400000.0625,-15064.3798828125,-13154.599609375,-400000.0625,1072.0699462890625,-400000.0625,-14352.849609375,-400000.0625
252.05899715423584,-400000.0625,-15124.990234375,-13201.099609375,-400000.0625,1031.300048828125,-400000.0625,-14412.599609375,-400000.0625
252.07847666740417,-400000.0625,-15168.5302734375,-13228.7001953125,-400000.0625,996.8300170898438,-400000.0625,-14454.7001953125,-400000.0625
252.10662293434143,-400000.0625,-15151.1201171875,-13211.16015625,-400000.0625,1011.9400024414062,-400000.0625,-14436.5302734375,-400000.0625
252.11551880836487,-400000.0625,-15102.4404296875,-13170.580078125,-400000.0625,1056.239990234375,-400000.0625,-14381.9296875,-400000.0625
252.14093208312988,-400000.0625,-15084.2197265625,-13156.5595703125,-400000.0625,1082.0899658203125,-400000.0625,-14357.9501953125,-400000.0625
252.1509232521057,-400000.0625,-15121.8896484375,-13186.5498046875,-400000.0625,1055.050048828125,-400000.0625,-14396.2900390625,-400000.0625
252.16099858283997,-400000.0625,-15176.490234375,-13227.9404296875,-400000.0625,1010.7999877929688,-400000.0625,-14451.26953125,-400000.0625
252.17203855514526,-400000.0625,-15174.6796875,-13224.7001953125,-400000.0625,1008.6500244140625,-400000.0625,-14460.759765625,-400000.0625
252.19066190719604,-400000.0625,-15133.2900390625,-13185.0703125,-400000.0625,1043.27001953125,-400000.0625,-14416.41015625,-400000.0625
252.2241551876068,-400000.0625,-15109.1103515625,-13165.0498046875,-400000.0625,1069.449951171875,-400000.0625,-14385.1796875,-400000.0625
252.2387878894806,-400000.0625,-15133.48046875,-13188.8896484375,-400000.0625,1061.1500244140625,-400000.0625,-14407.919921875,-400000.0625
252.24680304527283,-400000.0625,-15185.3603515625,-13230.51953125,-400000.0625,1031.1600341796875,-400000.0625,-14464.0,-400000.0625
252.25684666633606,-400000.0625,-15212.6796875,-13249.490234375,-400000.0625,1001.8800048828125,-400000.0625,-14497.7099609375,-400000.0625
252.28439092636108,-400000.0625,-15183.8798828125,-13220.4501953125,-400000.0625,1014.5700073242188,-400000.0625,-14468.099609375,-400000.0625
252.30184483528137,-400000.0625,-15144.0595703125,-13183.9296875,-400000.0625,1054.719970703125,-400000.0625,-14421.1796875,-400000.0625
252.33121418952942,-400000.0625,-15130.9501953125,-13169.48046875,-400000.0625,1083.8499755859375,-400000.0625,-14398.8603515625,-400000.0625
252.34344720840454,-400000.0625,-15179.5400390625,-13207.150390625,-400000.0625,1055.9100341796875,-400000.0625,-14447.8798828125,-400000.0625
252.35821390151978,-400000.0625,-15238.7197265625,-13255.7900390625,-400000.0625,1009.4199829101562,-400000.0625,-14514.6396484375,-400000.0625
252.37177872657776,-400000.0625,-15240.9599609375,-13257.98046875,-400000.0625,1001.4099731445312,-400000.0625,-14522.98046875,-400000.0625
252.3873245716095,-400000.0625,-15190.169921875,-13216.0703125,-400000.0625,1043.8399658203125,-400000.0625,-14471.8701171875,-400000.0625
252.40164375305176,-400000.0625,-15152.5,-13185.5,-400000.0625,1084.5699462890625,-400000.0625,-14425.5703125,-400000.0625
252.41982746124268,-400000.0625,-15173.150390625,-13199.900390625,-400000.0625,1081.4200439453125,-400000.0625,-14444.01953125,-400000.0625
252.44130110740662,-400000.0625,-15222.8896484375,-13240.6298828125,-400000.0625,1046.22998046875,-400000.0625,-14499.2802734375,-400000.0625
252.4482421875,-400000.0625,-15258.4599609375,-13267.4697265625,-400000.0625,1011.6599731445312,-400000.0625,-14536.91015625,-400000.0625
