time,ch1,ch2,ch3,ch4,ch5,ch6,ch7,ch8
0.07461929321289062,-17224.119140625,-24339.630859375,-24951.560546875,-400000.0625,-400000.0625,-400000.0625,-400000.0625,-9168.4404296875
0.14310765266418457,-17206.669921875,-24319.509765625,-24932.91015625,-400000.0625,-400000.0625,-400000.0625,-400000.0625,-9181.5
0.15790033340454102,-17194.650390625,-24320.75,-24929.380859375,-400000.0625,-400000.0625,-400000.0625,-400000.0625,-9187.990234375
0.1719827651977539,-17212.19921875,-24327.23046875,-24940.5390625,-400000.0625,-400000.0625,-400000.0625,-400000.0625,-9202.91015625
0.18596601486206055,-17228.509765625,-24341.869140625,-24955.080078125,-400000.0625,-400000.0625,-400000.0625,-400000.0625,-9240.8203125
0.20098209381103516,-17222.640625,-24334.150390625,-24944.880859375,-400000.0625,-400000.0625,-400000.0625,-400000.0625,-9241.8203125
0.21384954452514648,-17194.939453125,-24315.169921875,-24926.94921875,-400000.0625,-400000.0625,-400000.0625,-400000.0625,-9234.240234375
0.24190545082092285,-17193.890625,-24329.189453125,-24933.48046875,-400000.0625,-400000.0625,-400000.0625,-400000.0625,-9233.4296875
0.2699432373046875,-17211.009765625,-24346.640625,-24946.98046875,-400000.0625,-400000.0625,-400000.0625,-400000.0625,-9260.6103515625
0.2886779308319092,-17219.830078125,-24353.69921875,-24961.189453125,-400000.0625,-400000.0625,-400000.0625,-400000.0625,-9304.5703125
0.33846282958984375,-17219.779296875,-24343.44921875,-24951.029296875,-400000.0625,-400000.0625,-400000.0625,-400000.0625,-9247.2998046875
0.35518574714660645,-17198.560546875,-24332.859375,-24937.580078125,-400000.0625,-400000.0625,-400000.0625,-400000.0625,-9289.0302734375
0.37138843536376953,-17189.310546875,-24331.2890625,-24930.529296875,-400000.0625,-400000.0625,-400000.0625,-400000.0625,-9355.01953125
0.38739967346191406,-17209.9609375,-24345.01953125,-24950.83984375,-400000.0625,-400000.0625,-400000.0625,-400000.0625,-9343.6298828125
0.404526948928833,-17225.4609375,-24356.609375,-24967.76953125,-400000.0625,-400000.0625,-400000.0625,-400000.0625,-9356.5
0.42356228828430176,-17216.5390625,-24350.119140625,-24954.130859375,-400000.0625,-400000.0625,-400000.0625,-400000.0625,-9389.3095703125
0.43663597106933594,-17193.029296875,-24341.919921875,-24937.060546875,-400000.0625,-400000.0625,-400000.0625,-400000.0625,-9393.5498046875
0.45065975189208984,-17197.23046875,-24338.490234375,-24938.5390625,-400000.0625,-400000.0625,-400000.0625,-400000.0625,-9348.5400390625
0.4670586585998535,-17214.19921875,-24343.060546875,-24956.279296875,-400000.0625,-400000.0625,-400000.0625,-400000.0625,-9300.1396484375
0.5096645355224609,-17218.73046875,-24369.669921875,-24979.2109375,-400000.0625,-400000.0625,-400000.0625,-400000.0625,-9261.1298828125
0.6383955478668213,-17211.150390625,-24364.4296875,-24975.58984375,-400000.0625,-400000.0625,-400000.0625,-400000.0625,-9252.3603515625
0.6856443881988525,-17188.119140625,-24359.75,-24952.509765625,-400000.0625,-400000.0625,-400000.0625,-400000.0625,-9287.1201171875
0.7096264362335205,-17193.75,-24351.55078125,-24942.58984375,-400000.0625,-400000.0625,-400000.0625,-400000.0625,-9309.7197265625
0.7379560470581055,-17213.58984375,-24363.810546875,-24958.5703125,-400000.0625,-400000.0625,-400000.0625,-400000.0625,-9297.6103515625
0.7585000991821289,-17203.669921875,-24376.6796875,-24974.490234375,-400000.0625,-400000.0625,-400000.0625,-400000.0625,-9301.66015625
0.7761111259460449,-17190.4609375,-24369.859375,-24974.109375,-400000.0625,-400000.0625,-400000.0625,-400000.0625,-9313.9697265625
0.7920455932617188,-17191.98046875,-24354.990234375,-24952.3203125,-400000.0625,-400000.0625,-400000.0625,-400000.0625,-9281.6796875
0.8092095851898193,-17184.0703125,-24360.609375,-24949.359375,-400000.0625,-400000.0625,-400000.0625,-400000.0625,-9277.8203125
0.8462479114532471,-17198.66015625,-24376.490234375,-24974.01953125,-400000.0625,-400000.0625,-400000.0625,-400000.0625,-9325.4599609375
0.8619983196258545,-17208.150390625,-24393.279296875,-24989.3203125,-400000.0625,-400000.0625,-400000.0625,-400000.0625,-9418.9697265625
0.8766965866088867,-17208.19921875,-24391.080078125,-24984.26953125,-400000.0625,-400000.0625,-400000.0625,-400000.0625,-9466.650390625
0.8907763957977295,-17188.220703125,-24375.349609375,-24962.94921875,-400000.0625,-400000.0625,-400000.0625,-400000.0625,-9480.9501953125
0.9069147109985352,-17169.140625,-24388.3203125,-24970.6796875,-400000.0625,-400000.0625,-400000.0625,-400000.0625,-9446.0
0.9187090396881104,-17186.5,-24391.75,-24988.029296875,-400000.0625,-400000.0625,-400000.0625,-400000.0625,-9394.5
0.9308342933654785,-17213.009765625,-24397.0390625,-25002.05078125,-400000.0625,-400000.0625,-400000.0625,-400000.0625,-9391.1201171875
0.9498910903930664,-17221.55078125,-24410.8203125,-25013.880859375,-400000.0625,-400000.0625,-400000.0625,-400000.0625,-9390.0703125
0.9635443687438965,-17211.060546875,-24392.4609375,-24970.009765625,-400000.0625,-400000.0625,-400000.0625,-400000.0625,-9366.6103515625
0.975550651550293,-17210.720703125,-24381.55078125,-24964.189453125,-400000.0625,-400000.0625,-400000.0625,-400000.0625,-9344.580078125
0.9894938468933105,-17251.16015625,-24363.330078125,-24976.880859375,-400000.0625,-400000.0625,-400000.0625,-400000.0625,-9322.4501953125
1.0010216236114502,-17294.9296875,-24349.740234375,-24995.140625,-400000.0625,-400000.0625,-400000.0625,-400000.0625,-9320.58984375
1.0147984027862549,-17324.779296875,-24329.140625,-24969.91015625,-400000.0625,-400000.0625,-400000.0625,-400000.0625,-9324.3603515625
1.0323572158813477,-17326.0703125,-24303.150390625,-24926.669921875,-400000.0625,-400000.0625,-400000.0625,-400000.0625,-9292.8896484375
1.0507419109344482,-17353.109375,-24282.599609375,-24924.849609375,-400000.0625,-400000.0625,-400000.0625,-400000.0625,-9290.41015625
1.061241865158081,-17423.349609375,-24266.150390625,-24946.7890625,-400000.0625,-400000.0625,-400000.0625,-400000.0625,-9235.4296875
1.071178913116455,-17470.220703125,-24259.189453125,-24947.880859375,-400000.0625,-400000.0625,-400000.0625,-400000.0625,-9209.349609375
1.084120273590088,-17470.98046875,-24237.919921875,-24927.5703125,-400000.0625,-400000.0625,-400000.0625,-400000.0625,-9188.0302734375
1.0940876007080078,-17486.2890625,-24232.150390625,-24907.73046875,-400000.0625,-400000.0625,-400000.0625,-400000.0625,-9169.4404296875
1.106574535369873,-17499.01953125,-24219.130859375,-24878.359375,-400000.0625,-400000.0625,-400000.0625,-400000.0625,-9135.490234375
1.1209218502044678,-17563.5390625,-24205.5,-24879.650390625,-400000.0625,-400000.0625,-400000.0625,-400000.0625,-9123.330078125
1.1339452266693115,-17628.390625,-24188.08984375,-24863.6796875,-400000.0625,-400000.0625,-400000.0625,-400000.0625,-9160.2802734375
1.1536760330200195,-17630.439453125,-24142.890625,-24817.0390625,-400000.0625,-400000.0625,-400000.0625,-400000.0625,-9197.2802734375
1.1670408248901367,-17643.310546875,-24100.640625,-24788.5703125,-400000.0625,-400000.0625,-400000.0625,-400000.0625,-9215.5498046875
1.1817688941955566,-17660.4296875,-24068.0703125,-24730.109375,-400000.0625,-400000.0625,-400000.0625,-400000.0625,-9188.4599609375
1.1953692436218262,-17692.0,-24029.73046875,-24695.830078125,-400000.0625,-400000.0625,-400000.0625,-400000.0625,-9143.400390625
1.2084553241729736,-17722.890625,-24003.130859375,-24688.060546875,-400000.0625,-400000.0625,-400000.0625,-400000.0625,-9179.7802734375
1.218797206878662,-17744.259765625,-23972.419921875,-24672.939453125,-400000.0625,-400000.0625,-400000.0625,-400000.0625,-9201.48046875
1.2326037883758545,-17739.349609375,-23941.619140625,-24634.029296875,-400000.0625,-400000.0625,-400000.0625,-400000.0625,-9200.1904296875
1.2505099773406982,-17738.869140625,-23906.51953125,-24602.509765625,-400000.0625,-400000.0625,-400000.0625,-400000.0625,-9238.4296875
1.2645642757415771,-17751.650390625,-23871.23046875,-24576.140625,-400000.0625,-400000.0625,-400000.0625,-400000.0625,-9249.740234375
1.2779154777526855,-17768.580078125,-23854.44921875,-24561.4609375,-400000.0625,-400000.0625,-400000.0625,-400000.0625,-9275.8203125
1.2927958965301514,-17757.69921875,-23836.0,-24545.19921875,-400000.0625,-400000.0625,-400000.0625,-400000.0625,-9262.0400390625
1.3053169250488281,-17764.859375,-23764.1796875,-24483.970703125,-400000.0625,-400000.0625,-400000.0625,-400000.0625,-9358.83984375
1.3204457759857178,-17786.83984375,-23723.890625,-24463.23046875,-400000.0625,-400000.0625,-400000.0625,-400000.0625,-9440.9501953125
1.3329763412475586,-17830.7109375,-23710.490234375,-24446.109375,-400000.0625,-400000.0625,-400000.0625,-400000.0625,-9354.8798828125
1.350989818572998,-17814.73046875,-23695.94921875,-24433.849609375,-400000.0625,-400000.0625,-400000.0625,-400000.0625,-9391.1201171875
1.3605692386627197,-17788.560546875,-23693.140625,-24414.970703125,-400000.0625,-400000.0625,-400000.0625,-400000.0625,-9615.66015625
1.3768341541290283,-17807.009765625,-23656.3203125,-24392.849609375,-400000.0625,-400000.0625,-400000.0625,-400000.0625,-9900.240234375
1.3905181884765625,-17815.779296875,-23649.890625,-24392.890625,-400000.0625,-400000.0625,-400000.0625,-400000.0625,-10213.2802734375
1.3997881412506104,-17819.259765625,-23681.44921875,-24402.140625,-400000.0625,-400000.0625,-400000.0625,-400000.0625,-10358.7197265625
1.4117965698242188,-17837.380859375,-23666.189453125,-24401.48046875,-400000.0625,-400000.0625,-400000.0625,-400000.0625,-10415.599609375
1.4281208515167236,-17814.880859375,-23659.0390625,-24403.5703125,-400000.0625,-400000.0625,-400000.0625,-400000.0625,-10600.51953125
1.4491727352142334,-17784.169921875,-23676.01953125,-24397.849609375,-400000.0625,-400000.0625,-400000.0625,-400000.0625,-10899.6396484375
1.4651777744293213,-17786.5,-23661.4296875,-24391.560546875,-400000.0625,-400000.0625,-400000.0625,-400000.0625,-11360.3603515625
1.4792988300323486,-17810.439453125,-23667.4296875,-24406.869140625,-400000.0625,-400000.0625,-400000.0625,-400000.0625,-11635.400390625
1.4930720329284668,-17811.830078125,-23692.3203125,-24419.83984375,-400000.0625,-400000.0625,-400000.0625,-400000.0625,-11672.5498046875
1.509803056716919,-17798.759765625,-23693.0390625,-24421.359375,-400000.0625,-400000.0625,-400000.0625,-400000.0625,-12096.2197265625
1.5230770111083984,-17792.75,-23679.55078125,-24411.5390625,-400000.0625,-400000.0625,-400000.0625,-400000.0625,-12586.2099609375
1.5467658042907715,-17788.98046875,-23705.529296875,-24435.669921875,-400000.0625,-400000.0625,-400000.0625,-400000.0625,-12759.16015625
1.5590689182281494,-17791.609375,-23736.720703125,-24442.720703125,-400000.0625,-400000.0625,-400000.0625,-400000.0625,-12760.0703125
1.5727641582489014,-17782.7890625,-23726.279296875,-24454.41015625,-400000.0625,-400000.0625,-400000.0625,-400000.0625,-12934.6904296875
1.5910820960998535,-17779.779296875,-23718.029296875,-24450.919921875,-400000.0625,-400000.0625,-400000.0625,-400000.0625,-13258.740234375
1.6050922870635986,-17764.189453125,-23716.0703125,-24438.529296875,-400000.0625,-400000.0625,-400000.0625,-400000.0625,-13388.2099609375
1.6179883480072021,-17765.619140625,-23718.169921875,-24436.5703125,-400000.0625,-400000.0625,-400000.0625,-400000.0625,-13657.2900390625
1.634509563446045,-17765.859375,-23752.0703125,-24464.560546875,-400000.0625,-400000.0625,-400000.0625,-400000.0625,-14124.25
1.6543352603912354,-17774.150390625,-23745.439453125,-24459.939453125,-400000.0625,-400000.0625,-400000.0625,-400000.0625,-14738.66015625
1.6684682369232178,-17764.669921875,-23747.400390625,-24459.3203125,-400000.0625,-400000.0625,-400000.0625,-400000.0625,-15506.1298828125
1.6811432838439941,-17742.830078125,-23747.970703125,-24463.890625,-400000.0625,-400000.0625,-400000.0625,-400000.0625,-16121.25
1.6968967914581299,-17747.119140625,-23761.80078125,-24464.900390625,-400000.0625,-400000.0625,-400000.0625,-400000.0625,-16314.2197265625
1.7094907760620117,-17767.9609375,-23763.990234375,-24475.2890625,-400000.0625,-400000.0625,-400000.0625,-400000.0625,-16174.3701171875
1.7227299213409424,-17768.619140625,-23783.970703125,-24494.890625,-400000.0625,-400000.0625,-400000.0625,-400000.0625,-16103.3203125
1.7475922107696533,-17759.990234375,-23791.3203125,-24498.509765625,-400000.0625,-400000.0625,-400000.0625,-400000.0625,-16334.73046875
1.7618637084960938,-17736.2890625,-23783.5,-24486.400390625,-400000.0625,-400000.0625,-400000.0625,-400000.0625,-16796.58984375
1.7755584716796875,-17721.609375,-23802.810546875,-24491.26953125,-400000.0625,-400000.0625,-400000.0625,-400000.0625,-17263.609375
1.789581298828125,-17739.580078125,-23814.970703125,-24509.189453125,-400000.0625,-400000.0625,-400000.0625,-400000.0625,-17427.58984375
1.8064959049224854,-17761.900390625,-23825.69921875,-24518.6796875,-400000.0625,-400000.0625,-400000.0625,-400000.0625,-17515.759765625
1.8210277557373047,-17761.94921875,-23824.26953125,-24519.880859375,-400000.0625,-400000.0625,-400000.0625,-400000.0625,-17566.779296875
1.8360557556152344,-17737.529296875,-23827.26953125,-24533.26953125,-400000.0625,-400000.0625,-400000.0625,-400000.0625,-17602.259765625
1.85365891456604,-17726.189453125,-23841.810546875,-24544.2890625,-400000.0625,-400000.0625,-400000.0625,-400000.0625,-17677.44921875
1.8697247505187988,-17726.609375,-23815.58984375,-24514.580078125,-400000.0625,-400000.0625,-400000.0625,-400000.0625,-17626.4296875
1.8831548690795898,-17738.109375,-23768.5703125,-24488.2109375,-400000.0625,-400000.0625,-400000.0625,-400000.0625,-17752.98046875
1.8947129249572754,-17746.640625,-23750.01953125,-24483.5390625,-400000.0625,-400000.0625,-400000.0625,-400000.0625,-18075.369140625
1.907984972000122,-17731.529296875,-23727.7109375,-24469.810546875,-400000.0625,-400000.0625,-400000.0625,-400000.0625,-18268.919921875
1.9241232872009277,-17727.66015625,-23704.25,-24460.650390625,-400000.0625,-400000.0625,-400000.0625,-400000.0625,-18261.099609375
1.9457128047943115,-17745.9296875,-23703.099609375,-24461.939453125,-400000.0625,-400000.0625,-400000.0625,-400000.0625,-18090.30078125
1.9573249816894531,-17746.98046875,-23708.439453125,-24465.419921875,-400000.0625,-400000.0625,-400000.0625,-400000.0625,-17906.51953125
1.9710712432861328,-17741.25,-23683.599609375,-24450.310546875,-400000.0625,-400000.0625,-400000.0625,-400000.0625,-17799.4296875
1.9849393367767334,-17734.48046875,-23658.94921875,-24435.380859375,-400000.0625,-400000.0625,-400000.0625,-400000.0625,-17737.25
1.9992330074310303,-17724.23046875,-23674.30078125,-24440.720703125,-400000.0625,-400000.0625,-400000.0625,-400000.0625,-17805.19921875
2.011475086212158,-17734.91015625,-23686.359375,-24457.650390625,-400000.0625,-400000.0625,-400000.0625,-400000.0625,-17820.7890625
2.026315212249756,-17731.2890625,-23699.380859375,-24467.94921875,-400000.0625,-400000.0625,-400000.0625,-400000.0625,-17860.1796875
2.047637462615967,-17725.51953125,-23694.7109375,-24457.599609375,-400000.0625,-400000.0625,-400000.0625,-400000.0625,-18121.91015625
2.0589826107025146,-17711.740234375,-23679.44921875,-24438.189453125,-400000.0625,-400000.0625,-400000.0625,-400000.0625,-18626.41015625
2.073059320449829,-17715.029296875,-23675.30078125,-24430.279296875,-400000.0625,-400000.0625,-400000.0625,-400000.0625,-19267.66015625
2.0881989002227783,-17721.26953125,-23695.189453125,-24445.630859375,-400000.0625,-400000.0625,-400000.0625,-400000.0625,-19830.1796875
2.1015725135803223,-17716.080078125,-23717.9296875,-24465.990234375,-400000.0625,-400000.0625,-400000.0625,-400000.0625,-20554.349609375
2.1132845878601074,-17706.830078125,-23715.310546875,-24462.66015625,-400000.0625,-400000.0625,-400000.0625,-400000.0625,-21570.259765625
2.1278514862060547,-17704.19921875,-23700.759765625,-24446.58984375,-400000.0625,-400000.0625,-400000.0625,-400000.0625,-22545.390625
2.1471595764160156,-17702.630859375,-23712.58984375,-24449.0703125,-400000.0625,-400000.0625,-400000.0625,-400000.0625,-23440.169921875
2.1597232818603516,-17704.060546875,-23728.94921875,-24463.130859375,-400000.0625,-400000.0625,-400000.0625,-400000.0625,-24202.830078125
2.175128936767578,-17701.580078125,-23747.400390625,-24476.439453125,-400000.0625,-400000.0625,-400000.0625,-400000.0625,-24902.869140625
2.188830614089966,-17697.669921875,-23748.689453125,-24475.669921875,-400000.0625,-400000.0625,-400000.0625,-400000.0625,-25627.66015625
2.2011754512786865,-17678.259765625,-23732.05078125,-24462.23046875,-400000.0625,-400000.0625,-400000.0625,-400000.0625,-26309.109375
2.214198589324951,-17686.4609375,-23735.529296875,-24455.7890625,-400000.0625,-400000.0625,-400000.0625,-400000.0625,-26835.490234375
2.2233786582946777,-17705.25,-23748.0703125,-24463.609375,-400000.0625,-400000.0625,-400000.0625,-400000.0625,-27197.41015625
2.2358546257019043,-17701.19921875,-23755.599609375,-24480.6796875,-400000.0625,-400000.0625,-400000.0625,-400000.0625,-27392.099609375
2.2538437843322754,-17700.48046875,-23755.599609375,-24474.9609375,-400000.0625,-400000.0625,-400000.0625,-400000.0625,-27175.669921875
2.2679290771484375,-17696.94921875,-23773.150390625,-24482.6796875,-400000.0625,-400000.0625,-400000.0625,-400000.0625,-26638.69921875
2.27838134765625,-17707.6796875,-23778.490234375,-24492.650390625,-400000.0625,-400000.0625,-400000.0625,-400000.0625,-25707.529296875
2.292776346206665,-17725.140625,-23780.919921875,-24493.740234375,-400000.0625,-400000.0625,-400000.0625,-400000.0625,-24671.220703125
2.306443214416504,-17709.5390625,-23784.970703125,-24500.1796875,-400000.0625,-400000.0625,-400000.0625,-400000.0625,-24088.2890625
2.3168704509735107,-17698.099609375,-23780.919921875,-24491.9296875,-400000.0625,-400000.0625,-400000.0625,-400000.0625,-23725.369140625
2.3299741744995117,-17702.630859375,-23770.529296875,-24484.259765625,-400000.0625,-400000.0625,-400000.0625,-400000.0625,-23608.970703125
2.3487069606781006,-17701.6796875,-23777.5390625,-24483.640625,-400000.0625,-400000.0625,-400000.0625,-400000.0625,-23459.76953125
2.357927083969116,-17699.529296875,-23793.509765625,-24495.26953125,-400000.0625,-400000.0625,-400000.0625,-400000.0625,-23192.4609375
2.3710248470306396,-17701.91015625,-23793.1796875,-24496.130859375,-400000.0625,-400000.0625,-400000.0625,-400000.0625,-23116.880859375
2.383906126022339,-17695.05078125,-23791.130859375,-24491.98046875,-400000.0625,-400000.0625,-400000.0625,-400000.0625,-23090.220703125
2.3960647583007812,-17687.939453125,-23789.5,-24487.98046875,-400000.0625,-400000.0625,-400000.0625,-400000.0625,-22923.51953125
2.4087188243865967,-17688.7109375,-23792.509765625,-24492.599609375,-400000.0625,-400000.0625,-400000.0625,-400000.0625,-22516.6796875
2.4231107234954834,-17702.150390625,-23809.8203125,-24506.05078125,-400000.0625,-400000.0625,-400000.0625,-400000.0625,-21902.23046875
2.435917615890503,-17705.919921875,-23814.25,-24511.669921875,-400000.0625,-400000.0625,-400000.0625,-400000.0625,-21340.560546875
2.4546306133270264,-17701.33984375,-23808.669921875,-24507.859375,-400000.0625,-400000.0625,-400000.0625,-400000.0625,-20862.8203125
2.4676525592803955,-17695.48046875,-23804.4296875,-24497.650390625,-400000.0625,-400000.0625,-400000.0625,-400000.0625,-20479.630859375
2.480868101119995,-17687.900390625,-23795.66015625,-24493.169921875,-400000.0625,-400000.0625,-400000.0625,-400000.0625,-19998.220703125
2.4949302673339844,-17695.94921875,-23813.439453125,-24509.240234375,-400000.0625,-400000.0625,-400000.0625,-400000.0625,-19461.5390625
2.503511905670166,-17707.5390625,-23829.83984375,-24522.640625,-400000.0625,-400000.0625,-400000.0625,-400000.0625,-19089.26953125
2.516634702682495,-17702.919921875,-23830.80078125,-24517.970703125,-400000.0625,-400000.0625,-400000.0625,-400000.0625,-18709.5703125
2.5305068492889404,-17698.669921875,-23815.58984375,-24503.810546875,-400000.0625,-400000.0625,-400000.0625,-400000.0625,-17917.970703125
2.546078681945801,-17701.6796875,-23829.75,-24511.439453125,-400000.0625,-400000.0625,-400000.0625,-400000.0625,-16740.609375
2.561400890350342,-17700.390625,-23840.240234375,-24522.640625,-400000.0625,-400000.0625,-400000.0625,-400000.0625,-15794.6103515625
2.5737264156341553,-17707.830078125,-23838.240234375,-24522.55078125,-400000.0625,-400000.0625,-400000.0625,-400000.0625,-15226.080078125
2.5833120346069336,-17719.80078125,-23835.279296875,-24531.80078125,-400000.0625,-400000.0625,-400000.0625,-400000.0625,-15164.08984375
2.597425937652588,-17709.349609375,-23830.849609375,-24518.779296875,-400000.0625,-400000.0625,-400000.0625,-400000.0625,-15466.4501953125
2.6104538440704346,-17679.119140625,-23804.91015625,-24495.220703125,-400000.0625,-400000.0625,-400000.0625,-400000.0625,-15510.990234375
2.6247968673706055,-17665.390625,-23791.3203125,-24491.26953125,-400000.0625,-400000.0625,-400000.0625,-400000.0625,-15323.0703125
2.637298345565796,-17660.48046875,-23800.140625,-24488.880859375,-400000.0625,-400000.0625,-400000.0625,-400000.0625,-15202.9501953125
2.6561131477355957,-17663.4296875,-23797.3203125,-24480.349609375,-400000.0625,-400000.0625,-400000.0625,-400000.0625,-15121.1796875
2.6670854091644287,-17660.2890625,-23793.990234375,-24480.25,-400000.0625,-400000.0625,-400000.0625,-400000.0625,-14732.83984375
2.676767587661743,-17662.91015625,-23801.380859375,-24489.44921875,-400000.0625,-400000.0625,-400000.0625,-400000.0625,-13928.1796875
2.6859500408172607,-17661.529296875,-23788.55078125,-24478.150390625,-400000.0625,-400000.0625,-400000.0625,-400000.0625,-13834.6201171875
2.6988935470581055,-17650.4609375,-23783.880859375,-24473.619140625,-400000.0625,-400000.0625,-400000.0625,-400000.0625,-14426.3798828125
2.7136597633361816,-17649.80078125,-23782.779296875,-24464.23046875,-400000.0625,-400000.0625,-400000.0625,-400000.0625,-15145.400390625
2.726801633834839,-17636.640625,-23781.16015625,-24466.5703125,-400000.0625,-400000.0625,-400000.0625,-400000.0625,-15852.259765625
2.7465598583221436,-17638.259765625,-23787.689453125,-24468.51953125,-400000.0625,-400000.0625,-400000.0625,-400000.0625,-16461.80078125
2.754868507385254,-17640.0703125,-23787.7890625,-24465.23046875,-400000.0625,-400000.0625,-400000.0625,-400000.0625,-16892.099609375
2.7683169841766357,-17642.9296875,-23788.98046875,-24470.0,-400000.0625,-400000.0625,-400000.0625,-400000.0625,-17207.619140625
2.783080816268921,-17645.7890625,-23789.98046875,-24470.900390625,-400000.0625,-400000.0625,-400000.0625,-400000.0625,-16943.740234375
2.7964234352111816,-17645.310546875,-23795.69921875,-24478.9609375,-400000.0625,-400000.0625,-400000.0625,-400000.0625,-16012.7197265625
2.8070530891418457,-17649.83984375,-23799.470703125,-24481.5390625,-400000.0625,-400000.0625,-400000.0625,-400000.0625,-14941.3603515625
2.818544626235962,-17652.279296875,-23793.509765625,-24479.9609375,-400000.0625,-400000.0625,-400000.0625,-400000.0625,-14666.650390625
2.83647084236145,-17636.060546875,-23784.01953125,-24472.189453125,-400000.0625,-400000.0625,-400000.0625,-400000.0625,-15371.849609375
2.852888345718384,-17624.05078125,-23779.73046875,-24460.029296875,-400000.0625,-400000.0625,-400000.0625,-400000.0625,-16373.919921875
2.8684608936309814,-17612.4609375,-23781.6796875,-24460.650390625,-400000.0625,-400000.0625,-400000.0625,-400000.0625,-17263.3203125
2.8838818073272705,-17619.08984375,-23773.150390625,-24458.41015625,-400000.0625,-400000.0625,-400000.0625,-400000.0625,-18099.880859375
2.896714687347412,-17624.859375,-23777.009765625,-24465.330078125,-400000.0625,-400000.0625,-400000.0625,-400000.0625,-18858.859375
2.9088807106018066,-17618.419921875,-23779.109375,-24468.470703125,-400000.0625,-400000.0625,-400000.0625,-400000.0625,-19588.23046875
2.9206161499023438,-17615.369140625,-23779.8203125,-24461.419921875,-400000.0625,-400000.0625,-400000.0625,-400000.0625,-20292.140625
2.9351184368133545,-17617.80078125,-23777.060546875,-24460.509765625,-400000.0625,-400000.0625,-400000.0625,-400000.0625,-20837.9296875
2.952899932861328,-17636.640625,-23780.630859375,-24459.4609375,-400000.0625,-400000.0625,-400000.0625,-400000.0625,-21210.9609375
2.966388702392578,-17626.810546875,-23782.30078125,-24467.900390625,-400000.0625,-400000.0625,-400000.0625,-400000.0625,-21528.390625
2.975384473800659,-17626.5703125,-23787.7890625,-24472.759765625,-400000.0625,-400000.0625,-400000.0625,-400000.0625,-21903.94921875
2.991210460662842,-17632.720703125,-23791.359375,-24470.619140625,-400000.0625,-400000.0625,-400000.0625,-400000.0625,-22179.26953125
3.003488540649414,-17626.48046875,-23790.359375,-24467.759765625,-400000.0625,-400000.0625,-400000.0625,-400000.0625,-22387.130859375
3.015779495239258,-17626.0,-23789.740234375,-24470.140625,-400000.0625,-400000.0625,-400000.0625,-400000.0625,-22583.6796875
3.0295238494873047,-17634.73046875,-23793.990234375,-24480.390625,-400000.0625,-400000.0625,-400000.0625,-400000.0625,-22602.890625
3.0507490634918213,-17635.6796875,-23793.890625,-24480.060546875,-400000.0625,-400000.0625,-400000.0625,-400000.0625,-22508.91015625
3.0632238388061523,-17630.25,-23791.130859375,-24479.6796875,-400000.0625,-400000.0625,-400000.0625,-400000.0625,-22490.740234375
3.0758821964263916,-17626.2890625,-23787.359375,-24477.099609375,-400000.0625,-400000.0625,-400000.0625,-400000.0625,-22510.9609375
3.088303565979004,-17627.2890625,-23796.609375,-24478.009765625,-400000.0625,-400000.0625,-400000.0625,-400000.0625,-22524.689453125
3.0970993041992188,-17634.439453125,-23796.75,-24476.580078125,-400000.0625,-400000.0625,-400000.0625,-400000.0625,-22497.939453125
3.114366292953491,-17622.94921875,-23797.7109375,-24485.16015625,-400000.0625,-400000.0625,-400000.0625,-400000.0625,-22561.169921875
3.1285719871520996,-17624.08984375,-23799.609375,-24485.919921875,-400000.0625,-400000.0625,-400000.0625,-400000.0625,-22645.380859375
3.148284673690796,-17635.490234375,-23810.009765625,-24480.30078125,-400000.0625,-400000.0625,-400000.0625,-400000.0625,-22608.5703125
3.1601524353027344,-17633.25,-23808.05078125,-24485.5390625,-400000.0625,-400000.0625,-400000.0625,-400000.0625,-22534.66015625
3.173762321472168,-17634.919921875,-23801.380859375,-24486.01953125,-400000.0625,-400000.0625,-400000.0625,-400000.0625,-22455.029296875
3.1885621547698975,-17637.400390625,-23802.5703125,-24490.220703125,-400000.0625,-400000.0625,-400000.0625,-400000.0625,-22410.439453125
3.2074661254882812,-17624.0,-23807.76953125,-24500.560546875,-400000.0625,-400000.0625,-400000.0625,-400000.0625,-22377.44921875
3.2177867889404297,-17632.25,-23812.8203125,-24501.470703125,-400000.0625,-400000.0625,-400000.0625,-400000.0625,-22300.060546875
3.231297254562378,-17634.73046875,-23818.0703125,-24499.369140625,-400000.0625,-400000.0625,-400000.0625,-400000.0625,-22141.75
3.2511160373687744,-17650.69921875,-23827.7890625,-24505.5703125,-400000.0625,-400000.0625,-400000.0625,-400000.0625,-21772.9609375
3.264611005783081,-17645.650390625,-23830.23046875,-24513.8203125,-400000.0625,-400000.0625,-400000.0625,-400000.0625,-21480.939453125
3.2756855487823486,-17637.349609375,-23824.26953125,-24510.76953125,-400000.0625,-400000.0625,-400000.0625,-400000.0625,-21354.33984375
3.290466070175171,-17644.220703125,-23819.880859375,-24502.380859375,-400000.0625,-400000.0625,-400000.0625,-400000.0625,-21168.4296875
3.30338978767395,-17647.83984375,-23830.80078125,-24509.099609375,-400000.0625,-400000.0625,-400000.0625,-400000.0625,-20934.16015625
3.3168869018554688,-17650.80078125,-23830.369140625,-24501.369140625,-400000.0625,-400000.0625,-400000.0625,-400000.0625,-20695.970703125
3.329923391342163,-17654.75,-23807.9609375,-24485.2109375,-400000.0625,-400000.0625,-400000.0625,-400000.0625,-20611.4296875
3.3488094806671143,-17657.5703125,-23784.970703125,-24480.060546875,-400000.0625,-400000.0625,-400000.0625,-400000.0625,-20594.26953125
3.3607468605041504,-17666.390625,-23776.720703125,-24469.470703125,-400000.0625,-400000.0625,-400000.0625,-400000.0625,-20482.2109375
3.371208429336548,-17670.630859375,-23777.060546875,-24464.939453125,-400000.0625,-400000.0625,-400000.0625,-400000.0625,-20394.419921875
3.38486385345459,-17683.890625,-23776.25,-24465.75,-400000.0625,-400000.0625,-400000.0625,-400000.0625,-20386.41015625
3.4016571044921875,-17680.689453125,-23771.380859375,-24464.7109375,-400000.0625,-400000.0625,-400000.0625,-400000.0625,-20583.009765625
3.413548469543457,-17684.3203125,-23767.140625,-24454.310546875,-400000.0625,-400000.0625,-400000.0625,-400000.0625,-20863.869140625
3.425591468811035,-17684.80078125,-23755.119140625,-24448.779296875,-400000.0625,-400000.0625,-400000.0625,-400000.0625,-21037.19921875
3.4382433891296387,-17680.98046875,-23765.51953125,-24456.359375,-400000.0625,-400000.0625,-400000.0625,-400000.0625,-21089.169921875
3.4524588584899902,-17693.619140625,-23765.380859375,-24456.689453125,-400000.0625,-400000.0625,-400000.0625,-400000.0625,-21111.30078125
3.4640791416168213,-17696.94921875,-23766.94921875,-24462.66015625,-400000.0625,-400000.0625,-400000.0625,-400000.0625,-21245.4296875
3.476485013961792,-17696.619140625,-23772.33984375,-24461.560546875,-400000.0625,-400000.0625,-400000.0625,-400000.0625,-21410.75
3.4875340461730957,-17696.669921875,-23769.94921875,-24457.26953125,-400000.0625,-400000.0625,-400000.0625,-400000.0625,-21379.5703125
3.5007684230804443,-17700.009765625,-23773.76953125,-24462.509765625,-400000.0625,-400000.0625,-400000.0625,-400000.0625,-21222.830078125
3.515427350997925,-17704.30078125,-23777.8203125,-24467.419921875,-400000.0625,-400000.0625,-400000.0625,-400000.0625,-21057.080078125
3.5241787433624268,-17699.48046875,-23781.73046875,-24469.279296875,-400000.0625,-400000.0625,-400000.0625,-400000.0625,-21224.98046875
3.5376570224761963,-17689.75,-23779.58984375,-24463.130859375,-400000.0625,-400000.0625,-400000.0625,-400000.0625,-21693.900390625
3.5532870292663574,-17689.94921875,-23775.6796875,-24458.939453125,-400000.0625,-400000.0625,-400000.0625,-400000.0625,-22115.66015625
3.564035415649414,-17692.849609375,-23777.8203125,-24462.26953125,-400000.0625,-400000.0625,-400000.0625,-400000.0625,-22524.119140625
3.577287435531616,-17694.05078125,-23776.099609375,-24462.66015625,-400000.0625,-400000.0625,-400000.0625,-400000.0625,-22969.060546875
3.5898616313934326,-17695.140625,-23774.439453125,-24458.69921875,-400000.0625,-400000.0625,-400000.0625,-400000.0625,-23664.330078125
3.599214553833008,-17685.26953125,-23772.189453125,-24453.2109375,-400000.0625,-400000.0625,-400000.0625,-400000.0625,-24462.080078125
3.608288526535034,-17679.169921875,-23772.76953125,-24451.0703125,-400000.0625,-400000.0625,-400000.0625,-400000.0625,-25068.619140625
3.623539447784424,-17680.5,-23780.2109375,-24456.169921875,-400000.0625,-400000.0625,-400000.0625,-400000.0625,-25610.55078125
3.637202024459839,-17682.650390625,-23780.109375,-24460.990234375,-400000.0625,-400000.0625,-400000.0625,-400000.0625,-26251.1796875
3.6564831733703613,-17682.650390625,-23776.9609375,-24458.029296875,-400000.0625,-400000.0625,-400000.0625,-400000.0625,-26980.44921875
3.669861316680908,-17677.259765625,-23781.109375,-24454.880859375,-400000.0625,-400000.0625,-400000.0625,-400000.0625,-27630.7109375
3.6828370094299316,-17672.01953125,-23779.8203125,-24453.740234375,-400000.0625,-400000.0625,-400000.0625,-400000.0625,-28095.30078125
3.6969780921936035,-17677.740234375,-23769.5703125,-24450.2109375,-400000.0625,-400000.0625,-400000.0625,-400000.0625,-28404.720703125
3.710254192352295,-17685.990234375,-23768.140625,-24449.919921875,-400000.0625,-400000.0625,-400000.0625,-400000.0625,-28813.650390625
3.7260313034057617,-17683.83984375,-23774.19921875,-24452.830078125,-400000.0625,-400000.0625,-400000.0625,-400000.0625,-29283.240234375
3.7472007274627686,-17679.41015625,-23776.150390625,-24448.73046875,-400000.0625,-400000.0625,-400000.0625,-400000.0625,-29642.25
3.7581043243408203,-17676.830078125,-23776.919921875,-24452.55078125,-400000.0625,-400000.0625,-400000.0625,-400000.0625,-29838.990234375
3.768941879272461,-17676.5,-23788.0703125,-24461.609375,-400000.0625,-400000.0625,-400000.0625,-400000.0625,-29957.8203125
3.7842440605163574,-17684.41015625,-23791.220703125,-24462.75,-400000.0625,-400000.0625,-400000.0625,-400000.0625,-30014.23046875
3.798222303390503,-17680.55078125,-23785.01953125,-24461.560546875,-400000.0625,-400000.0625,-400000.0625,-400000.0625,-30307.33984375
3.8116395473480225,-17674.0703125,-23797.08984375,-24464.66015625,-400000.0625,-400000.0625,-400000.0625,-400000.0625,-30794.33984375
3.82425594329834,-17665.48046875,-23791.650390625,-24465.51953125,-400000.0625,-400000.0625,-400000.0625,-400000.0625,-31105.900390625
3.838937282562256,-17676.55078125,-23776.919921875,-24454.7890625,-400000.0625,-400000.0625,-400000.0625,-400000.0625,-31161.83984375
3.8520567417144775,-17677.599609375,-23783.01953125,-24458.080078125,-400000.0625,-400000.0625,-400000.0625,-400000.0625,-31485.23046875
3.864856243133545,-17672.58984375,-23792.26953125,-24460.890625,-400000.0625,-400000.0625,-400000.0625,-400000.0625,-32298.849609375
3.8763368129730225,-17663.669921875,-23792.560546875,-24455.359375,-400000.0625,-400000.0625,-400000.0625,-400000.0625,-33115.1015625
3.887744665145874,-17653.369140625,-23785.880859375,-24451.740234375,-400000.0625,-400000.0625,-400000.0625,-400000.0625,-33825.9296875
3.90142822265625,-17655.80078125,-23781.060546875,-24451.44921875,-400000.0625,-400000.0625,-400000.0625,-400000.0625,-34563.69140625
3.9138336181640625,-17669.970703125,-23797.369140625,-24463.509765625,-400000.0625,-400000.0625,-400000.0625,-400000.0625,-35441.9296875
3.921642303466797,-17671.060546875,-23802.619140625,-24466.419921875,-400000.0625,-400000.0625,-400000.0625,-400000.0625,-36470.8515625
3.9319772720336914,-17663.669921875,-23793.560546875,-24457.55078125,-400000.0625,-400000.0625,-400000.0625,-400000.0625,-37474.05859375
3.951451301574707,-17657.7109375,-23792.220703125,-24457.9296875,-400000.0625,-400000.0625,-400000.0625,-400000.0625,-38275.1484375
3.964484691619873,-17656.51953125,-23797.3203125,-24462.560546875,-400000.0625,-400000.0625,-400000.0625,-400000.0625,-38989.5
3.980208158493042,-17664.630859375,-23800.330078125,-24465.560546875,-400000.0625,-400000.0625,-400000.0625,-400000.0625,-39778.8984375
3.993614673614502,-17668.6796875,-23798.80078125,-24462.890625,-400000.0625,-400000.0625,-400000.0625,-400000.0625,-40793.51953125
4.006391286849976,-17659.240234375,-23797.3203125,-24461.4609375,-400000.0625,-400000.0625,-400000.0625,-400000.0625,-41972.69140625
4.021352767944336,-17651.890625,-23804.94921875,-24458.599609375,-400000.0625,-400000.0625,-400000.0625,-400000.0625,-43122.05859375
4.033397197723389,-17653.609375,-23812.009765625,-24460.220703125,-400000.0625,-400000.0625,-400000.0625,-400000.0625,-44317.109375
4.053452491760254,-17657.23046875,-23804.05078125,-24465.279296875,-400000.0625,-400000.0625,-400000.0625,-400000.0625,-45643.91015625
4.061572313308716,-17647.55078125,-23804.380859375,-24473.9609375,-400000.0625,-400000.0625,-400000.0625,-400000.0625,-47148.8515625
4.0753443241119385,-17639.73046875,-23810.91015625,-24470.4296875,-400000.0625,-400000.0625,-400000.0625,-400000.0625,-48639.01953125
4.0870208740234375,-17631.76953125,-23814.30078125,-24465.94921875,-400000.0625,-400000.0625,-400000.0625,-400000.0625,-49993.8515625
4.101372480392456,-17632.25,-23808.33984375,-24466.609375,-400000.0625,-400000.0625,-400000.0625,-400000.0625,-51336.33984375
4.112704038619995,-17640.55078125,-23820.880859375,-24479.580078125,-400000.0625,-400000.0625,-400000.0625,-400000.0625,-52738.91015625
4.125691175460815,-17642.400390625,-23836.279296875,-24486.400390625,-400000.0625,-400000.0625,-400000.0625,-400000.0625,-54251.33984375
4.1399452686309814,-17634.8203125,-23836.189453125,-24483.400390625,-400000.0625,-400000.0625,-400000.0625,-400000.0625,-55741.26953125
4.155375003814697,-17632.19921875,-23807.0,-24471.05078125,-400000.0625,-400000.0625,-400000.0625,-400000.0625,-57054.62109375
4.169110536575317,-17638.01953125,-23792.7890625,-24460.4609375,-400000.0625,-400000.0625,-400000.0625,-400000.0625,-58294.96875
4.181207656860352,-17646.9296875,-23806.669921875,-24471.189453125,-400000.0625,-400000.0625,-400000.0625,-400000.0625,-59580.19140625
4.192947626113892,-17646.41015625,-23815.490234375,-24475.4296875,-400000.0625,-400000.0625,-400000.0625,-400000.0625,-60999.828125
4.201945066452026,-17638.109375,-23815.349609375,-24472.48046875,-400000.0625,-400000.0625,-400000.0625,-400000.0625,-62413.94140625
4.215856075286865,-17635.5390625,-23817.73046875,-24471.240234375,-400000.0625,-400000.0625,-400000.0625,-400000.0625,-63703.26171875
4.22994327545166,-17637.919921875,-23837.900390625,-24485.779296875,-400000.0625,-400000.0625,-400000.0625,-400000.0625,-64957.859375
4.2488298416137695,-17652.80078125,-23839.619140625,-24494.939453125,-400000.0625,-400000.0625,-400000.0625,-400000.0625,-66250.6171875
4.2634241580963135,-17651.939453125,-23845.48046875,-24499.0390625,-400000.0625,-400000.0625,-400000.0625,-400000.0625,-67661.71875
4.273244619369507,-17646.080078125,-23851.109375,-24489.0703125,-400000.0625,-400000.0625,-400000.0625,-400000.0625,-69072.0625
4.285824775695801,-17644.599609375,-23848.009765625,-24481.779296875,-400000.0625,-400000.0625,-400000.0625,-400000.0625,-70342.171875
4.299835920333862,-17651.1796875,-23849.8203125,-24490.310546875,-400000.0625,-400000.0625,-400000.0625,-400000.0625,-71569.640625
4.309857368469238,-17654.990234375,-23862.169921875,-24505.240234375,-400000.0625,-400000.0625,-400000.0625,-400000.0625,-72853.2890625
4.322557210922241,-17653.08984375,-23868.369140625,-24521.16015625,-400000.0625,-400000.0625,-400000.0625,-400000.0625,-74262.390625
4.334251165390015,-17643.41015625,-23864.220703125,-24522.359375,-400000.0625,-400000.0625,-400000.0625,-400000.0625,-75665.34375
4.353342056274414,-17633.5390625,-23866.419921875,-24530.650390625,-400000.0625,-400000.0625,-400000.0625,-400000.0625,-76966.25
4.36480450630188,-17636.640625,-23877.619140625,-24553.400390625,-400000.0625,-400000.0625,-400000.0625,-400000.0625,-78230.25
4.3770592212677,-17652.1796875,-23883.349609375,-24562.890625,-400000.0625,-400000.0625,-400000.0625,-400000.0625,-79533.8203125
4.391250848770142,-17654.1796875,-23882.25,-24554.58984375,-400000.0625,-400000.0625,-400000.0625,-400000.0625,-80965.578125
4.405452013015747,-17644.5,-23877.2890625,-24542.4296875,-400000.0625,-400000.0625,-400000.0625,-400000.0625,-82435.328125
4.418802261352539,-17638.01953125,-23875.5703125,-24534.0390625,-400000.0625,-400000.0625,-400000.0625,-400000.0625,-83881.7734375
4.431896209716797,-17640.400390625,-23891.880859375,-24534.3203125,-400000.0625,-400000.0625,-400000.0625,-400000.0625,-85328.2109375
4.448942422866821,-17653.130859375,-23901.080078125,-24541.0,-400000.0625,-400000.0625,-400000.0625,-400000.0625,-86794.34375
4.4649271965026855,-17652.900390625,-23904.849609375,-24542.380859375,-400000.0625,-400000.0625,-400000.0625,-400000.0625,-88339.4765625
4.474668741226196,-17638.73046875,-23898.080078125,-24532.029296875,-400000.0625,-400000.0625,-400000.0625,-400000.0625,-89865.03125
4.486790180206299,-17633.490234375,-23892.44921875,-24526.26953125,-400000.0625,-400000.0625,-400000.0625,-400000.0625,-91270.4609375
4.500206232070923,-17643.5,-23900.23046875,-24534.1796875,-400000.0625,-400000.0625,-400000.0625,-400000.0625,-92607.84375
4.510230302810669,-17653.08984375,-23920.5390625,-24549.150390625,-400000.0625,-400000.0625,-400000.0625,-400000.0625,-93921.53125
4.526631832122803,-17656.51953125,-23933.69921875,-24538.849609375,-400000.0625,-400000.0625,-400000.0625,-400000.0625,-95331.6796875
4.53928542137146,-17648.560546875,-23927.41015625,-24521.2109375,-400000.0625,-400000.0625,-400000.0625,-400000.0625,-96751.609375
4.553122520446777,-17631.390625,-23928.689453125,-24525.650390625,-400000.0625,-400000.0625,-400000.0625,-400000.0625,-98047.546875
4.565948724746704,-17644.7890625,-23937.990234375,-24543.380859375,-400000.0625,-400000.0625,-400000.0625,-400000.0625,-99253.7578125
4.574680328369141,-17666.060546875,-23940.330078125,-24562.080078125,-400000.0625,-400000.0625,-400000.0625,-400000.0625,-100380.859375
4.583868741989136,-17658.900390625,-23961.119140625,-24560.740234375,-400000.0625,-400000.0625,-400000.0625,-400000.0625,-101546.4375
4.598180770874023,-17653.419921875,-23969.26953125,-24546.91015625,-400000.0625,-400000.0625,-400000.0625,-400000.0625,-102699.859375
4.611377000808716,-17635.73046875,-23975.330078125,-24537.1796875,-400000.0625,-400000.0625,-400000.0625,-400000.0625,-103754.53125
4.626195669174194,-17643.01953125,-23985.25,-24542.94921875,-400000.0625,-400000.0625,-400000.0625,-400000.0625,-104786.2734375
4.63716721534729,-17659.810546875,-24020.9609375,-24563.26953125,-400000.0625,-400000.0625,-400000.0625,-400000.0625,-105829.203125
4.657800674438477,-17672.30078125,-24034.359375,-24574.0,-400000.0625,-400000.0625,-400000.0625,-400000.0625,-106979.34375
4.671117544174194,-17666.91015625,-24038.130859375,-24571.759765625,-400000.0625,-400000.0625,-400000.0625,-400000.0625,-108234.2265625
4.684447288513184,-17640.689453125,-24056.720703125,-24575.810546875,-400000.0625,-400000.0625,-400000.0625,-400000.0625,-109551.3984375
4.698637008666992,-17639.5,-24074.3203125,-24589.109375,-400000.0625,-400000.0625,-400000.0625,-400000.0625,-110987.1015625
4.711796998977661,-17650.890625,-24109.080078125,-24616.580078125,-400000.0625,-400000.0625,-400000.0625,-400000.0625,-112549.3203125
4.723987340927124,-17650.080078125,-24138.259765625,-24624.880859375,-400000.0625,-400000.0625,-400000.0625,-400000.0625,-114428.53125
4.7365336418151855,-17645.5,-24120.669921875,-24614.619140625,-400000.0625,-400000.0625,-400000.0625,-400000.0625,-116308.8515625
4.7549052238464355,-17623.51953125,-24127.33984375,-24616.19921875,-400000.0625,-400000.0625,-400000.0625,-400000.0625,-117885.703125
4.767688989639282,-17623.08984375,-24108.220703125,-24619.76953125,-400000.0625,-400000.0625,-400000.0625,-400000.0625,-119232.953125
4.780955791473389,-17641.259765625,-24121.240234375,-24624.830078125,-400000.0625,-400000.0625,-400000.0625,-400000.0625,-120406.0234375
4.7927868366241455,-17631.390625,-24118.470703125,-24626.9296875,-400000.0625,-400000.0625,-400000.0625,-400000.0625,-121639.6015625
4.808286428451538,-17594.669921875,-24097.2109375,-24618.490234375,-400000.0625,-400000.0625,-400000.0625,-400000.0625,-122936.03125
4.819304943084717,-17575.69921875,-24076.75,-24616.05078125,-400000.0625,-400000.0625,-400000.0625,-400000.0625,-124129.171875
4.834933280944824,-17573.169921875,-24063.970703125,-24618.150390625,-400000.0625,-400000.0625,-400000.0625,-400000.0625,-125267.0
4.856353759765625,-17571.01953125,-24041.939453125,-24630.880859375,-400000.0625,-400000.0625,-400000.0625,-400000.0625,-126332.25
4.868694305419922,-17566.490234375,-24013.859375,-24625.01953125,-400000.0625,-400000.0625,-400000.0625,-400000.0625,-127374.2421875
4.8815388679504395,-17544.220703125,-23968.220703125,-24592.349609375,-400000.0625,-400000.0625,-400000.0625,-400000.0625,-128415.4609375
4.891611576080322,-17516.7109375,-23935.029296875,-24578.240234375,-400000.0625,-400000.0625,-400000.0625,-400000.0625,-129432.6484375
4.903510570526123,-17499.44921875,-23922.349609375,-24582.439453125,-400000.0625,-400000.0625,-400000.0625,-400000.0625,-130432.4296875
4.917605638504028,-17496.30078125,-23914.2890625,-24597.599609375,-400000.0625,-400000.0625,-400000.0625,-400000.0625,-131336.984375
4.925929069519043,-17487.859375,-23890.0703125,-24583.580078125,-400000.0625,-400000.0625,-400000.0625,-400000.0625,-132377.78125
4.938866138458252,-17454.33984375,-23839.759765625,-24547.580078125,-400000.0625,-400000.0625,-400000.0625,-400000.0625,-133572.125
4.956712245941162,-17431.599609375,-23798.900390625,-24524.5,-400000.0625,-400000.0625,-400000.0625,-400000.0625,-134828.96875
4.9697630405426025,-17419.529296875,-23794.1796875,-24529.69921875,-400000.0625,-400000.0625,-400000.0625,-400000.0625,-136014.1875
4.984176158905029,-17414.669921875,-23783.0703125,-24533.890625,-400000.0625,-400000.0625,-400000.0625,-400000.0625,-137071.71875
4.9976277351379395,-17421.009765625,-23734.669921875,-24512.25,-400000.0625,-400000.0625,-400000.0625,-400000.0625,-138225.375
5.009491920471191,-17379.05078125,-23717.599609375,-24501.279296875,-400000.0625,-400000.0625,-400000.0625,-400000.0625,-139502.15625
5.023414611816406,-17356.25,-23705.33984375,-24493.650390625,-400000.0625,-400000.0625,-400000.0625,-400000.0625,-140780.078125
5.03599739074707,-17357.58984375,-23684.5,-24492.26953125,-400000.0625,-400000.0625,-400000.0625,-400000.0625,-142019.71875
5.05106258392334,-17377.5703125,-23674.8203125,-24490.44921875,-400000.0625,-400000.0625,-400000.0625,-400000.0625,-143197.515625
5.064332723617554,-17382.4296875,-23678.349609375,-24494.4609375,-400000.0625,-400000.0625,-400000.0625,-400000.0625,-144414.96875
5.0788984298706055,-17366.4609375,-23658.7109375,-24487.119140625,-400000.0625,-400000.0625,-400000.0625,-400000.0625,-145672.34375
5.092489242553711,-17350.060546875,-23640.970703125,-24470.5703125,-400000.0625,-400000.0625,-400000.0625,-400000.0625,-146886.125
5.103938341140747,-17336.75,-23645.830078125,-24465.75,-400000.0625,-400000.0625,-400000.0625,-400000.0625,-148061.875
5.1158287525177,-17360.98046875,-23638.19921875,-24472.330078125,-400000.0625,-400000.0625,-400000.0625,-400000.0625,-149187.578125
5.128097057342529,-17361.2109375,-23633.150390625,-24464.0390625,-400000.0625,-400000.0625,-400000.0625,-400000.0625,-150452.875
5.147185325622559,-17333.369140625,-23615.3203125,-24462.080078125,-400000.0625,-400000.0625,-400000.0625,-400000.0625,-151831.875
5.159234046936035,-17334.1796875,-23600.529296875,-24451.9296875,-400000.0625,-400000.0625,-400000.0625,-400000.0625,-153178.421875
5.169607639312744,-17346.33984375,-23619.23046875,-24453.9296875,-400000.0625,-400000.0625,-400000.0625,-400000.0625,-154450.859375
5.182816028594971,-17334.80078125,-23647.259765625,-24492.55078125,-400000.0625,-400000.0625,-400000.0625,-400000.0625,-155656.9375
5.1929261684417725,-17327.880859375,-23635.390625,-24482.5390625,-400000.0625,-400000.0625,-400000.0625,-400000.0625,-156919.78125
5.204454183578491,-17349.05078125,-23593.94921875,-24445.109375,-400000.0625,-400000.0625,-400000.0625,-400000.0625,-158263.75
5.216790199279785,-17333.369140625,-23591.470703125,-24444.76953125,-400000.0625,-400000.0625,-400000.0625,-400000.0625,-159592.453125
5.231639862060547,-17313.669921875,-23603.390625,-24453.7890625,-400000.0625,-400000.0625,-400000.0625,-400000.0625,-160839.390625
5.248009204864502,-17328.9296875,-23625.140625,-24465.369140625,-400000.0625,-400000.0625,-400000.0625,-400000.0625,-161973.640625
5.262110233306885,-17329.4609375,-23623.560546875,-24465.51953125,-400000.0625,-400000.0625,-400000.0625,-400000.0625,-163161.109375
5.273064374923706,-17350.009765625,-23582.3203125,-24432.279296875,-400000.0625,-400000.0625,-400000.0625,-400000.0625,-164474.40625
5.287006139755249,-17321.400390625,-23581.130859375,-24435.669921875,-400000.0625,-400000.0625,-400000.0625,-400000.0625,-165843.40625
5.296693801879883,-17301.900390625,-23596.810546875,-24448.2109375,-400000.0625,-400000.0625,-400000.0625,-400000.0625,-167155.4375
5.310194253921509,-17332.169921875,-23596.0,-24461.369140625,-400000.0625,-400000.0625,-400000.0625,-400000.0625,-168385.71875
5.323676109313965,-17333.990234375,-23593.0,-24460.1796875,-400000.0625,-400000.0625,-400000.0625,-400000.0625,-169754.328125
5.3372886180877686,-17284.919921875,-23592.51953125,-24438.669921875,-400000.0625,-400000.0625,-400000.0625,-400000.0625,-171268.09375
5.355595588684082,-17275.91015625,-23577.7890625,-24426.69921875,-400000.0625,-400000.0625,-400000.0625,-400000.0625,-172798.75
5.370488166809082,-17299.75,-23570.58984375,-24426.1796875,-400000.0625,-400000.0625,-400000.0625,-400000.0625,-174308.1875
5.384412527084351,-17306.810546875,-23582.029296875,-24435.240234375,-400000.0625,-400000.0625,-400000.0625,-400000.0625,-175630.0625
5.398504734039307,-17311.0,-23584.650390625,-24436.5703125,-400000.0625,-400000.0625,-400000.0625,-400000.0625,-176957.625
5.4097819328308105,-17326.0703125,-23555.380859375,-24434.900390625,-400000.0625,-400000.0625,-400000.0625,-400000.0625,-178414.03125
5.422631740570068,-17314.869140625,-23553.0390625,-24419.119140625,-400000.0625,-400000.0625,-400000.0625,-400000.0625,-179943.4375
5.434396266937256,-17290.55078125,-23561.05078125,-24417.44921875,-400000.0625,-400000.0625,-400000.0625,-400000.0625,-181436.515625
5.45304799079895,-17302.3203125,-23578.4609375,-24444.76953125,-400000.0625,-400000.0625,-400000.0625,-400000.0625,-182758.15625
5.463711738586426,-17292.98046875,-23571.30078125,-24449.2109375,-400000.0625,-400000.0625,-400000.0625,-400000.0625,-184066.9375
5.4775390625,-17286.970703125,-23564.76953125,-24425.1796875,-400000.0625,-400000.0625,-400000.0625,-400000.0625,-185502.84375
5.4874420166015625,-17280.390625,-23555.849609375,-24407.580078125,-400000.0625,-400000.0625,-400000.0625,-400000.0625,-187041.875
5.5003602504730225,-17306.23046875,-23552.849609375,-24411.25,-400000.0625,-400000.0625,-400000.0625,-400000.0625,-188559.265625
5.511242389678955,-17311.33984375,-23574.9296875,-24440.009765625,-400000.0625,-400000.0625,-400000.0625,-400000.0625,-189888.9375
5.523710250854492,-17320.830078125,-23612.359375,-24451.689453125,-400000.0625,-400000.0625,-400000.0625,-400000.0625,-191208.046875
5.532903432846069,-17300.80078125,-23616.26953125,-24429.08984375,-400000.0625,-400000.0625,-400000.0625,-400000.0625,-192682.71875
5.5481178760528564,-17285.919921875,-23580.83984375,-24401.140625,-400000.0625,-400000.0625,-400000.0625,-400000.0625,-194327.8125
5.563772916793823,-17274.5703125,-23597.05078125,-24431.7109375,-400000.0625,-400000.0625,-400000.0625,-400000.0625,-196018.671875
5.576395034790039,-17306.189453125,-23652.599609375,-24461.26953125,-400000.0625,-400000.0625,-400000.0625,-400000.0625,-197477.796875
5.589370965957642,-17346.0,-23681.640625,-24472.189453125,-400000.0625,-400000.0625,-400000.0625,-400000.0625,-198846.03125
5.600024223327637,-17343.759765625,-23694.94921875,-24461.560546875,-400000.0625,-400000.0625,-400000.0625,-400000.0625,-200413.15625
5.612607479095459,-17332.69921875,-23702.859375,-24454.0703125,-400000.0625,-400000.0625,-400000.0625,-400000.0625,-202190.609375
5.623546600341797,-17335.0390625,-23755.41015625,-24480.060546875,-400000.0625,-400000.0625,-400000.0625,-400000.0625,-203958.8125
5.635884046554565,-17361.169921875,-23824.359375,-24536.470703125,-400000.0625,-400000.0625,-400000.0625,-400000.0625,-205364.875
5.660070419311523,-17378.279296875,-23855.880859375,-24565.990234375,-400000.0625,-400000.0625,-400000.0625,-400000.0625,-206596.921875
5.672369956970215,-17364.9296875,-23849.349609375,-24544.669921875,-400000.0625,-400000.0625,-400000.0625,-400000.0625,-208112.453125
5.6868109703063965,-17368.75,-23837.619140625,-24514.390625,-400000.0625,-400000.0625,-400000.0625,-400000.0625,-210082.171875
5.699361801147461,-17400.220703125,-23878.2890625,-24515.490234375,-400000.0625,-400000.0625,-400000.0625,-400000.0625,-211969.109375
5.712646722793579,-17433.689453125,-23909.859375,-24539.759765625,-400000.0625,-400000.0625,-400000.0625,-400000.0625,-213367.4375
5.724185943603516,-17451.859375,-23905.609375,-24564.130859375,-400000.0625,-400000.0625,-400000.0625,-400000.0625,-214577.125
5.7371299266815186,-17433.0703125,-23902.75,-24558.640625,-400000.0625,-400000.0625,-400000.0625,-400000.0625,-216054.84375
5.751831293106079,-17427.01953125,-23917.9609375,-24535.23046875,-400000.0625,-400000.0625,-400000.0625,-400000.0625,-217852.484375
5.763885736465454,-17436.3203125,-23933.75,-24528.83984375,-400000.0625,-400000.0625,-400000.0625,-400000.0625,-219618.15625
5.774791479110718,-17466.98046875,-23983.33984375,-24581.720703125,-400000.0625,-400000.0625,-400000.0625,-400000.0625,-221000.65625
5.787229776382446,-17478.7109375,-23987.6796875,-24600.69921875,-400000.0625,-400000.0625,-400000.0625,-400000.0625,-222188.828125
5.801569223403931,-17473.3203125,-23954.919921875,-24562.7890625,-400000.0625,-400000.0625,-400000.0625,-400000.0625,-223637.84375
5.813471555709839,-17470.69921875,-23940.380859375,-24534.0390625,-400000.0625,-400000.0625,-400000.0625,-400000.0625,-225441.4375
5.825340747833252,-17465.9296875,-23953.060546875,-24528.359375,-400000.0625,-400000.0625,-400000.0625,-400000.0625,-227166.921875
5.838643312454224,-17474.1796875,-23980.759765625,-24554.109375,-400000.0625,-400000.0625,-400000.0625,-400000.0625,-228378.046875
5.858547210693359,-17484.48046875,-23986.490234375,-24571.369140625,-400000.0625,-400000.0625,-400000.0625,-400000.0625,-229397.984375
5.872398614883423,-17447.4296875,-23984.33984375,-24579.76953125,-400000.0625,-400000.0625,-400000.0625,-400000.0625,-230745.4375
5.88486647605896,-17421.30078125,-23936.609375,-24523.55078125,-400000.0625,-400000.0625,-400000.0625,-400000.0625,-232452.75
5.8987977504730225,-17439.560546875,-23918.439453125,-24502.23046875,-400000.0625,-400000.0625,-400000.0625,-400000.0625,-234067.375
5.912172079086304,-17483.08984375,-23945.619140625,-24547.8203125,-400000.0625,-400000.0625,-400000.0625,-400000.0625,-235168.4375
5.9243552684783936,-17516.7109375,-23946.859375,-24565.650390625,-400000.0625,-400000.0625,-400000.0625,-400000.0625,-236091.875
5.946410417556763,-17480.1796875,-23941.619140625,-24545.9609375,-400000.0625,-400000.0625,-400000.0625,-400000.0625,-237346.875
5.95609974861145,-17423.19921875,-23921.109375,-24518.400390625,-400000.0625,-400000.0625,-400000.0625,-400000.0625,-239009.84375
5.967899799346924,-17443.990234375,-23887.970703125,-24498.1796875,-400000.0625,-400000.0625,-400000.0625,-400000.0625,-240618.0625
5.978649616241455,-17478.279296875,-23925.400390625,-24541.5703125,-400000.0625,-400000.0625,-400000.0625,-400000.0625,-241693.140625
5.990415334701538,-17471.599609375,-23945.759765625,-24558.640625,-400000.0625,-400000.0625,-400000.0625,-400000.0625,-242551.359375
6.001506805419922,-17446.810546875,-23915.099609375,-24516.869140625,-400000.0625,-400000.0625,-400000.0625,-400000.0625,-243763.046875
6.014886140823364,-17436.890625,-23874.619140625,-24472.759765625,-400000.0625,-400000.0625,-400000.0625,-400000.0625,-245401.03125
6.028862476348877,-17453.619140625,-23878.009765625,-24494.75,-400000.0625,-400000.0625,-400000.0625,-400000.0625,-246948.9375
6.049906015396118,-17487.9609375,-23903.470703125,-24528.119140625,-400000.0625,-400000.0625,-400000.0625,-400000.0625,-247920.734375
6.10224461555481,-17478.80078125,-23671.109375,-24336.529296875,-400000.0625,-400000.0625,-400000.0625,-400000.0625,-114170.65625
6.19085431098938,-17511.939453125,-23716.640625,-24364.669921875,-400000.0625,-400000.0625,-400000.0625,-400000.0625,-102142.4921875
6.326740980148315,-17580.080078125,-23736.099609375,-24416.5,-400000.0625,-400000.0625,-400000.0625,-400000.0625,-78175.359375
6.3980889320373535,-17513.80078125,-23673.869140625,-24346.16015625,-400000.0625,-400000.0625,-400000.0625,-400000.0625,-73534.0234375
6.538465976715088,-17554.240234375,-23697.7109375,-24390.1796875,-400000.0625,-400000.0625,-400000.0625,-400000.0625,-63033.5390625
6.583160638809204,-17521.669921875,-23683.259765625,-24366.91015625,-400000.0625,-400000.0625,-400000.0625,-400000.0625,-65558.203125
6.709598541259766,-17542.98046875,-23707.9609375,-24385.9296875,-400000.0625,-400000.0625,-400000.0625,-400000.0625,-60319.2890625
6.773873329162598,-17509.75,-23679.55078125,-24353.130859375,-400000.0625,-400000.0625,-400000.0625,-400000.0625,-60895.96875
6.832510232925415,-17540.5,-23724.080078125,-24390.220703125,-400000.0625,-400000.0625,-400000.0625,-400000.0625,-57672.69921875
6.900226354598999,-17502.880859375,-23704.390625,-24362.330078125,-400000.0625,-400000.0625,-400000.0625,-400000.0625,-53561.359375
6.973232984542847,-17529.779296875,-23729.990234375,-24392.609375,-400000.0625,-400000.0625,-400000.0625,-400000.0625,-49857.48046875
7.100353479385376,-17520.619140625,-23712.73046875,-24359.3203125,-400000.0625,-400000.0625,-400000.0625,-400000.0625,-45864.3984375
7.231853485107422,-17569.01953125,-23746.830078125,-24412.25,-400000.0625,-400000.0625,-400000.0625,-400000.0625,-39249.7109375
7.2983784675598145,-17574.55078125,-23762.80078125,-24426.509765625,-400000.0625,-400000.0625,-400000.0625,-400000.0625,-44770.87109375
7.3553783893585205,-17514.7109375,-23722.130859375,-24378.490234375,-400000.0625,-400000.0625,-400000.0625,-400000.0625,-40212.48828125
7.4076988697052,-17485.240234375,-23700.4296875,-24342.6796875,-400000.0625,-400000.0625,-400000.0625,-400000.0625,-40048.890625
7.480173349380493,-17479.470703125,-23704.869140625,-24346.58984375,-400000.0625,-400000.0625,-400000.0625,-400000.0625,-42366.75
7.546384572982788,-17517.140625,-23740.630859375,-24377.439453125,-400000.0625,-400000.0625,-400000.0625,-400000.0625,-45755.62890625
7.606954574584961,-17559.630859375,-23786.259765625,-24427.75,-400000.0625,-400000.0625,-400000.0625,-400000.0625,-42969.76171875
7.816243648529053,-17470.7890625,-23731.0,-24358.080078125,-400000.0625,-400000.0625,-400000.0625,-400000.0625,-19358.259765625
7.923839092254639,-17531.349609375,-23774.2890625,-24412.869140625,-400000.0625,-400000.0625,-400000.0625,-400000.0625,-18466.279296875
8.247556447982788,-17467.7890625,-23725.509765625,-24352.26953125,-400000.0625,-400000.0625,-400000.0625,-400000.0625,-23586.130859375
8.378384113311768,-17473.41015625,-23714.01953125,-24329.4296875,-400000.0625,-400000.0625,-400000.0625,-400000.0625,-16267.0595703125
8.452146768569946,-17514.51953125,-23760.509765625,-24382.98046875,-400000.0625,-400000.0625,-400000.0625,-400000.0625,-15966.1298828125
8.502504110336304,-17514.66015625,-23754.169921875,-24364.810546875,-400000.0625,-400000.0625,-400000.0625,-400000.0625,-14747.1904296875
8.566186428070068,-17458.109375,-23708.30078125,-24311.0703125,-400000.0625,-400000.0625,-400000.0625,-400000.0625,-23502.16015625
8.756303787231445,-17510.990234375,-23761.3203125,-24365.240234375,-400000.0625,-400000.0625,-400000.0625,-400000.0625,-21677.5390625
8.828837871551514,-17512.23046875,-23760.4609375,-24371.439453125,-400000.0625,-400000.0625,-400000.0625,-400000.0625,-24896.8203125
8.888354301452637,-17499.880859375,-23738.099609375,-24347.359375,-400000.0625,-400000.0625,-400000.0625,-400000.0625,-23479.939453125
9.097232103347778,-17448.05078125,-23704.33984375,-24284.169921875,-400000.0625,-400000.0625,-400000.0625,-400000.0625,-28606.369140625
9.26666784286499,-17452.529296875,-23716.7890625,-24296.669921875,-400000.0625,-400000.0625,-400000.0625,-400000.0625,-36280.3515625
9.394847631454468,-17471.890625,-23722.75,-24308.640625,-400000.0625,-400000.0625,-400000.0625,-400000.0625,-24857.330078125
9.48127818107605,-17498.689453125,-23742.390625,-24331.330078125,-400000.0625,-400000.0625,-400000.0625,-400000.0625,-27126.169921875
9.531598567962646,-17521.720703125,-23758.69921875,-24352.650390625,-400000.0625,-400000.0625,-400000.0625,-400000.0625,-32107.98046875
9.598191499710083,-17372.75,-23809.25,-24373.8203125,-400000.0625,-400000.0625,-400000.0625,-400000.0625,-22362.759765625
9.655407190322876,-17168.94921875,-23928.029296875,-24499.849609375,-400000.0625,-400000.0625,-400000.0625,-400000.0625,-31056.0703125
9.802921772003174,-17239.619140625,-23987.25,-24558.119140625,-400000.0625,-400000.0625,-400000.0625,-400000.0625,-56723.3203125
9.84092378616333,-17214.400390625,-23995.5,-24551.490234375,-400000.0625,-400000.0625,-400000.0625,-400000.0625,-80344.640625
9.948680639266968,-17190.4609375,-23965.4609375,-24519.109375,-400000.0625,-400000.0625,-400000.0625,-400000.0625,-81187.5390625
9.968401908874512,-17173.439453125,-23960.970703125,-24507.5703125,-400000.0625,-400000.0625,-400000.0625,-400000.0625,-89664.2265625
10.046241283416748,-17214.439453125,-24006.369140625,-24558.400390625,-400000.0625,-400000.0625,-400000.0625,-400000.0625,-96042.3125
10.102271318435669,-17203.5703125,-23990.5390625,-24543.33984375,-400000.0625,-400000.0625,-400000.0625,-400000.0625,-97809.1796875
10.24843978881836,-17205.91015625,-23977.23046875,-24529.169921875,-400000.0625,-400000.0625,-400000.0625,-400000.0625,-98943.046875
10.291122913360596,-17215.5390625,-23994.970703125,-24536.08984375,-400000.0625,-400000.0625,-400000.0625,-400000.0625,-88074.171875
10.375855445861816,-17255.740234375,-24024.009765625,-24579.9609375,-400000.0625,-400000.0625,-400000.0625,-400000.0625,-75090.9375
10.452570676803589,-17276.580078125,-24035.890625,-24589.30078125,-400000.0625,-400000.0625,-400000.0625,-400000.0625,-61111.26953125
10.482791423797607,-17210.6796875,-23987.109375,-24517.919921875,-400000.0625,-400000.0625,-400000.0625,-400000.0625,-47173.69921875
10.546160459518433,-17211.009765625,-23990.060546875,-24522.359375,-400000.0625,-400000.0625,-400000.0625,-400000.0625,-46933.37109375
10.679887056350708,-17258.41015625,-24032.880859375,-24568.470703125,-400000.0625,-400000.0625,-400000.0625,-400000.0625,-44913.73046875
10.875893592834473,-17167.240234375,-23957.640625,-24481.8203125,-400000.0625,-400000.0625,-400000.0625,-400000.0625,-44915.16015625
10.92879605293274,-17205.91015625,-23993.349609375,-24518.44921875,-400000.0625,-400000.0625,-400000.0625,-400000.0625,-39514.16015625
11.01244068145752,-17197.900390625,-23990.970703125,-24518.779296875,-400000.0625,-400000.0625,-400000.0625,-400000.0625,-33117.73046875
11.073580026626587,-17237.279296875,-24009.990234375,-24550.6796875,-400000.0625,-400000.0625,-400000.0625,-400000.0625,-29504.869140625
11.142318964004517,-17231.75,-24008.130859375,-24545.619140625,-400000.0625,-400000.0625,-400000.0625,-400000.0625,-30370.669921875
11.255305051803589,-17139.150390625,-23947.48046875,-24467.94921875,-400000.0625,-400000.0625,-400000.0625,-400000.0625,-43357.19140625
11.337672233581543,-17175.869140625,-23960.0703125,-24487.9296875,-400000.0625,-400000.0625,-400000.0625,-400000.0625,-54839.4296875
11.382506132125854,-17142.439453125,-23945.48046875,-24465.419921875,-400000.0625,-400000.0625,-400000.0625,-400000.0625,-70283.2265625
11.579977989196777,-17235.23046875,-24015.099609375,-24540.900390625,-400000.0625,-400000.0625,-400000.0625,-400000.0625,-86765.921875
11.669878482818604,-17222.359375,-23999.5,-24532.890625,-400000.0625,-400000.0625,-400000.0625,-400000.0625,-86276.6796875
11.701143503189087,-17219.5,-23993.779296875,-24520.58984375,-400000.0625,-400000.0625,-400000.0625,-400000.0625,-90069.96875
11.824963569641113,-17138.05078125,-23937.23046875,-24447.970703125,-400000.0625,-400000.0625,-400000.0625,-400000.0625,-106076.0078125
11.895348310470581,-17178.58984375,-23959.689453125,-24472.5703125,-400000.0625,-400000.0625,-400000.0625,-400000.0625,-118630.0390625
11.957337379455566,-17183.640625,-23979.759765625,-24492.220703125,-400000.0625,-400000.0625,-400000.0625,-400000.0625,-121125.7578125
12.023886919021606,-17220.2109375,-24000.890625,-24529.080078125,-400000.0625,-400000.0625,-400000.0625,-400000.0625,-126714.6328125
12.084943532943726,-17217.5390625,-24004.26953125,-24519.73046875,-400000.0625,-400000.0625,-400000.0625,-400000.0625,-129270.140625
12.143358707427979,-17147.919921875,-23949.33984375,-24460.75,-400000.0625,-400000.0625,-400000.0625,-400000.0625,-139081.34375
12.230924129486084,-17231.470703125,-24016.759765625,-24543.9609375,-400000.0625,-400000.0625,-400000.0625,-400000.0625,-142273.25
12.290999412536621,-17195.369140625,-23987.009765625,-24496.80078125,-400000.0625,-400000.0625,-400000.0625,-400000.0625,-144018.0
12.339321374893188,-17221.310546875,-24019.48046875,-24529.3203125,-400000.0625,-400000.0625,-400000.0625,-400000.0625,-147349.515625
12.417557716369629,-17182.5,-23986.19921875,-24486.9296875,-400000.0625,-400000.0625,-400000.0625,-400000.0625,-150559.0625
12.467381238937378,-17168.810546875,-23969.69921875,-24473.9609375,-400000.0625,-400000.0625,-400000.0625,-400000.0625,-149762.40625
12.530054092407227,-17333.650390625,-23896.3203125,-24464.279296875,-400000.0625,-400000.0625,-400000.0625,-400000.0625,-138290.609375
12.599387645721436,-17462.880859375,-23639.30078125,-24277.0703125,-400000.0625,-400000.0625,-400000.0625,-400000.0625,-133342.84375
12.67613172531128,-17412.94921875,-23610.830078125,-24226.720703125,-400000.0625,-400000.0625,-400000.0625,-400000.0625,-138755.71875
12.793620824813843,-17348.099609375,-23535.830078125,-24149.369140625,-400000.0625,-400000.0625,-400000.0625,-400000.0625,-154153.9375
12.851134538650513,-17355.109375,-23555.279296875,-24141.7890625,-400000.0625,-400000.0625,-400000.0625,-400000.0625,-181083.65625
12.999659776687622,-17417.580078125,-23605.16015625,-24198.580078125,-400000.0625,-400000.0625,-400000.0625,-400000.0625,-214114.546875
13.03991150856018,-17371.849609375,-23575.259765625,-24154.94921875,-400000.0625,-400000.0625,-400000.0625,-400000.0625,-220577.65625
13.171384572982788,-17366.509765625,-23571.349609375,-24133.400390625,-400000.0625,-400000.0625,-400000.0625,-400000.0625,-251701.34375
13.233820915222168,-17440.369140625,-23633.720703125,-24207.7890625,-400000.0625,-400000.0625,-400000.0625,-400000.0625,-267181.46875
13.302504301071167,-17427.109375,-23619.939453125,-24188.7109375,-400000.0625,-400000.0625,-400000.0625,-400000.0625,-281852.84375
13.376620054244995,-17380.810546875,-23597.099609375,-24147.26953125,-400000.0625,-400000.0625,-400000.0625,-400000.0625,-296107.53125
13.433673620223999,-17426.58984375,-23638.779296875,-24191.669921875,-400000.0625,-400000.0625,-400000.0625,-400000.0625,-308785.25
13.498641967773438,-17385.720703125,-23601.33984375,-24140.740234375,-400000.0625,-400000.0625,-400000.0625,-400000.0625,-316094.8125
13.5697500705719,-17460.400390625,-23668.630859375,-24224.470703125,-400000.0625,-400000.0625,-400000.0625,-400000.0625,-324075.625
13.632374048233032,-17376.94921875,-23612.880859375,-24142.890625,-400000.0625,-400000.0625,-400000.0625,-400000.0625,-336453.28125
13.694926738739014,-17386.490234375,-23618.1796875,-24148.3203125,-400000.0625,-400000.0625,-400000.0625,-400000.0625,-341197.59375
13.74618649482727,-17430.16015625,-23659.140625,-24192.4296875,-400000.0625,-400000.0625,-400000.0625,-400000.0625,-353992.28125
13.882426023483276,-17429.119140625,-23662.08984375,-24188.470703125,-400000.0625,-400000.0625,-400000.0625,-400000.0625,-366291.40625
14.003684043884277,-17384.669921875,-23625.94921875,-24139.98046875,-400000.0625,-400000.0625,-400000.0625,-400000.0625,-372861.0
14.080002784729004,-17396.599609375,-23630.5703125,-24142.080078125,-400000.0625,-400000.0625,-400000.0625,-400000.0625,-376687.625
14.213537693023682,-17457.580078125,-23688.220703125,-24213.359375,-400000.0625,-400000.0625,-400000.0625,-400000.0625,-388707.71875
14.390007257461548,-17390.5390625,-23634.869140625,-24135.44921875,-400000.0625,-400000.0625,-400000.0625,-400000.0625,-400000.0625
14.454002857208252,-17431.2109375,-23675.400390625,-24180.509765625,-400000.0625,-400000.0625,-400000.0625,-400000.0625,-400000.0625
14.525876522064209,-17423.919921875,-23667.05078125,-24181.4609375,-400000.0625,-400000.0625,-400000.0625,-400000.0625,-400000.0625
14.589277267456055,-17456.25,-23690.939453125,-24216.849609375,-400000.0625,-400000.0625,-400000.0625,-400000.0625,-400000.0625
14.650822401046753,-17385.390625,-23626.849609375,-24139.359375,-400000.0625,-400000.0625,-400000.0625,-400000.0625,-400000.0625
14.780118942260742,-17395.119140625,-23642.259765625,-24140.55078125,-400000.0625,-400000.0625,-400000.0625,-400000.0625,-400000.0625
14.863486528396606,-17473.1796875,-23704.76953125,-24217.470703125,-400000.0625,-400000.0625,-400000.0625,-400000.0625,-400000.0625
14.8994619846344,-17480.419921875,-23703.630859375,-24211.029296875,-400000.0625,-400000.0625,-400000.0625,-400000.0625,-400000.0625
14.96505856513977,-17553.380859375,-23800.900390625,-24304.25,-400000.0625,-400000.0625,-400000.0625,-400000.0625,-400000.0625
15.07259488105774,-17471.890625,-23715.55078125,-24223.66015625,-400000.0625,-400000.0625,-400000.0625,-400000.0625,-367297.375
15.15501856803894,-17463.73046875,-23716.55078125,-24217.080078125,-400000.0625,-400000.0625,-400000.0625,-400000.0625,-375289.46875
15.289882183074951,-17377.5703125,-23646.2109375,-24123.150390625,-400000.0625,-400000.0625,-400000.0625,-400000.0625,-391859.15625
15.358063697814941,-17386.580078125,-23645.2109375,-24131.73046875,-400000.0625,-400000.0625,-400000.0625,-400000.0625,-400000.0625
15.433425426483154,-17421.6796875,-23682.599609375,-24168.109375,-400000.0625,-400000.0625,-400000.0625,-400000.0625,-400000.0625
15.494047403335571,-17445.609375,-23702.91015625,-24201.58984375,-400000.0625,-400000.0625,-400000.0625,-400000.0625,-400000.0625
15.545018672943115,-17386.30078125,-23648.7890625,-24133.490234375,-400000.0625,-400000.0625,-400000.0625,-400000.0625,-400000.0625
15.646245956420898,-17608.44921875,-23344.470703125,-23851.58984375,-400000.0625,-400000.0625,-400000.0625,-400000.0625,-400000.0625
15.729212999343872,-17569.5,-23335.4609375,-23832.470703125,-400000.0625,-400000.0625,-400000.0625,-400000.0625,-400000.0625
15.79695463180542,-17552.849609375,-23328.01953125,-23825.359375,-400000.0625,-400000.0625,-400000.0625,-400000.0625,-400000.0625
15.86514139175415,-17615.029296875,-23392.869140625,-23892.310546875,-400000.0625,-400000.0625,-400000.0625,-400000.0625,-400000.0625
15.989911794662476,-17626.5703125,-23408.69921875,-23898.3203125,-400000.0625,-400000.0625,-400000.0625,-400000.0625,-400000.0625
16.047574281692505,-17578.939453125,-23367.599609375,-23835.849609375,-400000.0625,-400000.0625,-400000.0625,-400000.0625,-400000.0625
16.197718620300293,-17563.30078125,-23359.16015625,-23828.599609375,-400000.0625,-400000.0625,-400000.0625,-400000.0625,-400000.0625
16.246309995651245,-17561.490234375,-23366.98046875,-23833.330078125,-400000.0625,-400000.0625,-400000.0625,-400000.0625,-400000.0625
16.315224170684814,-17564.060546875,-23362.0703125,-23823.310546875,-400000.0625,-400000.0625,-400000.0625,-400000.0625,-400000.0625
16.370105743408203,-17630.669921875,-23428.19921875,-23894.98046875,-400000.0625,-400000.0625,-400000.0625,-400000.0625,-400000.0625
16.433709621429443,-17640.119140625,-23433.259765625,-23899.419921875,-400000.0625,-400000.0625,-400000.0625,-400000.0625,-400000.0625
16.642135620117188,-17548.23046875,-23352.8203125,-23804.5703125,-400000.0625,-400000.0625,-400000.0625,-400000.0625,-400000.0625
16.692366123199463,-17618.939453125,-23406.369140625,-23869.849609375,-400000.0625,-400000.0625,-400000.0625,-400000.0625,-400000.0625
16.831060886383057,-17618.51953125,-23410.75,-23874.4296875,-400000.0625,-400000.0625,-400000.0625,-400000.0625,-400000.0625
16.94740629196167,-17540.310546875,-23350.05078125,-23792.029296875,-400000.0625,-400000.0625,-400000.0625,-400000.0625,-400000.0625
16.978487730026245,-17567.919921875,-23378.900390625,-23821.44921875,-400000.0625,-400000.0625,-400000.0625,-400000.0625,-400000.0625
17.02342200279236,-17542.130859375,-23414.08984375,-23865.80078125,-400000.0625,-400000.0625,-400000.0625,-400000.0625,-400000.0625
17.078591346740723,-17562.33984375,-23475.26953125,-23945.619140625,-400000.0625,-400000.0625,-400000.0625,-400000.0625,-400000.0625
17.14838695526123,-17635.060546875,-23444.69921875,-23879.099609375,-400000.0625,-400000.0625,-400000.0625,-400000.0625,-400000.0625
17.202537298202515,-17565.8203125,-23383.330078125,-23802.7109375,-400000.0625,-400000.0625,-400000.0625,-400000.0625,-400000.0625
17.277079105377197,-17604.9296875,-23427.970703125,-23848.8203125,-400000.0625,-400000.0625,-400000.0625,-400000.0625,-400000.0625
17.47281503677368,-17579.26953125,-23397.310546875,-23802.94921875,-400000.0625,-400000.0625,-400000.0625,-400000.0625,-400000.0625
17.53231191635132,-17583.80078125,-23413.759765625,-23817.259765625,-400000.0625,-400000.0625,-400000.0625,-400000.0625,-400000.0625
17.630089282989502,-17565.58984375,-23399.880859375,-23793.75,-400000.0625,-400000.0625,-400000.0625,-400000.0625,-400000.0625
17.722736597061157,-17649.3203125,-23464.009765625,-23882.73046875,-400000.0625,-400000.0625,-400000.0625,-400000.0625,-400000.0625
17.789595127105713,-17603.109375,-23420.2890625,-23826.41015625,-400000.0625,-400000.0625,-400000.0625,-400000.0625,-400000.0625
17.846550703048706,-17576.359375,-23399.359375,-23800.419921875,-400000.0625,-400000.0625,-400000.0625,-400000.0625,-400000.0625
17.907440900802612,-17540.7890625,-23369.359375,-23756.220703125,-400000.0625,-400000.0625,-400000.0625,-400000.0625,-400000.0625
18.05444312095642,-17618.990234375,-23435.259765625,-23842.859375,-400000.0625,-400000.0625,-400000.0625,-400000.0625,-400000.0625
18.172796487808228,-17564.490234375,-23388.2890625,-23784.830078125,-400000.0625,-400000.0625,-400000.0625,-400000.0625,-400000.0625
18.36246085166931,-17619.609375,-23433.779296875,-23838.189453125,-400000.0625,-400000.0625,-400000.0625,-400000.0625,-400000.0625
18.552141904830933,-17551.380859375,-23380.0,-23763.7109375,-400000.0625,-400000.0625,-400000.0625,-400000.0625,-400000.0625
18.686037063598633,-17384.150390625,-23603.390625,-24092.8203125,-400000.0625,-400000.0625,-400000.0625,-400000.0625,-400000.0625
18.73637580871582,-17326.5,-23562.9609375,-24025.73046875,-400000.0625,-400000.0625,-400000.0625,-400000.0625,-400000.0625
18.800697565078735,-17356.869140625,-23622.279296875,-24089.2890625,-400000.0625,-400000.0625,-400000.0625,-400000.0625,-400000.0625
18.903543949127197,-17353.8203125,-23628.140625,-24087.2890625,-400000.0625,-400000.0625,-400000.0625,-400000.0625,-400000.0625
18.99239468574524,-17370.75,-23629.4296875,-24094.060546875,-400000.0625,-400000.0625,-400000.0625,-400000.0625,-400000.0625
19.06227731704712,-17325.5,-23597.619140625,-24050.099609375,-400000.0625,-400000.0625,-400000.0625,-400000.0625,-400000.0625
19.24984312057495,-17387.109375,-23656.23046875,-24120.720703125,-400000.0625,-400000.0625,-400000.0625,-400000.0625,-400000.0625
19.380963563919067,-17322.5390625,-23619.3203125,-24053.4296875,-400000.0625,-400000.0625,-400000.0625,-400000.0625,-400000.0625
19.44836688041687,-17370.66015625,-23648.55078125,-24087.240234375,-400000.0625,-400000.0625,-400000.0625,-400000.0625,-400000.0625
19.57587242126465,-17405.609375,-23666.33984375,-24113.369140625,-400000.0625,-400000.0625,-400000.0625,-400000.0625,-400000.0625
19.76894474029541,-17346.240234375,-23614.83984375,-24038.509765625,-400000.0625,-400000.0625,-400000.0625,-400000.0625,-400000.0625
19.823697805404663,-17392.30078125,-23652.890625,-24084.5703125,-400000.0625,-400000.0625,-400000.0625,-400000.0625,-400000.0625
19.891157388687134,-17425.2109375,-23684.9296875,-24124.19921875,-400000.0625,-400000.0625,-400000.0625,-400000.0625,-400000.0625
19.973303079605103,-17419.669921875,-23686.55078125,-24127.009765625,-400000.0625,-400000.0625,-400000.0625,-400000.0625,-400000.0625
20.09381127357483,-17387.25,-23660.7109375,-24082.23046875,-400000.0625,-400000.0625,-400000.0625,-400000.0625,-400000.0625
20.219937801361084,-17344.859375,-23604.630859375,-24021.099609375,-400000.0625,-400000.0625,-400000.0625,-400000.0625,-400000.0625
20.28181743621826,-17410.94921875,-23661.619140625,-24097.869140625,-400000.0625,-400000.0625,-400000.0625,-400000.0625,-400000.0625
20.34171414375305,-17346.669921875,-23596.810546875,-24015.48046875,-400000.0625,-400000.0625,-400000.0625,-400000.0625,-400000.0625
20.400142908096313,-17343.94921875,-23591.240234375,-24020.439453125,-400000.0625,-400000.0625,-400000.0625,-400000.0625,-400000.0625
20.50980281829834,-17352.390625,-23601.490234375,-24024.580078125,-400000.0625,-400000.0625,-400000.0625,-400000.0625,-400000.0625
20.52971887588501,-17421.6796875,-23669.33984375,-24099.640625,-400000.0625,-400000.0625,-400000.0625,-400000.0625,-400000.0625
20.72570276260376,-17338.330078125,-23603.630859375,-24013.859375,-400000.0625,-400000.0625,-400000.0625,-400000.0625,-400000.0625
20.79606294631958,-17352.390625,-23614.220703125,-24015.51953125,-400000.0625,-400000.0625,-400000.0625,-400000.0625,-400000.0625
20.849847555160522,-17417.91015625,-23669.05078125,-24091.8203125,-400000.0625,-400000.0625,-400000.0625,-400000.0625,-400000.0625
20.933661222457886,-17394.349609375,-23634.2890625,-24048.240234375,-400000.0625,-400000.0625,-400000.0625,-400000.0625,-400000.0625
20.989898204803467,-17396.5,-23637.150390625,-24054.859375,-400000.0625,-400000.0625,-400000.0625,-400000.0625,-400000.0625
21.04985237121582,-17394.5,-23652.029296875,-24065.2109375,-400000.0625,-400000.0625,-400000.0625,-400000.0625,-400000.0625
21.124598503112793,-17412.94921875,-23659.80078125,-24074.83984375,-400000.0625,-400000.0625,-400000.0625,-400000.0625,-400000.0625
21.177201747894287,-17410.7109375,-23660.23046875,-24079.51953125,-400000.0625,-400000.0625,-400000.0625,-400000.0625,-400000.0625
21.301225185394287,-17344.5703125,-23618.4609375,-24018.240234375,-400000.0625,-400000.0625,-400000.0625,-400000.0625,-400000.0625
21.361575841903687,-17356.490234375,-23619.609375,-24021.009765625,-400000.0625,-400000.0625,-400000.0625,-400000.0625,-400000.0625
21.489569902420044,-17404.650390625,-23663.94921875,-24068.55078125,-400000.0625,-400000.0625,-400000.0625,-400000.0625,-400000.0625
21.55357837677002,-17373.51953125,-23659.279296875,-24021.580078125,-400000.0625,-400000.0625,-400000.0625,-400000.0625,-400000.0625
21.691598892211914,-17424.869140625,-23794.509765625,-24065.119140625,-400000.0625,-400000.0625,-400000.0625,-400000.0625,-400000.0625
21.749499082565308,-17721.4609375,-24044.08984375,-24366.4296875,-400000.0625,-400000.0625,-400000.0625,-400000.0625,-400000.0625
21.889893770217896,-17498.16015625,-23828.029296875,-24150.279296875,-400000.0625,-400000.0625,-400000.0625,-400000.0625,-400000.0625
22.00301766395569,-17401.509765625,-23757.83984375,-24049.7109375,-400000.0625,-400000.0625,-400000.0625,-400000.0625,-400000.0625
22.07040810585022,-17470.83984375,-23822.359375,-24121.619140625,-400000.0625,-400000.0625,-400000.0625,-400000.0625,-400000.0625
22.13000249862671,-17475.650390625,-23832.7109375,-24136.259765625,-400000.0625,-400000.0625,-400000.0625,-400000.0625,-400000.0625
22.193737983703613,-17483.4296875,-23851.349609375,-24152.5703125,-400000.0625,-400000.0625,-400000.0625,-400000.0625,-400000.0625
22.278693675994873,-17409.369140625,-23790.890625,-24071.080078125,-400000.0625,-400000.0625,-400000.0625,-400000.0625,-400000.0625
22.340649127960205,-17411.7109375,-23790.220703125,-24072.3203125,-400000.0625,-400000.0625,-400000.0625,-400000.0625,-400000.0625
22.38577437400818,-17472.080078125,-23843.630859375,-24131.779296875,-400000.0625,-400000.0625,-400000.0625,-400000.0625,-400000.0625
22.53985285758972,-17489.48046875,-23853.109375,-24152.419921875,-400000.0625,-400000.0625,-400000.0625,-400000.0625,-400000.0625
22.581310272216797,-17415.810546875,-23797.369140625,-24077.369140625,-400000.0625,-400000.0625,-400000.0625,-400000.0625,-400000.0625
22.706742763519287,-17437.599609375,-23815.869140625,-24091.060546875,-400000.0625,-400000.0625,-400000.0625,-400000.0625,-400000.0625
22.850760221481323,-17479.94921875,-23856.5,-24145.26953125,-400000.0625,-400000.0625,-400000.0625,-400000.0625,-400000.0625
22.907519817352295,-17436.7890625,-23817.490234375,-24102.689453125,-400000.0625,-400000.0625,-400000.0625,-400000.0625,-400000.0625
22.963356494903564,-17473.890625,-23853.349609375,-24138.259765625,-400000.0625,-400000.0625,-400000.0625,-400000.0625,-400000.0625
23.037191152572632,-17427.919921875,-23821.830078125,-24103.98046875,-400000.0625,-400000.0625,-400000.0625,-400000.0625,-400000.0625
23.095409870147705,-17476.890625,-23861.26953125,-24146.939453125,-400000.0625,-400000.0625,-400000.0625,-400000.0625,-400000.0625
23.17894220352173,-17442.470703125,-23841.48046875,-24105.26953125,-400000.0625,-400000.0625,-400000.0625,-400000.0625,-400000.0625
23.222691535949707,-17448.51953125,-23843.529296875,-24110.080078125,-400000.0625,-400000.0625,-400000.0625,-400000.0625,-400000.0625
23.3486328125,-17489.720703125,-23872.810546875,-24142.7890625,-400000.0625,-400000.0625,-400000.0625,-400000.0625,-400000.0625
23.426417350769043,-17476.26953125,-23889.44921875,-24150.900390625,-400000.0625,-400000.0625,-400000.0625,-400000.0625,-400000.0625
23.547337770462036,-17440.650390625,-23830.23046875,-24085.759765625,-400000.0625,-400000.0625,-400000.0625,-400000.0625,-400000.0625
23.60692310333252,-17449.91015625,-23836.08984375,-24094.779296875,-400000.0625,-400000.0625,-400000.0625,-400000.0625,-400000.0625
23.683725833892822,-17412.330078125,-23823.650390625,-24071.080078125,-400000.0625,-400000.0625,-400000.0625,-400000.0625,-400000.0625
23.7524631023407,-17477.80078125,-23888.73046875,-24138.44921875,-400000.0625,-400000.0625,-400000.0625,-400000.0625,-400000.0625
23.80826473236084,-17472.75,-23883.6796875,-24134.970703125,-400000.0625,-400000.0625,-400000.0625,-400000.0625,-400000.0625
23.864185333251953,-17453.859375,-23863.990234375,-24103.169921875,-400000.0625,-400000.0625,-400000.0625,-400000.0625,-400000.0625
23.91983985900879,-17410.08984375,-23841.4296875,-24070.689453125,-400000.0625,-400000.0625,-400000.0625,-400000.0625,-400000.0625
24.049912929534912,-17468.359375,-23886.830078125,-24124.19921875,-400000.0625,-400000.0625,-400000.0625,-400000.0625,-400000.0625
24.179615259170532,-17444.560546875,-23865.609375,-24086.529296875,-400000.0625,-400000.0625,-400000.0625,-400000.0625,-400000.0625
24.241169929504395,-17412.759765625,-23832.369140625,-24047.94921875,-400000.0625,-400000.0625,-400000.0625,-400000.0625,-400000.0625
24.303637742996216,-17487.619140625,-23901.0390625,-24121.619140625,-400000.0625,-400000.0625,-400000.0625,-400000.0625,-400000.0625
24.376100540161133,-17470.220703125,-23894.310546875,-24117.810546875,-400000.0625,-400000.0625,-400000.0625,-400000.0625,-400000.0625
24.500224590301514,-17412.7109375,-23850.490234375,-24057.630859375,-400000.0625,-400000.0625,-400000.0625,-400000.0625,-400000.0625
24.601093769073486,-17449.48046875,-23879.009765625,-24089.630859375,-400000.0625,-400000.0625,-400000.0625,-400000.0625,-400000.0625
24.629063606262207,-17435.98046875,-23832.849609375,-24080.140625,-400000.0625,-400000.0625,-400000.0625,-400000.0625,-400000.0625
24.69703221321106,-17397.01953125,-23628.189453125,-24059.390625,-400000.0625,-400000.0625,-400000.0625,-400000.0625,-400000.0625
24.753172636032104,-17382.669921875,-23625.5703125,-24041.0390625,-400000.0625,-400000.0625,-400000.0625,-400000.0625,-400000.0625
24.949482917785645,-17346.720703125,-23611.830078125,-23992.58984375,-400000.0625,-400000.0625,-400000.0625,-400000.0625,-400000.0625
25.028714418411255,-17357.880859375,-23643.880859375,-24016.91015625,-400000.0625,-400000.0625,-400000.0625,-400000.0625,-400000.0625
25.0899395942688,-17319.6796875,-23607.30078125,-23972.279296875,-400000.0625,-400000.0625,-400000.0625,-400000.0625,-400000.0625
25.137438535690308,-17322.970703125,-23610.01953125,-23967.98046875,-400000.0625,-400000.0625,-400000.0625,-400000.0625,-400000.0625
25.208910942077637,-17353.009765625,-23624.51953125,-23991.060546875,-400000.0625,-400000.0625,-400000.0625,-400000.0625,-400000.0625
25.302395343780518,-17354.869140625,-23622.66015625,-23986.91015625,-400000.0625,-400000.0625,-400000.0625,-400000.0625,-400000.0625
25.328538179397583,-17367.3203125,-23637.5390625,-24010.279296875,-400000.0625,-400000.0625,-400000.0625,-400000.0625,-400000.0625
25.397669315338135,-17368.080078125,-23652.650390625,-24008.470703125,-400000.0625,-400000.0625,-400000.0625,-400000.0625,-400000.0625
25.46196436882019,-17326.400390625,-23616.359375,-23963.55078125,-400000.0625,-400000.0625,-400000.0625,-400000.0625,-400000.0625
25.5275297164917,-17330.650390625,-23627.140625,-23965.7890625,-400000.0625,-400000.0625,-400000.0625,-400000.0625,-400000.0625
25.587159395217896,-17418.580078125,-23514.609375,-23900.4609375,-400000.0625,-400000.0625,-400000.0625,-400000.0625,-400000.0625
25.65082359313965,-17431.169921875,-23531.30078125,-23903.900390625,-400000.0625,-400000.0625,-400000.0625,-400000.0625,-400000.0625
25.732425451278687,-17336.939453125,-23580.26953125,-23933.509765625,-400000.0625,-400000.0625,-400000.0625,-400000.0625,-400000.0625
25.845839500427246,-17379.099609375,-23656.560546875,-24011.94921875,-400000.0625,-400000.0625,-400000.0625,-400000.0625,-400000.0625
25.910106420516968,-17345.0,-23633.580078125,-23973.609375,-400000.0625,-400000.0625,-400000.0625,-400000.0625,-400000.0625
26.177038431167603,-17296.029296875,-23599.6796875,-23934.369140625,-400000.0625,-400000.0625,-400000.0625,-400000.0625,-400000.0625
26.239056825637817,-17345.859375,-23643.01953125,-23985.05078125,-400000.0625,-400000.0625,-400000.0625,-400000.0625,-400000.0625
26.29008412361145,-17380.33984375,-23666.859375,-24010.380859375,-400000.0625,-400000.0625,-400000.0625,-400000.0625,-400000.0625
26.373506546020508,-17335.419921875,-23629.619140625,-23960.310546875,-400000.0625,-400000.0625,-400000.0625,-400000.0625,-400000.0625
26.437119722366333,-17297.3203125,-23596.189453125,-23921.58984375,-400000.0625,-400000.0625,-400000.0625,-400000.0625,-400000.0625
26.496769905090332,-17301.75,-23602.73046875,-23921.01953125,-400000.0625,-400000.0625,-400000.0625,-400000.0625,-400000.0625
26.573743104934692,-17362.9296875,-23657.419921875,-23991.5390625,-400000.0625,-400000.0625,-400000.0625,-400000.0625,-400000.0625
26.678543090820312,-17337.66015625,-23635.490234375,-23963.640625,-400000.0625,-400000.0625,-400000.0625,-400000.0625,-400000.0625
26.744847297668457,-17295.169921875,-23596.099609375,-23910.330078125,-400000.0625,-400000.0625,-400000.0625,-400000.0625,-400000.0625
26.800771474838257,-17290.55078125,-23596.240234375,-23911.33984375,-400000.0625,-400000.0625,-400000.0625,-400000.0625,-400000.0625
26.87806224822998,-17335.990234375,-23627.619140625,-23948.05078125,-400000.0625,-400000.0625,-400000.0625,-400000.0625,-400000.0625
27.081079244613647,-17277.529296875,-23587.330078125,-23890.5,-400000.0625,-400000.0625,-400000.0625,-400000.0625,-400000.0625
27.184646606445312,-17333.939453125,-23630.240234375,-23936.939453125,-400000.0625,-400000.0625,-400000.0625,-400000.0625,-400000.0625
27.25373387336731,-17358.310546875,-23649.169921875,-23957.970703125,-400000.0625,-400000.0625,-400000.0625,-400000.0625,-400000.0625
27.34269690513611,-17353.970703125,-23648.9296875,-23959.310546875,-400000.0625,-400000.0625,-400000.0625,-400000.0625,-400000.0625
27.379759073257446,-17284.970703125,-23597.580078125,-23893.7890625,-400000.0625,-400000.0625,-400000.0625,-400000.0625,-400000.0625
27.44675636291504,-17340.419921875,-23637.349609375,-23945.759765625,-400000.0625,-400000.0625,-400000.0625,-400000.0625,-400000.0625
27.509912490844727,-17365.7890625,-23662.859375,-23968.75,-400000.0625,-400000.0625,-400000.0625,-400000.0625,-400000.0625
27.576783418655396,-17359.259765625,-23663.7109375,-23964.98046875,-400000.0625,-400000.0625,-400000.0625,-400000.0625,-400000.0625
27.699693202972412,-17214.970703125,-23383.94921875,-23829.80078125,-400000.0625,-400000.0625,-400000.0625,-400000.0625,-400000.0625
27.829898834228516,-17272.5703125,-23464.5390625,-23906.380859375,-400000.0625,-400000.0625,-400000.0625,-400000.0625,-400000.0625
27.889745950698853,-17270.189453125,-23448.08984375,-23890.44921875,-400000.0625,-400000.0625,-400000.0625,-400000.0625,-400000.0625
27.95366406440735,-17190.4609375,-23387.91015625,-23814.5390625,-400000.0625,-400000.0625,-400000.0625,-400000.0625,-400000.0625
28.025740146636963,-17265.66015625,-23450.330078125,-23887.30078125,-400000.0625,-400000.0625,-400000.0625,-400000.0625,-400000.0625
28.093348026275635,-17195.849609375,-23426.25,-23874.140625,-400000.0625,-400000.0625,-400000.0625,-400000.0625,-400000.0625
28.207954168319702,-17164.849609375,-23411.900390625,-23841.669921875,-400000.0625,-400000.0625,-400000.0625,-400000.0625,-400000.0625
28.286865949630737,-17223.0703125,-23414.51953125,-23851.25,-400000.0625,-400000.0625,-400000.0625,-400000.0625,-400000.0625
28.342915058135986,-17200.330078125,-23394.779296875,-23815.109375,-400000.0625,-400000.0625,-400000.0625,-400000.0625,-400000.0625
28.405292749404907,-17199.5703125,-23400.01953125,-23809.05078125,-400000.0625,-400000.0625,-400000.0625,-400000.0625,-400000.0625
28.46817636489868,-17261.939453125,-23433.640625,-23863.3203125,-400000.0625,-400000.0625,-400000.0625,-400000.0625,-400000.0625
28.542141914367676,-17193.029296875,-23385.099609375,-23796.419921875,-400000.0625,-400000.0625,-400000.0625,-400000.0625,-400000.0625
28.595475435256958,-17227.75,-23419.48046875,-23837.859375,-400000.0625,-400000.0625,-400000.0625,-400000.0625,-400000.0625
28.74486494064331,-17257.01953125,-23455.0,-23871.470703125,-400000.0625,-400000.0625,-400000.0625,-400000.0625,-400000.0625
28.84733772277832,-17255.55078125,-23448.5703125,-23862.7890625,-400000.0625,-400000.0625,-400000.0625,-400000.0625,-400000.0625
29.04677653312683,-17159.509765625,-23406.3203125,-23822.119140625,-400000.0625,-400000.0625,-400000.0625,-400000.0625,-400000.0625
29.104775428771973,-17209.150390625,-23438.890625,-23865.509765625,-400000.0625,-400000.0625,-400000.0625,-400000.0625,-400000.0625
29.168840169906616,-17230.509765625,-23446.939453125,-23867.23046875,-400000.0625,-400000.0625,-400000.0625,-400000.0625,-400000.0625
29.24022889137268,-17172.8203125,-23383.140625,-23772.2890625,-400000.0625,-400000.0625,-400000.0625,-400000.0625,-400000.0625
29.298499822616577,-17195.419921875,-23410.23046875,-23790.55078125,-400000.0625,-400000.0625,-400000.0625,-400000.0625,-400000.0625
29.374515771865845,-17208.150390625,-23411.609375,-23794.939453125,-400000.0625,-400000.0625,-400000.0625,-400000.0625,-400000.0625
29.491066694259644,-17193.609375,-23406.130859375,-23772.05078125,-400000.0625,-400000.0625,-400000.0625,-400000.0625,-400000.0625
29.56946325302124,-17173.48046875,-23389.720703125,-23757.939453125,-400000.0625,-400000.0625,-400000.0625,-400000.0625,-400000.0625
29.63006019592285,-17174.6796875,-23384.9609375,-23751.880859375,-400000.0625,-400000.0625,-400000.0625,-400000.0625,-400000.0625
29.68893599510193,-17238.669921875,-23435.0703125,-23829.26953125,-400000.0625,-400000.0625,-400000.0625,-400000.0625,-400000.0625
29.748125791549683,-17243.439453125,-23439.55078125,-23824.689453125,-400000.0625,-400000.0625,-400000.0625,-400000.0625,-400000.0625
29.878992080688477,-17254.779296875,-23450.279296875,-23823.359375,-400000.0625,-400000.0625,-400000.0625,-400000.0625,-400000.0625
29.946425914764404,-17197.369140625,-23409.80078125,-23773.630859375,-400000.0625,-400000.0625,-400000.0625,-400000.0625,-400000.0625
30.00604486465454,-17171.810546875,-23381.51953125,-23744.5390625,-400000.0625,-400000.0625,-400000.0625,-400000.0625,-400000.0625
30.07317018508911,-17200.66015625,-23392.919921875,-23764.1796875,-400000.0625,-400000.0625,-400000.0625,-400000.0625,-400000.0625
30.222693920135498,-17198.419921875,-23392.490234375,-23765.900390625,-400000.0625,-400000.0625,-400000.0625,-400000.0625,-400000.0625
30.256856203079224,-17250.830078125,-23435.599609375,-23810.91015625,-400000.0625,-400000.0625,-400000.0625,-400000.0625,-400000.0625
30.33207941055298,-17252.880859375,-23440.029296875,-23810.150390625,-400000.0625,-400000.0625,-400000.0625,-400000.0625,-400000.0625
30.38827395439148,-17248.970703125,-23449.51953125,-23815.30078125,-400000.0625,-400000.0625,-400000.0625,-400000.0625,-400000.0625
30.45222520828247,-17262.080078125,-23463.349609375,-23814.869140625,-400000.0625,-400000.0625,-400000.0625,-400000.0625,-400000.0625
30.469810724258423,-17213.30078125,-23423.2890625,-23770.720703125,-400000.0625,-400000.0625,-400000.0625,-400000.0625,-400000.0625
30.489322185516357,-17188.119140625,-23395.109375,-23740.33984375,-400000.0625,-400000.0625,-400000.0625,-400000.0625,-400000.0625
30.50049877166748,-17214.630859375,-23420.810546875,-23768.140625,-400000.0625,-400000.0625,-400000.0625,-400000.0625,-400000.0625
30.51434326171875,-17259.119140625,-23453.91015625,-23809.529296875,-400000.0625,-400000.0625,-400000.0625,-400000.0625,-400000.0625
30.532034635543823,-17259.98046875,-23451.5703125,-23810.9609375,-400000.0625,-400000.0625,-400000.0625,-400000.0625,-400000.0625
30.543922662734985,-17218.2109375,-23417.05078125,-23764.990234375,-400000.0625,-400000.0625,-400000.0625,-400000.0625,-400000.0625
30.56015181541443,-17188.029296875,-23391.439453125,-23737.05078125,-400000.0625,-400000.0625,-400000.0625,-400000.0625,-400000.0625
30.57379984855652,-17216.5390625,-23414.279296875,-23764.7109375,-400000.0625,-400000.0625,-400000.0625,-400000.0625,-400000.0625
30.584630489349365,-17261.029296875,-23457.580078125,-23815.060546875,-400000.0625,-400000.0625,-400000.0625,-400000.0625,-400000.0625
30.60012722015381,-17259.220703125,-23459.25,-23818.5,-400000.0625,-400000.0625,-400000.0625,-400000.0625,-400000.0625
30.622872591018677,-17219.01953125,-23421.2890625,-23772.0,-400000.0625,-400000.0625,-400000.0625,-400000.0625,-400000.0625
30.63792657852173,-17191.599609375,-23397.880859375,-23740.009765625,-400000.0625,-400000.0625,-400000.0625,-400000.0625,-400000.0625
30.653329133987427,-17216.30078125,-23419.4296875,-23766.66015625,-400000.0625,-400000.0625,-400000.0625,-400000.0625,-400000.0625
30.664637804031372,-17257.310546875,-23456.91015625,-23812.630859375,-400000.0625,-400000.0625,-400000.0625,-400000.0625,-400000.0625
30.676642417907715,-17257.740234375,-23455.91015625,-23813.919921875,-400000.0625,-400000.0625,-400000.0625,-400000.0625,-400000.0625
30.692381858825684,-17216.490234375,-23419.33984375,-23767.66015625,-400000.0625,-400000.0625,-400000.0625,-400000.0625,-400000.0625
30.706722736358643,-17189.55078125,-23399.400390625,-23741.060546875,-400000.0625,-400000.0625,-400000.0625,-400000.0625,-400000.0625
30.72521185874939,-17214.869140625,-23426.869140625,-23773.48046875,-400000.0625,-400000.0625,-400000.0625,-400000.0625,-400000.0625
30.735695123672485,-17261.130859375,-23462.439453125,-23822.41015625,-400000.0625,-400000.0625,-400000.0625,-400000.0625,-400000.0625
30.74970555305481,-17260.83984375,-23461.8203125,-23822.98046875,-400000.0625,-400000.0625,-400000.0625,-400000.0625,-400000.0625
30.765202283859253,-17215.060546875,-23428.779296875,-23777.33984375,-400000.0625,-400000.0625,-400000.0625,-400000.0625,-400000.0625
30.779350519180298,-17187.359375,-23403.599609375,-23745.109375,-400000.0625,-400000.0625,-400000.0625,-400000.0625,-400000.0625
30.791423559188843,-17216.6796875,-23423.19921875,-23771.5703125,-400000.0625,-400000.0625,-400000.0625,-400000.0625,-400000.0625
30.804888486862183,-17263.75,-23461.150390625,-23822.310546875,-400000.0625,-400000.0625,-400000.0625,-400000.0625,-400000.0625
30.825912714004517,-17263.029296875,-23461.109375,-23825.650390625,-400000.0625,-400000.0625,-400000.0625,-400000.0625,-400000.0625
30.840174674987793,-17224.5,-23421.619140625,-23778.5390625,-400000.0625,-400000.0625,-400000.0625,-400000.0625,-400000.0625
30.856244325637817,-17193.26953125,-23400.98046875,-23748.73046875,-400000.0625,-400000.0625,-400000.0625,-400000.0625,-400000.0625
30.870476245880127,-17224.169921875,-23428.490234375,-23781.25,-400000.0625,-400000.0625,-400000.0625,-400000.0625,-400000.0625
30.886170387268066,-17269.330078125,-23466.0703125,-23827.029296875,-400000.0625,-400000.0625,-400000.0625,-400000.0625,-400000.0625
30.89985179901123,-17268.369140625,-23460.9609375,-23824.55078125,-400000.0625,-400000.0625,-400000.0625,-400000.0625,-400000.0625
30.920962810516357,-17222.640625,-23422.05078125,-23775.529296875,-400000.0625,-400000.0625,-400000.0625,-400000.0625,-400000.0625
30.931753396987915,-17195.890625,-23403.7890625,-23746.30078125,-400000.0625,-400000.0625,-400000.0625,-400000.0625,-400000.0625
30.942118644714355,-17226.509765625,-23427.779296875,-23776.869140625,-400000.0625,-400000.0625,-400000.0625,-400000.0625,-400000.0625
30.956705808639526,-17268.900390625,-23465.970703125,-23825.359375,-400000.0625,-400000.0625,-400000.0625,-400000.0625,-400000.0625
30.97097873687744,-17266.609375,-23462.869140625,-23823.259765625,-400000.0625,-400000.0625,-400000.0625,-400000.0625,-400000.0625
30.983819484710693,-17225.119140625,-23425.150390625,-23774.76953125,-400000.0625,-400000.0625,-400000.0625,-400000.0625,-400000.0625
30.99860382080078,-17197.66015625,-23404.509765625,-23747.01953125,-400000.0625,-400000.0625,-400000.0625,-400000.0625,-400000.0625
31.009829998016357,-17228.990234375,-23428.869140625,-23776.8203125,-400000.0625,-400000.0625,-400000.0625,-400000.0625,-400000.0625
31.031241178512573,-17273.2890625,-23461.19921875,-23822.7890625,-400000.0625,-400000.0625,-400000.0625,-400000.0625,-400000.0625
31.047502279281616,-17273.05078125,-23455.099609375,-23820.689453125,-400000.0625,-400000.0625,-400000.0625,-400000.0625,-400000.0625
31.06080651283264,-17229.609375,-23424.76953125,-23775.19921875,-400000.0625,-400000.0625,-400000.0625,-400000.0625,-400000.0625
31.073070764541626,-17198.279296875,-23405.029296875,-23749.779296875,-400000.0625,-400000.0625,-400000.0625,-400000.0625,-400000.0625
31.087746143341064,-17225.740234375,-23429.400390625,-23781.58984375,-400000.0625,-400000.0625,-400000.0625,-400000.0625,-400000.0625
31.10179376602173,-17270.66015625,-23465.6796875,-23825.599609375,-400000.0625,-400000.0625,-400000.0625,-400000.0625,-400000.0625
31.128785371780396,-17267.900390625,-23462.970703125,-23820.98046875,-400000.0625,-400000.0625,-400000.0625,-400000.0625,-400000.0625
31.141366958618164,-17224.080078125,-23424.91015625,-23775.009765625,-400000.0625,-400000.0625,-400000.0625,-400000.0625,-400000.0625
31.159173727035522,-17195.939453125,-23396.919921875,-23743.439453125,-400000.0625,-400000.0625,-400000.0625,-400000.0625,-400000.0625
31.174554586410522,-17225.740234375,-23422.05078125,-23772.859375,-400000.0625,-400000.0625,-400000.0625,-400000.0625,-400000.0625
31.189554452896118,-17272.51953125,-23460.9609375,-23820.44921875,-400000.0625,-400000.0625,-400000.0625,-400000.0625,-400000.0625
31.203177213668823,-17267.08984375,-23459.33984375,-23821.689453125,-400000.0625,-400000.0625,-400000.0625,-400000.0625,-400000.0625
31.213518619537354,-17225.890625,-23424.580078125,-23776.529296875,-400000.0625,-400000.0625,-400000.0625,-400000.0625,-400000.0625
31.229987621307373,-17198.849609375,-23399.0703125,-23746.01953125,-400000.0625,-400000.0625,-400000.0625,-400000.0625,-400000.0625
31.248749256134033,-17227.41015625,-23428.779296875,-23778.390625,-400000.0625,-400000.0625,-400000.0625,-400000.0625,-400000.0625
31.26579976081848,-17270.7109375,-23462.30078125,-23825.890625,-400000.0625,-400000.0625,-400000.0625,-400000.0625,-400000.0625
31.281736612319946,-17270.419921875,-23451.7109375,-23821.55078125,-400000.0625,-400000.0625,-400000.0625,-400000.0625,-400000.0625
31.29329800605774,-17223.029296875,-23419.810546875,-23777.580078125,-400000.0625,-400000.0625,-400000.0625,-400000.0625,-400000.0625
31.311750411987305,-17196.279296875,-23400.599609375,-23750.9296875,-400000.0625,-400000.0625,-400000.0625,-400000.0625,-400000.0625
31.33217716217041,-17227.83984375,-23423.720703125,-23780.439453125,-400000.0625,-400000.0625,-400000.0625,-400000.0625,-400000.0625
31.351463794708252,-17274.189453125,-23465.44921875,-23833.130859375,-400000.0625,-400000.0625,-400000.0625,-400000.0625,-400000.0625
31.36647081375122,-17272.4296875,-23463.5390625,-23830.66015625,-400000.0625,-400000.0625,-400000.0625,-400000.0625,-400000.0625
31.379793405532837,-17229.26953125,-23422.05078125,-23782.16015625,-400000.0625,-400000.0625,-400000.0625,-400000.0625,-400000.0625
31.394895792007446,-17197.939453125,-23403.69921875,-23754.55078125,-400000.0625,-400000.0625,-400000.0625,-400000.0625,-400000.0625
31.412379026412964,-17230.939453125,-23438.26953125,-23785.400390625,-400000.0625,-400000.0625,-400000.0625,-400000.0625,-400000.0625
31.426533937454224,-17280.91015625,-23494.48046875,-23834.369140625,-400000.0625,-400000.0625,-400000.0625,-400000.0625,-400000.0625
31.440857648849487,-17283.73046875,-23514.990234375,-23838.619140625,-400000.0625,-400000.0625,-400000.0625,-400000.0625,-400000.0625
31.462090253829956,-17239.859375,-23479.419921875,-23794.75,-400000.0625,-400000.0625,-400000.0625,-400000.0625,-400000.0625
31.47479772567749,-17210.529296875,-23441.7890625,-23763.0390625,-400000.0625,-400000.0625,-400000.0625,-400000.0625,-400000.0625
31.489760160446167,-17248.390625,-23491.33984375,-23804.48046875,-400000.0625,-400000.0625,-400000.0625,-400000.0625,-400000.0625
31.50683903694153,-17301.130859375,-23559.759765625,-23864.890625,-400000.0625,-400000.0625,-400000.0625,-400000.0625,-400000.0625
31.529420137405396,-17307.94921875,-23578.26953125,-23873.240234375,-400000.0625,-400000.0625,-400000.0625,-400000.0625,-400000.0625
31.54226517677307,-17270.849609375,-23556.66015625,-23838.330078125,-400000.0625,-400000.0625,-400000.0625,-400000.0625,-400000.0625
31.559144973754883,-17252.58984375,-23548.029296875,-23814.919921875,-400000.0625,-400000.0625,-400000.0625,-400000.0625,-400000.0625
31.578038692474365,-17289.970703125,-23599.9609375,-23856.5,-400000.0625,-400000.0625,-400000.0625,-400000.0625,-400000.0625
31.592318773269653,-17343.810546875,-23655.1796875,-23908.4296875,-400000.0625,-400000.0625,-400000.0625,-400000.0625,-400000.0625
31.60733413696289,-17345.189453125,-23638.5390625,-23904.94921875,-400000.0625,-400000.0625,-400000.0625,-400000.0625,-400000.0625
31.623080253601074,-17307.619140625,-23618.130859375,-23867.509765625,-400000.0625,-400000.0625,-400000.0625,-400000.0625,-400000.0625
31.638506174087524,-17282.8203125,-23612.9296875,-23841.0,-400000.0625,-400000.0625,-400000.0625,-400000.0625,-400000.0625
31.656175136566162,-17308.4296875,-23630.669921875,-23871.619140625,-400000.0625,-400000.0625,-400000.0625,-400000.0625,-400000.0625
31.673595428466797,-17347.720703125,-23678.310546875,-23920.869140625,-400000.0625,-400000.0625,-400000.0625,-400000.0625,-400000.0625
31.686042308807373,-17345.140625,-23673.060546875,-23916.060546875,-400000.0625,-400000.0625,-400000.0625,-400000.0625,-400000.0625
31.70086145401001,-17304.7109375,-23632.859375,-23869.08984375,-400000.0625,-400000.0625,-400000.0625,-400000.0625,-400000.0625
31.721964836120605,-17274.619140625,-23617.41015625,-23842.150390625,-400000.0625,-400000.0625,-400000.0625,-400000.0625,-400000.0625
31.73846411705017,-17301.990234375,-23641.060546875,-23869.849609375,-400000.0625,-400000.0625,-400000.0625,-400000.0625,-400000.0625
31.756954669952393,-17343.900390625,-23672.439453125,-23912.76953125,-400000.0625,-400000.0625,-400000.0625,-400000.0625,-400000.0625
31.771219491958618,-17336.419921875,-23669.2890625,-23908.189453125,-400000.0625,-400000.0625,-400000.0625,-400000.0625,-400000.0625
31.78132176399231,-17290.98046875,-23629.91015625,-23860.740234375,-400000.0625,-400000.0625,-400000.0625,-400000.0625,-400000.0625
31.795079708099365,-17268.23046875,-23604.16015625,-23832.1796875,-400000.0625,-400000.0625,-400000.0625,-400000.0625,-400000.0625
31.808762788772583,-17295.740234375,-23635.630859375,-23869.560546875,-400000.0625,-400000.0625,-400000.0625,-400000.0625,-400000.0625
31.824528455734253,-17339.279296875,-23671.439453125,-23914.33984375,-400000.0625,-400000.0625,-400000.0625,-400000.0625,-400000.0625
31.8346164226532,-17336.470703125,-23665.189453125,-23907.0,-400000.0625,-400000.0625,-400000.0625,-400000.0625,-400000.0625
31.850754022598267,-17292.220703125,-23627.669921875,-23866.369140625,-400000.0625,-400000.0625,-400000.0625,-400000.0625,-400000.0625
31.86470103263855,-17270.0390625,-23614.599609375,-23845.060546875,-400000.0625,-400000.0625,-400000.0625,-400000.0625,-400000.0625
31.87646484375,-17298.369140625,-23636.490234375,-23869.560546875,-400000.0625,-400000.0625,-400000.0625,-400000.0625,-400000.0625
31.891043186187744,-17340.609375,-23669.33984375,-23914.48046875,-400000.0625,-400000.0625,-400000.0625,-400000.0625,-400000.0625
31.902404069900513,-17341.470703125,-23674.349609375,-23916.9609375,-400000.0625,-400000.0625,-400000.0625,-400000.0625,-400000.0625
31.9204363822937,-17298.80078125,-23640.58984375,-23870.0390625,-400000.0625,-400000.0625,-400000.0625,-400000.0625,-400000.0625
31.93522024154663,-17270.279296875,-23619.609375,-23840.759765625,-400000.0625,-400000.0625,-400000.0625,-400000.0625,-400000.0625
31.951733827590942,-17303.80078125,-23646.44921875,-23873.0,-400000.0625,-400000.0625,-400000.0625,-400000.0625,-400000.0625
31.96194553375244,-17351.720703125,-23687.939453125,-23921.349609375,-400000.0625,-400000.0625,-400000.0625,-400000.0625,-400000.0625
31.975252389907837,-17347.150390625,-23684.220703125,-23917.869140625,-400000.0625,-400000.0625,-400000.0625,-400000.0625,-400000.0625
31.986121654510498,-17303.1796875,-23642.880859375,-23869.330078125,-400000.0625,-400000.0625,-400000.0625,-400000.0625,-400000.0625
32.000237226486206,-17279.099609375,-23622.75,-23839.140625,-400000.0625,-400000.0625,-400000.0625,-400000.0625,-400000.0625
32.021790981292725,-17311.76953125,-23654.560546875,-23870.80078125,-400000.0625,-400000.0625,-400000.0625,-400000.0625,-400000.0625
32.03713512420654,-17352.5390625,-23692.3203125,-23914.150390625,-400000.0625,-400000.0625,-400000.0625,-400000.0625,-400000.0625
32.05138278007507,-17354.30078125,-23693.51953125,-23910.099609375,-400000.0625,-400000.0625,-400000.0625,-400000.0625,-400000.0625
32.06955409049988,-17311.76953125,-23668.009765625,-23862.650390625,-400000.0625,-400000.0625,-400000.0625,-400000.0625,-400000.0625
32.08393573760986,-17276.189453125,-23644.689453125,-23837.619140625,-400000.0625,-400000.0625,-400000.0625,-400000.0625,-400000.0625
32.10033559799194,-17294.83984375,-23668.48046875,-23877.529296875,-400000.0625,-400000.0625,-400000.0625,-400000.0625,-400000.0625
32.11256670951843,-17334.80078125,-23718.220703125,-23931.4609375,-400000.0625,-400000.0625,-400000.0625,-400000.0625,-400000.0625
32.1326642036438,-17332.990234375,-23724.369140625,-23934.220703125,-400000.0625,-400000.0625,-400000.0625,-400000.0625,-400000.0625
32.14713764190674,-17284.19921875,-23700.669921875,-23897.83984375,-400000.0625,-400000.0625,-400000.0625,-400000.0625,-400000.0625
32.162837982177734,-17255.7890625,-23690.509765625,-23879.240234375,-400000.0625,-400000.0625,-400000.0625,-400000.0625,-400000.0625
32.18041777610779,-17281.439453125,-23717.599609375,-23915.19921875,-400000.0625,-400000.0625,-400000.0625,-400000.0625,-400000.0625
32.191940784454346,-17323.73046875,-23757.69921875,-23962.740234375,-400000.0625,-400000.0625,-400000.0625,-400000.0625,-400000.0625
32.2075936794281,-17317.490234375,-23762.419921875,-23962.599609375,-400000.0625,-400000.0625,-400000.0625,-400000.0625,-400000.0625
32.22397255897522,-17273.48046875,-23725.130859375,-23915.390625,-400000.0625,-400000.0625,-400000.0625,-400000.0625,-400000.0625
32.23927330970764,-17248.390625,-23702.580078125,-23888.30078125,-400000.0625,-400000.0625,-400000.0625,-400000.0625,-400000.0625
32.25115180015564,-17277.669921875,-23737.390625,-23925.259765625,-400000.0625,-400000.0625,-400000.0625,-400000.0625,-400000.0625
32.265488147735596,-17323.640625,-23770.380859375,-23972.369140625,-400000.0625,-400000.0625,-400000.0625,-400000.0625,-400000.0625
32.28227138519287,-17317.869140625,-23763.130859375,-23967.169921875,-400000.0625,-400000.0625,-400000.0625,-400000.0625,-400000.0625
32.297595739364624,-17275.099609375,-23725.890625,-23922.16015625,-400000.0625,-400000.0625,-400000.0625,-400000.0625,-400000.0625
32.315409898757935,-17248.580078125,-23708.439453125,-23896.359375,-400000.0625,-400000.0625,-400000.0625,-400000.0625,-400000.0625
32.33337879180908,-17279.48046875,-23735.619140625,-23925.970703125,-400000.0625,-400000.0625,-400000.0625,-400000.0625,-400000.0625
32.351069688797,-17322.5390625,-23769.94921875,-23967.7890625,-400000.0625,-400000.0625,-400000.0625,-400000.0625,-400000.0625
32.361793994903564,-17318.439453125,-23764.66015625,-23964.220703125,-400000.0625,-400000.0625,-400000.0625,-400000.0625,-400000.0625
32.374653577804565,-17274.91015625,-23727.66015625,-23920.16015625,-400000.0625,-400000.0625,-400000.0625,-400000.0625,-400000.0625
32.390626192092896,-17247.6796875,-23708.580078125,-23891.55078125,-400000.0625,-400000.0625,-400000.0625,-400000.0625,-400000.0625
32.40352821350098,-17279.099609375,-23735.720703125,-23921.970703125,-400000.0625,-400000.0625,-400000.0625,-400000.0625,-400000.0625
32.420984983444214,-17322.109375,-23770.5703125,-23971.75,-400000.0625,-400000.0625,-400000.0625,-400000.0625,-400000.0625
32.432751178741455,-17316.25,-23766.08984375,-23969.83984375,-400000.0625,-400000.0625,-400000.0625,-400000.0625,-400000.0625
32.44273328781128,-17270.849609375,-23726.80078125,-23920.630859375,-400000.0625,-400000.0625,-400000.0625,-400000.0625,-400000.0625
32.45612025260925,-17244.669921875,-23703.859375,-23889.119140625,-400000.0625,-400000.0625,-400000.0625,-400000.0625,-400000.0625
32.472068786621094,-17271.4296875,-23733.330078125,-23921.25,-400000.0625,-400000.0625,-400000.0625,-400000.0625,-400000.0625
32.48359775543213,-17312.33984375,-23769.330078125,-23969.75,-400000.0625,-400000.0625,-400000.0625,-400000.0625,-400000.0625
32.4991557598114,-17311.669921875,-23765.759765625,-23966.119140625,-400000.0625,-400000.0625,-400000.0625,-400000.0625,-400000.0625
32.514461278915405,-17266.130859375,-23731.51953125,-23919.16015625,-400000.0625,-400000.0625,-400000.0625,-400000.0625,-400000.0625
32.53040027618408,-17240.619140625,-23709.490234375,-23889.16015625,-400000.0625,-400000.0625,-400000.0625,-400000.0625,-400000.0625
32.54524493217468,-17271.380859375,-23732.0,-23917.9609375,-400000.0625,-400000.0625,-400000.0625,-400000.0625,-400000.0625
32.561349630355835,-17313.099609375,-23766.08984375,-23964.98046875,-400000.0625,-400000.0625,-400000.0625,-400000.0625,-400000.0625
32.57798457145691,-17309.240234375,-23759.75,-23959.830078125,-400000.0625,-400000.0625,-400000.0625,-400000.0625,-400000.0625
32.59485340118408,-17261.4609375,-23721.080078125,-23912.150390625,-400000.0625,-400000.0625,-400000.0625,-400000.0625,-400000.0625
32.611241817474365,-17235.7109375,-23706.30078125,-23890.400390625,-400000.0625,-400000.0625,-400000.0625,-400000.0625,-400000.0625
32.62933540344238,-17268.279296875,-23734.05078125,-23924.01953125,-400000.0625,-400000.0625,-400000.0625,-400000.0625,-400000.0625
32.64336562156677,-17311.2890625,-23768.240234375,-23967.080078125,-400000.0625,-400000.0625,-400000.0625,-400000.0625,-400000.0625
32.65415859222412,-17307.189453125,-23768.619140625,-23961.55078125,-400000.0625,-400000.0625,-400000.0625,-400000.0625,-400000.0625
32.66871452331543,-17265.0390625,-23727.75,-23913.099609375,-400000.0625,-400000.0625,-400000.0625,-400000.0625,-400000.0625
32.687678813934326,-17240.0,-23704.869140625,-23887.73046875,-400000.0625,-400000.0625,-400000.0625,-400000.0625,-400000.0625
32.700557470321655,-17267.3203125,-23733.0,-23920.349609375,-400000.0625,-400000.0625,-400000.0625,-400000.0625,-400000.0625
32.714187145233154,-17312.099609375,-23770.859375,-23967.3203125,-400000.0625,-400000.0625,-400000.0625,-400000.0625,-400000.0625
32.73319339752197,-17302.849609375,-23766.140625,-23964.98046875,-400000.0625,-400000.0625,-400000.0625,-400000.0625,-400000.0625
32.74922847747803,-17262.990234375,-23729.51953125,-23919.439453125,-400000.0625,-400000.0625,-400000.0625,-400000.0625,-400000.0625
32.764017820358276,-17243.099609375,-23715.2109375,-23895.55078125,-400000.0625,-400000.0625,-400000.0625,-400000.0625,-400000.0625
32.778878927230835,-17270.419921875,-23751.119140625,-23929.169921875,-400000.0625,-400000.0625,-400000.0625,-400000.0625,-400000.0625
32.79525065422058,-17316.390625,-23767.140625,-23961.359375,-400000.0625,-400000.0625,-400000.0625,-400000.0625,-400000.0625
32.809285402297974,-17318.30078125,-23737.720703125,-23941.0390625,-400000.0625,-400000.0625,-400000.0625,-400000.0625,-400000.0625
32.827616691589355,-17280.630859375,-23697.5703125,-23889.970703125,-400000.0625,-400000.0625,-400000.0625,-400000.0625,-400000.0625
32.843419790267944,-17262.41015625,-23665.529296875,-23857.2109375,-400000.0625,-400000.0625,-400000.0625,-400000.0625,-400000.0625
32.85782074928284,-17299.939453125,-23689.69921875,-23884.630859375,-400000.0625,-400000.0625,-400000.0625,-400000.0625,-400000.0625
32.870880365371704,-17350.150390625,-23717.44921875,-23922.259765625,-400000.0625,-400000.0625,-400000.0625,-400000.0625,-400000.0625
32.884679079055786,-17353.73046875,-23699.810546875,-23912.380859375,-400000.0625,-400000.0625,-400000.0625,-400000.0625,-400000.0625
32.897794246673584,-17315.33984375,-23658.369140625,-23860.650390625,-400000.0625,-400000.0625,-400000.0625,-400000.0625,-400000.0625
32.912081480026245,-17294.740234375,-23637.009765625,-23829.609375,-400000.0625,-400000.0625,-400000.0625,-400000.0625,-400000.0625
32.93465781211853,-17326.2109375,-23660.23046875,-23859.119140625,-400000.0625,-400000.0625,-400000.0625,-400000.0625,-400000.0625
32.949183225631714,-17369.26953125,-23692.279296875,-23901.990234375,-400000.0625,-400000.0625,-400000.0625,-400000.0625,-400000.0625
32.96607255935669,-17367.26953125,-23687.4609375,-23896.169921875,-400000.0625,-400000.0625,-400000.0625,-400000.0625,-400000.0625
32.978129863739014,-17319.25,-23651.650390625,-23854.5390625,-400000.0625,-400000.0625,-400000.0625,-400000.0625,-400000.0625
32.99393129348755,-17295.310546875,-23635.009765625,-23828.69921875,-400000.0625,-400000.0625,-400000.0625,-400000.0625,-400000.0625
33.00816226005554,-17325.880859375,-23666.580078125,-23860.41015625,-400000.0625,-400000.0625,-400000.0625,-400000.0625,-400000.0625
33.03076767921448,-17368.83984375,-23695.189453125,-23899.1796875,-400000.0625,-400000.0625,-400000.0625,-400000.0625,-400000.0625
33.04630970954895,-17366.41015625,-23688.1796875,-23893.689453125,-400000.0625,-400000.0625,-400000.0625,-400000.0625,-400000.0625
33.06305265426636,-17322.58984375,-23654.419921875,-23849.779296875,-400000.0625,-400000.0625,-400000.0625,-400000.0625,-400000.0625
33.07663130760193,-17299.939453125,-23630.0,-23818.970703125,-400000.0625,-400000.0625,-400000.0625,-400000.0625,-400000.0625
33.09382700920105,-17327.220703125,-23657.609375,-23852.2109375,-400000.0625,-400000.0625,-400000.0625,-400000.0625,-400000.0625
33.108346462249756,-17370.80078125,-23696.279296875,-23898.369140625,-400000.0625,-400000.0625,-400000.0625,-400000.0625,-400000.0625
33.129051208496094,-17369.3203125,-23692.23046875,-23892.740234375,-400000.0625,-400000.0625,-400000.0625,-400000.0625,-400000.0625
33.14638948440552,-17323.01953125,-23656.609375,-23847.9609375,-400000.0625,-400000.0625,-400000.0625,-400000.0625,-400000.0625
33.15722179412842,-17300.990234375,-23634.8203125,-23823.359375,-400000.0625,-400000.0625,-400000.0625,-400000.0625,-400000.0625
33.17213988304138,-17333.080078125,-23664.2890625,-23857.259765625,-400000.0625,-400000.0625,-400000.0625,-400000.0625,-400000.0625
33.187199115753174,-17374.900390625,-23701.76953125,-23904.23046875,-400000.0625,-400000.0625,-400000.0625,-400000.0625,-400000.0625
33.20137000083923,-17369.509765625,-23698.189453125,-23900.69921875,-400000.0625,-400000.0625,-400000.0625,-400000.0625,-400000.0625
33.222901821136475,-17325.359375,-23657.80078125,-23852.2109375,-400000.0625,-400000.0625,-400000.0625,-400000.0625,-400000.0625
33.2373583316803,-17298.939453125,-23634.150390625,-23821.640625,-400000.0625,-400000.0625,-400000.0625,-400000.0625,-400000.0625
33.24989199638367,-17329.650390625,-23660.66015625,-23854.16015625,-400000.0625,-400000.0625,-400000.0625,-400000.0625,-400000.0625
33.26364183425903,-17369.4609375,-23694.609375,-23901.369140625,-400000.0625,-400000.0625,-400000.0625,-400000.0625,-400000.0625
33.27976894378662,-17367.169921875,-23689.609375,-23898.080078125,-400000.0625,-400000.0625,-400000.0625,-400000.0625,-400000.0625
33.29772973060608,-17323.9296875,-23653.609375,-23850.490234375,-400000.0625,-400000.0625,-400000.0625,-400000.0625,-400000.0625
33.31251764297485,-17295.4609375,-23639.349609375,-23823.0703125,-400000.0625,-400000.0625,-400000.0625,-400000.0625,-400000.0625
33.334099769592285,-17326.880859375,-23671.630859375,-23858.98046875,-400000.0625,-400000.0625,-400000.0625,-400000.0625,-400000.0625
33.34775137901306,-17368.75,-23700.05078125,-23900.509765625,-400000.0625,-400000.0625,-400000.0625,-400000.0625,-400000.0625
33.36225700378418,-17361.01953125,-23697.140625,-23892.599609375,-400000.0625,-400000.0625,-400000.0625,-400000.0625,-400000.0625
33.37470722198486,-17314.2890625,-23661.759765625,-23846.490234375,-400000.0625,-400000.0625,-400000.0625,-400000.0625,-400000.0625
33.38818097114563,-17289.16015625,-23636.8203125,-23815.919921875,-400000.0625,-400000.0625,-400000.0625,-400000.0625,-400000.0625
33.405850887298584,-17321.44921875,-23664.859375,-23851.58984375,-400000.0625,-400000.0625,-400000.0625,-400000.0625,-400000.0625
33.426921129226685,-17366.359375,-23699.759765625,-23896.98046875,-400000.0625,-400000.0625,-400000.0625,-400000.0625,-400000.0625
33.44419574737549,-17360.740234375,-23700.720703125,-23893.310546875,-400000.0625,-400000.0625,-400000.0625,-400000.0625,-400000.0625
33.45563459396362,-17320.30078125,-23659.609375,-23847.439453125,-400000.0625,-400000.0625,-400000.0625,-400000.0625,-400000.0625
33.46845269203186,-17297.130859375,-23645.359375,-23825.4609375,-400000.0625,-400000.0625,-400000.0625,-400000.0625,-400000.0625
33.48440170288086,-17329.740234375,-23679.119140625,-23861.740234375,-400000.0625,-400000.0625,-400000.0625,-400000.0625,-400000.0625
33.49882102012634,-17370.990234375,-23710.73046875,-23904.80078125,-400000.0625,-400000.0625,-400000.0625,-400000.0625,-400000.0625
33.52035307884216,-17368.890625,-23700.48046875,-23895.69921875,-400000.0625,-400000.0625,-400000.0625,-400000.0625,-400000.0625
33.532039642333984,-17325.640625,-23665.2890625,-23846.060546875,-400000.0625,-400000.0625,-400000.0625,-400000.0625,-400000.0625
33.5441472530365,-17303.1796875,-23648.5,-23818.919921875,-400000.0625,-400000.0625,-400000.0625,-400000.0625,-400000.0625
33.55942344665527,-17333.890625,-23680.0703125,-23852.779296875,-400000.0625,-400000.0625,-400000.0625,-400000.0625,-400000.0625
33.57434606552124,-17369.75,-23712.01953125,-23903.419921875,-400000.0625,-400000.0625,-400000.0625,-400000.0625,-400000.0625
33.58973717689514,-17356.01953125,-23707.6796875,-23906.419921875,-400000.0625,-400000.0625,-400000.0625,-400000.0625,-400000.0625
33.60496187210083,-17311.91015625,-23677.0703125,-23863.029296875,-400000.0625,-400000.0625,-400000.0625,-400000.0625,-400000.0625
33.62549090385437,-17283.630859375,-23663.05078125,-23841.0,-400000.0625,-400000.0625,-400000.0625,-400000.0625,-400000.0625
33.63881826400757,-17306.4296875,-23696.380859375,-23876.05078125,-400000.0625,-400000.0625,-400000.0625,-400000.0625,-400000.0625
33.654207706451416,-17346.529296875,-23732.7109375,-23924.689453125,-400000.0625,-400000.0625,-400000.0625,-400000.0625,-400000.0625
33.67205047607422,-17337.990234375,-23726.1796875,-23921.16015625,-400000.0625,-400000.0625,-400000.0625,-400000.0625,-400000.0625
33.68814277648926,-17296.26953125,-23690.080078125,-23877.240234375,-400000.0625,-400000.0625,-400000.0625,-400000.0625,-400000.0625
33.705373764038086,-17271.330078125,-23670.25,-23852.640625,-400000.0625,-400000.0625,-400000.0625,-400000.0625,-400000.0625
33.728780031204224,-17303.7109375,-23692.7109375,-23885.25,-400000.0625,-400000.0625,-400000.0625,-400000.0625,-400000.0625
33.743831396102905,-17345.859375,-23729.369140625,-23927.98046875,-400000.0625,-400000.0625,-400000.0625,-400000.0625,-400000.0625
33.75743293762207,-17341.7109375,-23725.509765625,-23921.58984375,-400000.0625,-400000.0625,-400000.0625,-400000.0625,-400000.0625
33.77410531044006,-17298.890625,-23685.3203125,-23874.619140625,-400000.0625,-400000.0625,-400000.0625,-400000.0625,-400000.0625
33.79052186012268,-17273.0,-23667.9609375,-23852.2109375,-400000.0625,-400000.0625,-400000.0625,-400000.0625,-400000.0625
