time,ch1,ch2,ch3,ch4,ch5,ch6,ch7,ch8
120.98223781585693,-400000.0625,-13105.8203125,-6316.08984375,-400000.0625,-18934.060546875,-400000.0625,-5812.7900390625,-400000.0625
120.98860621452332,-400000.0625,-13069.73046875,-6284.81005859375,-400000.0625,-18926.33984375,-400000.0625,-5789.89990234375,-400000.0625
120.99593448638916,-400000.0625,-13066.150390625,-6277.3701171875,-400000.0625,-18940.779296875,-400000.0625,-5808.830078125,-400000.0625
121.0255696773529,-400000.0625,-13073.2998046875,-6286.18994140625,-400000.0625,-18962.669921875,-400000.0625,-5842.16015625,-400000.0625
121.03710746765137,-400000.0625,-13062.91015625,-6275.1298828125,-400000.0625,-18961.099609375,-400000.0625,-5842.72998046875,-400000.0625
121.04818201065063,-400000.0625,-13024.9501953125,-6239.31982421875,-400000.0625,-18940.259765625,-400000.0625,-5806.64013671875,-400000.0625
121.05684566497803,-400000.0625,-12995.33984375,-6216.56982421875,-400000.0625,-18931.150390625,-400000.0625,-5785.85009765625,-400000.0625
121.06991314888,-400000.0625,-12993.8095703125,-6225.16015625,-400000.0625,-18945.740234375,-400000.0625,-5799.8701171875,-400000.0625
121.0802001953125,-400000.0625,-13010.599609375,-6244.0400390625,-400000.0625,-18970.2109375,-400000.0625,-5822.0400390625,-400000.0625
121.08905744552612,-400000.0625,-13008.0703125,-6237.83984375,-400000.0625,-18966.099609375,-400000.0625,-5817.02978515625,-400000.0625
121.09954881668091,-400000.0625,-12979.9404296875,-6213.85986328125,-400000.0625,-18937.109375,-400000.0625,-5787.7998046875,-400000.0625
121.12465810775757,-400000.0625,-12972.58984375,-6208.47021484375,-400000.0625,-18940.9296875,-400000.0625,-5784.0400390625,-400000.0625
121.13711333274841,-400000.0625,-12990.9501953125,-6222.580078125,-400000.0625,-18957.240234375,-400000.0625,-5799.9599609375,-400000.0625
121.1460485458374,-400000.0625,-13017.23046875,-6244.759765625,-400000.0625,-18979.26953125,-400000.0625,-5824.419921875,-400000.0625
121.15552854537964,-400000.0625,-13022.3798828125,-6250.3798828125,-400000.0625,-18981.029296875,-400000.0625,-5823.18017578125,-400000.0625
121.16843128204346,-400000.0625,-12992.7197265625,-6228.97021484375,-400000.0625,-18956.94921875,-400000.0625,-5791.240234375,-400000.0625
121.1777138710022,-400000.0625,-12976.7900390625,-6215.759765625,-400000.0625,-18944.9296875,-400000.0625,-5779.080078125,-400000.0625
121.18534517288208,-400000.0625,-12996.48046875,-6227.97021484375,-400000.0625,-18961.48046875,-400000.0625,-5795.91015625,-400000.0625
121.19261384010315,-400000.0625,-13019.7998046875,-6247.7099609375,-400000.0625,-18979.220703125,-400000.0625,-5814.7001953125,-400000.0625
121.20206046104431,-400000.0625,-13010.8798828125,-6237.7900390625,-400000.0625,-18962.810546875,-400000.0625,-5803.58984375,-400000.0625
121.22294354438782,-400000.0625,-12984.23046875,-6213.47998046875,-400000.0625,-18945.029296875,-400000.0625,-5782.27001953125,-400000.0625
121.2314658164978,-400000.0625,-12976.3603515625,-6208.75,-400000.0625,-18945.119140625,-400000.0625,-5772.39990234375,-400000.0625
121.24148440361023,-400000.0625,-12987.330078125,-6216.56982421875,-400000.0625,-18952.23046875,-400000.0625,-5780.7900390625,-400000.0625
121.25174140930176,-400000.0625,-13011.7001953125,-6235.31005859375,-400000.0625,-18966.919921875,-400000.0625,-5805.5400390625,-400000.0625
121.26234793663025,-400000.0625,-13003.5400390625,-6229.77978515625,-400000.0625,-18961.859375,-400000.0625,-5803.81982421875,-400000.0625
121.27470302581787,-400000.0625,-12989.8095703125,-6217.43017578125,-400000.0625,-18947.990234375,-400000.0625,-5789.14013671875,-400000.0625
121.28590273857117,-400000.0625,-12992.76953125,-6219.47998046875,-400000.0625,-18951.69921875,-400000.0625,-5780.7900390625,-400000.0625
121.29324984550476,-400000.0625,-13005.58984375,-6229.02001953125,-400000.0625,-18964.720703125,-400000.0625,-5790.56982421875,-400000.0625
121.3050525188446,-400000.0625,-13027.4296875,-6245.47021484375,-400000.0625,-18982.560546875,-400000.0625,-5815.64990234375,-400000.0625
121.32556462287903,-400000.0625,-13022.7099609375,-6244.759765625,-400000.0625,-18977.740234375,-400000.0625,-5816.7900390625,-400000.0625
121.3354959487915,-400000.0625,-12992.91015625,-6213.240234375,-400000.0625,-18950.990234375,-400000.0625,-5783.27001953125,-400000.0625
121.34751439094543,-400000.0625,-12976.26953125,-6200.60009765625,-400000.0625,-18941.98046875,-400000.0625,-5768.10986328125,-400000.0625
121.35515999794006,-400000.0625,-12983.1796875,-6209.66015625,-400000.0625,-18949.080078125,-400000.0625,-5784.75,-400000.0625
121.36993026733398,-400000.0625,-13012.8896484375,-6226.02001953125,-400000.0625,-18961.48046875,-400000.0625,-5810.740234375,-400000.0625
121.37843227386475,-400000.0625,-13014.26953125,-6226.10986328125,-400000.0625,-18961.33984375,-400000.0625,-5805.68017578125,-400000.0625
121.38601350784302,-400000.0625,-12989.0,-6205.4599609375,-400000.0625,-18953.849609375,-400000.0625,-5787.08984375,-400000.0625
121.39575839042664,-400000.0625,-12981.4599609375,-6201.02978515625,-400000.0625,-18949.75,-400000.0625,-5779.93017578125,-400000.0625
121.40580654144287,-400000.0625,-12993.150390625,-6214.0,-400000.0625,-18958.51953125,-400000.0625,-5784.56005859375,-400000.0625
121.42548251152039,-400000.0625,-13022.23046875,-6234.93017578125,-400000.0625,-18973.640625,-400000.0625,-5805.68017578125,-400000.0625
121.43443703651428,-400000.0625,-13016.7998046875,-6229.259765625,-400000.0625,-18967.33984375,-400000.0625,-5807.64013671875,-400000.0625
121.44355368614197,-400000.0625,-12991.0,-6208.27978515625,-400000.0625,-18951.1796875,-400000.0625,-5788.27978515625,-400000.0625
121.45173573493958,-400000.0625,-12975.650390625,-6194.97021484375,-400000.0625,-18945.7890625,-400000.0625,-5776.8798828125,-400000.0625
121.45874261856079,-400000.0625,-12983.900390625,-6199.7900390625,-400000.0625,-18949.4609375,-400000.0625,-5787.7099609375,-400000.0625
121.47137713432312,-400000.0625,-13015.83984375,-6222.68017578125,-400000.0625,-18960.33984375,-400000.0625,-5810.60009765625,-400000.0625
121.48065495491028,-400000.0625,-13029.6201171875,-6232.5,-400000.0625,-18969.779296875,-400000.0625,-5812.740234375,-400000.0625
121.4897973537445,-400000.0625,-13003.400390625,-6221.009765625,-400000.0625,-18958.279296875,-400000.0625,-5775.64013671875,-400000.0625
121.49952530860901,-400000.0625,-12978.3203125,-6208.85009765625,-400000.0625,-18946.83984375,-400000.0625,-5750.509765625,-400000.0625
121.50878167152405,-400000.0625,-13000.6796875,-6233.740234375,-400000.0625,-18967.009765625,-400000.0625,-5771.259765625,-400000.0625
121.53666687011719,-400000.0625,-13021.7998046875,-6255.33984375,-400000.0625,-18980.310546875,-400000.0625,-5790.18994140625,-400000.0625
121.54653644561768,-400000.0625,-13020.900390625,-6254.81982421875,-400000.0625,-18973.259765625,-400000.0625,-5777.93017578125,-400000.0625
121.55436205863953,-400000.0625,-12992.9599609375,-6234.06982421875,-400000.0625,-18951.75,-400000.0625,-5751.18017578125,-400000.0625
121.56258058547974,-400000.0625,-12974.1201171875,-6219.0498046875,-400000.0625,-18942.44921875,-400000.0625,-5735.77978515625,-400000.0625
121.57271313667297,-400000.0625,-12981.849609375,-6228.5,-400000.0625,-18945.080078125,-400000.0625,-5743.64990234375,-400000.0625
121.58247756958008,-400000.0625,-13012.26953125,-6255.81982421875,-400000.0625,-18960.759765625,-400000.0625,-5770.35009765625,-400000.0625
121.59063482284546,-400000.0625,-13020.990234375,-6262.8798828125,-400000.0625,-18975.689453125,-400000.0625,-5783.990234375,-400000.0625
121.60056710243225,-400000.0625,-13000.009765625,-6243.56005859375,-400000.0625,-18958.380859375,-400000.0625,-5766.009765625,-400000.0625
121.61138892173767,-400000.0625,-12988.8095703125,-6232.8798828125,-400000.0625,-18954.80078125,-400000.0625,-5748.1298828125,-400000.0625
121.64166975021362,-400000.0625,-12997.490234375,-6241.0400390625,-400000.0625,-18961.0,-400000.0625,-5756.47021484375,-400000.0625
121.65028214454651,-400000.0625,-13014.8896484375,-6255.68017578125,-400000.0625,-18968.779296875,-400000.0625,-5772.64013671875,-400000.0625
121.65789937973022,-400000.0625,-13008.9296875,-6251.33984375,-400000.0625,-18965.580078125,-400000.0625,-5769.919921875,-400000.0625
121.67126893997192,-400000.0625,-12992.48046875,-6234.5,-400000.0625,-18951.560546875,-400000.0625,-5750.47021484375,-400000.0625
121.68613386154175,-400000.0625,-12964.8203125,-6212.759765625,-400000.0625,-18934.109375,-400000.0625,-5727.33984375,-400000.0625
121.69712686538696,-400000.0625,-12977.9404296875,-6229.64013671875,-400000.0625,-18948.890625,-400000.0625,-5745.169921875,-400000.0625
121.70759701728821,-400000.0625,-13006.58984375,-6252.72021484375,-400000.0625,-18968.5390625,-400000.0625,-5769.490234375,-400000.0625
121.71830654144287,-400000.0625,-13019.23046875,-6260.009765625,-400000.0625,-18981.509765625,-400000.0625,-5780.75,-400000.0625
121.74886298179626,-400000.0625,-12997.91015625,-6244.66015625,-400000.0625,-18965.9609375,-400000.0625,-5765.06005859375,-400000.0625
121.75688672065735,-400000.0625,-12979.2197265625,-6226.02001953125,-400000.0625,-18949.220703125,-400000.0625,-5740.1201171875,-400000.0625
121.76875591278076,-400000.0625,-12990.759765625,-6236.31982421875,-400000.0625,-18960.669921875,-400000.0625,-5746.93994140625,-400000.0625
121.77819037437439,-400000.0625,-13013.7001953125,-6257.81982421875,-400000.0625,-18979.650390625,-400000.0625,-5774.830078125,-400000.0625
121.7866199016571,-400000.0625,-13012.4599609375,-6258.919921875,-400000.0625,-18979.9296875,-400000.0625,-5768.8701171875,-400000.0625
121.79479002952576,-400000.0625,-12983.419921875,-6233.02978515625,-400000.0625,-18957.4296875,-400000.0625,-5741.93017578125,-400000.0625
121.80579733848572,-400000.0625,-12965.2998046875,-6216.0,-400000.0625,-18941.2109375,-400000.0625,-5729.72021484375,-400000.0625
121.81547164916992,-400000.0625,-12986.4697265625,-6233.5498046875,-400000.0625,-18958.05078125,-400000.0625,-5748.83984375,-400000.0625
121.82320928573608,-400000.0625,-13020.5595703125,-6261.16015625,-400000.0625,-18983.41015625,-400000.0625,-5778.5,-400000.0625
121.85030794143677,-400000.0625,-13023.0400390625,-6264.1201171875,-400000.0625,-18981.4609375,-400000.0625,-5779.7900390625,-400000.0625
121.85781192779541,-400000.0625,-12979.080078125,-6227.77978515625,-400000.0625,-18949.609375,-400000.0625,-5740.830078125,-400000.0625
121.86753058433533,-400000.0625,-12942.83984375,-6191.39990234375,-400000.0625,-18921.7109375,-400000.0625,-5704.02001953125,-400000.0625
121.87627792358398,-400000.0625,-12976.8896484375,-6224.68017578125,-400000.0625,-18948.890625,-400000.0625,-5736.2998046875,-400000.0625
121.88438081741333,-400000.0625,-13026.6201171875,-6267.169921875,-400000.0625,-18990.140625,-400000.0625,-5783.7001953125,-400000.0625
121.89201259613037,-400000.0625,-13024.6201171875,-6264.97021484375,-400000.0625,-18989.1796875,-400000.0625,-5781.1298828125,-400000.0625
121.90143322944641,-400000.0625,-12990.5703125,-6239.7001953125,-400000.0625,-18961.669921875,-400000.0625,-5745.89013671875,-400000.0625
121.91120648384094,-400000.0625,-12968.2099609375,-6220.77001953125,-400000.0625,-18945.98046875,-400000.0625,-5727.9599609375,-400000.0625
121.91911959648132,-400000.0625,-12982.7998046875,-6230.58984375,-400000.0625,-18954.609375,-400000.0625,-5740.1201171875,-400000.0625
121.9266107082367,-400000.0625,-13002.919921875,-6248.0498046875,-400000.0625,-18966.76953125,-400000.0625,-5756.56982421875,-400000.0625
121.95366621017456,-400000.0625,-12997.2998046875,-6243.990234375,-400000.0625,-18962.859375,-400000.0625,-5757.85986328125,-400000.0625
121.96373009681702,-400000.0625,-12970.6904296875,-6222.10986328125,-400000.0625,-18937.490234375,-400000.0625,-5728.91015625,-400000.0625
121.97550868988037,-400000.0625,-12956.5703125,-6207.08984375,-400000.0625,-18934.8203125,-400000.0625,-5714.0400390625,-400000.0625
121.98725891113281,-400000.0625,-12986.759765625,-6233.31005859375,-400000.0625,-18961.48046875,-400000.0625,-5747.990234375,-400000.0625
121.99706196784973,-400000.0625,-13026.8095703125,-6265.830078125,-400000.0625,-18990.759765625,-400000.0625,-5784.56005859375,-400000.0625
122.0085084438324,-400000.0625,-13032.76953125,-6260.2099609375,-400000.0625,-18989.66015625,-400000.0625,-5780.080078125,-400000.0625
122.01901817321777,-400000.0625,-12998.76953125,-6238.89013671875,-400000.0625,-18964.580078125,-400000.0625,-5731.68017578125,-400000.0625
122.03459024429321,-400000.0625,-12973.2099609375,-6234.5,-400000.0625,-18948.509765625,-400000.0625,-5705.8798828125,-400000.0625
122.06988620758057,-400000.0625,-12988.8603515625,-6255.10009765625,-400000.0625,-18954.990234375,-400000.0625,-5714.080078125,-400000.0625
122.0810968875885,-400000.0625,-13026.330078125,-6287.0498046875,-400000.0625,-18972.830078125,-400000.0625,-5736.8798828125,-400000.0625
122.0903332233429,-400000.0625,-13025.8603515625,-6287.47998046875,-400000.0625,-18974.5,-400000.0625,-5728.2900390625,-400000.0625
122.10316777229309,-400000.0625,-13006.400390625,-6279.419921875,-400000.0625,-18967.439453125,-400000.0625,-5707.8798828125,-400000.0625
122.11804127693176,-400000.0625,-12991.0,-6271.7900390625,-400000.0625,-18959.240234375,-400000.0625,-5694.2001953125,-400000.0625
122.14153146743774,-400000.0625,-13017.9404296875,-6295.490234375,-400000.0625,-18970.6796875,-400000.0625,-5710.7900390625,-400000.0625
122.17666172981262,-400000.0625,-13039.4501953125,-6315.22998046875,-400000.0625,-18987.609375,-400000.0625,-5736.8798828125,-400000.0625
122.18657660484314,-400000.0625,-13034.6796875,-6309.83984375,-400000.0625,-18980.7890625,-400000.0625,-5731.2001953125,-400000.0625
122.19702172279358,-400000.0625,-12999.5400390625,-6279.22998046875,-400000.0625,-18949.4609375,-400000.0625,-5693.52978515625,-400000.0625
122.2087025642395,-400000.0625,-12979.75,-6265.259765625,-400000.0625,-18935.439453125,-400000.0625,-5674.509765625,-400000.0625
122.22077679634094,-400000.0625,-12998.4404296875,-6283.85986328125,-400000.0625,-18958.330078125,-400000.0625,-5700.02001953125,-400000.0625
122.23493075370789,-400000.0625,-13026.099609375,-6307.89013671875,-400000.0625,-18976.640625,-400000.0625,-5727.72021484375,-400000.0625
122.24764752388,-400000.0625,-13027.0498046875,-6310.22998046875,-400000.0625,-18980.83984375,-400000.0625,-5726.2001953125,-400000.0625
122.27423071861267,-400000.0625,-13008.1201171875,-6295.77978515625,-400000.0625,-18968.779296875,-400000.0625,-5708.64990234375,-400000.0625
122.28425121307373,-400000.0625,-12990.08984375,-6280.14013671875,-400000.0625,-18950.560546875,-400000.0625,-5691.669921875,-400000.0625
122.29244661331177,-400000.0625,-12998.33984375,-6286.85986328125,-400000.0625,-18955.94921875,-400000.0625,-5700.06005859375,-400000.0625
122.3040177822113,-400000.0625,-13033.1103515625,-6316.18994140625,-400000.0625,-18985.0390625,-400000.0625,-5728.25,-400000.0625
122.31376123428345,-400000.0625,-13038.01953125,-6317.56982421875,-400000.0625,-18990.810546875,-400000.0625,-5732.580078125,-400000.0625
122.32186794281006,-400000.0625,-13003.5400390625,-6291.06005859375,-400000.0625,-18969.970703125,-400000.0625,-5703.64013671875,-400000.0625
122.3377275466919,-400000.0625,-12985.5595703125,-6275.93994140625,-400000.0625,-18953.990234375,-400000.0625,-5687.85986328125,-400000.0625
122.34690356254578,-400000.0625,-13000.73046875,-6287.77001953125,-400000.0625,-18961.150390625,-400000.0625,-5703.5,-400000.0625
122.35507416725159,-400000.0625,-13021.1396484375,-6304.1201171875,-400000.0625,-18973.880859375,-400000.0625,-5729.580078125,-400000.0625
122.3791892528534,-400000.0625,-13024.3798828125,-6305.169921875,-400000.0625,-18971.490234375,-400000.0625,-5727.580078125,-400000.0625
122.3874659538269,-400000.0625,-12995.91015625,-6282.27978515625,-400000.0625,-18958.859375,-400000.0625,-5700.02001953125,-400000.0625
122.39848780632019,-400000.0625,-12989.5703125,-6278.08984375,-400000.0625,-18956.470703125,-400000.0625,-5695.68017578125,-400000.0625
122.4089024066925,-400000.0625,-12998.9599609375,-6286.0498046875,-400000.0625,-18957.240234375,-400000.0625,-5697.43994140625,-400000.0625
122.41736507415771,-400000.0625,-13023.330078125,-6308.3701171875,-400000.0625,-18975.0703125,-400000.0625,-5720.56982421875,-400000.0625
122.42506957054138,-400000.0625,-13028.1904296875,-6310.509765625,-400000.0625,-18983.560546875,-400000.0625,-5728.91015625,-400000.0625
122.44556641578674,-400000.0625,-13009.1201171875,-6297.06005859375,-400000.0625,-18970.2109375,-400000.0625,-5707.7900390625,-400000.0625
122.45592832565308,-400000.0625,-12991.9501953125,-6281.22998046875,-400000.0625,-18952.75,-400000.0625,-5687.2900390625,-400000.0625
122.48212933540344,-400000.0625,-12998.919921875,-6287.6201171875,-400000.0625,-18959.51953125,-400000.0625,-5696.72998046875,-400000.0625
122.49059462547302,-400000.0625,-13022.849609375,-6307.7001953125,-400000.0625,-18981.650390625,-400000.0625,-5720.81005859375,-400000.0625
122.50155663490295,-400000.0625,-13020.7099609375,-6305.97998046875,-400000.0625,-18980.310546875,-400000.0625,-5720.89990234375,-400000.0625
122.51139378547668,-400000.0625,-13003.6796875,-6293.39013671875,-400000.0625,-18973.16015625,-400000.0625,-5706.60009765625,-400000.0625
122.52023243904114,-400000.0625,-12993.669921875,-6281.66015625,-400000.0625,-18963.580078125,-400000.0625,-5691.39013671875,-400000.0625
122.52910614013672,-400000.0625,-13005.740234375,-6294.43994140625,-400000.0625,-18972.73046875,-400000.0625,-5704.4501953125,-400000.0625
122.54043388366699,-400000.0625,-13024.6201171875,-6308.7001953125,-400000.0625,-18982.26953125,-400000.0625,-5723.43017578125,-400000.0625
122.55153250694275,-400000.0625,-13022.8095703125,-6306.1201171875,-400000.0625,-18976.310546875,-400000.0625,-5715.47021484375,-400000.0625
122.56048226356506,-400000.0625,-12997.25,-6283.47021484375,-400000.0625,-18962.0,-400000.0625,-5689.0,-400000.0625
122.58750629425049,-400000.0625,-12981.7998046875,-6267.2099609375,-400000.0625,-18950.0390625,-400000.0625,-5675.89013671875,-400000.0625
122.59837412834167,-400000.0625,-12999.25,-6284.0,-400000.0625,-18960.2890625,-400000.0625,-5692.580078125,-400000.0625
122.61074376106262,-400000.0625,-13029.669921875,-6311.75,-400000.0625,-18982.7890625,-400000.0625,-5718.22998046875,-400000.0625
122.62176322937012,-400000.0625,-13033.009765625,-6317.08984375,-400000.0625,-18985.80078125,-400000.0625,-5725.47998046875,-400000.0625
122.63852000236511,-400000.0625,-13009.7900390625,-6299.2099609375,-400000.0625,-18968.349609375,-400000.0625,-5697.8701171875,-400000.0625
122.65031814575195,-400000.0625,-12987.1396484375,-6277.31982421875,-400000.0625,-18950.560546875,-400000.0625,-5673.83984375,-400000.0625
122.65845036506653,-400000.0625,-13000.1103515625,-6287.91015625,-400000.0625,-18963.390625,-400000.0625,-5692.91015625,-400000.0625
122.67086863517761,-400000.0625,-13025.2900390625,-6306.97998046875,-400000.0625,-18980.69921875,-400000.0625,-5716.31982421875,-400000.0625
122.7005627155304,-400000.0625,-13035.25,-6315.7998046875,-400000.0625,-18989.08984375,-400000.0625,-5724.14013671875,-400000.0625
122.71127033233643,-400000.0625,-13008.4501953125,-6294.68017578125,-400000.0625,-18969.73046875,-400000.0625,-5698.97021484375,-400000.0625
122.72009205818176,-400000.0625,-12987.759765625,-6276.89013671875,-400000.0625,-18955.419921875,-400000.0625,-5677.89013671875,-400000.0625
122.7318594455719,-400000.0625,-13003.58984375,-6289.2900390625,-400000.0625,-18961.4296875,-400000.0625,-5690.91015625,-400000.0625
122.74483728408813,-400000.0625,-13024.4296875,-6307.169921875,-400000.0625,-18984.69921875,-400000.0625,-5716.66015625,-400000.0625
122.75315475463867,-400000.0625,-13023.51953125,-6304.06982421875,-400000.0625,-18983.560546875,-400000.0625,-5717.7099609375,-400000.0625
122.76141285896301,-400000.0625,-12994.6201171875,-6278.08984375,-400000.0625,-18956.5703125,-400000.0625,-5689.9599609375,-400000.0625
122.77213215827942,-400000.0625,-12975.650390625,-6265.2099609375,-400000.0625,-18941.359375,-400000.0625,-5666.919921875,-400000.0625
122.79411458969116,-400000.0625,-12979.3203125,-6269.31005859375,-400000.0625,-18945.98046875,-400000.0625,-5674.5498046875,-400000.0625
122.80376601219177,-400000.0625,-13009.6904296875,-6293.8701171875,-400000.0625,-18969.490234375,-400000.0625,-5705.39990234375,-400000.0625
122.81279969215393,-400000.0625,-13030.099609375,-6311.509765625,-400000.0625,-18986.80078125,-400000.0625,-5720.0,-400000.0625
122.82084465026855,-400000.0625,-13006.259765625,-6290.81982421875,-400000.0625,-18975.640625,-400000.0625,-5694.33984375,-400000.0625
122.83117294311523,-400000.0625,-12988.3798828125,-6277.18017578125,-400000.0625,-18961.380859375,-400000.0625,-5680.60986328125,-400000.0625
122.84363102912903,-400000.0625,-12995.33984375,-6282.7099609375,-400000.0625,-18960.720703125,-400000.0625,-5688.52001953125,-400000.0625
122.85216784477234,-400000.0625,-13018.08984375,-6302.7900390625,-400000.0625,-18972.73046875,-400000.0625,-5706.1201171875,-400000.0625
122.86012363433838,-400000.0625,-13022.0400390625,-6298.4501953125,-400000.0625,-18976.7890625,-400000.0625,-5703.8798828125,-400000.0625
122.87162828445435,-400000.0625,-12985.4697265625,-6269.06982421875,-400000.0625,-18956.189453125,-400000.0625,-5683.56982421875,-400000.0625
122.88112616539001,-400000.0625,-12967.7802734375,-6257.919921875,-400000.0625,-18948.41015625,-400000.0625,-5688.0,-400000.0625
122.90632510185242,-400000.0625,-12979.0302734375,-6264.02001953125,-400000.0625,-18959.810546875,-400000.0625,-5717.60986328125,-400000.0625
122.91459822654724,-400000.0625,-13003.16015625,-6277.75,-400000.0625,-18974.5,-400000.0625,-5747.3701171875,-400000.0625
122.92322897911072,-400000.0625,-12995.7197265625,-6264.740234375,-400000.0625,-18967.390625,-400000.0625,-5746.89013671875,-400000.0625
122.93314933776855,-400000.0625,-12958.0,-6228.830078125,-400000.0625,-18936.349609375,-400000.0625,-5725.43017578125,-400000.0625
122.94341278076172,-400000.0625,-12947.26953125,-6210.60986328125,-400000.0625,-18943.220703125,-400000.0625,-5723.43017578125,-400000.0625
122.95285892486572,-400000.0625,-12966.009765625,-6221.9599609375,-400000.0625,-18958.279296875,-400000.0625,-5744.7900390625,-400000.0625
122.96122717857361,-400000.0625,-12982.4697265625,-6233.740234375,-400000.0625,-18969.109375,-400000.0625,-5769.16015625,-400000.0625
122.971670627594,-400000.0625,-12984.5595703125,-6230.16015625,-400000.0625,-18967.869140625,-400000.0625,-5775.64013671875,-400000.0625
122.9817123413086,-400000.0625,-12964.2998046875,-6212.47021484375,-400000.0625,-18960.529296875,-400000.0625,-5761.580078125,-400000.0625
123.00935673713684,-400000.0625,-12955.330078125,-6203.7998046875,-400000.0625,-18952.1796875,-400000.0625,-5749.509765625,-400000.0625
123.01859855651855,-400000.0625,-12965.3896484375,-6217.240234375,-400000.0625,-18959.140625,-400000.0625,-5764.52978515625,-400000.0625
123.0259382724762,-400000.0625,-12986.08984375,-6232.1201171875,-400000.0625,-18964.9609375,-400000.0625,-5781.509765625,-400000.0625
123.03582644462585,-400000.0625,-12984.51953125,-6225.919921875,-400000.0625,-18960.240234375,-400000.0625,-5773.2099609375,-400000.0625
123.04492592811584,-400000.0625,-12966.0595703125,-6212.6201171875,-400000.0625,-18955.609375,-400000.0625,-5758.669921875,-400000.0625
123.05292797088623,-400000.0625,-12948.08984375,-6195.740234375,-400000.0625,-18943.650390625,-400000.0625,-5743.5,-400000.0625
123.06179285049438,-400000.0625,-12955.759765625,-6202.31982421875,-400000.0625,-18944.4609375,-400000.0625,-5748.080078125,-400000.0625
123.07172894477844,-400000.0625,-12984.51953125,-6231.02001953125,-400000.0625,-18959.2890625,-400000.0625,-5774.06982421875,-400000.0625
123.08152174949646,-400000.0625,-12990.51953125,-6234.68994140625,-400000.0625,-18971.640625,-400000.0625,-5778.89013671875,-400000.0625
123.08892488479614,-400000.0625,-12973.1201171875,-6216.72021484375,-400000.0625,-18962.76953125,-400000.0625,-5756.240234375,-400000.0625
123.11944961547852,-400000.0625,-12960.76953125,-6208.08984375,-400000.0625,-18951.80078125,-400000.0625,-5745.97998046875,-400000.0625
123.13444447517395,-400000.0625,-12976.169921875,-6221.33984375,-400000.0625,-18961.380859375,-400000.0625,-5761.81005859375,-400000.0625
123.14775252342224,-400000.0625,-13001.0595703125,-6241.18017578125,-400000.0625,-18978.880859375,-400000.0625,-5783.89013671875,-400000.0625
123.15611553192139,-400000.0625,-12996.9599609375,-6238.64990234375,-400000.0625,-18975.119140625,-400000.0625,-5782.080078125,-400000.0625
123.16809391975403,-400000.0625,-12961.8203125,-6207.60986328125,-400000.0625,-18947.41015625,-400000.0625,-5748.60986328125,-400000.0625
123.18048334121704,-400000.0625,-12942.509765625,-6189.77978515625,-400000.0625,-18935.830078125,-400000.0625,-5728.47998046875,-400000.0625
123.18883156776428,-400000.0625,-12961.580078125,-6208.27978515625,-400000.0625,-18948.650390625,-400000.0625,-5742.7900390625,-400000.0625
123.1996557712555,-400000.0625,-12990.1396484375,-6232.7900390625,-400000.0625,-18963.91015625,-400000.0625,-5772.2099609375,-400000.0625
123.22561717033386,-400000.0625,-12991.6201171875,-6232.93017578125,-400000.0625,-18968.19921875,-400000.0625,-5771.35009765625,-400000.0625
123.23705816268921,-400000.0625,-12976.599609375,-6221.39013671875,-400000.0625,-18962.91015625,-400000.0625,-5754.56982421875,-400000.0625
123.25308084487915,-400000.0625,-12967.919921875,-6214.0,-400000.0625,-18958.859375,-400000.0625,-5746.3701171875,-400000.0625
123.26275324821472,-400000.0625,-12972.400390625,-6216.47998046875,-400000.0625,-18955.51953125,-400000.0625,-5752.89990234375,-400000.0625
123.27423238754272,-400000.0625,-13000.2998046875,-6240.7001953125,-400000.0625,-18969.919921875,-400000.0625,-5774.5498046875,-400000.0625
123.28406858444214,-400000.0625,-13005.5400390625,-6247.240234375,-400000.0625,-18975.310546875,-400000.0625,-5776.02001953125,-400000.0625
123.29195308685303,-400000.0625,-12972.169921875,-6217.39013671875,-400000.0625,-18948.83984375,-400000.0625,-5751.56005859375,-400000.0625
123.30807709693909,-400000.0625,-12943.509765625,-6190.2998046875,-400000.0625,-18933.580078125,-400000.0625,-5725.14990234375,-400000.0625
123.33620190620422,-400000.0625,-12951.66015625,-6195.2099609375,-400000.0625,-18943.740234375,-400000.0625,-5732.580078125,-400000.0625
123.34707975387573,-400000.0625,-12987.849609375,-6226.64013671875,-400000.0625,-18968.390625,-400000.0625,-5764.9599609375,-400000.0625
123.35554218292236,-400000.0625,-12997.6796875,-6236.60009765625,-400000.0625,-18971.30078125,-400000.0625,-5769.10986328125,-400000.0625
123.36708188056946,-400000.0625,-12974.83984375,-6216.3798828125,-400000.0625,-18953.75,-400000.0625,-5748.22021484375,-400000.0625
123.38094639778137,-400000.0625,-12958.48046875,-6206.1298828125,-400000.0625,-18949.80078125,-400000.0625,-5735.06005859375,-400000.0625
123.39060807228088,-400000.0625,-12979.26953125,-6222.68017578125,-400000.0625,-18963.05078125,-400000.0625,-5753.7099609375,-400000.0625
123.40543055534363,-400000.0625,-13008.5498046875,-6248.08984375,-400000.0625,-18979.98046875,-400000.0625,-5777.7900390625,-400000.0625
123.41634941101074,-400000.0625,-13002.01953125,-6245.66015625,-400000.0625,-18973.73046875,-400000.0625,-5773.4501953125,-400000.0625
123.44485330581665,-400000.0625,-12976.3603515625,-6222.25,-400000.0625,-18953.51953125,-400000.0625,-5744.080078125,-400000.0625
123.45418787002563,-400000.0625,-12953.900390625,-6197.740234375,-400000.0625,-18943.220703125,-400000.0625,-5720.9501953125,-400000.0625
123.46552181243896,-400000.0625,-12961.7197265625,-6203.7001953125,-400000.0625,-18952.7109375,-400000.0625,-5729.6298828125,-400000.0625
123.47919702529907,-400000.0625,-12996.8701171875,-6236.1201171875,-400000.0625,-18972.400390625,-400000.0625,-5759.669921875,-400000.0625
123.4900450706482,-400000.0625,-12996.8203125,-6237.35986328125,-400000.0625,-18968.16015625,-400000.0625,-5764.43994140625,-400000.0625
123.50378274917603,-400000.0625,-12966.9697265625,-6210.27978515625,-400000.0625,-18948.080078125,-400000.0625,-5729.39013671875,-400000.0625
123.51630735397339,-400000.0625,-12947.7001953125,-6195.39990234375,-400000.0625,-18936.400390625,-400000.0625,-5712.89013671875,-400000.0625
123.52511143684387,-400000.0625,-12972.6396484375,-6220.39013671875,-400000.0625,-18958.51953125,-400000.0625,-5738.77978515625,-400000.0625
123.55412459373474,-400000.0625,-13003.73046875,-6245.7998046875,-400000.0625,-18980.599609375,-400000.0625,-5764.77001953125,-400000.0625
123.56355357170105,-400000.0625,-13005.1201171875,-6246.18994140625,-400000.0625,-18988.51953125,-400000.0625,-5768.25,-400000.0625
123.57573342323303,-400000.0625,-12972.9296875,-6220.06005859375,-400000.0625,-18962.91015625,-400000.0625,-5734.39990234375,-400000.0625
123.58592176437378,-400000.0625,-12945.7001953125,-6195.31005859375,-400000.0625,-18935.869140625,-400000.0625,-5712.64990234375,-400000.0625
123.59831881523132,-400000.0625,-12964.2998046875,-6213.9501953125,-400000.0625,-18945.7890625,-400000.0625,-5731.2998046875,-400000.0625
123.60909652709961,-400000.0625,-13001.9697265625,-6248.18994140625,-400000.0625,-18982.75,-400000.0625,-5761.43017578125,-400000.0625
123.61801314353943,-400000.0625,-13005.5400390625,-6243.0400390625,-400000.0625,-18979.119140625,-400000.0625,-5756.759765625,-400000.0625
123.62769794464111,-400000.0625,-12969.400390625,-6214.2900390625,-400000.0625,-18946.98046875,-400000.0625,-5724.6201171875,-400000.0625
123.66189479827881,-400000.0625,-12951.900390625,-6201.22021484375,-400000.0625,-18939.119140625,-400000.0625,-5712.4599609375,-400000.0625
123.67253470420837,-400000.0625,-12970.400390625,-6215.56982421875,-400000.0625,-18960.759765625,-400000.0625,-5732.2001953125,-400000.0625
123.68444991111755,-400000.0625,-12992.240234375,-6234.169921875,-400000.0625,-18973.349609375,-400000.0625,-5754.18994140625,-400000.0625
123.69703650474548,-400000.0625,-12994.150390625,-6236.41015625,-400000.0625,-18967.150390625,-400000.0625,-5754.08984375,-400000.0625
123.71207451820374,-400000.0625,-12978.650390625,-6221.68017578125,-400000.0625,-18955.759765625,-400000.0625,-5734.490234375,-400000.0625
123.7209939956665,-400000.0625,-12958.33984375,-6208.0400390625,-400000.0625,-18942.599609375,-400000.0625,-5720.43017578125,-400000.0625
123.73098182678223,-400000.0625,-12980.1796875,-6226.490234375,-400000.0625,-18959.91015625,-400000.0625,-5736.8798828125,-400000.0625
123.76290655136108,-400000.0625,-13003.6396484375,-6245.47021484375,-400000.0625,-18974.259765625,-400000.0625,-5760.85986328125,-400000.0625
123.7725567817688,-400000.0625,-12995.6298828125,-6237.7001953125,-400000.0625,-18969.16015625,-400000.0625,-5755.56982421875,-400000.0625
123.78103399276733,-400000.0625,-12971.3603515625,-6219.240234375,-400000.0625,-18950.609375,-400000.0625,-5731.8701171875,-400000.0625
123.78899693489075,-400000.0625,-12965.25,-6209.9501953125,-400000.0625,-18950.0390625,-400000.0625,-5719.3798828125,-400000.0625
123.80000853538513,-400000.0625,-12974.5,-6219.10009765625,-400000.0625,-18959.759765625,-400000.0625,-5728.669921875,-400000.0625
123.81173348426819,-400000.0625,-12991.8095703125,-6238.18017578125,-400000.0625,-18968.25,-400000.0625,-5749.7001953125,-400000.0625
123.82065963745117,-400000.0625,-13001.0595703125,-6245.22998046875,-400000.0625,-18980.119140625,-400000.0625,-5761.9599609375,-400000.0625
123.83064889907837,-400000.0625,-12974.4501953125,-6217.77001953125,-400000.0625,-18960.669921875,-400000.0625,-5728.81982421875,-400000.0625
123.84152746200562,-400000.0625,-12955.8603515625,-6202.02978515625,-400000.0625,-18942.640625,-400000.0625,-5708.41015625,-400000.0625
123.86770606040955,-400000.0625,-12975.98046875,-6221.6298828125,-400000.0625,-18954.900390625,-400000.0625,-5731.77001953125,-400000.0625
123.8769941329956,-400000.0625,-13000.1103515625,-6242.85009765625,-400000.0625,-18974.400390625,-400000.0625,-5753.22998046875,-400000.0625
123.8856885433197,-400000.0625,-12995.2001953125,-6238.080078125,-400000.0625,-18975.880859375,-400000.0625,-5745.22021484375,-400000.0625
123.89537978172302,-400000.0625,-12970.7802734375,-6213.240234375,-400000.0625,-18953.560546875,-400000.0625,-5718.7998046875,-400000.0625
123.90599203109741,-400000.0625,-12950.7099609375,-6195.16015625,-400000.0625,-18933.490234375,-400000.0625,-5697.10986328125,-400000.0625
123.91513347625732,-400000.0625,-12969.5,-6211.52001953125,-400000.0625,-18956.0390625,-400000.0625,-5714.0400390625,-400000.0625
123.92319941520691,-400000.0625,-13009.1201171875,-6246.89990234375,-400000.0625,-18984.69921875,-400000.0625,-5754.47021484375,-400000.0625
123.93275094032288,-400000.0625,-13008.7900390625,-6249.52001953125,-400000.0625,-18980.119140625,-400000.0625,-5759.52978515625,-400000.0625
123.94280576705933,-400000.0625,-12974.4501953125,-6220.52978515625,-400000.0625,-18957.0,-400000.0625,-5725.52978515625,-400000.0625
123.96670460700989,-400000.0625,-12954.48046875,-6202.64990234375,-400000.0625,-18943.259765625,-400000.0625,-5703.68994140625,-400000.0625
123.97540760040283,-400000.0625,-12971.259765625,-6216.0,-400000.0625,-18952.900390625,-400000.0625,-5715.31982421875,-400000.0625
123.9848120212555,-400000.0625,-12992.099609375,-6236.740234375,-400000.0625,-18964.33984375,-400000.0625,-5741.06982421875,-400000.0625
123.99723052978516,-400000.0625,-13004.4501953125,-6247.9501953125,-400000.0625,-18980.220703125,-400000.0625,-5748.75,-400000.0625
124.00824022293091,-400000.0625,-12979.41015625,-6223.43994140625,-400000.0625,-18960.33984375,-400000.0625,-5725.91015625,-400000.0625
124.01847982406616,-400000.0625,-12961.33984375,-6208.0400390625,-400000.0625,-18947.130859375,-400000.0625,-5707.83984375,-400000.0625
124.02680397033691,-400000.0625,-12967.16015625,-6211.81005859375,-400000.0625,-18948.599609375,-400000.0625,-5710.22021484375,-400000.0625
124.0379683971405,-400000.0625,-12998.4404296875,-6242.85009765625,-400000.0625,-18972.349609375,-400000.0625,-5743.22021484375,-400000.0625
124.04904913902283,-400000.0625,-13003.8798828125,-6251.3798828125,-400000.0625,-18973.779296875,-400000.0625,-5748.509765625,-400000.0625
124.0764696598053,-400000.0625,-12974.650390625,-6225.25,-400000.0625,-18953.0390625,-400000.0625,-5715.56005859375,-400000.0625
124.08642864227295,-400000.0625,-12962.5302734375,-6215.0,-400000.0625,-18944.55078125,-400000.0625,-5701.16015625,-400000.0625
124.09697127342224,-400000.0625,-12987.3798828125,-6236.4599609375,-400000.0625,-18964.8203125,-400000.0625,-5724.33984375,-400000.0625
124.10747051239014,-400000.0625,-13011.41015625,-6255.10009765625,-400000.0625,-18987.1796875,-400000.0625,-5753.08984375,-400000.0625
124.11948537826538,-400000.0625,-13004.7802734375,-6251.33984375,-400000.0625,-18985.369140625,-400000.0625,-5749.419921875,-400000.0625
124.13550591468811,-400000.0625,-12975.26953125,-6222.580078125,-400000.0625,-18960.380859375,-400000.0625,-5714.60986328125,-400000.0625
124.14835977554321,-400000.0625,-12947.509765625,-6198.5498046875,-400000.0625,-18937.58984375,-400000.0625,-5689.669921875,-400000.0625
124.15674209594727,-400000.0625,-12968.7802734375,-6219.47998046875,-400000.0625,-18948.029296875,-400000.0625,-5709.89013671875,-400000.0625
124.1836473941803,-400000.0625,-13000.58984375,-6248.3798828125,-400000.0625,-18971.25,-400000.0625,-5737.5,-400000.0625
124.19263863563538,-400000.0625,-13000.919921875,-6250.47998046875,-400000.0625,-18970.830078125,-400000.0625,-5735.64013671875,-400000.0625
124.20401239395142,-400000.0625,-12976.8896484375,-6230.259765625,-400000.0625,-18952.279296875,-400000.0625,-5710.41015625,-400000.0625
124.21325063705444,-400000.0625,-12967.16015625,-6219.240234375,-400000.0625,-18953.7109375,-400000.0625,-5698.5400390625,-400000.0625
124.22147917747498,-400000.0625,-12982.66015625,-6232.60009765625,-400000.0625,-18967.19921875,-400000.0625,-5716.47021484375,-400000.0625
124.2309045791626,-400000.0625,-13009.599609375,-6255.25,-400000.0625,-18982.130859375,-400000.0625,-5740.830078125,-400000.0625
124.24163794517517,-400000.0625,-13007.2099609375,-6253.9599609375,-400000.0625,-18982.130859375,-400000.0625,-5741.4501953125,-400000.0625
124.25275373458862,-400000.0625,-12970.259765625,-6222.06005859375,-400000.0625,-18957.810546875,-400000.0625,-5704.02001953125,-400000.0625
124.26216387748718,-400000.0625,-12947.6103515625,-6202.56005859375,-400000.0625,-18941.44921875,-400000.0625,-5680.7001953125,-400000.0625
124.2914171218872,-400000.0625,-12971.9697265625,-6224.16015625,-400000.0625,-18953.66015625,-400000.0625,-5700.77978515625,-400000.0625
124.30195999145508,-400000.0625,-13006.400390625,-6254.0498046875,-400000.0625,-18976.830078125,-400000.0625,-5729.39013671875,-400000.0625
124.31411004066467,-400000.0625,-12998.8701171875,-6245.60986328125,-400000.0625,-18976.400390625,-400000.0625,-5721.240234375,-400000.0625
124.32315039634705,-400000.0625,-12975.5498046875,-6226.8701171875,-400000.0625,-18963.150390625,-400000.0625,-5698.5400390625,-400000.0625
124.33591508865356,-400000.0625,-12958.33984375,-6213.0,-400000.0625,-18945.650390625,-400000.0625,-5687.08984375,-400000.0625
124.3457555770874,-400000.0625,-12973.3603515625,-6229.5,-400000.0625,-18954.369140625,-400000.0625,-5704.35986328125,-400000.0625
124.35419201850891,-400000.0625,-12999.5400390625,-6253.91015625,-400000.0625,-18985.369140625,-400000.0625,-5731.77001953125,-400000.0625
124.36350870132446,-400000.0625,-13001.6298828125,-6252.91015625,-400000.0625,-18986.509765625,-400000.0625,-5730.10986328125,-400000.0625
124.3880786895752,-400000.0625,-12968.9697265625,-6222.6298828125,-400000.0625,-18957.240234375,-400000.0625,-5700.64013671875,-400000.0625
124.39739227294922,-400000.0625,-12947.849609375,-6206.080078125,-400000.0625,-18932.060546875,-400000.0625,-5678.56005859375,-400000.0625
124.4093062877655,-400000.0625,-12967.7802734375,-6227.2099609375,-400000.0625,-18947.41015625,-400000.0625,-5699.35009765625,-400000.0625
124.42054271697998,-400000.0625,-13006.259765625,-6258.580078125,-400000.0625,-18982.560546875,-400000.0625,-5733.5400390625,-400000.0625
124.4308569431305,-400000.0625,-13006.16015625,-6257.33984375,-400000.0625,-18983.650390625,-400000.0625,-5728.91015625,-400000.0625
124.44203090667725,-400000.0625,-12971.5,-6229.31005859375,-400000.0625,-18956.51953125,-400000.0625,-5694.52978515625,-400000.0625
124.45316052436829,-400000.0625,-12953.240234375,-6212.52001953125,-400000.0625,-18950.66015625,-400000.0625,-5680.85009765625,-400000.0625
124.46630239486694,-400000.0625,-12968.349609375,-6225.919921875,-400000.0625,-18956.66015625,-400000.0625,-5700.72998046875,-400000.0625
124.49231481552124,-400000.0625,-13002.919921875,-6254.81982421875,-400000.0625,-18975.58984375,-400000.0625,-5726.91015625,-400000.0625
124.50617051124573,-400000.0625,-13009.41015625,-6260.72998046875,-400000.0625,-18979.650390625,-400000.0625,-5732.10986328125,-400000.0625
124.51793479919434,-400000.0625,-12981.23046875,-6234.169921875,-400000.0625,-18963.630859375,-400000.0625,-5703.740234375,-400000.0625
124.5292661190033,-400000.0625,-12956.8095703125,-6215.669921875,-400000.0625,-18945.359375,-400000.0625,-5681.75,-400000.0625
124.54004263877869,-400000.0625,-12968.58984375,-6227.35009765625,-400000.0625,-18951.939453125,-400000.0625,-5694.81982421875,-400000.0625
124.5492513179779,-400000.0625,-12998.8701171875,-6253.43017578125,-400000.0625,-18977.689453125,-400000.0625,-5723.18994140625,-400000.0625
124.55768036842346,-400000.0625,-12999.8203125,-6253.0498046875,-400000.0625,-18979.029296875,-400000.0625,-5718.27978515625,-400000.0625
124.57152462005615,-400000.0625,-12970.6396484375,-6226.919921875,-400000.0625,-18953.80078125,-400000.0625,-5693.25,-400000.0625
124.60083484649658,-400000.0625,-12949.900390625,-6207.66015625,-400000.0625,-18935.2109375,-400000.0625,-5675.509765625,-400000.0625
124.61069822311401,-400000.0625,-12969.2998046875,-6225.77978515625,-400000.0625,-18948.69921875,-400000.0625,-5695.06005859375,-400000.0625
124.62081146240234,-400000.0625,-12989.6201171875,-6243.75,-400000.0625,-18964.580078125,-400000.0625,-5718.66015625,-400000.0625
124.63069653511047,-400000.0625,-13001.0595703125,-6254.77001953125,-400000.0625,-18972.830078125,-400000.0625,-5726.52978515625,-400000.0625
124.64217805862427,-400000.0625,-12974.7900390625,-6236.509765625,-400000.0625,-18958.380859375,-400000.0625,-5702.4501953125,-400000.0625
124.65453910827637,-400000.0625,-12960.7197265625,-6219.240234375,-400000.0625,-18948.75,-400000.0625,-5681.27978515625,-400000.0625
124.6643500328064,-400000.0625,-12979.5595703125,-6234.4599609375,-400000.0625,-18964.8203125,-400000.0625,-5696.2998046875,-400000.0625
124.67562866210938,-400000.0625,-12993.6201171875,-6252.72021484375,-400000.0625,-18977.740234375,-400000.0625,-5722.81005859375,-400000.0625
124.71086621284485,-400000.0625,-12992.33984375,-6251.0498046875,-400000.0625,-18969.009765625,-400000.0625,-5720.52001953125,-400000.0625
124.72019863128662,-400000.0625,-12964.2998046875,-6226.64013671875,-400000.0625,-18950.3203125,-400000.0625,-5692.47998046875,-400000.0625
124.73000001907349,-400000.0625,-12948.2802734375,-6215.0498046875,-400000.0625,-18945.650390625,-400000.0625,-5676.31982421875,-400000.0625
124.74159836769104,-400000.0625,-12967.919921875,-6229.39990234375,-400000.0625,-18958.859375,-400000.0625,-5689.669921875,-400000.0625
124.75144267082214,-400000.0625,-12992.669921875,-6251.240234375,-400000.0625,-18968.779296875,-400000.0625,-5715.080078125,-400000.0625
124.75942420959473,-400000.0625,-12995.7197265625,-6252.0,-400000.0625,-18968.16015625,-400000.0625,-5713.27001953125,-400000.0625
124.77146601676941,-400000.0625,-12969.919921875,-6228.2998046875,-400000.0625,-18956.470703125,-400000.0625,-5687.0498046875,-400000.0625
124.78144764900208,-400000.0625,-12950.9501953125,-6210.66015625,-400000.0625,-18938.259765625,-400000.0625,-5672.5498046875,-400000.0625
124.80930805206299,-400000.0625,-12970.9296875,-6232.68994140625,-400000.0625,-18960.91015625,-400000.0625,-5695.39013671875,-400000.0625
124.82000851631165,-400000.0625,-13001.2998046875,-6259.009765625,-400000.0625,-18982.369140625,-400000.0625,-5721.52001953125,-400000.0625
124.83024907112122,-400000.0625,-12997.91015625,-6257.77001953125,-400000.0625,-18975.119140625,-400000.0625,-5717.7099609375,-400000.0625
124.84151482582092,-400000.0625,-12964.919921875,-6229.4501953125,-400000.0625,-18953.609375,-400000.0625,-5681.22998046875,-400000.0625
124.8523759841919,-400000.0625,-12952.0,-6215.91015625,-400000.0625,-18940.740234375,-400000.0625,-5668.2099609375,-400000.0625
124.86169719696045,-400000.0625,-12971.0703125,-6233.169921875,-400000.0625,-18952.939453125,-400000.0625,-5685.52001953125,-400000.0625
124.87512826919556,-400000.0625,-12990.08984375,-6251.43017578125,-400000.0625,-18968.6796875,-400000.0625,-5711.31982421875,-400000.0625
124.88487839698792,-400000.0625,-12989.3798828125,-6252.10009765625,-400000.0625,-18968.919921875,-400000.0625,-5714.22998046875,-400000.0625
124.9157567024231,-400000.0625,-12965.2998046875,-6227.259765625,-400000.0625,-18957.0390625,-400000.0625,-5686.9501953125,-400000.0625
124.92424750328064,-400000.0625,-12952.419921875,-6215.3798828125,-400000.0625,-18946.220703125,-400000.0625,-5668.830078125,-400000.0625
124.93465447425842,-400000.0625,-12972.169921875,-6235.89013671875,-400000.0625,-18964.91015625,-400000.0625,-5691.580078125,-400000.0625
124.94513034820557,-400000.0625,-13006.400390625,-6265.2099609375,-400000.0625,-18986.0390625,-400000.0625,-5722.759765625,-400000.0625
124.95433402061462,-400000.0625,-12997.5302734375,-6257.580078125,-400000.0625,-18972.2109375,-400000.0625,-5715.89990234375,-400000.0625
124.96453166007996,-400000.0625,-12958.91015625,-6222.919921875,-400000.0625,-18944.119140625,-400000.0625,-5679.66015625,-400000.0625
124.97580456733704,-400000.0625,-12940.2197265625,-6206.60986328125,-400000.0625,-18931.9609375,-400000.0625,-5659.43994140625,-400000.0625
124.98523950576782,-400000.0625,-12964.2998046875,-6227.77978515625,-400000.0625,-18948.80078125,-400000.0625,-5682.66015625,-400000.0625
125.01440024375916,-400000.0625,-12989.240234375,-6247.759765625,-400000.0625,-18969.25,-400000.0625,-5705.169921875,-400000.0625
125.0236587524414,-400000.0625,-12987.330078125,-6246.9501953125,-400000.0625,-18973.970703125,-400000.0625,-5706.06982421875,-400000.0625
125.03303074836731,-400000.0625,-12965.4404296875,-6228.8798828125,-400000.0625,-18960.05078125,-400000.0625,-5682.22998046875,-400000.0625
125.04172468185425,-400000.0625,-12951.4697265625,-6218.52978515625,-400000.0625,-18946.650390625,-400000.0625,-5670.97998046875,-400000.0625
125.05026173591614,-400000.0625,-12970.5400390625,-6235.22021484375,-400000.0625,-18955.94921875,-400000.0625,-5685.85009765625,-400000.0625
125.05791473388672,-400000.0625,-13000.8203125,-6261.02001953125,-400000.0625,-18974.880859375,-400000.0625,-5713.7998046875,-400000.0625
125.07134890556335,-400000.0625,-13001.58984375,-6259.2998046875,-400000.0625,-18974.970703125,-400000.0625,-5712.22021484375,-400000.0625
125.08224701881409,-400000.0625,-12967.400390625,-6230.77978515625,-400000.0625,-18956.619140625,-400000.0625,-5678.60986328125,-400000.0625
125.0912024974823,-400000.0625,-12949.51953125,-6215.18994140625,-400000.0625,-18944.83984375,-400000.0625,-5663.6298828125,-400000.0625
125.12615847587585,-400000.0625,-12967.830078125,-6231.02001953125,-400000.0625,-18955.330078125,-400000.0625,-5678.64990234375,-400000.0625
125.13997077941895,-400000.0625,-12994.4296875,-6252.240234375,-400000.0625,-18968.16015625,-400000.0625,-5705.740234375,-400000.0625
125.15044331550598,-400000.0625,-12987.330078125,-6246.85009765625,-400000.0625,-18964.25,-400000.0625,-5699.8701171875,-400000.0625
125.15892839431763,-400000.0625,-12963.73046875,-6226.830078125,-400000.0625,-18951.609375,-400000.0625,-5677.31982421875,-400000.0625
125.1755940914154,-400000.0625,-12958.240234375,-6220.14990234375,-400000.0625,-18950.890625,-400000.0625,-5666.35009765625,-400000.0625
125.18669843673706,-400000.0625,-12978.599609375,-6238.41015625,-400000.0625,-18958.140625,-400000.0625,-5681.93994140625,-400000.0625
125.20352387428284,-400000.0625,-12997.099609375,-6258.5400390625,-400000.0625,-18970.830078125,-400000.0625,-5707.5498046875,-400000.0625
125.27441668510437,-400000.0625,-12989.330078125,-6248.85986328125,-400000.0625,-18965.33984375,-400000.0625,-5697.25,-400000.0625
125.28953313827515,-400000.0625,-12965.5400390625,-6224.25,-400000.0625,-18951.939453125,-400000.0625,-5672.7900390625,-400000.0625
125.30690741539001,-400000.0625,-12961.5302734375,-6219.77001953125,-400000.0625,-18949.130859375,-400000.0625,-5660.6298828125,-400000.0625
125.35113310813904,-400000.0625,-12975.5498046875,-6235.22021484375,-400000.0625,-18956.619140625,-400000.0625,-5675.509765625,-400000.0625
125.36266374588013,-400000.0625,-12995.91015625,-6253.0,-400000.0625,-18969.349609375,-400000.0625,-5702.58984375,-400000.0625
125.3772337436676,-400000.0625,-12997.7197265625,-6255.2900390625,-400000.0625,-18973.689453125,-400000.0625,-5713.83984375,-400000.0625
125.3888304233551,-400000.0625,-12974.650390625,-6230.1201171875,-400000.0625,-18955.609375,-400000.0625,-5680.31982421875,-400000.0625
125.40336322784424,-400000.0625,-12962.4404296875,-6221.25,-400000.0625,-18940.2109375,-400000.0625,-5663.39990234375,-400000.0625
125.42126417160034,-400000.0625,-12976.3603515625,-6232.5498046875,-400000.0625,-18951.470703125,-400000.0625,-5678.22998046875,-400000.0625
125.45243000984192,-400000.0625,-13007.3095703125,-6261.2998046875,-400000.0625,-18978.220703125,-400000.0625,-5709.509765625,-400000.0625
125.46240019798279,-400000.0625,-13002.4404296875,-6263.830078125,-400000.0625,-18974.880859375,-400000.0625,-5710.64990234375,-400000.0625
125.47549700737,-400000.0625,-12978.4599609375,-6237.83984375,-400000.0625,-18956.4296875,-400000.0625,-5684.08984375,-400000.0625
125.488196849823,-400000.0625,-12956.0,-6214.6201171875,-400000.0625,-18941.359375,-400000.0625,-5658.39013671875,-400000.0625
125.50180101394653,-400000.0625,-12971.58984375,-6232.97998046875,-400000.0625,-18953.130859375,-400000.0625,-5684.7099609375,-400000.0625
125.51634073257446,-400000.0625,-13011.080078125,-6265.740234375,-400000.0625,-18979.98046875,-400000.0625,-5720.22998046875,-400000.0625
125.52596664428711,-400000.0625,-13010.5498046875,-6261.97021484375,-400000.0625,-18979.7890625,-400000.0625,-5713.419921875,-400000.0625
125.55805373191833,-400000.0625,-12970.16015625,-6228.259765625,-400000.0625,-18950.990234375,-400000.0625,-5673.27001953125,-400000.0625
125.57256770133972,-400000.0625,-12957.6201171875,-6216.6201171875,-400000.0625,-18937.640625,-400000.0625,-5660.490234375,-400000.0625
125.5829644203186,-400000.0625,-12985.2802734375,-6240.509765625,-400000.0625,-18958.5703125,-400000.0625,-5689.6201171875,-400000.0625
125.59200692176819,-400000.0625,-13010.41015625,-6263.77978515625,-400000.0625,-18979.650390625,-400000.0625,-5716.0400390625,-400000.0625
125.60561537742615,-400000.0625,-13002.6796875,-6258.2998046875,-400000.0625,-18965.33984375,-400000.0625,-5705.830078125,-400000.0625
125.61697816848755,-400000.0625,-12966.58984375,-6227.830078125,-400000.0625,-18937.400390625,-400000.0625,-5673.60009765625,-400000.0625
125.62991309165955,-400000.0625,-12961.5302734375,-6216.56982421875,-400000.0625,-18945.220703125,-400000.0625,-5665.02001953125,-400000.0625
125.66401219367981,-400000.0625,-12984.4697265625,-6236.35986328125,-400000.0625,-18963.580078125,-400000.0625,-5685.6201171875,-400000.0625
125.67868375778198,-400000.0625,-13011.5498046875,-6262.490234375,-400000.0625,-18985.369140625,-400000.0625,-5713.4599609375,-400000.0625
125.68848443031311,-400000.0625,-13002.6796875,-6253.240234375,-400000.0625,-18977.880859375,-400000.0625,-5705.8798828125,-400000.0625
125.70650577545166,-400000.0625,-12972.9296875,-6226.35009765625,-400000.0625,-18947.3203125,-400000.0625,-5671.97998046875,-400000.0625
125.71910524368286,-400000.0625,-12956.330078125,-6215.9501953125,-400000.0625,-18933.779296875,-400000.0625,-5655.91015625,-400000.0625
125.73086881637573,-400000.0625,-12974.3603515625,-6230.58984375,-400000.0625,-18945.119140625,-400000.0625,-5673.35986328125,-400000.0625
125.76391649246216,-400000.0625,-12999.8203125,-6251.669921875,-400000.0625,-18968.009765625,-400000.0625,-5701.16015625,-400000.0625
125.77625727653503,-400000.0625,-13009.41015625,-6259.43994140625,-400000.0625,-18977.5,-400000.0625,-5707.02978515625,-400000.0625
125.78799867630005,-400000.0625,-12989.08984375,-6240.75,-400000.0625,-18961.150390625,-400000.0625,-5687.240234375,-400000.0625
125.80407047271729,-400000.0625,-12959.580078125,-6213.14013671875,-400000.0625,-18943.41015625,-400000.0625,-5660.9599609375,-400000.0625
125.81682252883911,-400000.0625,-12970.4501953125,-6221.6298828125,-400000.0625,-18951.470703125,-400000.0625,-5671.22021484375,-400000.0625
125.82528495788574,-400000.0625,-13005.58984375,-6253.669921875,-400000.0625,-18975.359375,-400000.0625,-5707.93017578125,-400000.0625
125.83911657333374,-400000.0625,-13009.0302734375,-6261.2099609375,-400000.0625,-18980.359375,-400000.0625,-5709.97998046875,-400000.0625
125.87175989151001,-400000.0625,-12983.849609375,-6237.7001953125,-400000.0625,-18960.240234375,-400000.0625,-5683.27978515625,-400000.0625
125.88386249542236,-400000.0625,-12958.0,-6211.08984375,-400000.0625,-18936.970703125,-400000.0625,-5657.2001953125,-400000.0625
125.89557194709778,-400000.0625,-12971.7802734375,-6220.9599609375,-400000.0625,-18946.26953125,-400000.0625,-5672.8798828125,-400000.0625
125.90875816345215,-400000.0625,-12999.73046875,-6248.0,-400000.0625,-18975.779296875,-400000.0625,-5702.830078125,-400000.0625
125.91921067237854,-400000.0625,-13005.9296875,-6251.91015625,-400000.0625,-18981.359375,-400000.0625,-5711.89013671875,-400000.0625
125.93123054504395,-400000.0625,-12978.3203125,-6229.259765625,-400000.0625,-18961.720703125,-400000.0625,-5681.22998046875,-400000.0625
125.94717621803284,-400000.0625,-12953.4697265625,-6206.3701171875,-400000.0625,-18937.880859375,-400000.0625,-5655.0,-400000.0625
125.97805523872375,-400000.0625,-12974.599609375,-6226.16015625,-400000.0625,-18955.330078125,-400000.0625,-5673.83984375,-400000.0625
125.98961877822876,-400000.0625,-13006.9697265625,-6255.43994140625,-400000.0625,-18978.220703125,-400000.0625,-5704.2099609375,-400000.0625
126.0651445388794,-400000.0625,-13215.0703125,-6459.330078125,-400000.0625,-18907.740234375,-400000.0625,-5509.47021484375,-400000.0625
126.1412615776062,-400000.0625,-13097.8095703125,-6516.41015625,-400000.0625,-19002.150390625,-400000.0625,-5311.06005859375,-400000.0625
126.257319688797,-400000.0625,-13054.66015625,-6517.509765625,-400000.0625,-19025.51953125,-400000.0625,-5285.1201171875,-400000.0625
126.32357740402222,-400000.0625,-13069.580078125,-6519.64990234375,-400000.0625,-19039.349609375,-400000.0625,-5346.5400390625,-400000.0625
126.39907360076904,-400000.0625,-13023.3798828125,-6471.97021484375,-400000.0625,-19008.5,-400000.0625,-5317.68994140625,-400000.0625
126.59524846076965,-400000.0625,-13065.8603515625,-6509.5,-400000.0625,-19031.0,-400000.0625,-5354.4501953125,-400000.0625
126.64841675758362,-400000.0625,-13054.7099609375,-6497.56982421875,-400000.0625,-19010.359375,-400000.0625,-5346.16015625,-400000.0625
126.71076512336731,-400000.0625,-13045.169921875,-6492.81005859375,-400000.0625,-19013.359375,-400000.0625,-5322.35986328125,-400000.0625
126.77093267440796,-400000.0625,-13021.1796875,-6475.02001953125,-400000.0625,-18988.75,-400000.0625,-5293.7001953125,-400000.0625
126.86389589309692,-400000.0625,-13054.66015625,-6506.8701171875,-400000.0625,-19014.890625,-400000.0625,-5330.66015625,-400000.0625
126.89886379241943,-400000.0625,-13091.5703125,-6541.919921875,-400000.0625,-19042.779296875,-400000.0625,-5358.080078125,-400000.0625
126.9637188911438,-400000.0625,-13081.5498046875,-6538.009765625,-400000.0625,-19038.73046875,-400000.0625,-5349.68017578125,-400000.0625
127.02878165245056,-400000.0625,-13063.240234375,-6523.509765625,-400000.0625,-19012.599609375,-400000.0625,-5317.35009765625,-400000.0625
127.12607789039612,-400000.0625,-13048.83984375,-6510.58984375,-400000.0625,-19003.6796875,-400000.0625,-5305.39013671875,-400000.0625
127.16127753257751,-400000.0625,-13103.2001953125,-6563.56982421875,-400000.0625,-19043.0703125,-400000.0625,-5355.5,-400000.0625
127.23051619529724,-400000.0625,-13105.0595703125,-6568.47998046875,-400000.0625,-19040.060546875,-400000.0625,-5346.10986328125,-400000.0625
127.2836275100708,-400000.0625,-13103.73046875,-6565.669921875,-400000.0625,-19039.8203125,-400000.0625,-5345.68017578125,-400000.0625
127.41208219528198,-400000.0625,-13059.3798828125,-6536.77001953125,-400000.0625,-19009.640625,-400000.0625,-5296.27978515625,-400000.0625
127.47339701652527,-400000.0625,-13072.6396484375,-6539.2001953125,-400000.0625,-19027.810546875,-400000.0625,-5400.22998046875,-400000.0625
127.58860754966736,-400000.0625,-13053.080078125,-6526.52001953125,-400000.0625,-19014.599609375,-400000.0625,-5412.91015625,-400000.0625
127.60344576835632,-400000.0625,-13063.669921875,-6530.0498046875,-400000.0625,-19024.66015625,-400000.0625,-5418.16015625,-400000.0625
127.66523933410645,-400000.0625,-13038.01953125,-6495.330078125,-400000.0625,-19002.630859375,-400000.0625,-5391.4599609375,-400000.0625
127.82090139389038,-400000.0625,-13297.75,-6654.60009765625,-400000.0625,-18914.26953125,-400000.0625,-5475.0,-400000.0625
127.86820721626282,-400000.0625,-13167.5703125,-6588.83984375,-400000.0625,-18997.619140625,-400000.0625,-5453.97021484375,-400000.0625
127.96788048744202,-400000.0625,-13084.75,-6540.009765625,-400000.0625,-19023.849609375,-400000.0625,-5424.06982421875,-400000.0625
127.99652338027954,-400000.0625,-13034.150390625,-6496.14013671875,-400000.0625,-19002.5390625,-400000.0625,-5380.919921875,-400000.0625
128.0568597316742,-400000.0625,-13032.6796875,-6492.0,-400000.0625,-19004.16015625,-400000.0625,-5378.2001953125,-400000.0625
128.1158595085144,-400000.0625,-13069.009765625,-6525.60986328125,-400000.0625,-19024.330078125,-400000.0625,-5409.91015625,-400000.0625
128.18233370780945,-400000.0625,-13053.509765625,-6508.8798828125,-400000.0625,-19010.359375,-400000.0625,-5398.93994140625,-400000.0625
128.3304421901703,-400000.0625,-13016.3701171875,-6473.68994140625,-400000.0625,-18990.419921875,-400000.0625,-5364.47021484375,-400000.0625
128.3688395023346,-400000.0625,-13017.3701171875,-6487.0400390625,-400000.0625,-18994.720703125,-400000.0625,-5327.02978515625,-400000.0625
128.4631061553955,-400000.0625,-13033.9599609375,-6508.64013671875,-400000.0625,-19010.5,-400000.0625,-5343.25,-400000.0625
128.5048623085022,-400000.0625,-13060.3798828125,-6527.6201171875,-400000.0625,-19025.849609375,-400000.0625,-5370.0498046875,-400000.0625
128.50500869750977,-400000.0625,-13060.91015625,-6525.7998046875,-400000.0625,-19024.369140625,-400000.0625,-5371.0498046875,-400000.0625
128.50502610206604,-400000.0625,-13032.8701171875,-6499.39013671875,-400000.0625,-19000.009765625,-400000.0625,-5336.85986328125,-400000.0625
128.50503969192505,-400000.0625,-13019.1796875,-6487.3701171875,-400000.0625,-18989.759765625,-400000.0625,-5320.64990234375,-400000.0625
128.50505304336548,-400000.0625,-13030.099609375,-6499.33984375,-400000.0625,-19000.48046875,-400000.0625,-5336.85986328125,-400000.0625
128.50506615638733,-400000.0625,-13057.23046875,-6524.66015625,-400000.0625,-19022.509765625,-400000.0625,-5364.22998046875,-400000.0625
128.50507879257202,-400000.0625,-13072.16015625,-6538.2001953125,-400000.0625,-19038.390625,-400000.0625,-5374.47998046875,-400000.0625
128.50509119033813,-400000.0625,-13043.3603515625,-6513.5498046875,-400000.0625,-19024.94921875,-400000.0625,-5349.58984375,-400000.0625
128.50510382652283,-400000.0625,-13022.23046875,-6494.43017578125,-400000.0625,-19000.150390625,-400000.0625,-5326.93994140625,-400000.0625
128.50511646270752,-400000.0625,-13035.6298828125,-6503.72998046875,-400000.0625,-19006.830078125,-400000.0625,-5337.85986328125,-400000.0625
128.50512886047363,-400000.0625,-13062.759765625,-6529.81005859375,-400000.0625,-19028.05078125,-400000.0625,-5363.509765625,-400000.0625
128.5051417350769,-400000.0625,-13061.7197265625,-6529.89990234375,-400000.0625,-19021.80078125,-400000.0625,-5364.1298828125,-400000.0625
128.50515460968018,-400000.0625,-13020.5595703125,-6491.85009765625,-400000.0625,-18990.609375,-400000.0625,-5325.27001953125,-400000.0625
128.50516653060913,-400000.0625,-13023.8095703125,-6495.81005859375,-400000.0625,-19000.25,-400000.0625,-5324.7900390625,-400000.0625
128.50517916679382,-400000.0625,-13041.400390625,-6512.259765625,-400000.0625,-19011.359375,-400000.0625,-5342.25,-400000.0625
128.50519633293152,-400000.0625,-13069.2998046875,-6538.52978515625,-400000.0625,-19033.8203125,-400000.0625,-5372.330078125,-400000.0625
128.56461429595947,-400000.0625,-13062.5703125,-6530.669921875,-400000.0625,-19028.859375,-400000.0625,-5367.9501953125,-400000.0625
128.57076239585876,-400000.0625,-13028.48046875,-6498.669921875,-400000.0625,-18998.720703125,-400000.0625,-5329.56005859375,-400000.0625
128.58385133743286,-400000.0625,-13023.900390625,-6496.759765625,-400000.0625,-19003.16015625,-400000.0625,-5323.02978515625,-400000.0625
128.58964776992798,-400000.0625,-13039.6396484375,-6509.02001953125,-400000.0625,-19010.689453125,-400000.0625,-5340.9599609375,-400000.0625
128.6008710861206,-400000.0625,-13054.51953125,-6520.22021484375,-400000.0625,-19019.75,-400000.0625,-5355.06982421875,-400000.0625
128.6118733882904,-400000.0625,-13065.2900390625,-6529.27978515625,-400000.0625,-19027.0390625,-400000.0625,-5361.1298828125,-400000.0625
128.6186933517456,-400000.0625,-13045.1201171875,-6511.740234375,-400000.0625,-19015.55078125,-400000.0625,-5341.2001953125,-400000.0625
128.62439966201782,-400000.0625,-13019.849609375,-6489.330078125,-400000.0625,-19000.19921875,-400000.0625,-5321.259765625,-400000.0625
128.63434076309204,-400000.0625,-13030.669921875,-6502.580078125,-400000.0625,-19006.109375,-400000.0625,-5335.27978515625,-400000.0625
128.64430928230286,-400000.0625,-13060.4296875,-6526.47021484375,-400000.0625,-19023.470703125,-400000.0625,-5359.02978515625,-400000.0625
128.65344738960266,-400000.0625,-13060.8603515625,-6525.7099609375,-400000.0625,-19028.759765625,-400000.0625,-5363.990234375,-400000.0625
128.66179251670837,-400000.0625,-13031.8701171875,-6499.2001953125,-400000.0625,-19012.55078125,-400000.0625,-5337.0498046875,-400000.0625
128.67298126220703,-400000.0625,-13015.83984375,-6482.080078125,-400000.0625,-18992.7109375,-400000.0625,-5319.06982421875,-400000.0625
128.6982765197754,-400000.0625,-13030.150390625,-6493.85986328125,-400000.0625,-19001.630859375,-400000.0625,-5329.22998046875,-400000.0625
128.70838928222656,-400000.0625,-13061.1904296875,-6525.85009765625,-400000.0625,-19024.5703125,-400000.0625,-5360.990234375,-400000.0625
128.7157497406006,-400000.0625,-13057.6103515625,-6522.7998046875,-400000.0625,-19023.560546875,-400000.0625,-5360.7001953125,-400000.0625
128.7227339744568,-400000.0625,-13028.4296875,-6495.2900390625,-400000.0625,-19006.779296875,-400000.0625,-5327.18017578125,-400000.0625
128.73278164863586,-400000.0625,-13010.3095703125,-6480.93017578125,-400000.0625,-18994.91015625,-400000.0625,-5311.10986328125,-400000.0625
128.74571919441223,-400000.0625,-13028.580078125,-6497.52978515625,-400000.0625,-19008.01953125,-400000.0625,-5331.3701171875,-400000.0625
128.75359344482422,-400000.0625,-13053.990234375,-6518.7900390625,-400000.0625,-19024.08984375,-400000.0625,-5354.06982421875,-400000.0625
128.76330375671387,-400000.0625,-13051.1796875,-6513.60009765625,-400000.0625,-19020.509765625,-400000.0625,-5350.2998046875,-400000.0625
128.7731852531433,-400000.0625,-13029.9599609375,-6498.47998046875,-400000.0625,-19009.0703125,-400000.0625,-5334.0400390625,-400000.0625
128.80119442939758,-400000.0625,-13017.75,-6490.990234375,-400000.0625,-18999.91015625,-400000.0625,-5319.7900390625,-400000.0625
128.812602519989,-400000.0625,-13029.4296875,-6503.06005859375,-400000.0625,-19004.390625,-400000.0625,-5328.7998046875,-400000.0625
128.81962037086487,-400000.0625,-13052.8896484375,-6519.3701171875,-400000.0625,-19013.98046875,-400000.0625,-5347.919921875,-400000.0625
128.82640266418457,-400000.0625,-13055.66015625,-6520.4599609375,-400000.0625,-19022.3203125,-400000.0625,-5352.5,-400000.0625
128.83756470680237,-400000.0625,-13027.91015625,-6495.91015625,-400000.0625,-19007.73046875,-400000.0625,-5330.52001953125,-400000.0625
128.84545731544495,-400000.0625,-13011.0302734375,-6481.080078125,-400000.0625,-18994.94921875,-400000.0625,-5313.16015625,-400000.0625
128.85273146629333,-400000.0625,-13024.4697265625,-6495.0,-400000.0625,-19007.970703125,-400000.0625,-5326.60986328125,-400000.0625
128.8606915473938,-400000.0625,-13051.990234375,-6517.89013671875,-400000.0625,-19026.189453125,-400000.0625,-5353.740234375,-400000.0625
128.8696494102478,-400000.0625,-13068.0595703125,-6533.81005859375,-400000.0625,-19035.869140625,-400000.0625,-5363.85009765625,-400000.0625
128.87979817390442,-400000.0625,-13048.4599609375,-6514.64990234375,-400000.0625,-19015.599609375,-400000.0625,-5340.43017578125,-400000.0625
128.90422677993774,-400000.0625,-13025.759765625,-6496.85986328125,-400000.0625,-18999.720703125,-400000.0625,-5325.169921875,-400000.0625
128.91718244552612,-400000.0625,-13035.009765625,-6504.39013671875,-400000.0625,-19009.830078125,-400000.0625,-5337.18994140625,-400000.0625
128.92555594444275,-400000.0625,-13055.7998046875,-6519.080078125,-400000.0625,-19025.1796875,-400000.0625,-5353.5,-400000.0625
128.93931198120117,-400000.0625,-13047.5498046875,-6512.93017578125,-400000.0625,-19022.509765625,-400000.0625,-5348.68017578125,-400000.0625
128.95106887817383,-400000.0625,-13027.6201171875,-6495.2900390625,-400000.0625,-19002.009765625,-400000.0625,-5333.0400390625,-400000.0625
128.95855379104614,-400000.0625,-13018.3203125,-6485.22021484375,-400000.0625,-18992.51953125,-400000.0625,-5317.97021484375,-400000.0625
128.9738166332245,-400000.0625,-13035.490234375,-6501.77001953125,-400000.0625,-19006.400390625,-400000.0625,-5327.3701171875,-400000.0625
128.98312330245972,-400000.0625,-13063.099609375,-6531.10009765625,-400000.0625,-19032.099609375,-400000.0625,-5348.06005859375,-400000.0625
129.14258360862732,-400000.0625,-13076.8798828125,-6542.490234375,-400000.0625,-19015.119140625,-400000.0625,-5303.2900390625,-400000.0625
129.20239663124084,-400000.0625,-13092.3798828125,-6554.89013671875,-400000.0625,-19034.240234375,-400000.0625,-5306.85986328125,-400000.0625
129.27791595458984,-400000.0625,-13057.0400390625,-6526.66015625,-400000.0625,-19003.439453125,-400000.0625,-5275.5400390625,-400000.0625
129.3315670490265,-400000.0625,-13039.2099609375,-6508.77978515625,-400000.0625,-18986.509765625,-400000.0625,-5261.27978515625,-400000.0625
129.43275666236877,-400000.0625,-13042.0703125,-6509.35009765625,-400000.0625,-18998.91015625,-400000.0625,-5282.4501953125,-400000.0625
129.4581696987152,-400000.0625,-13050.509765625,-6511.259765625,-400000.0625,-19011.7890625,-400000.0625,-5341.2900390625,-400000.0625
129.52927589416504,-400000.0625,-13058.3798828125,-6506.16015625,-400000.0625,-19008.73046875,-400000.0625,-5341.91015625,-400000.0625
129.59757232666016,-400000.0625,-13021.330078125,-6470.919921875,-400000.0625,-18980.220703125,-400000.0625,-5296.419921875,-400000.0625
129.65099835395813,-400000.0625,-13014.990234375,-6457.14013671875,-400000.0625,-18969.630859375,-400000.0625,-5291.31982421875,-400000.0625
129.7169270515442,-400000.0625,-13099.7197265625,-6536.2001953125,-400000.0625,-18947.75,-400000.0625,-5291.27001953125,-400000.0625
129.81133842468262,-400000.0625,-13295.3701171875,-6648.2099609375,-400000.0625,-18911.890625,-400000.0625,-5434.1298828125,-400000.0625
129.84394717216492,-400000.0625,-13134.0,-6549.68994140625,-400000.0625,-18994.669921875,-400000.0625,-5384.4501953125,-400000.0625
129.90632104873657,-400000.0625,-13035.58984375,-6488.31982421875,-400000.0625,-18990.330078125,-400000.0625,-5332.7998046875,-400000.0625
129.97250199317932,-400000.0625,-13032.25,-6481.169921875,-400000.0625,-18997.529296875,-400000.0625,-5322.080078125,-400000.0625
130.10274815559387,-400000.0625,-13032.150390625,-6468.25,-400000.0625,-19002.5390625,-400000.0625,-5338.759765625,-400000.0625
130.32891511917114,-400000.0625,-12991.0498046875,-6452.60986328125,-400000.0625,-18977.689453125,-400000.0625,-5262.52001953125,-400000.0625
130.3586356639862,-400000.0625,-13008.9296875,-6461.47998046875,-400000.0625,-18998.009765625,-400000.0625,-5277.97021484375,-400000.0625
130.41766691207886,-400000.0625,-13043.5,-6486.22998046875,-400000.0625,-19020.1796875,-400000.0625,-5307.47998046875,-400000.0625
130.48361897468567,-400000.0625,-13050.3701171875,-6491.3798828125,-400000.0625,-19024.470703125,-400000.0625,-5312.58984375,-400000.0625
130.54623317718506,-400000.0625,-13015.650390625,-6460.240234375,-400000.0625,-19000.91015625,-400000.0625,-5273.25,-400000.0625
130.61246514320374,-400000.0625,-13018.3203125,-6459.08984375,-400000.0625,-18997.76953125,-400000.0625,-5275.68017578125,-400000.0625
130.67752647399902,-400000.0625,-13039.58984375,-6476.830078125,-400000.0625,-19011.98046875,-400000.0625,-5294.47021484375,-400000.0625
130.75485587120056,-400000.0625,-13069.2998046875,-6496.85986328125,-400000.0625,-19033.05078125,-400000.0625,-5323.97998046875,-400000.0625
130.81179785728455,-400000.0625,-13064.580078125,-6494.0,-400000.0625,-19029.189453125,-400000.0625,-5308.39013671875,-400000.0625
130.90644884109497,-400000.0625,-13028.1904296875,-6455.66015625,-400000.0625,-19006.349609375,-400000.0625,-5296.7099609375,-400000.0625
130.93123149871826,-400000.0625,-13004.400390625,-6428.10009765625,-400000.0625,-18989.759765625,-400000.0625,-5282.77978515625,-400000.0625
131.01231360435486,-400000.0625,-13022.9501953125,-6443.22021484375,-400000.0625,-19004.30078125,-400000.0625,-5294.27978515625,-400000.0625
131.0303816795349,-400000.0625,-13045.259765625,-6460.0498046875,-400000.0625,-19018.599609375,-400000.0625,-5311.43994140625,-400000.0625
131.03902888298035,-400000.0625,-13048.1298828125,-6459.9501953125,-400000.0625,-19013.220703125,-400000.0625,-5308.72021484375,-400000.0625
131.04662322998047,-400000.0625,-13023.330078125,-6441.77978515625,-400000.0625,-18992.08984375,-400000.0625,-5286.31005859375,-400000.0625
131.05366396903992,-400000.0625,-13004.400390625,-6428.43017578125,-400000.0625,-18988.369140625,-400000.0625,-5271.77001953125,-400000.0625
131.062490940094,-400000.0625,-13023.330078125,-6443.7900390625,-400000.0625,-19004.19921875,-400000.0625,-5287.97998046875,-400000.0625
131.07329154014587,-400000.0625,-13050.1796875,-6466.580078125,-400000.0625,-19020.419921875,-400000.0625,-5315.35009765625,-400000.0625
131.08130168914795,-400000.0625,-13058.7099609375,-6476.5,-400000.0625,-19029.330078125,-400000.0625,-5325.93994140625,-400000.0625
131.08876848220825,-400000.0625,-13032.4404296875,-6451.0400390625,-400000.0625,-19008.880859375,-400000.0625,-5298.759765625,-400000.0625
131.09700345993042,-400000.0625,-13008.5498046875,-6431.25,-400000.0625,-18990.900390625,-400000.0625,-5273.77001953125,-400000.0625
131.10797834396362,-400000.0625,-13014.83984375,-6435.009765625,-400000.0625,-18999.630859375,-400000.0625,-5284.60009765625,-400000.0625
131.1161162853241,-400000.0625,-13037.16015625,-6452.509765625,-400000.0625,-19011.400390625,-400000.0625,-5302.759765625,-400000.0625
131.14161467552185,-400000.0625,-13049.9404296875,-6466.33984375,-400000.0625,-19019.890625,-400000.0625,-5315.830078125,-400000.0625
131.15109729766846,-400000.0625,-13034.6298828125,-6452.66015625,-400000.0625,-19012.830078125,-400000.0625,-5303.52978515625,-400000.0625
131.1588635444641,-400000.0625,-13018.419921875,-6438.77978515625,-400000.0625,-18998.580078125,-400000.0625,-5282.02001953125,-400000.0625
131.1718945503235,-400000.0625,-13030.33984375,-6450.7001953125,-400000.0625,-19009.5390625,-400000.0625,-5294.75,-400000.0625
131.18057918548584,-400000.0625,-13050.83984375,-6465.10009765625,-400000.0625,-19020.509765625,-400000.0625,-5316.68994140625,-400000.0625
131.1883053779602,-400000.0625,-13048.169921875,-6462.14990234375,-400000.0625,-19018.029296875,-400000.0625,-5313.2998046875,-400000.0625
131.19655299186707,-400000.0625,-13027.0498046875,-6444.169921875,-400000.0625,-19005.009765625,-400000.0625,-5288.83984375,-400000.0625
131.210200548172,-400000.0625,-13005.9296875,-6426.52978515625,-400000.0625,-18988.23046875,-400000.0625,-5269.47998046875,-400000.0625
131.2187933921814,-400000.0625,-13007.400390625,-6430.43994140625,-400000.0625,-18991.279296875,-400000.0625,-5278.2099609375,-400000.0625
131.24593353271484,-400000.0625,-13043.0703125,-6461.81005859375,-400000.0625,-19016.98046875,-400000.0625,-5312.68017578125,-400000.0625
131.25341296195984,-400000.0625,-13056.5703125,-6473.490234375,-400000.0625,-19032.76953125,-400000.0625,-5324.35986328125,-400000.0625
131.26018285751343,-400000.0625,-13034.73046875,-6454.08984375,-400000.0625,-19016.3203125,-400000.0625,-5304.77001953125,-400000.0625
131.2665979862213,-400000.0625,-13015.650390625,-6433.919921875,-400000.0625,-18997.529296875,-400000.0625,-5281.8798828125,-400000.0625
131.27244067192078,-400000.0625,-13021.6103515625,-6437.10986328125,-400000.0625,-19001.390625,-400000.0625,-5290.990234375,-400000.0625
131.28173971176147,-400000.0625,-13045.599609375,-6456.27978515625,-400000.0625,-19016.98046875,-400000.0625,-5320.5,-400000.0625
131.2915017604828,-400000.0625,-13045.0302734375,-6458.0,-400000.0625,-19012.5,-400000.0625,-5318.68994140625,-400000.0625
131.30228328704834,-400000.0625,-13026.5302734375,-6441.2099609375,-400000.0625,-19000.580078125,-400000.0625,-5296.7998046875,-400000.0625
131.31226015090942,-400000.0625,-13005.01953125,-6420.759765625,-400000.0625,-18986.849609375,-400000.0625,-5277.43994140625,-400000.0625
131.3223524093628,-400000.0625,-13014.83984375,-6428.72021484375,-400000.0625,-18995.380859375,-400000.0625,-5287.5498046875,-400000.0625
131.34740352630615,-400000.0625,-13049.990234375,-6456.419921875,-400000.0625,-19018.369140625,-400000.0625,-5319.41015625,-400000.0625
131.35807728767395,-400000.0625,-13058.51953125,-6464.2900390625,-400000.0625,-19026.619140625,-400000.0625,-5330.75,-400000.0625
131.36685824394226,-400000.0625,-13030.580078125,-6445.35986328125,-400000.0625,-19006.30078125,-400000.0625,-5302.0,-400000.0625
131.37351202964783,-400000.0625,-13003.6796875,-6421.0400390625,-400000.0625,-18983.029296875,-400000.0625,-5272.25,-400000.0625
131.3870279788971,-400000.0625,-13015.509765625,-6429.6298828125,-400000.0625,-18995.619140625,-400000.0625,-5285.1201171875,-400000.0625
131.3960771560669,-400000.0625,-13042.7900390625,-6453.22998046875,-400000.0625,-19021.560546875,-400000.0625,-5316.58984375,-400000.0625
131.40402913093567,-400000.0625,-13050.1796875,-6458.08984375,-400000.0625,-19021.23046875,-400000.0625,-5319.169921875,-400000.0625
131.4138605594635,-400000.0625,-13030.8603515625,-6440.77978515625,-400000.0625,-19005.109375,-400000.0625,-5303.3798828125,-400000.0625
131.4248812198639,-400000.0625,-13009.6904296875,-6426.18994140625,-400000.0625,-18998.48046875,-400000.0625,-5282.35009765625,-400000.0625
131.45421147346497,-400000.0625,-13019.1298828125,-6433.2001953125,-400000.0625,-19004.6796875,-400000.0625,-5290.93994140625,-400000.0625
131.46548676490784,-400000.0625,-13046.7001953125,-6455.7099609375,-400000.0625,-19020.23046875,-400000.0625,-5316.68994140625,-400000.0625
131.47298336029053,-400000.0625,-13043.9296875,-6450.990234375,-400000.0625,-19018.83984375,-400000.0625,-5313.490234375,-400000.0625
131.4834315776825,-400000.0625,-13022.759765625,-6432.9599609375,-400000.0625,-19006.060546875,-400000.0625,-5290.64990234375,-400000.0625
131.49388551712036,-400000.0625,-13009.169921875,-6421.52001953125,-400000.0625,-18994.669921875,-400000.0625,-5273.9599609375,-400000.0625
131.56996822357178,-400000.0625,-13281.3896484375,-6602.85986328125,-400000.0625,-18905.400390625,-400000.0625,-5383.35009765625,-400000.0625
131.6490924358368,-400000.0625,-13132.3798828125,-6501.8701171875,-400000.0625,-18996.669921875,-400000.0625,-5346.43994140625,-400000.0625
131.70486116409302,-400000.0625,-13055.0400390625,-6458.330078125,-400000.0625,-19013.359375,-400000.0625,-5328.7001953125,-400000.0625
131.829975605011,-400000.0625,-13025.1396484375,-6427.14990234375,-400000.0625,-19008.58984375,-400000.0625,-5306.85986328125,-400000.0625
132.00481939315796,-400000.0625,-12987.330078125,-6395.8701171875,-400000.0625,-18995.859375,-400000.0625,-5317.64013671875,-400000.0625
132.08379554748535,-400000.0625,-13027.4296875,-6417.89990234375,-400000.0625,-19022.939453125,-400000.0625,-5357.5,-400000.0625
132.1504189968109,-400000.0625,-13007.830078125,-6401.43994140625,-400000.0625,-19008.259765625,-400000.0625,-5340.240234375,-400000.0625
132.21077394485474,-400000.0625,-12985.759765625,-6377.080078125,-400000.0625,-18999.05078125,-400000.0625,-5339.72021484375,-400000.0625
132.27847957611084,-400000.0625,-12995.91015625,-6384.14013671875,-400000.0625,-19003.779296875,-400000.0625,-5346.81982421875,-400000.0625
132.36071467399597,-400000.0625,-13022.1904296875,-6405.8798828125,-400000.0625,-19030.140625,-400000.0625,-5375.72021484375,-400000.0625
132.40482378005981,-400000.0625,-13023.6201171875,-6406.35986328125,-400000.0625,-19029.380859375,-400000.0625,-5373.52978515625,-400000.0625
132.46626448631287,-400000.0625,-13012.3203125,-6394.39013671875,-400000.0625,-19029.099609375,-400000.0625,-5366.60986328125,-400000.0625
132.53163385391235,-400000.0625,-12991.0498046875,-6375.60009765625,-400000.0625,-19013.55078125,-400000.0625,-5341.81982421875,-400000.0625
132.59873414039612,-400000.0625,-13011.5498046875,-6395.2900390625,-400000.0625,-19012.7890625,-400000.0625,-5326.89013671875,-400000.0625
132.74230098724365,-400000.0625,-13058.8095703125,-6443.68994140625,-400000.0625,-19044.830078125,-400000.0625,-5339.72021484375,-400000.0625
132.91746878623962,-400000.0625,-13028.8095703125,-6414.22021484375,-400000.0625,-19018.1796875,-400000.0625,-5306.81982421875,-400000.0625
132.9791226387024,-400000.0625,-13051.419921875,-6435.58984375,-400000.0625,-19037.439453125,-400000.0625,-5331.330078125,-400000.0625
133.17005586624146,-400000.0625,-12989.8095703125,-6387.81005859375,-400000.0625,-19003.349609375,-400000.0625,-5300.330078125,-400000.0625
133.24843096733093,-400000.0625,-13000.7802734375,-6397.06005859375,-400000.0625,-19013.359375,-400000.0625,-5312.16015625,-400000.0625
133.30130863189697,-400000.0625,-13019.1298828125,-6399.81982421875,-400000.0625,-19028.859375,-400000.0625,-5405.0498046875,-400000.0625
133.36146068572998,-400000.0625,-12906.740234375,-6119.8701171875,-400000.0625,-18959.48046875,-400000.0625,-5740.5498046875,-400000.0625
133.45014429092407,-400000.0625,-12890.8603515625,-6031.7998046875,-400000.0625,-18959.859375,-400000.0625,-5814.1201171875,-400000.0625
133.57265186309814,-400000.0625,-12908.7900390625,-6009.2900390625,-400000.0625,-18963.150390625,-400000.0625,-5792.81005859375,-400000.0625
133.59780883789062,-400000.0625,-12929.3896484375,-6027.56005859375,-400000.0625,-18983.41015625,-400000.0625,-5811.259765625,-400000.0625
133.6046392917633,-400000.0625,-12953.5703125,-6034.47021484375,-400000.0625,-18989.330078125,-400000.0625,-5817.93994140625,-400000.0625
133.61173152923584,-400000.0625,-12968.400390625,-6001.81005859375,-400000.0625,-18969.490234375,-400000.0625,-5798.009765625,-400000.0625
133.6225347518921,-400000.0625,-12927.25,-5989.35986328125,-400000.0625,-18939.689453125,-400000.0625,-5773.58984375,-400000.0625
133.63218569755554,-400000.0625,-12931.25,-6001.81005859375,-400000.0625,-18942.169921875,-400000.0625,-5788.85009765625,-400000.0625
133.64024949073792,-400000.0625,-12978.75,-6040.14013671875,-400000.0625,-18955.94921875,-400000.0625,-5846.830078125,-400000.0625
133.64867329597473,-400000.0625,-13016.7998046875,-6034.66015625,-400000.0625,-18950.0390625,-400000.0625,-5866.240234375,-400000.0625
133.65797472000122,-400000.0625,-13007.740234375,-6008.669921875,-400000.0625,-18919.51953125,-400000.0625,-5856.7998046875,-400000.0625
133.667489528656,-400000.0625,-13021.1396484375,-6035.27978515625,-400000.0625,-18909.029296875,-400000.0625,-5808.68994140625,-400000.0625
133.67507028579712,-400000.0625,-13047.83984375,-6062.509765625,-400000.0625,-18915.560546875,-400000.0625,-5834.72021484375,-400000.0625
133.70374584197998,-400000.0625,-13092.330078125,-6099.419921875,-400000.0625,-18925.33984375,-400000.0625,-5900.81005859375,-400000.0625
133.7100052833557,-400000.0625,-13182.8798828125,-6139.56982421875,-400000.0625,-18912.560546875,-400000.0625,-5942.06005859375,-400000.0625
133.72369718551636,-400000.0625,-13258.0302734375,-6145.52978515625,-400000.0625,-18865.970703125,-400000.0625,-5943.25,-400000.0625
133.7321879863739,-400000.0625,-13286.4501953125,-6130.02978515625,-400000.0625,-18812.23046875,-400000.0625,-5923.64990234375,-400000.0625
133.73989725112915,-400000.0625,-13315.25,-6174.759765625,-400000.0625,-18801.0703125,-400000.0625,-5959.990234375,-400000.0625
133.74894976615906,-400000.0625,-13390.830078125,-6203.89013671875,-400000.0625,-18799.689453125,-400000.0625,-6010.14990234375,-400000.0625
133.75822043418884,-400000.0625,-13409.7099609375,-6220.25,-400000.0625,-18799.880859375,-400000.0625,-6023.97998046875,-400000.0625
133.76635694503784,-400000.0625,-13423.1103515625,-6199.169921875,-400000.0625,-18781.240234375,-400000.0625,-6007.85986328125,-400000.0625
133.77371621131897,-400000.0625,-13422.490234375,-6178.6201171875,-400000.0625,-18752.05078125,-400000.0625,-5985.68994140625,-400000.0625
133.78513598442078,-400000.0625,-13430.83984375,-6185.8701171875,-400000.0625,-18751.9609375,-400000.0625,-5996.60986328125,-400000.0625
133.8093376159668,-400000.0625,-13464.01953125,-6208.9501953125,-400000.0625,-18765.640625,-400000.0625,-6039.9501953125,-400000.0625
133.8201925754547,-400000.0625,-13487.150390625,-6212.330078125,-400000.0625,-18771.220703125,-400000.0625,-6058.5,-400000.0625
133.82668042182922,-400000.0625,-13478.3798828125,-6191.919921875,-400000.0625,-18763.779296875,-400000.0625,-6045.8701171875,-400000.0625
133.8344488143921,-400000.0625,-13458.4404296875,-6169.75,-400000.0625,-18745.5703125,-400000.0625,-6028.89013671875,-400000.0625
133.84069228172302,-400000.0625,-13465.01953125,-6167.75,-400000.0625,-18752.619140625,-400000.0625,-6033.3701171875,-400000.0625
133.84855341911316,-400000.0625,-13481.08984375,-6176.66015625,-400000.0625,-18767.880859375,-400000.0625,-6055.06982421875,-400000.0625
133.8587830066681,-400000.0625,-13482.0498046875,-6178.0,-400000.0625,-18783.7109375,-400000.0625,-6060.5498046875,-400000.0625
133.86711192131042,-400000.0625,-13453.33984375,-6155.10986328125,-400000.0625,-18784.240234375,-400000.0625,-6039.56982421875,-400000.0625
133.8745882511139,-400000.0625,-13415.4296875,-6123.97021484375,-400000.0625,-18773.26953125,-400000.0625,-6015.97021484375,-400000.0625
133.8848261833191,-400000.0625,-13399.169921875,-6114.43994140625,-400000.0625,-18773.890625,-400000.0625,-6009.6298828125,-400000.0625
133.89239358901978,-400000.0625,-13407.08984375,-6137.56005859375,-400000.0625,-18802.599609375,-400000.0625,-6030.85009765625,-400000.0625
133.92140865325928,-400000.0625,-13401.75,-6149.580078125,-400000.0625,-18823.720703125,-400000.0625,-6035.330078125,-400000.0625
133.93011784553528,-400000.0625,-13348.6298828125,-6117.919921875,-400000.0625,-18802.98046875,-400000.0625,-6000.22998046875,-400000.0625
133.93739485740662,-400000.0625,-13292.9296875,-6080.52978515625,-400000.0625,-18791.9609375,-400000.0625,-5955.97998046875,-400000.0625
133.94690561294556,-400000.0625,-13268.9501953125,-6075.759765625,-400000.0625,-18800.830078125,-400000.0625,-5947.16015625,-400000.0625
133.96401643753052,-400000.0625,-13281.2998046875,-6102.990234375,-400000.0625,-18831.109375,-400000.0625,-5974.10009765625,-400000.0625
133.9705445766449,-400000.0625,-13278.8203125,-6114.52978515625,-400000.0625,-18854.619140625,-400000.0625,-5984.06982421875,-400000.0625
133.97758436203003,-400000.0625,-13246.5400390625,-6105.0400390625,-400000.0625,-18859.8203125,-400000.0625,-5966.0,-400000.0625
133.9871587753296,-400000.0625,-13208.099609375,-6083.81982421875,-400000.0625,-18849.330078125,-400000.0625,-5934.18994140625,-400000.0625
133.9985454082489,-400000.0625,-13197.3798828125,-6089.77978515625,-400000.0625,-18866.01953125,-400000.0625,-5934.669921875,-400000.0625
134.06526470184326,-400000.0625,-12962.919921875,-6036.56982421875,-400000.0625,-18981.130859375,-400000.0625,-5864.0498046875,-400000.0625
134.13003063201904,-400000.0625,-12936.6396484375,-6014.6298828125,-400000.0625,-18956.279296875,-400000.0625,-5843.8798828125,-400000.0625
134.225168466568,-400000.0625,-12931.9697265625,-6017.77978515625,-400000.0625,-18957.810546875,-400000.0625,-5841.830078125,-400000.0625
134.25889658927917,-400000.0625,-12965.9697265625,-6049.2001953125,-400000.0625,-18986.279296875,-400000.0625,-5871.580078125,-400000.0625
134.32127499580383,-400000.0625,-12987.419921875,-6065.75,-400000.0625,-19002.150390625,-400000.0625,-5902.2001953125,-400000.0625
134.42843556404114,-400000.0625,-12940.4599609375,-6032.89990234375,-400000.0625,-18972.73046875,-400000.0625,-5858.419921875,-400000.0625
134.46166014671326,-400000.0625,-12931.349609375,-6137.27978515625,-400000.0625,-18970.630859375,-400000.0625,-5744.35986328125,-400000.0625
134.58585143089294,-400000.0625,-13018.849609375,-6480.97998046875,-400000.0625,-19060.66015625,-400000.0625,-5369.0,-400000.0625
134.65495443344116,-400000.0625,-13018.7099609375,-6465.25,-400000.0625,-19047.310546875,-400000.0625,-5364.18017578125,-400000.0625
134.77109217643738,-400000.0625,-13004.01953125,-6450.31982421875,-400000.0625,-19037.580078125,-400000.0625,-5343.490234375,-400000.0625
134.8522174358368,-400000.0625,-13028.9599609375,-6471.72998046875,-400000.0625,-19046.58984375,-400000.0625,-5374.14990234375,-400000.0625
134.94626116752625,-400000.0625,-13033.4404296875,-6474.06982421875,-400000.0625,-19046.359375,-400000.0625,-5377.8701171875,-400000.0625
135.02709197998047,-400000.0625,-13019.23046875,-6462.6201171875,-400000.0625,-19028.240234375,-400000.0625,-5363.27001953125,-400000.0625
135.10235476493835,-400000.0625,-12996.25,-6425.10009765625,-400000.0625,-19007.490234375,-400000.0625,-5413.580078125,-400000.0625
135.1552231311798,-400000.0625,-12885.330078125,-6152.580078125,-400000.0625,-18953.419921875,-400000.0625,-5756.08984375,-400000.0625
135.228257894516,-400000.0625,-12908.2197265625,-6061.4599609375,-400000.0625,-18983.3203125,-400000.0625,-5892.7998046875,-400000.0625
135.31396389007568,-400000.0625,-12994.669921875,-6084.6298828125,-400000.0625,-18962.720703125,-400000.0625,-5926.56005859375,-400000.0625
135.34609866142273,-400000.0625,-13382.3896484375,-6199.31005859375,-400000.0625,-18779.849609375,-400000.0625,-6077.240234375,-400000.0625
135.41302347183228,-400000.0625,-13319.0595703125,-6166.97998046875,-400000.0625,-18804.740234375,-400000.0625,-6024.41015625,-400000.0625
135.47834634780884,-400000.0625,-13090.51953125,-6126.68994140625,-400000.0625,-18911.080078125,-400000.0625,-5944.16015625,-400000.0625
135.55628108978271,-400000.0625,-13007.1201171875,-6104.08984375,-400000.0625,-18944.9296875,-400000.0625,-5913.1201171875,-400000.0625
135.6119725704193,-400000.0625,-12964.76953125,-6076.580078125,-400000.0625,-18937.30078125,-400000.0625,-5889.75,-400000.0625
135.6974310874939,-400000.0625,-12944.509765625,-6065.3701171875,-400000.0625,-18936.349609375,-400000.0625,-5868.2900390625,-400000.0625
135.8611581325531,-400000.0625,-12980.0302734375,-6097.41015625,-400000.0625,-18962.9609375,-400000.0625,-5910.35009765625,-400000.0625
136.05222582817078,-400000.0625,-12964.8701171875,-6085.58984375,-400000.0625,-18950.26953125,-400000.0625,-5889.27001953125,-400000.0625
136.0725622177124,-400000.0625,-12944.1796875,-6064.60986328125,-400000.0625,-18930.439453125,-400000.0625,-5859.60986328125,-400000.0625
136.0793035030365,-400000.0625,-12956.099609375,-6074.6201171875,-400000.0625,-18940.0703125,-400000.0625,-5873.39013671875,-400000.0625
136.0881724357605,-400000.0625,-12987.7099609375,-6104.89990234375,-400000.0625,-18963.2890625,-400000.0625,-5910.58984375,-400000.0625
136.09618949890137,-400000.0625,-12997.580078125,-6112.43017578125,-400000.0625,-18979.599609375,-400000.0625,-5920.22021484375,-400000.0625
136.10199284553528,-400000.0625,-12970.2099609375,-6087.58984375,-400000.0625,-18960.669921875,-400000.0625,-5895.419921875,-400000.0625
136.1088833808899,-400000.0625,-12946.8896484375,-6067.3701171875,-400000.0625,-18942.7890625,-400000.0625,-5873.77978515625,-400000.0625
136.12060832977295,-400000.0625,-12959.2001953125,-6071.18994140625,-400000.0625,-18949.1796875,-400000.0625,-5881.740234375,-400000.0625
136.12732100486755,-400000.0625,-12989.0,-6098.7998046875,-400000.0625,-18969.73046875,-400000.0625,-5911.919921875,-400000.0625
136.1331810951233,-400000.0625,-12994.4296875,-6103.85009765625,-400000.0625,-18973.73046875,-400000.0625,-5920.97998046875,-400000.0625
136.13947939872742,-400000.0625,-12971.01953125,-6082.919921875,-400000.0625,-18953.0390625,-400000.0625,-5898.759765625,-400000.0625
136.14585518836975,-400000.0625,-12944.41015625,-6058.8798828125,-400000.0625,-18934.109375,-400000.0625,-5870.06005859375,-400000.0625
136.1546847820282,-400000.0625,-12955.3798828125,-6068.08984375,-400000.0625,-18939.2109375,-400000.0625,-5878.39990234375,-400000.0625
136.17621445655823,-400000.0625,-12984.1298828125,-6092.22021484375,-400000.0625,-18962.720703125,-400000.0625,-5906.72998046875,-400000.0625
136.18858909606934,-400000.0625,-12987.900390625,-6096.080078125,-400000.0625,-18962.76953125,-400000.0625,-5916.93017578125,-400000.0625
136.2034068107605,-400000.0625,-12964.0595703125,-6076.77001953125,-400000.0625,-18954.94921875,-400000.0625,-5895.66015625,-400000.0625
136.21776962280273,-400000.0625,-12943.5595703125,-6057.68994140625,-400000.0625,-18943.55078125,-400000.0625,-5872.39013671875,-400000.0625
136.22600626945496,-400000.0625,-12950.08984375,-6063.27001953125,-400000.0625,-18944.220703125,-400000.0625,-5877.4501953125,-400000.0625
136.23335146903992,-400000.0625,-12976.7900390625,-6087.8798828125,-400000.0625,-18958.189453125,-400000.0625,-5907.77001953125,-400000.0625
136.24078822135925,-400000.0625,-12986.849609375,-6096.080078125,-400000.0625,-18963.2890625,-400000.0625,-5916.8798828125,-400000.0625
136.2516267299652,-400000.0625,-12960.33984375,-6076.43017578125,-400000.0625,-18954.23046875,-400000.0625,-5896.66015625,-400000.0625
136.26184225082397,-400000.0625,-12939.169921875,-6056.31005859375,-400000.0625,-18935.30078125,-400000.0625,-5873.5400390625,-400000.0625
136.31726217269897,-400000.0625,-12955.240234375,-6069.419921875,-400000.0625,-18943.880859375,-400000.0625,-5886.509765625,-400000.0625
136.3351857662201,-400000.0625,-12979.3701171875,-6094.02978515625,-400000.0625,-18963.630859375,-400000.0625,-5914.02001953125,-400000.0625
136.34507083892822,-400000.0625,-12988.51953125,-6099.27001953125,-400000.0625,-18966.76953125,-400000.0625,-5918.97998046875,-400000.0625
136.35903477668762,-400000.0625,-12960.8603515625,-6073.89990234375,-400000.0625,-18948.650390625,-400000.0625,-5892.75,-400000.0625
136.36948156356812,-400000.0625,-12936.01953125,-6052.39990234375,-400000.0625,-18937.2109375,-400000.0625,-5871.25,-400000.0625
136.4019968509674,-400000.0625,-12954.6201171875,-6072.81005859375,-400000.0625,-18952.900390625,-400000.0625,-5890.89013671875,-400000.0625
136.41205263137817,-400000.0625,-12988.5703125,-6100.56005859375,-400000.0625,-18976.98046875,-400000.0625,-5919.64990234375,-400000.0625
136.42305707931519,-400000.0625,-12993.76953125,-6104.66015625,-400000.0625,-18974.01953125,-400000.0625,-5921.22021484375,-400000.0625
136.43298196792603,-400000.0625,-12961.76953125,-6079.25,-400000.0625,-18954.419921875,-400000.0625,-5892.47021484375,-400000.0625
136.44108629226685,-400000.0625,-12941.3603515625,-6059.83984375,-400000.0625,-18940.689453125,-400000.0625,-5870.81982421875,-400000.0625
136.4529948234558,-400000.0625,-12947.990234375,-6065.22998046875,-400000.0625,-18945.080078125,-400000.0625,-5884.83984375,-400000.0625
136.46315836906433,-400000.0625,-12971.9697265625,-6088.10986328125,-400000.0625,-18956.380859375,-400000.0625,-5910.2998046875,-400000.0625
136.4730794429779,-400000.0625,-12977.41015625,-6094.27001953125,-400000.0625,-18959.94921875,-400000.0625,-5913.830078125,-400000.0625
136.50535821914673,-400000.0625,-12961.25,-6076.81005859375,-400000.0625,-18950.890625,-400000.0625,-5893.330078125,-400000.0625
136.56139826774597,-400000.0625,-13025.8095703125,-6102.08984375,-400000.0625,-18911.130859375,-400000.0625,-5924.64990234375,-400000.0625
136.6293079853058,-400000.0625,-12939.3603515625,-6079.52978515625,-400000.0625,-18934.6796875,-400000.0625,-5889.7998046875,-400000.0625
136.7280752658844,-400000.0625,-12921.5703125,-6068.7998046875,-400000.0625,-18932.33984375,-400000.0625,-5875.2099609375,-400000.0625
136.8294439315796,-400000.0625,-12974.3603515625,-6173.85009765625,-400000.0625,-18983.220703125,-400000.0625,-5874.39990234375,-400000.0625
136.94606709480286,-400000.0625,-12974.740234375,-6486.4599609375,-400000.0625,-18999.8203125,-400000.0625,-5390.5498046875,-400000.0625
137.00888752937317,-400000.0625,-12967.6396484375,-6470.58984375,-400000.0625,-18994.669921875,-400000.0625,-5371.08984375,-400000.0625
137.07379841804504,-400000.0625,-12988.6201171875,-6480.5,-400000.0625,-18999.91015625,-400000.0625,-5379.77001953125,-400000.0625
137.15623497962952,-400000.0625,-13046.3603515625,-6526.22998046875,-400000.0625,-19039.58984375,-400000.0625,-5432.31982421875,-400000.0625
137.20901584625244,-400000.0625,-13036.2998046875,-6521.1298828125,-400000.0625,-19028.7109375,-400000.0625,-5424.60009765625,-400000.0625
137.26649403572083,-400000.0625,-13013.41015625,-6493.759765625,-400000.0625,-19015.599609375,-400000.0625,-5397.990234375,-400000.0625
137.3328845500946,-400000.0625,-12997.76953125,-6482.31982421875,-400000.0625,-18988.80078125,-400000.0625,-5383.2998046875,-400000.0625
137.3953092098236,-400000.0625,-13014.41015625,-6484.22021484375,-400000.0625,-19001.33984375,-400000.0625,-5407.85986328125,-400000.0625
137.45740294456482,-400000.0625,-12925.240234375,-6253.2001953125,-400000.0625,-18974.119140625,-400000.0625,-5792.18994140625,-400000.0625
137.52253818511963,-400000.0625,-12902.0703125,-6117.72998046875,-400000.0625,-18969.009765625,-400000.0625,-5914.5,-400000.0625
137.6523323059082,-400000.0625,-12896.7802734375,-6073.89990234375,-400000.0625,-18945.98046875,-400000.0625,-5870.6298828125,-400000.0625
137.778733253479,-400000.0625,-12945.509765625,-6093.93017578125,-400000.0625,-18970.869140625,-400000.0625,-5912.97021484375,-400000.0625
137.8798451423645,-400000.0625,-12934.6396484375,-6085.919921875,-400000.0625,-18968.060546875,-400000.0625,-5906.43994140625,-400000.0625
137.90618324279785,-400000.0625,-12919.240234375,-6072.240234375,-400000.0625,-18951.849609375,-400000.0625,-5881.60009765625,-400000.0625
137.9713282585144,-400000.0625,-12894.2001953125,-6050.64013671875,-400000.0625,-18932.439453125,-400000.0625,-5858.0400390625,-400000.0625
138.03655409812927,-400000.0625,-12916.0400390625,-6069.990234375,-400000.0625,-18943.880859375,-400000.0625,-5870.580078125,-400000.0625
138.09897875785828,-400000.0625,-12945.1298828125,-6090.1201171875,-400000.0625,-18972.2109375,-400000.0625,-5900.91015625,-400000.0625
138.16325187683105,-400000.0625,-12914.2802734375,-6065.7998046875,-400000.0625,-18951.0390625,-400000.0625,-5870.2001953125,-400000.0625
138.36258339881897,-400000.0625,-12954.51953125,-6099.27001953125,-400000.0625,-18980.119140625,-400000.0625,-5900.0,-400000.0625
138.418799161911,-400000.0625,-12959.2001953125,-6103.52001953125,-400000.0625,-18984.83984375,-400000.0625,-5907.2998046875,-400000.0625
138.49626994132996,-400000.0625,-12942.7900390625,-6091.39990234375,-400000.0625,-18968.869140625,-400000.0625,-5891.66015625,-400000.0625
138.55133867263794,-400000.0625,-12915.990234375,-6073.669921875,-400000.0625,-18959.810546875,-400000.0625,-5863.81005859375,-400000.0625
138.55983638763428,-400000.0625,-12909.5595703125,-6067.89990234375,-400000.0625,-18953.0390625,-400000.0625,-5852.990234375,-400000.0625
138.57250308990479,-400000.0625,-12933.7802734375,-6084.39990234375,-400000.0625,-18968.30078125,-400000.0625,-5871.10986328125,-400000.0625
138.5831069946289,-400000.0625,-12945.7001953125,-6096.60009765625,-400000.0625,-18978.359375,-400000.0625,-5889.89013671875,-400000.0625
138.59053826332092,-400000.0625,-12945.0302734375,-6095.7001953125,-400000.0625,-18977.740234375,-400000.0625,-5886.60009765625,-400000.0625
138.6017565727234,-400000.0625,-12918.08984375,-6075.669921875,-400000.0625,-18957.619140625,-400000.0625,-5866.240234375,-400000.0625
138.62597513198853,-400000.0625,-12904.83984375,-6065.22998046875,-400000.0625,-18953.849609375,-400000.0625,-5858.52001953125,-400000.0625
138.63803625106812,-400000.0625,-12928.8701171875,-6084.8701171875,-400000.0625,-18972.349609375,-400000.0625,-5878.16015625,-400000.0625
138.6476399898529,-400000.0625,-12953.4697265625,-6103.990234375,-400000.0625,-18986.80078125,-400000.0625,-5902.240234375,-400000.0625
138.65549564361572,-400000.0625,-12948.509765625,-6101.509765625,-400000.0625,-18988.0390625,-400000.0625,-5898.56982421875,-400000.0625
138.667414188385,-400000.0625,-12917.51953125,-6072.240234375,-400000.0625,-18959.0,-400000.0625,-5866.18994140625,-400000.0625
138.67761158943176,-400000.0625,-12903.599609375,-6057.93017578125,-400000.0625,-18947.509765625,-400000.0625,-5849.83984375,-400000.0625
138.68733072280884,-400000.0625,-12919.6201171875,-6074.2900390625,-400000.0625,-18963.150390625,-400000.0625,-5870.39013671875,-400000.0625
138.69884371757507,-400000.0625,-12952.6201171875,-6099.7998046875,-400000.0625,-18985.0390625,-400000.0625,-5900.81005859375,-400000.0625
138.70916771888733,-400000.0625,-12939.4501953125,-6090.16015625,-400000.0625,-18979.029296875,-400000.0625,-5889.27001953125,-400000.0625
138.7341160774231,-400000.0625,-12906.8896484375,-6062.7900390625,-400000.0625,-18952.1796875,-400000.0625,-5853.02978515625,-400000.0625
138.7436442375183,-400000.0625,-12896.9697265625,-6053.4501953125,-400000.0625,-18946.7890625,-400000.0625,-5844.5,-400000.0625
138.7534580230713,-400000.0625,-12920.240234375,-6073.0,-400000.0625,-18965.6796875,-400000.0625,-5870.10009765625,-400000.0625
138.76253867149353,-400000.0625,-12947.75,-6094.89013671875,-400000.0625,-18984.509765625,-400000.0625,-5896.18994140625,-400000.0625
138.77255702018738,-400000.0625,-12943.2197265625,-6092.35986328125,-400000.0625,-18983.890625,-400000.0625,-5889.75,-400000.0625
138.78307437896729,-400000.0625,-12909.3203125,-6063.31982421875,-400000.0625,-18961.150390625,-400000.0625,-5861.0,-400000.0625
138.79130220413208,-400000.0625,-12897.4501953125,-6051.830078125,-400000.0625,-18953.1796875,-400000.0625,-5852.080078125,-400000.0625
138.80226254463196,-400000.0625,-12918.759765625,-6073.240234375,-400000.0625,-18967.30078125,-400000.0625,-5872.2001953125,-400000.0625
138.8129403591156,-400000.0625,-12936.98046875,-6087.490234375,-400000.0625,-18974.259765625,-400000.0625,-5890.1298828125,-400000.0625
138.84159111976624,-400000.0625,-12931.009765625,-6081.6298828125,-400000.0625,-18972.2109375,-400000.0625,-5883.02978515625,-400000.0625
138.85141277313232,-400000.0625,-12913.75,-6068.56005859375,-400000.0625,-18958.48046875,-400000.0625,-5863.85986328125,-400000.0625
138.86005187034607,-400000.0625,-12900.4501953125,-6054.2099609375,-400000.0625,-18947.83984375,-400000.0625,-5852.080078125,-400000.0625
138.87082624435425,-400000.0625,-12919.0498046875,-6069.419921875,-400000.0625,-18963.240234375,-400000.0625,-5869.10009765625,-400000.0625
138.88141417503357,-400000.0625,-12943.9404296875,-6090.8798828125,-400000.0625,-18980.599609375,-400000.0625,-5889.3701171875,-400000.0625
138.88895177841187,-400000.0625,-12936.830078125,-6085.6298828125,-400000.0625,-18978.689453125,-400000.0625,-5884.89013671875,-400000.0625
138.89867782592773,-400000.0625,-12906.98046875,-6059.1201171875,-400000.0625,-18951.69921875,-400000.0625,-5860.0,-400000.0625
138.90844297409058,-400000.0625,-12896.1103515625,-6049.490234375,-400000.0625,-18949.220703125,-400000.0625,-5848.5,-400000.0625
138.91825366020203,-400000.0625,-12917.08984375,-6068.419921875,-400000.0625,-18965.060546875,-400000.0625,-5867.52978515625,-400000.0625
138.9449028968811,-400000.0625,-12941.7001953125,-6089.77978515625,-400000.0625,-18978.220703125,-400000.0625,-5890.47021484375,-400000.0625
138.95338582992554,-400000.0625,-12931.4404296875,-6082.8701171875,-400000.0625,-18965.060546875,-400000.0625,-5880.169921875,-400000.0625
138.96165895462036,-400000.0625,-12910.4599609375,-6069.08984375,-400000.0625,-18957.08984375,-400000.0625,-5858.9501953125,-400000.0625
138.9721963405609,-400000.0625,-12904.599609375,-6064.1298828125,-400000.0625,-18960.2890625,-400000.0625,-5855.1298828125,-400000.0625
138.98191714286804,-400000.0625,-12921.8095703125,-6076.669921875,-400000.0625,-18970.439453125,-400000.0625,-5876.259765625,-400000.0625
138.9907021522522,-400000.0625,-12949.0400390625,-6096.93994140625,-400000.0625,-18989.140625,-400000.0625,-5898.52001953125,-400000.0625
139.00522685050964,-400000.0625,-12942.3203125,-6090.8798828125,-400000.0625,-18983.3203125,-400000.0625,-5888.27001953125,-400000.0625
139.05787777900696,-400000.0625,-12969.349609375,-6112.9599609375,-400000.0625,-18968.5390625,-400000.0625,-5899.0,-400000.0625
139.1250298023224,-400000.0625,-12962.3896484375,-6116.2001953125,-400000.0625,-18981.3203125,-400000.0625,-5890.509765625,-400000.0625
139.36270475387573,-400000.0625,-12957.4296875,-6105.0400390625,-400000.0625,-18990.330078125,-400000.0625,-5879.1201171875,-400000.0625
139.385760307312,-400000.0625,-12966.919921875,-6111.52978515625,-400000.0625,-18990.08984375,-400000.0625,-5884.41015625,-400000.0625
139.4482080936432,-400000.0625,-12955.2900390625,-6100.990234375,-400000.0625,-18981.83984375,-400000.0625,-5879.02001953125,-400000.0625
139.51250052452087,-400000.0625,-12922.8603515625,-6070.3798828125,-400000.0625,-18952.23046875,-400000.0625,-5848.89013671875,-400000.0625
139.57255840301514,-400000.0625,-12925.580078125,-6298.68994140625,-400000.0625,-18974.44921875,-400000.0625,-5617.240234375,-400000.0625
139.64747500419617,-400000.0625,-12953.9501953125,-6373.68994140625,-400000.0625,-19011.169921875,-400000.0625,-5547.7099609375,-400000.0625
139.72011494636536,-400000.0625,-12970.830078125,-6372.5,-400000.0625,-19009.16015625,-400000.0625,-5547.10009765625,-400000.0625
139.76319003105164,-400000.0625,-12963.33984375,-6463.81005859375,-400000.0625,-19018.599609375,-400000.0625,-5339.52978515625,-400000.0625
139.82639479637146,-400000.0625,-13016.3701171875,-6505.8701171875,-400000.0625,-19046.5,-400000.0625,-5336.81005859375,-400000.0625
139.93011617660522,-400000.0625,-12989.0498046875,-6480.31005859375,-400000.0625,-19029.330078125,-400000.0625,-5311.58984375,-400000.0625
140.0186562538147,-400000.0625,-13043.5,-6517.35986328125,-400000.0625,-19059.7109375,-400000.0625,-5360.83984375,-400000.0625
140.0975387096405,-400000.0625,-12996.48046875,-6473.97021484375,-400000.0625,-19030.4296875,-400000.0625,-5309.9599609375,-400000.0625
140.21262955665588,-400000.0625,-13002.919921875,-6471.490234375,-400000.0625,-19027.859375,-400000.0625,-5317.259765625,-400000.0625
140.27781462669373,-400000.0625,-13033.25,-6495.0498046875,-400000.0625,-19048.7890625,-400000.0625,-5340.6201171875,-400000.0625
140.35496830940247,-400000.0625,-13061.669921875,-6493.56982421875,-400000.0625,-19055.939453125,-400000.0625,-5362.60986328125,-400000.0625
140.40771675109863,-400000.0625,-13318.2998046875,-6409.5,-400000.0625,-18864.349609375,-400000.0625,-5858.66015625,-400000.0625
140.53150844573975,-400000.0625,-12920.669921875,-6064.75,-400000.0625,-18963.099609375,-400000.0625,-5847.35986328125,-400000.0625
140.59945940971375,-400000.0625,-12955.2900390625,-6083.2001953125,-400000.0625,-18990.08984375,-400000.0625,-5883.93017578125,-400000.0625
140.6586515903473,-400000.0625,-12958.2900390625,-6083.8701171875,-400000.0625,-18997.05078125,-400000.0625,-5884.4599609375,-400000.0625
140.72371983528137,-400000.0625,-12947.990234375,-6073.240234375,-400000.0625,-18991.51953125,-400000.0625,-5875.8701171875,-400000.0625
140.82244277000427,-400000.0625,-12912.4697265625,-6037.18994140625,-400000.0625,-18966.19921875,-400000.0625,-5831.72021484375,-400000.0625
140.8538875579834,-400000.0625,-12910.0302734375,-6041.33984375,-400000.0625,-18972.58984375,-400000.0625,-5842.58984375,-400000.0625
140.98036551475525,-400000.0625,-12941.5498046875,-6067.18017578125,-400000.0625,-18998.240234375,-400000.0625,-5873.2001953125,-400000.0625
141.05876541137695,-400000.0625,-12923.6201171875,-6048.25,-400000.0625,-18985.4609375,-400000.0625,-5857.419921875,-400000.0625
141.06871366500854,-400000.0625,-12901.58984375,-6028.41015625,-400000.0625,-18965.8203125,-400000.0625,-5830.669921875,-400000.0625
141.07821416854858,-400000.0625,-12907.7900390625,-6033.08984375,-400000.0625,-18968.6796875,-400000.0625,-5836.919921875,-400000.0625
141.08694195747375,-400000.0625,-12936.8798828125,-6056.1201171875,-400000.0625,-18996.810546875,-400000.0625,-5863.2900390625,-400000.0625
141.11149621009827,-400000.0625,-12948.4697265625,-6066.60986328125,-400000.0625,-19007.73046875,-400000.0625,-5880.35986328125,-400000.0625
141.11846542358398,-400000.0625,-12927.25,-6049.35009765625,-400000.0625,-18991.279296875,-400000.0625,-5862.14013671875,-400000.0625
141.12698078155518,-400000.0625,-12908.169921875,-6033.0400390625,-400000.0625,-18981.220703125,-400000.0625,-5841.64013671875,-400000.0625
141.14025449752808,-400000.0625,-12909.599609375,-6029.93994140625,-400000.0625,-18975.779296875,-400000.0625,-5839.16015625,-400000.0625
141.14943718910217,-400000.0625,-12936.16015625,-6050.16015625,-400000.0625,-18987.470703125,-400000.0625,-5860.3798828125,-400000.0625
141.1566445827484,-400000.0625,-12949.7998046875,-6065.56005859375,-400000.0625,-18999.630859375,-400000.0625,-5874.919921875,-400000.0625
141.16536831855774,-400000.0625,-12932.6396484375,-6053.10986328125,-400000.0625,-18987.75,-400000.0625,-5858.9501953125,-400000.0625
141.17466402053833,-400000.0625,-12906.3095703125,-6032.93994140625,-400000.0625,-18975.689453125,-400000.0625,-5833.14990234375,-400000.0625
141.18413949012756,-400000.0625,-12909.75,-6033.759765625,-400000.0625,-18975.830078125,-400000.0625,-5832.33984375,-400000.0625
141.19245100021362,-400000.0625,-12937.400390625,-6060.169921875,-400000.0625,-18993.0,-400000.0625,-5863.9501953125,-400000.0625
141.22125148773193,-400000.0625,-12953.3798828125,-6073.3798828125,-400000.0625,-19007.109375,-400000.0625,-5882.259765625,-400000.0625
141.232519865036,-400000.0625,-12937.169921875,-6057.68994140625,-400000.0625,-19000.33984375,-400000.0625,-5868.43994140625,-400000.0625
141.24189257621765,-400000.0625,-12905.169921875,-6028.3701171875,-400000.0625,-18976.310546875,-400000.0625,-5833.2001953125,-400000.0625
141.25228834152222,-400000.0625,-12903.6904296875,-6028.27001953125,-400000.0625,-18971.01953125,-400000.0625,-5831.77001953125,-400000.0625
141.26002526283264,-400000.0625,-12935.4501953125,-6054.5498046875,-400000.0625,-18986.560546875,-400000.0625,-5863.9501953125,-400000.0625
141.2723503112793,-400000.0625,-12955.4296875,-6072.43017578125,-400000.0625,-19006.919921875,-400000.0625,-5883.41015625,-400000.0625
141.28241539001465,-400000.0625,-12941.3095703125,-6059.169921875,-400000.0625,-19001.490234375,-400000.0625,-5869.10009765625,-400000.0625
141.29053616523743,-400000.0625,-12912.080078125,-6033.47021484375,-400000.0625,-18974.5,-400000.0625,-5841.77978515625,-400000.0625
141.30232739448547,-400000.0625,-12915.08984375,-6038.669921875,-400000.0625,-18976.119140625,-400000.0625,-5845.259765625,-400000.0625
141.33925914764404,-400000.0625,-12941.169921875,-6060.27001953125,-400000.0625,-19001.529296875,-400000.0625,-5871.2998046875,-400000.0625
141.36376476287842,-400000.0625,-12957.0,-6073.759765625,-400000.0625,-19009.16015625,-400000.0625,-5885.60009765625,-400000.0625
141.38202095031738,-400000.0625,-12934.0703125,-6056.39990234375,-400000.0625,-18989.990234375,-400000.0625,-5867.240234375,-400000.0625
141.40030932426453,-400000.0625,-12901.7802734375,-6029.509765625,-400000.0625,-18973.349609375,-400000.0625,-5837.72998046875,-400000.0625
141.4121630191803,-400000.0625,-12907.509765625,-6032.60986328125,-400000.0625,-18978.7890625,-400000.0625,-5841.77978515625,-400000.0625
141.44504570960999,-400000.0625,-12941.41015625,-6060.35986328125,-400000.0625,-19000.439453125,-400000.0625,-5870.8701171875,-400000.0625
141.4551875591278,-400000.0625,-12958.580078125,-6073.89990234375,-400000.0625,-19015.890625,-400000.0625,-5888.7001953125,-400000.0625
141.4644238948822,-400000.0625,-12943.3603515625,-6056.60009765625,-400000.0625,-18998.859375,-400000.0625,-5871.5400390625,-400000.0625
141.4772434234619,-400000.0625,-12911.080078125,-6026.83984375,-400000.0625,-18967.490234375,-400000.0625,-5838.2001953125,-400000.0625
141.4863042831421,-400000.0625,-12905.98046875,-6026.4599609375,-400000.0625,-18961.33984375,-400000.0625,-5835.580078125,-400000.0625
141.4980697631836,-400000.0625,-12932.8701171875,-6054.830078125,-400000.0625,-18988.66015625,-400000.0625,-5865.43017578125,-400000.0625
141.51308846473694,-400000.0625,-12948.7099609375,-6067.89990234375,-400000.0625,-19000.439453125,-400000.0625,-5882.1201171875,-400000.0625
141.5615372657776,-400000.0625,-12933.6796875,-6067.7099609375,-400000.0625,-18992.279296875,-400000.0625,-5874.58984375,-400000.0625
141.61752009391785,-400000.0625,-12946.3701171875,-6081.06005859375,-400000.0625,-19008.640625,-400000.0625,-5899.85986328125,-400000.0625
141.68289470672607,-400000.0625,-12929.76953125,-6065.7998046875,-400000.0625,-18996.669921875,-400000.0625,-5881.1201171875,-400000.0625
141.8133146762848,-400000.0625,-12930.490234375,-6061.41015625,-400000.0625,-19002.76953125,-400000.0625,-5889.31982421875,-400000.0625
141.90035319328308,-400000.0625,-12921.240234375,-6051.35009765625,-400000.0625,-18993.669921875,-400000.0625,-5883.27001953125,-400000.0625
141.94782972335815,-400000.0625,-12930.490234375,-6061.64990234375,-400000.0625,-19009.5,-400000.0625,-5892.27978515625,-400000.0625
142.00424981117249,-400000.0625,-12915.66015625,-6047.580078125,-400000.0625,-18993.0,-400000.0625,-5883.64990234375,-400000.0625
142.1326231956482,-400000.0625,-12889.8603515625,-6026.7001953125,-400000.0625,-18982.130859375,-400000.0625,-5864.91015625,-400000.0625
142.20184111595154,-400000.0625,-12912.849609375,-6047.9599609375,-400000.0625,-18999.669921875,-400000.0625,-5898.08984375,-400000.0625
142.29966592788696,-400000.0625,-12919.669921875,-6055.77978515625,-400000.0625,-19004.5390625,-400000.0625,-5907.81982421875,-400000.0625
142.32907128334045,-400000.0625,-12903.169921875,-6043.2900390625,-400000.0625,-18985.990234375,-400000.0625,-5894.330078125,-400000.0625
142.38630485534668,-400000.0625,-12878.7099609375,-6023.97998046875,-400000.0625,-18972.0703125,-400000.0625,-5865.47998046875,-400000.0625
142.51381063461304,-400000.0625,-12889.2001953125,-6033.990234375,-400000.0625,-18986.80078125,-400000.0625,-5883.02978515625,-400000.0625
142.67167377471924,-400000.0625,-12892.150390625,-6041.47998046875,-400000.0625,-18995.240234375,-400000.0625,-5891.60986328125,-400000.0625
142.7793641090393,-400000.0625,-12871.4599609375,-6027.7900390625,-400000.0625,-18977.41015625,-400000.0625,-5861.85986328125,-400000.0625
142.84864974021912,-400000.0625,-12921.3798828125,-6071.27978515625,-400000.0625,-19013.44921875,-400000.0625,-5902.47998046875,-400000.0625
142.90247750282288,-400000.0625,-12909.599609375,-6065.31982421875,-400000.0625,-19007.0703125,-400000.0625,-5905.43994140625,-400000.0625
143.03745913505554,-400000.0625,-12865.259765625,-6021.1201171875,-400000.0625,-18983.4609375,-400000.0625,-5858.3701171875,-400000.0625
143.15528988838196,-400000.0625,-13007.740234375,-6070.60986328125,-400000.0625,-18949.80078125,-400000.0625,-5929.14013671875,-400000.0625
143.21874284744263,-400000.0625,-13379.4296875,-6201.60009765625,-400000.0625,-18828.009765625,-400000.0625,-6096.31982421875,-400000.0625
143.2990801334381,-400000.0625,-13087.5595703125,-6109.330078125,-400000.0625,-18911.080078125,-400000.0625,-5954.60009765625,-400000.0625
143.3970820903778,-400000.0625,-12921.099609375,-6042.0,-400000.0625,-18932.19921875,-400000.0625,-5863.2900390625,-400000.0625
143.4100112915039,-400000.0625,-12896.400390625,-6044.91015625,-400000.0625,-18970.009765625,-400000.0625,-5865.81005859375,-400000.0625
143.54910516738892,-400000.0625,-12926.6796875,-6077.33984375,-400000.0625,-18995.759765625,-400000.0625,-5902.85986328125,-400000.0625
143.57985615730286,-400000.0625,-12902.3095703125,-6059.740234375,-400000.0625,-18979.26953125,-400000.0625,-5887.080078125,-400000.0625
143.59271907806396,-400000.0625,-12873.1298828125,-6033.759765625,-400000.0625,-18960.05078125,-400000.0625,-5851.41015625,-400000.0625
143.6042242050171,-400000.0625,-12886.759765625,-6044.9599609375,-400000.0625,-18969.5390625,-400000.0625,-5864.85986328125,-400000.0625
143.61377573013306,-400000.0625,-12915.759765625,-6069.14013671875,-400000.0625,-18993.859375,-400000.0625,-5892.3701171875,-400000.0625
143.62437963485718,-400000.0625,-12928.6796875,-6078.72021484375,-400000.0625,-19000.2890625,-400000.0625,-5899.81005859375,-400000.0625
143.6340832710266,-400000.0625,-12906.4599609375,-6059.93017578125,-400000.0625,-18986.509765625,-400000.0625,-5873.06005859375,-400000.0625
143.64202165603638,-400000.0625,-12882.330078125,-6037.81005859375,-400000.0625,-18966.19921875,-400000.0625,-5849.22021484375,-400000.0625
143.65339064598083,-400000.0625,-12883.3798828125,-6041.33984375,-400000.0625,-18968.580078125,-400000.0625,-5854.66015625,-400000.0625
143.68667912483215,-400000.0625,-12913.3203125,-6065.89013671875,-400000.0625,-18992.51953125,-400000.0625,-5880.1201171875,-400000.0625
143.70639657974243,-400000.0625,-12927.150390625,-6080.33984375,-400000.0625,-18997.91015625,-400000.0625,-5895.9501953125,-400000.0625
143.72426390647888,-400000.0625,-12908.650390625,-6062.60009765625,-400000.0625,-18982.26953125,-400000.0625,-5878.5,-400000.0625
143.73661184310913,-400000.0625,-12881.2802734375,-6037.43017578125,-400000.0625,-18968.73046875,-400000.0625,-5850.7001953125,-400000.0625
143.74963879585266,-400000.0625,-12883.330078125,-6040.18994140625,-400000.0625,-18969.970703125,-400000.0625,-5854.89013671875,-400000.0625
143.76376056671143,-400000.0625,-12914.0400390625,-6069.22998046875,-400000.0625,-18992.619140625,-400000.0625,-5884.22021484375,-400000.0625
143.80370020866394,-400000.0625,-12929.8701171875,-6084.77978515625,-400000.0625,-19008.259765625,-400000.0625,-5897.6201171875,-400000.0625
143.81647849082947,-400000.0625,-12911.7001953125,-6067.22998046875,-400000.0625,-18990.330078125,-400000.0625,-5879.02001953125,-400000.0625
143.82800030708313,-400000.0625,-12881.849609375,-6038.0498046875,-400000.0625,-18968.009765625,-400000.0625,-5852.56005859375,-400000.0625
143.83973836898804,-400000.0625,-12880.2802734375,-6038.0,-400000.0625,-18964.630859375,-400000.0625,-5850.64990234375,-400000.0625
143.85317969322205,-400000.0625,-12909.599609375,-6066.080078125,-400000.0625,-18984.83984375,-400000.0625,-5881.169921875,-400000.0625
143.86767888069153,-400000.0625,-12923.8095703125,-6078.81982421875,-400000.0625,-18997.720703125,-400000.0625,-5898.2900390625,-400000.0625
143.9034824371338,-400000.0625,-12904.650390625,-6057.97998046875,-400000.0625,-18983.3203125,-400000.0625,-5871.5400390625,-400000.0625
143.9137043952942,-400000.0625,-12882.23046875,-6039.669921875,-400000.0625,-18972.490234375,-400000.0625,-5843.4501953125,-400000.0625
143.92726302146912,-400000.0625,-12897.490234375,-6054.68994140625,-400000.0625,-18985.369140625,-400000.0625,-5864.0498046875,-400000.0625
143.93924760818481,-400000.0625,-12920.51953125,-6074.52001953125,-400000.0625,-19000.720703125,-400000.0625,-5890.1298828125,-400000.0625
143.95225620269775,-400000.0625,-12929.0595703125,-6082.580078125,-400000.0625,-19005.630859375,-400000.0625,-5897.330078125,-400000.0625
143.9661829471588,-400000.0625,-12913.7998046875,-6067.7998046875,-400000.0625,-18993.279296875,-400000.0625,-5878.06982421875,-400000.0625
143.9757900238037,-400000.0625,-12888.8095703125,-6048.2998046875,-400000.0625,-18975.0703125,-400000.0625,-5855.56005859375,-400000.0625
144.0083031654358,-400000.0625,-12890.0498046875,-6048.6298828125,-400000.0625,-18972.2109375,-400000.0625,-5855.89013671875,-400000.0625
144.05040788650513,-400000.0625,-12889.33984375,-6037.18994140625,-400000.0625,-18971.970703125,-400000.0625,-5854.4599609375,-400000.0625
144.133718252182,-400000.0625,-12920.099609375,-6065.31982421875,-400000.0625,-18993.279296875,-400000.0625,-5883.35986328125,-400000.0625
144.2527952194214,-400000.0625,-12913.3203125,-6056.97998046875,-400000.0625,-18988.23046875,-400000.0625,-5870.2998046875,-400000.0625
144.3125410079956,-400000.0625,-12875.7998046875,-6020.5,-400000.0625,-18956.380859375,-400000.0625,-5837.97021484375,-400000.0625
144.36999106407166,-400000.0625,-12899.830078125,-6040.85986328125,-400000.0625,-18971.73046875,-400000.0625,-5848.22021484375,-400000.0625
144.43399739265442,-400000.0625,-12931.1103515625,-6068.66015625,-400000.0625,-18997.859375,-400000.0625,-5879.2099609375,-400000.0625
144.4978940486908,-400000.0625,-12937.8798828125,-6075.91015625,-400000.0625,-18996.720703125,-400000.0625,-5877.2099609375,-400000.0625
144.56412410736084,-400000.0625,-12915.51953125,-6059.22021484375,-400000.0625,-18981.26953125,-400000.0625,-5866.9599609375,-400000.0625
144.71178364753723,-400000.0625,-12903.5498046875,-6044.14990234375,-400000.0625,-18967.439453125,-400000.0625,-5853.4599609375,-400000.0625
144.7576093673706,-400000.0625,-12939.5,-6081.2998046875,-400000.0625,-18988.7109375,-400000.0625,-5872.5400390625,-400000.0625
144.88166666030884,-400000.0625,-12940.4599609375,-6078.2900390625,-400000.0625,-18982.369140625,-400000.0625,-5864.759765625,-400000.0625
144.94911813735962,-400000.0625,-12898.919921875,-6038.7099609375,-400000.0625,-18950.890625,-400000.0625,-5822.22998046875,-400000.0625
145.0087969303131,-400000.0625,-12929.3896484375,-6063.93994140625,-400000.0625,-18969.349609375,-400000.0625,-5847.22021484375,-400000.0625
145.0781750679016,-400000.0625,-12957.6201171875,-6103.3701171875,-400000.0625,-18985.0390625,-400000.0625,-5863.91015625,-400000.0625
145.1550920009613,-400000.0625,-12962.6298828125,-6105.3798828125,-400000.0625,-18989.330078125,-400000.0625,-5871.919921875,-400000.0625
145.23394417762756,-400000.0625,-12921.4296875,-6062.3701171875,-400000.0625,-18951.75,-400000.0625,-5827.0498046875,-400000.0625
145.2794749736786,-400000.0625,-12915.1796875,-6065.18017578125,-400000.0625,-18948.369140625,-400000.0625,-5834.77001953125,-400000.0625
145.33378100395203,-400000.0625,-12966.8701171875,-6098.990234375,-400000.0625,-18981.41015625,-400000.0625,-5879.39990234375,-400000.0625
145.3988802433014,-400000.0625,-12966.4404296875,-6100.3701171875,-400000.0625,-18991.0,-400000.0625,-5880.35986328125,-400000.0625
145.457674741745,-400000.0625,-12961.9599609375,-6097.60009765625,-400000.0625,-18989.900390625,-400000.0625,-5876.10986328125,-400000.0625
145.52285599708557,-400000.0625,-12916.2802734375,-6054.16015625,-400000.0625,-18959.720703125,-400000.0625,-5830.10009765625,-400000.0625
145.6144917011261,-400000.0625,-12924.0498046875,-6066.509765625,-400000.0625,-18962.150390625,-400000.0625,-5850.740234375,-400000.0625
145.68703842163086,-400000.0625,-12912.3701171875,-6055.8798828125,-400000.0625,-18955.759765625,-400000.0625,-5834.06005859375,-400000.0625
145.71702980995178,-400000.0625,-12944.3701171875,-6085.72998046875,-400000.0625,-18978.650390625,-400000.0625,-5872.43994140625,-400000.0625
145.7785062789917,-400000.0625,-12929.6298828125,-6075.0,-400000.0625,-18963.720703125,-400000.0625,-5851.7900390625,-400000.0625
145.852778673172,-400000.0625,-12929.150390625,-6072.330078125,-400000.0625,-18963.48046875,-400000.0625,-5855.27001953125,-400000.0625
145.97256302833557,-400000.0625,-12909.4599609375,-6065.27001953125,-400000.0625,-18958.7109375,-400000.0625,-5825.56982421875,-400000.0625
146.05474710464478,-400000.0625,-12949.330078125,-6095.740234375,-400000.0625,-18982.4609375,-400000.0625,-5865.85986328125,-400000.0625
146.06691312789917,-400000.0625,-12957.1904296875,-6105.60986328125,-400000.0625,-18988.51953125,-400000.0625,-5872.8701171875,-400000.0625
146.07515382766724,-400000.0625,-12933.5400390625,-6083.919921875,-400000.0625,-18974.259765625,-400000.0625,-5846.60009765625,-400000.0625
146.13637948036194,-400000.0625,-12910.080078125,-6059.1201171875,-400000.0625,-18960.619140625,-400000.0625,-5823.7099609375,-400000.0625
146.15691995620728,-400000.0625,-12917.6201171875,-6066.27978515625,-400000.0625,-18961.529296875,-400000.0625,-5836.490234375,-400000.0625
146.17017269134521,-400000.0625,-12947.26953125,-6089.5,-400000.0625,-18975.779296875,-400000.0625,-5859.9501953125,-400000.0625
