time,ch1,ch2,ch3,ch4,ch5,ch6,ch7,ch8
0.05657386779785156,953.8699951171875,8317.23046875,20481.060546875,-400000.0625,-400000.0625,-400000.0625,-400000.0625,-400000.0625
0.05665445327758789,974.22998046875,8342.1201171875,20487.7890625,-400000.0625,-400000.0625,-400000.0625,-400000.0625,-400000.0625
0.056662797927856445,996.0700073242188,8360.0498046875,20491.4609375,-400000.0625,-400000.0625,-400000.0625,-400000.0625,-400000.0625
0.05666804313659668,1010.4199829101562,8371.3095703125,20486.689453125,-400000.0625,-400000.0625,-400000.0625,-400000.0625,-400000.0625
0.0566716194152832,1015.3800048828125,8372.4501953125,20476.25,-400000.0625,-400000.0625,-400000.0625,-400000.0625,-400000.0625
0.05667567253112793,1021.0999755859375,8385.9501953125,20479.970703125,-400000.0625,-400000.0625,-400000.0625,-400000.0625,-400000.0625
0.05667924880981445,1033.4000244140625,8396.580078125,20488.220703125,-400000.0625,-400000.0625,-400000.0625,-400000.0625,-400000.0625
0.05668282508850098,1029.300048828125,8410.0302734375,20491.599609375,-400000.0625,-400000.0625,-400000.0625,-400000.0625,-400000.0625
0.0566864013671875,1038.219970703125,8421.419921875,20496.939453125,-400000.0625,-400000.0625,-400000.0625,-400000.0625,-400000.0625
0.05668997764587402,1039.8900146484375,8422.849609375,20498.759765625,-400000.0625,-400000.0625,-400000.0625,-400000.0625,-400000.0625
0.05669355392456055,1031.8299560546875,8422.23046875,20499.759765625,-400000.0625,-400000.0625,-400000.0625,-400000.0625,-400000.0625
0.05669689178466797,1032.5400390625,8421.08984375,20500.609375,-400000.0625,-400000.0625,-400000.0625,-400000.0625,-400000.0625
0.05670022964477539,1038.219970703125,8426.1396484375,20508.150390625,-400000.0625,-400000.0625,-400000.0625,-400000.0625,-400000.0625
0.056703805923461914,1038.3599853515625,8422.849609375,20507.720703125,-400000.0625,-400000.0625,-400000.0625,-400000.0625,-400000.0625
0.05671405792236328,1030.72998046875,8411.650390625,20498.369140625,-400000.0625,-400000.0625,-400000.0625,-400000.0625,-400000.0625
0.056717634201049805,1024.77001953125,8404.6396484375,20493.130859375,-400000.0625,-400000.0625,-400000.0625,-400000.0625,-400000.0625
0.10882425308227539,1022.0999755859375,8398.580078125,20491.509765625,-400000.0625,-400000.0625,-400000.0625,-400000.0625,-400000.0625
0.10892987251281738,1012.8499755859375,8390.8095703125,20482.640625,-400000.0625,-400000.0625,-400000.0625,-400000.0625,-400000.0625
0.10893583297729492,1004.030029296875,8389.330078125,20482.16015625,-400000.0625,-400000.0625,-400000.0625,-400000.0625,-400000.0625
0.10893964767456055,1004.510009765625,8390.6201171875,20485.119140625,-400000.0625,-400000.0625,-400000.0625,-400000.0625,-400000.0625
0.10894298553466797,1003.6500244140625,8394.150390625,20487.7890625,-400000.0625,-400000.0625,-400000.0625,-400000.0625,-400000.0625
0.11303257942199707,1006.4099731445312,8395.3896484375,20492.169921875,-400000.0625,-400000.0625,-400000.0625,-400000.0625,-400000.0625
0.1130526065826416,1016.7100219726562,8403.58984375,20500.380859375,-400000.0625,-400000.0625,-400000.0625,-400000.0625,-400000.0625
0.11306166648864746,1018.8599853515625,8406.58984375,20503.759765625,-400000.0625,-400000.0625,-400000.0625,-400000.0625,-400000.0625
0.11307072639465332,1021.6699829101562,8410.169921875,20504.4296875,-400000.0625,-400000.0625,-400000.0625,-400000.0625,-400000.0625
0.11307835578918457,1005.510009765625,8398.099609375,20494.890625,-400000.0625,-400000.0625,-400000.0625,-400000.0625,-400000.0625
0.11308574676513672,998.9299926757812,8387.849609375,20490.080078125,-400000.0625,-400000.0625,-400000.0625,-400000.0625,-400000.0625
0.11309337615966797,1020.0,8405.0703125,20507.619140625,-400000.0625,-400000.0625,-400000.0625,-400000.0625,-400000.0625
0.11310791969299316,1025.3399658203125,8410.9296875,20511.439453125,-400000.0625,-400000.0625,-400000.0625,-400000.0625,-400000.0625
0.11311626434326172,1017.8599853515625,8405.2099609375,20505.05078125,-400000.0625,-400000.0625,-400000.0625,-400000.0625,-400000.0625
0.11312413215637207,1004.3599853515625,8392.9501953125,20495.939453125,-400000.0625,-400000.0625,-400000.0625,-400000.0625,-400000.0625
0.11313104629516602,991.0599975585938,8376.740234375,20482.779296875,-400000.0625,-400000.0625,-400000.0625,-400000.0625,-400000.0625
0.16989636421203613,998.5399780273438,8386.990234375,20490.740234375,-400000.0625,-400000.0625,-400000.0625,-400000.0625,-400000.0625
0.16998648643493652,1003.4099731445312,8396.48046875,20499.7109375,-400000.0625,-400000.0625,-400000.0625,-400000.0625,-400000.0625
0.17000055313110352,1000.1699829101562,8393.4296875,20497.849609375,-400000.0625,-400000.0625,-400000.0625,-400000.0625,-400000.0625
0.17000508308410645,985.2899780273438,8381.650390625,20490.029296875,-400000.0625,-400000.0625,-400000.0625,-400000.0625,-400000.0625
0.17000913619995117,982.9500122070312,8378.5498046875,20490.41015625,-400000.0625,-400000.0625,-400000.0625,-400000.0625,-400000.0625
0.1700131893157959,986.719970703125,8378.650390625,20491.41015625,-400000.0625,-400000.0625,-400000.0625,-400000.0625,-400000.0625
0.17001748085021973,989.8200073242188,8382.419921875,20496.3203125,-400000.0625,-400000.0625,-400000.0625,-400000.0625,-400000.0625
0.17002129554748535,989.2000122070312,8390.1396484375,20503.4296875,-400000.0625,-400000.0625,-400000.0625,-400000.0625,-400000.0625
0.17002534866333008,980.6599731445312,8379.5595703125,20492.69921875,-400000.0625,-400000.0625,-400000.0625,-400000.0625,-400000.0625
0.1700296401977539,981.1900024414062,8380.8896484375,20496.509765625,-400000.0625,-400000.0625,-400000.0625,-400000.0625,-400000.0625
0.17003488540649414,988.8200073242188,8393.240234375,20508.859375,-400000.0625,-400000.0625,-400000.0625,-400000.0625,-400000.0625
0.17003893852233887,989.25,8395.009765625,20511.33984375,-400000.0625,-400000.0625,-400000.0625,-400000.0625,-400000.0625
0.1700427532196045,980.9000244140625,8389.1904296875,20504.099609375,-400000.0625,-400000.0625,-400000.0625,-400000.0625,-400000.0625
0.17004656791687012,967.4600219726562,8375.41015625,20491.169921875,-400000.0625,-400000.0625,-400000.0625,-400000.0625,-400000.0625
0.17005062103271484,969.510009765625,8382.7001953125,20498.849609375,-400000.0625,-400000.0625,-400000.0625,-400000.0625,-400000.0625
0.17005443572998047,967.97998046875,8377.83984375,20501.380859375,-400000.0625,-400000.0625,-400000.0625,-400000.0625,-400000.0625
0.23989582061767578,968.030029296875,8379.26953125,20504.669921875,-400000.0625,-400000.0625,-400000.0625,-400000.0625,-400000.0625
0.2423248291015625,966.739990234375,8381.9404296875,20504.759765625,-400000.0625,-400000.0625,-400000.0625,-400000.0625,-400000.0625
0.24234294891357422,966.739990234375,8382.23046875,20500.900390625,-400000.0625,-400000.0625,-400000.0625,-400000.0625,-400000.0625
0.2423536777496338,976.280029296875,8390.51953125,20511.490234375,-400000.0625,-400000.0625,-400000.0625,-400000.0625,-400000.0625
0.24236345291137695,972.030029296875,8380.1298828125,20500.7109375,-400000.0625,-400000.0625,-400000.0625,-400000.0625,-400000.0625
0.24237370491027832,965.97998046875,8379.26953125,20498.900390625,-400000.0625,-400000.0625,-400000.0625,-400000.0625,-400000.0625
0.24238324165344238,963.4000244140625,8372.4501953125,20492.169921875,-400000.0625,-400000.0625,-400000.0625,-400000.0625,-400000.0625
0.24239230155944824,955.530029296875,8366.2001953125,20487.9296875,-400000.0625,-400000.0625,-400000.0625,-400000.0625,-400000.0625
0.2424170970916748,950.8099975585938,8364.6298828125,20492.69921875,-400000.0625,-400000.0625,-400000.0625,-400000.0625,-400000.0625
0.24244451522827148,947.280029296875,8347.6103515625,20487.119140625,-400000.0625,-400000.0625,-400000.0625,-400000.0625,-400000.0625
0.24245023727416992,954.9099731445312,8346.3701171875,20490.9296875,-400000.0625,-400000.0625,-400000.0625,-400000.0625,-400000.0625
0.24245429039001465,973.9400024414062,8362.33984375,20491.509765625,-400000.0625,-400000.0625,-400000.0625,-400000.0625,-400000.0625
0.24245882034301758,969.9299926757812,8340.3603515625,20469.810546875,-400000.0625,-400000.0625,-400000.0625,-400000.0625,-400000.0625
0.2424628734588623,967.97998046875,8312.7998046875,20453.169921875,-400000.0625,-400000.0625,-400000.0625,-400000.0625,-400000.0625
0.24246692657470703,976.9000244140625,8309.9404296875,20445.640625,-400000.0625,-400000.0625,-400000.0625,-400000.0625,-400000.0625
0.24247097969055176,969.1699829101562,8282.08984375,20424.990234375,-400000.0625,-400000.0625,-400000.0625,-400000.0625,-400000.0625
0.34125351905822754,965.260009765625,8264.73046875,20409.6796875,-400000.0625,-400000.0625,-400000.0625,-400000.0625,-400000.0625
0.35387301445007324,953.8200073242188,8246.08984375,20384.310546875,-400000.0625,-400000.0625,-400000.0625,-400000.0625,-400000.0625
0.35901498794555664,946.5700073242188,8221.580078125,20372.25,-400000.0625,-400000.0625,-400000.0625,-400000.0625,-400000.0625
0.36347150802612305,958.010009765625,8220.240234375,20380.0703125,-400000.0625,-400000.0625,-400000.0625,-400000.0625,-400000.0625
0.3634805679321289,975.9400024414062,8234.3095703125,20392.560546875,-400000.0625,-400000.0625,-400000.0625,-400000.0625,-400000.0625
0.36348509788513184,979.7100219726562,8238.2197265625,20392.849609375,-400000.0625,-400000.0625,-400000.0625,-400000.0625,-400000.0625
0.3634955883026123,979.9000244140625,8239.650390625,20388.890625,-400000.0625,-400000.0625,-400000.0625,-400000.0625,-400000.0625
0.36349987983703613,984.1900024414062,8237.7900390625,20386.650390625,-400000.0625,-400000.0625,-400000.0625,-400000.0625,-400000.0625
0.36350369453430176,986.239990234375,8238.9404296875,20388.3203125,-400000.0625,-400000.0625,-400000.0625,-400000.0625,-400000.0625
0.3635075092315674,984.0499877929688,8236.7900390625,20387.509765625,-400000.0625,-400000.0625,-400000.0625,-400000.0625,-400000.0625
0.363511323928833,974.9400024414062,8225.349609375,20379.259765625,-400000.0625,-400000.0625,-400000.0625,-400000.0625,-400000.0625
0.36351513862609863,967.4600219726562,8216.330078125,20374.439453125,-400000.0625,-400000.0625,-400000.0625,-400000.0625,-400000.0625
0.36351895332336426,965.97998046875,8223.6796875,20380.9296875,-400000.0625,-400000.0625,-400000.0625,-400000.0625,-400000.0625
0.3635241985321045,976.8499755859375,8241.849609375,20397.51953125,-400000.0625,-400000.0625,-400000.0625,-400000.0625,-400000.0625
0.3635280132293701,983.3800048828125,8244.1796875,20399.619140625,-400000.0625,-400000.0625,-400000.0625,-400000.0625,-400000.0625
0.36353182792663574,973.75,8236.3095703125,20394.23046875,-400000.0625,-400000.0625,-400000.0625,-400000.0625,-400000.0625
0.36353635787963867,973.8400268554688,8235.3603515625,20392.939453125,-400000.0625,-400000.0625,-400000.0625,-400000.0625,-400000.0625
0.3635406494140625,980.0900268554688,8237.5498046875,20395.470703125,-400000.0625,-400000.0625,-400000.0625,-400000.0625,-400000.0625
0.36354517936706543,985.1900024414062,8241.419921875,20399.91015625,-400000.0625,-400000.0625,-400000.0625,-400000.0625,-400000.0625
0.36354923248291016,981.760009765625,8241.849609375,20398.05078125,-400000.0625,-400000.0625,-400000.0625,-400000.0625,-400000.0625
0.3635580539703369,974.4600219726562,8238.7001953125,20396.279296875,-400000.0625,-400000.0625,-400000.0625,-400000.0625,-400000.0625
0.36356163024902344,977.0399780273438,8240.650390625,20401.05078125,-400000.0625,-400000.0625,-400000.0625,-400000.0625,-400000.0625
0.36356616020202637,976.9400024414062,8248.759765625,20407.25,-400000.0625,-400000.0625,-400000.0625,-400000.0625,-400000.0625
0.363569974899292,987.9099731445312,8254.4296875,20414.0703125,-400000.0625,-400000.0625,-400000.0625,-400000.0625,-400000.0625
0.3635737895965576,984.239990234375,8249.3798828125,20406.490234375,-400000.0625,-400000.0625,-400000.0625,-400000.0625,-400000.0625
0.36357760429382324,982.6699829101562,8247.66015625,20403.390625,-400000.0625,-400000.0625,-400000.0625,-400000.0625,-400000.0625
0.36358118057250977,979.9500122070312,8254.0,20410.2109375,-400000.0625,-400000.0625,-400000.0625,-400000.0625,-400000.0625
0.3635849952697754,969.7899780273438,8245.849609375,20401.240234375,-400000.0625,-400000.0625,-400000.0625,-400000.0625,-400000.0625
0.3635892868041992,962.260009765625,8235.259765625,20393.08984375,-400000.0625,-400000.0625,-400000.0625,-400000.0625,-400000.0625
0.36359381675720215,964.780029296875,8239.0302734375,20398.189453125,-400000.0625,-400000.0625,-400000.0625,-400000.0625,-400000.0625
0.3635976314544678,961.5399780273438,8243.990234375,20402.529296875,-400000.0625,-400000.0625,-400000.0625,-400000.0625,-400000.0625
0.3636014461517334,963.4000244140625,8252.669921875,20407.8203125,-400000.0625,-400000.0625,-400000.0625,-400000.0625,-400000.0625
0.4257173538208008,967.260009765625,8258.73046875,20412.970703125,-400000.0625,-400000.0625,-400000.0625,-400000.0625,-400000.0625
0.4306063652038574,966.3599853515625,8253.91015625,20409.869140625,-400000.0625,-400000.0625,-400000.0625,-400000.0625,-400000.0625
0.43062663078308105,972.6500244140625,8254.91015625,20408.390625,-400000.0625,-400000.0625,-400000.0625,-400000.0625,-400000.0625
0.430631160736084,963.6900024414062,8244.5595703125,20399.529296875,-400000.0625,-400000.0625,-400000.0625,-400000.0625,-400000.0625
0.4306354522705078,961.1099853515625,8242.8896484375,20400.48046875,-400000.0625,-400000.0625,-400000.0625,-400000.0625,-400000.0625
0.43063950538635254,968.3099975585938,8249.0,20408.8203125,-400000.0625,-400000.0625,-400000.0625,-400000.0625,-400000.0625
0.43064332008361816,968.219970703125,8247.51953125,20406.30078125,-400000.0625,-400000.0625,-400000.0625,-400000.0625,-400000.0625
0.4306468963623047,963.8300170898438,8242.3203125,20400.240234375,-400000.0625,-400000.0625,-400000.0625,-400000.0625,-400000.0625
0.4306507110595703,955.8699951171875,8241.0302734375,20400.5703125,-400000.0625,-400000.0625,-400000.0625,-400000.0625,-400000.0625
0.43065476417541504,949.8599853515625,8237.080078125,20397.279296875,-400000.0625,-400000.0625,-400000.0625,-400000.0625,-400000.0625
0.43065857887268066,951.4299926757812,8240.83984375,20402.580078125,-400000.0625,-400000.0625,-400000.0625,-400000.0625,-400000.0625
0.4306623935699463,953.25,8238.2197265625,20400.619140625,-400000.0625,-400000.0625,-400000.0625,-400000.0625,-400000.0625
0.430666446685791,954.2899780273438,8234.259765625,20396.94921875,-400000.0625,-400000.0625,-400000.0625,-400000.0625,-400000.0625
0.43067145347595215,963.4500122070312,8243.1298828125,20402.76953125,-400000.0625,-400000.0625,-400000.0625,-400000.0625,-400000.0625
0.430680513381958,968.5,8252.5302734375,20410.16015625,-400000.0625,-400000.0625,-400000.0625,-400000.0625,-400000.0625
0.43068456649780273,970.7899780273438,8253.150390625,20411.58984375,-400000.0625,-400000.0625,-400000.0625,-400000.0625,-400000.0625
0.49775052070617676,962.969970703125,8247.2802734375,20406.19921875,-400000.0625,-400000.0625,-400000.0625,-400000.0625,-400000.0625
0.5124328136444092,951.8099975585938,8238.75,20397.5703125,-400000.0625,-400000.0625,-400000.0625,-400000.0625,-400000.0625
0.5166752338409424,948.0499877929688,8236.9296875,20396.279296875,-400000.0625,-400000.0625,-400000.0625,-400000.0625,-400000.0625
0.5166835784912109,948.239990234375,8248.0400390625,20406.919921875,-400000.0625,-400000.0625,-400000.0625,-400000.0625,-400000.0625
0.5166878700256348,951.530029296875,8250.51953125,20407.630859375,-400000.0625,-400000.0625,-400000.0625,-400000.0625,-400000.0625
0.5166921615600586,944.8499755859375,8241.5595703125,20398.189453125,-400000.0625,-400000.0625,-400000.0625,-400000.0625,-400000.0625
0.5166962146759033,948.47998046875,8244.900390625,20399.859375,-400000.0625,-400000.0625,-400000.0625,-400000.0625,-400000.0625
0.516700029373169,944.0900268554688,8243.2802734375,20399.529296875,-400000.0625,-400000.0625,-400000.0625,-400000.0625,-400000.0625
0.5167036056518555,945.6199951171875,8248.849609375,20407.150390625,-400000.0625,-400000.0625,-400000.0625,-400000.0625,-400000.0625
0.5167074203491211,951.8599853515625,8253.8603515625,20409.8203125,-400000.0625,-400000.0625,-400000.0625,-400000.0625,-400000.0625
0.5167114734649658,941.280029296875,8241.4599609375,20398.2890625,-400000.0625,-400000.0625,-400000.0625,-400000.0625,-400000.0625
0.5167152881622314,936.6500244140625,8236.3603515625,20392.939453125,-400000.0625,-400000.0625,-400000.0625,-400000.0625,-400000.0625
0.5167191028594971,943.3699951171875,8249.0498046875,20403.099609375,-400000.0625,-400000.0625,-400000.0625,-400000.0625,-400000.0625
0.5167229175567627,946.469970703125,8255.6298828125,20413.349609375,-400000.0625,-400000.0625,-400000.0625,-400000.0625,-400000.0625
0.5167281627655029,945.0,8258.0595703125,20415.359375,-400000.0625,-400000.0625,-400000.0625,-400000.0625,-400000.0625
0.5167365074157715,947.5700073242188,8250.91015625,20410.970703125,-400000.0625,-400000.0625,-400000.0625,-400000.0625,-400000.0625
0.5588579177856445,940.6099853515625,8247.900390625,20403.630859375,-400000.0625,-400000.0625,-400000.0625,-400000.0625,-400000.0625
0.5641429424285889,940.8499755859375,8244.419921875,20400.099609375,-400000.0625,-400000.0625,-400000.0625,-400000.0625,-400000.0625
0.5684266090393066,930.260009765625,8241.26953125,20397.0,-400000.0625,-400000.0625,-400000.0625,-400000.0625,-400000.0625
0.5684351921081543,934.97998046875,8249.330078125,20407.390625,-400000.0625,-400000.0625,-400000.0625,-400000.0625,-400000.0625
0.5684397220611572,940.469970703125,8248.08984375,20405.6796875,-400000.0625,-400000.0625,-400000.0625,-400000.0625,-400000.0625
0.5684473514556885,937.8900146484375,8240.9404296875,20397.140625,-400000.0625,-400000.0625,-400000.0625,-400000.0625,-400000.0625
0.5684516429901123,925.8300170898438,8232.01953125,20393.1796875,-400000.0625,-400000.0625,-400000.0625,-400000.0625,-400000.0625
0.5684559345245361,919.8200073242188,8235.259765625,20395.330078125,-400000.0625,-400000.0625,-400000.0625,-400000.0625,-400000.0625
0.56846022605896,927.5900268554688,8244.9404296875,20404.9609375,-400000.0625,-400000.0625,-400000.0625,-400000.0625,-400000.0625
0.5684640407562256,923.6799926757812,8239.26953125,20400.619140625,-400000.0625,-400000.0625,-400000.0625,-400000.0625,-400000.0625
0.5684680938720703,919.2899780273438,8228.7802734375,20388.990234375,-400000.0625,-400000.0625,-400000.0625,-400000.0625,-400000.0625
0.5684719085693359,933.5999755859375,8244.6103515625,20404.25,-400000.0625,-400000.0625,-400000.0625,-400000.0625,-400000.0625
0.5684764385223389,930.5,8252.5302734375,20407.390625,-400000.0625,-400000.0625,-400000.0625,-400000.0625,-400000.0625
0.5684804916381836,920.9199829101562,8243.849609375,20402.619140625,-400000.0625,-400000.0625,-400000.0625,-400000.0625,-400000.0625
0.5684847831726074,914.0499877929688,8234.5,20394.1796875,-400000.0625,-400000.0625,-400000.0625,-400000.0625,-400000.0625
0.568488597869873,912.3300170898438,8226.8701171875,20387.560546875,-400000.0625,-400000.0625,-400000.0625,-400000.0625,-400000.0625
0.6188266277313232,912.1400146484375,8226.490234375,20387.560546875,-400000.0625,-400000.0625,-400000.0625,-400000.0625,-400000.0625
0.631737470626831,914.0,8238.4599609375,20397.330078125,-400000.0625,-400000.0625,-400000.0625,-400000.0625,-400000.0625
0.6367676258087158,924.5399780273438,8249.6201171875,20410.6796875,-400000.0625,-400000.0625,-400000.0625,-400000.0625,-400000.0625
0.6417396068572998,924.2999877929688,8246.4697265625,20408.25,-400000.0625,-400000.0625,-400000.0625,-400000.0625,-400000.0625
0.6417496204376221,913.3800048828125,8233.0703125,20394.759765625,-400000.0625,-400000.0625,-400000.0625,-400000.0625,-400000.0625
0.6417553424835205,908.0399780273438,8235.650390625,20396.189453125,-400000.0625,-400000.0625,-400000.0625,-400000.0625,-400000.0625
0.6417593955993652,891.489990234375,8220.099609375,20384.98046875,-400000.0625,-400000.0625,-400000.0625,-400000.0625,-400000.0625
0.6417632102966309,883.9600219726562,8217.0498046875,20381.2109375,-400000.0625,-400000.0625,-400000.0625,-400000.0625,-400000.0625
0.6417734622955322,889.6799926757812,8215.240234375,20380.359375,-400000.0625,-400000.0625,-400000.0625,-400000.0625,-400000.0625
0.6471283435821533,905.989990234375,8215.51953125,20376.2109375,-400000.0625,-400000.0625,-400000.0625,-400000.0625,-400000.0625
0.6514403820037842,918.530029296875,8223.2001953125,20375.2109375,-400000.0625,-400000.0625,-400000.0625,-400000.0625,-400000.0625
0.6514492034912109,927.5,8217.8603515625,20372.25,-400000.0625,-400000.0625,-400000.0625,-400000.0625,-400000.0625
0.6514537334442139,939.6599731445312,8201.5,20366.2890625,-400000.0625,-400000.0625,-400000.0625,-400000.0625,-400000.0625
0.6514585018157959,957.969970703125,8203.169921875,20351.220703125,-400000.0625,-400000.0625,-400000.0625,-400000.0625,-400000.0625
0.6514627933502197,981.9000244140625,8211.900390625,20341.44921875,-400000.0625,-400000.0625,-400000.0625,-400000.0625,-400000.0625
0.6514666080474854,979.3300170898438,8187.33984375,20317.4609375,-400000.0625,-400000.0625,-400000.0625,-400000.0625,-400000.0625
0.7213623523712158,982.239990234375,8177.330078125,20297.580078125,-400000.0625,-400000.0625,-400000.0625,-400000.0625,-400000.0625
0.731992244720459,998.8800048828125,8174.60986328125,20290.51953125,-400000.0625,-400000.0625,-400000.0625,-400000.0625,-400000.0625
0.7375931739807129,1017.6699829101562,8160.5400390625,20281.650390625,-400000.0625,-400000.0625,-400000.0625,-400000.0625,-400000.0625
0.7427399158477783,1041.3599853515625,8158.58984375,20267.779296875,-400000.0625,-400000.0625,-400000.0625,-400000.0625,-400000.0625
0.747567892074585,1057.010009765625,8164.7900390625,20259.33984375,-400000.0625,-400000.0625,-400000.0625,-400000.0625,-400000.0625
0.7475767135620117,1074.739990234375,8179.3798828125,20263.2890625,-400000.0625,-400000.0625,-400000.0625,-400000.0625,-400000.0625
0.7475814819335938,1075.3599853515625,8173.08984375,20259.33984375,-400000.0625,-400000.0625,-400000.0625,-400000.0625,-400000.0625
0.7475855350494385,1067.8299560546875,8154.580078125,20245.509765625,-400000.0625,-400000.0625,-400000.0625,-400000.0625,-400000.0625
0.7475955486297607,1070.449951171875,8153.009765625,20246.3203125,-400000.0625,-400000.0625,-400000.0625,-400000.0625,-400000.0625
0.7475993633270264,1064.010009765625,8147.77001953125,20247.560546875,-400000.0625,-400000.0625,-400000.0625,-400000.0625,-400000.0625
0.747603178024292,1066.489990234375,8153.43994140625,20253.7109375,-400000.0625,-400000.0625,-400000.0625,-400000.0625,-400000.0625
0.7476067543029785,1065.8699951171875,8158.64013671875,20253.419921875,-400000.0625,-400000.0625,-400000.0625,-400000.0625,-400000.0625
0.7476108074188232,1063.06005859375,8157.64013671875,20250.080078125,-400000.0625,-400000.0625,-400000.0625,-400000.0625,-400000.0625
0.7476155757904053,1064.6800537109375,8155.919921875,20250.080078125,-400000.0625,-400000.0625,-400000.0625,-400000.0625,-400000.0625
0.7476193904876709,1058.0999755859375,8146.72021484375,20244.41015625,-400000.0625,-400000.0625,-400000.0625,-400000.0625,-400000.0625
0.7476229667663574,1061.8199462890625,8156.43994140625,20254.279296875,-400000.0625,-400000.0625,-400000.0625,-400000.0625,-400000.0625
0.7551965713500977,1064.9200439453125,8160.02001953125,20259.099609375,-400000.0625,-400000.0625,-400000.0625,-400000.0625,-400000.0625
0.7606897354125977,1064.969970703125,8157.10986328125,20259.140625,-400000.0625,-400000.0625,-400000.0625,-400000.0625,-400000.0625
0.765641450881958,1063.300048828125,8156.490234375,20257.669921875,-400000.0625,-400000.0625,-400000.0625,-400000.0625,-400000.0625
0.7656509876251221,1060.3399658203125,8160.31005859375,20262.19921875,-400000.0625,-400000.0625,-400000.0625,-400000.0625,-400000.0625
0.7656605243682861,1056.8599853515625,8160.93017578125,20266.580078125,-400000.0625,-400000.0625,-400000.0625,-400000.0625,-400000.0625
0.7656645774841309,1059.010009765625,8167.22021484375,20271.830078125,-400000.0625,-400000.0625,-400000.0625,-400000.0625,-400000.0625
0.7656686305999756,1051.52001953125,8159.35009765625,20266.439453125,-400000.0625,-400000.0625,-400000.0625,-400000.0625,-400000.0625
0.7656748294830322,1046.1300048828125,8158.39990234375,20264.439453125,-400000.0625,-400000.0625,-400000.0625,-400000.0625,-400000.0625
0.765678882598877,1048.0400390625,8161.16015625,20267.060546875,-400000.0625,-400000.0625,-400000.0625,-400000.0625,-400000.0625
0.7656826972961426,1051.0899658203125,8161.2099609375,20271.2109375,-400000.0625,-400000.0625,-400000.0625,-400000.0625,-400000.0625
0.7656865119934082,1045.93994140625,8158.490234375,20269.779296875,-400000.0625,-400000.0625,-400000.0625,-400000.0625,-400000.0625
0.7656905651092529,1045.510009765625,8156.77978515625,20267.919921875,-400000.0625,-400000.0625,-400000.0625,-400000.0625,-400000.0625
0.7656943798065186,1041.27001953125,8160.259765625,20270.060546875,-400000.0625,-400000.0625,-400000.0625,-400000.0625,-400000.0625
0.7656979560852051,1043.4200439453125,8160.02001953125,20271.830078125,-400000.0625,-400000.0625,-400000.0625,-400000.0625,-400000.0625
0.7704224586486816,1038.8900146484375,8157.64013671875,20270.490234375,-400000.0625,-400000.0625,-400000.0625,-400000.0625,-400000.0625
0.7704322338104248,1042.8900146484375,8166.89013671875,20281.359375,-400000.0625,-400000.0625,-400000.0625,-400000.0625,-400000.0625
0.8103375434875488,1041.97998046875,8160.64013671875,20278.689453125,-400000.0625,-400000.0625,-400000.0625,-400000.0625,-400000.0625
0.8154165744781494,1037.0699462890625,8153.43994140625,20273.16015625,-400000.0625,-400000.0625,-400000.0625,-400000.0625,-400000.0625
0.819960355758667,1043.1800537109375,8162.259765625,20280.98046875,-400000.0625,-400000.0625,-400000.0625,-400000.0625,-400000.0625
0.8199694156646729,1040.1700439453125,8161.8798828125,20281.4609375,-400000.0625,-400000.0625,-400000.0625,-400000.0625,-400000.0625
0.819974422454834,1045.8900146484375,8165.06982421875,20283.650390625,-400000.0625,-400000.0625,-400000.0625,-400000.0625,-400000.0625
0.8199784755706787,1045.75,8159.5400390625,20280.080078125,-400000.0625,-400000.0625,-400000.0625,-400000.0625,-400000.0625
0.8199825286865234,1042.1800537109375,8154.43994140625,20280.650390625,-400000.0625,-400000.0625,-400000.0625,-400000.0625,-400000.0625
0.8199863433837891,1032.8800048828125,8153.06005859375,20281.169921875,-400000.0625,-400000.0625,-400000.0625,-400000.0625,-400000.0625
0.8199903964996338,1026.199951171875,8150.009765625,20283.220703125,-400000.0625,-400000.0625,-400000.0625,-400000.0625,-400000.0625
0.819995641708374,1035.68994140625,8159.2998046875,20293.4296875,-400000.0625,-400000.0625,-400000.0625,-400000.0625,-400000.0625
0.8199996948242188,1040.27001953125,8163.5498046875,20296.48046875,-400000.0625,-400000.0625,-400000.0625,-400000.0625,-400000.0625
0.8200035095214844,1047.0899658203125,8168.75,20300.19921875,-400000.0625,-400000.0625,-400000.0625,-400000.0625,-400000.0625
0.8200070858001709,1034.1600341796875,8151.25,20286.849609375,-400000.0625,-400000.0625,-400000.0625,-400000.0625,-400000.0625
0.8200109004974365,1029.06005859375,8147.18994140625,20289.140625,-400000.0625,-400000.0625,-400000.0625,-400000.0625,-400000.0625
0.8200147151947021,1031.780029296875,8146.669921875,20294.48046875,-400000.0625,-400000.0625,-400000.0625,-400000.0625,-400000.0625
0.8200185298919678,1032.300048828125,8148.14990234375,20295.4296875,-400000.0625,-400000.0625,-400000.0625,-400000.0625,-400000.0625
0.8755416870117188,1043.4200439453125,8166.7001953125,20310.9296875,-400000.0625,-400000.0625,-400000.0625,-400000.0625,-400000.0625
0.8855133056640625,1044.800048828125,8180.91015625,20320.939453125,-400000.0625,-400000.0625,-400000.0625,-400000.0625,-400000.0625
0.8901140689849854,1012.3699951171875,8136.93994140625,20287.1796875,-400000.0625,-400000.0625,-400000.0625,-400000.0625,-400000.0625
0.8901228904724121,1001.8300170898438,8120.2001953125,20276.220703125,-400000.0625,-400000.0625,-400000.0625,-400000.0625,-400000.0625
0.890127420425415,1014.52001953125,8118.81982421875,20277.41015625,-400000.0625,-400000.0625,-400000.0625,-400000.0625,-400000.0625
0.8901317119598389,1043.1800537109375,8138.08984375,20292.94921875,-400000.0625,-400000.0625,-400000.0625,-400000.0625,-400000.0625
0.8901355266571045,1064.06005859375,8156.009765625,20299.8203125,-400000.0625,-400000.0625,-400000.0625,-400000.0625,-400000.0625
0.8901395797729492,1053.6199951171875,8128.64013671875,20269.919921875,-400000.0625,-400000.0625,-400000.0625,-400000.0625,-400000.0625
0.8901433944702148,1048.52001953125,8088.02001953125,20245.69921875,-400000.0625,-400000.0625,-400000.0625,-400000.0625,-400000.0625
0.8901474475860596,1064.9200439453125,8091.16015625,20249.3203125,-400000.0625,-400000.0625,-400000.0625,-400000.0625,-400000.0625
0.8901512622833252,1093.199951171875,8114.77001953125,20258.48046875,-400000.0625,-400000.0625,-400000.0625,-400000.0625,-400000.0625
0.8901553153991699,1114.3199462890625,8128.830078125,20264.9609375,-400000.0625,-400000.0625,-400000.0625,-400000.0625,-400000.0625
0.8901591300964355,1097.1500244140625,8097.740234375,20240.880859375,-400000.0625,-400000.0625,-400000.0625,-400000.0625,-400000.0625
0.8901629447937012,1084.22998046875,8067.990234375,20220.330078125,-400000.0625,-400000.0625,-400000.0625,-400000.0625,-400000.0625
0.8901677131652832,1077.699951171875,8065.27001953125,20215.419921875,-400000.0625,-400000.0625,-400000.0625,-400000.0625,-400000.0625
0.8901715278625488,1092.8599853515625,8097.080078125,20242.220703125,-400000.0625,-400000.0625,-400000.0625,-400000.0625,-400000.0625
0.9411683082580566,1101.1099853515625,8109.9501953125,20255.0390625,-400000.0625,-400000.0625,-400000.0625,-400000.0625,-400000.0625
0.9466803073883057,1079.0799560546875,8089.919921875,20236.30078125,-400000.0625,-400000.0625,-400000.0625,-400000.0625,-400000.0625
0.9509565830230713,1062.1099853515625,8059.93017578125,20215.509765625,-400000.0625,-400000.0625,-400000.0625,-400000.0625,-400000.0625
0.9509639739990234,1074.219970703125,8065.509765625,20222.5703125,-400000.0625,-400000.0625,-400000.0625,-400000.0625,-400000.0625
0.9509687423706055,1088.4300537109375,8091.64013671875,20242.55078125,-400000.0625,-400000.0625,-400000.0625,-400000.0625,-400000.0625
0.9509730339050293,1089.530029296875,8101.0400390625,20246.7890625,-400000.0625,-400000.0625,-400000.0625,-400000.0625,-400000.0625
0.9509768486022949,1072.0699462890625,8077.77001953125,20231.439453125,-400000.0625,-400000.0625,-400000.0625,-400000.0625,-400000.0625
0.950984001159668,1066.1600341796875,8068.22998046875,20230.33984375,-400000.0625,-400000.0625,-400000.0625,-400000.0625,-400000.0625
0.9509878158569336,1068.449951171875,8073.14013671875,20233.8203125,-400000.0625,-400000.0625,-400000.0625,-400000.0625,-400000.0625
0.9509928226470947,1074.5,8083.919921875,20243.119140625,-400000.0625,-400000.0625,-400000.0625,-400000.0625,-400000.0625
0.9509963989257812,1076.8900146484375,8091.93017578125,20249.75,-400000.0625,-400000.0625,-400000.0625,-400000.0625,-400000.0625
0.9510002136230469,1061.1500244140625,8073.81005859375,20231.8203125,-400000.0625,-400000.0625,-400000.0625,-400000.0625,-400000.0625
0.9510040283203125,1053.3800048828125,8055.77978515625,20223.0,-400000.0625,-400000.0625,-400000.0625,-400000.0625,-400000.0625
0.951007604598999,1065.300048828125,8063.35986328125,20235.640625,-400000.0625,-400000.0625,-400000.0625,-400000.0625,-400000.0625
0.9510116577148438,1088.8599853515625,8095.169921875,20262.4296875,-400000.0625,-400000.0625,-400000.0625,-400000.0625,-400000.0625
0.951016902923584,1085.1400146484375,8094.06982421875,20258.2890625,-400000.0625,-400000.0625,-400000.0625,-400000.0625,-400000.0625
1.0048542022705078,1055.8599853515625,8066.89013671875,20233.8203125,-400000.0625,-400000.0625,-400000.0625,-400000.0625,-400000.0625
1.0145659446716309,1054.0999755859375,8060.35986328125,20231.390625,-400000.0625,-400000.0625,-400000.0625,-400000.0625,-400000.0625
1.0188534259796143,1061.6300048828125,8074.240234375,20244.7890625,-400000.0625,-400000.0625,-400000.0625,-400000.0625,-400000.0625
1.0188617706298828,1081.9000244140625,8102.47021484375,20270.349609375,-400000.0625,-400000.0625,-400000.0625,-400000.0625,-400000.0625
1.0188663005828857,1076.27001953125,8102.1298828125,20266.5390625,-400000.0625,-400000.0625,-400000.0625,-400000.0625,-400000.0625
1.0188703536987305,1044.699951171875,8074.18994140625,20242.689453125,-400000.0625,-400000.0625,-400000.0625,-400000.0625,-400000.0625
1.0188746452331543,1033.9300537109375,8051.2998046875,20228.150390625,-400000.0625,-400000.0625,-400000.0625,-400000.0625,-400000.0625
1.01887845993042,1049.0400390625,8064.02978515625,20243.5,-400000.0625,-400000.0625,-400000.0625,-400000.0625,-400000.0625
1.0188822746276855,1065.72998046875,8092.2099609375,20264.9609375,-400000.0625,-400000.0625,-400000.0625,-400000.0625,-400000.0625
1.0188860893249512,1066.2099609375,8098.56005859375,20268.16015625,-400000.0625,-400000.0625,-400000.0625,-400000.0625,-400000.0625
1.0188899040222168,1046.93994140625,8081.580078125,20251.3203125,-400000.0625,-400000.0625,-400000.0625,-400000.0625,-400000.0625
1.0188937187194824,1028.6800537109375,8056.31005859375,20232.16015625,-400000.0625,-400000.0625,-400000.0625,-400000.0625,-400000.0625
1.0188987255096436,1037.0699462890625,8068.27978515625,20244.029296875,-400000.0625,-400000.0625,-400000.0625,-400000.0625,-400000.0625
1.0189027786254883,1063.25,8108.43017578125,20278.310546875,-400000.0625,-400000.0625,-400000.0625,-400000.0625,-400000.0625
1.018906831741333,1049.5699462890625,8102.89013671875,20270.869140625,-400000.0625,-400000.0625,-400000.0625,-400000.0625,-400000.0625
1.0189108848571777,1018.0,8063.509765625,20237.830078125,-400000.0625,-400000.0625,-400000.0625,-400000.0625,-400000.0625
1.090364694595337,1010.1300048828125,8039.27978515625,20223.099609375,-400000.0625,-400000.0625,-400000.0625,-400000.0625,-400000.0625
1.0983734130859375,1029.06005859375,8061.4599609375,20244.41015625,-400000.0625,-400000.0625,-400000.0625,-400000.0625,-400000.0625
1.1098945140838623,1061.5400390625,8106.85009765625,20282.939453125,-400000.0625,-400000.0625,-400000.0625,-400000.0625,-400000.0625
1.1190390586853027,1056.3900146484375,8118.06005859375,20286.470703125,-400000.0625,-400000.0625,-400000.0625,-400000.0625,-400000.0625
1.1244330406188965,1016.469970703125,8067.419921875,20242.880859375,-400000.0625,-400000.0625,-400000.0625,-400000.0625,-400000.0625
1.129760503768921,997.3499755859375,8035.330078125,20219.140625,-400000.0625,-400000.0625,-400000.0625,-400000.0625,-400000.0625
1.1346986293792725,1017.52001953125,8055.93017578125,20238.259765625,-400000.0625,-400000.0625,-400000.0625,-400000.0625,-400000.0625
1.1347076892852783,1054.4300537109375,8106.66015625,20280.41015625,-400000.0625,-400000.0625,-400000.0625,-400000.0625,-400000.0625
1.1347126960754395,1054.81005859375,8120.10986328125,20285.66015625,-400000.0625,-400000.0625,-400000.0625,-400000.0625,-400000.0625
1.1347200870513916,1024.43994140625,8085.10986328125,20254.900390625,-400000.0625,-400000.0625,-400000.0625,-400000.0625,-400000.0625
1.1347243785858154,1012.3699951171875,8056.2099609375,20234.630859375,-400000.0625,-400000.0625,-400000.0625,-400000.0625,-400000.0625
1.1347296237945557,1020.5700073242188,8067.080078125,20245.599609375,-400000.0625,-400000.0625,-400000.0625,-400000.0625,-400000.0625
1.1347336769104004,1040.4100341796875,8102.7001953125,20274.640625,-400000.0625,-400000.0625,-400000.0625,-400000.0625,-400000.0625
1.1347393989562988,1044.93994140625,8115.240234375,20285.279296875,-400000.0625,-400000.0625,-400000.0625,-400000.0625,-400000.0625
1.1347432136535645,1016.3300170898438,8077.9599609375,20249.3203125,-400000.0625,-400000.0625,-400000.0625,-400000.0625,-400000.0625
1.1347475051879883,1000.9299926757812,8048.06005859375,20226.390625,-400000.0625,-400000.0625,-400000.0625,-400000.0625,-400000.0625
1.1350853443145752,1009.1300048828125,8061.93017578125,20243.4609375,-400000.0625,-400000.0625,-400000.0625,-400000.0625,-400000.0625
1.1399576663970947,1040.030029296875,8092.2099609375,20273.16015625,-400000.0625,-400000.0625,-400000.0625,-400000.0625,-400000.0625
1.1399657726287842,1040.1300048828125,8092.2099609375,20271.830078125,-400000.0625,-400000.0625,-400000.0625,-400000.0625,-400000.0625
1.1399705410003662,998.4500122070312,8070.14013671875,20246.83984375,-400000.0625,-400000.0625,-400000.0625,-400000.0625,-400000.0625
1.139974594116211,966.3599853515625,8073.9501953125,20251.23046875,-400000.0625,-400000.0625,-400000.0625,-400000.0625,-400000.0625
1.1399784088134766,963.02001953125,8095.68994140625,20273.970703125,-400000.0625,-400000.0625,-400000.0625,-400000.0625,-400000.0625
1.1399822235107422,981.3800048828125,8142.52001953125,20318.080078125,-400000.0625,-400000.0625,-400000.0625,-400000.0625,-400000.0625
1.1399860382080078,964.8300170898438,8168.080078125,20334.439453125,-400000.0625,-400000.0625,-400000.0625,-400000.0625,-400000.0625
1.139995813369751,913.239990234375,8143.47021484375,20314.650390625,-400000.0625,-400000.0625,-400000.0625,-400000.0625,-400000.0625
1.1399996280670166,886.72998046875,8129.5498046875,20317.990234375,-400000.0625,-400000.0625,-400000.0625,-400000.0625,-400000.0625
1.1400032043457031,889.489990234375,8159.72998046875,20350.169921875,-400000.0625,-400000.0625,-400000.0625,-400000.0625,-400000.0625
1.1400070190429688,900.4099731445312,8207.990234375,20386.83984375,-400000.0625,-400000.0625,-400000.0625,-400000.0625,-400000.0625
1.1400108337402344,892.4500122070312,8217.6201171875,20396.140625,-400000.0625,-400000.0625,-400000.0625,-400000.0625,-400000.0625
1.1400146484375,852.6300048828125,8174.7998046875,20362.330078125,-400000.0625,-400000.0625,-400000.0625,-400000.0625,-400000.0625
1.1400198936462402,835.7999877929688,8151.47998046875,20352.029296875,-400000.0625,-400000.0625,-400000.0625,-400000.0625,-400000.0625
1.1400237083435059,849.719970703125,8166.41015625,20365.9609375,-400000.0625,-400000.0625,-400000.0625,-400000.0625,-400000.0625
1.2121243476867676,868.030029296875,8196.01953125,20392.3203125,-400000.0625,-400000.0625,-400000.0625,-400000.0625,-400000.0625
1.2225091457366943,868.3699951171875,8199.3095703125,20392.130859375,-400000.0625,-400000.0625,-400000.0625,-400000.0625,-400000.0625
1.227555751800537,845.8099975585938,8164.68994140625,20365.189453125,-400000.0625,-400000.0625,-400000.0625,-400000.0625,-400000.0625
1.2319352626800537,837.0399780273438,8135.4599609375,20350.080078125,-400000.0625,-400000.0625,-400000.0625,-400000.0625,-400000.0625
1.2319445610046387,850.8699951171875,8149.47998046875,20366.859375,-400000.0625,-400000.0625,-400000.0625,-400000.0625,-400000.0625
1.2319493293762207,872.760009765625,8186.81982421875,20397.05078125,-400000.0625,-400000.0625,-400000.0625,-400000.0625,-400000.0625
1.2319533824920654,874.760009765625,8192.2099609375,20401.33984375,-400000.0625,-400000.0625,-400000.0625,-400000.0625,-400000.0625
1.2319581508636475,839.4199829101562,8144.7099609375,20363.619140625,-400000.0625,-400000.0625,-400000.0625,-400000.0625,-400000.0625
1.231961965560913,828.4099731445312,8123.35009765625,20346.599609375,-400000.0625,-400000.0625,-400000.0625,-400000.0625,-400000.0625
1.2319657802581787,846.530029296875,8144.85986328125,20366.580078125,-400000.0625,-400000.0625,-400000.0625,-400000.0625,-400000.0625
1.2319695949554443,880.4299926757812,8189.2998046875,20406.150390625,-400000.0625,-400000.0625,-400000.0625,-400000.0625,-400000.0625
1.23197340965271,870.6599731445312,8184.81982421875,20399.099609375,-400000.0625,-400000.0625,-400000.0625,-400000.0625,-400000.0625
1.2319772243499756,832.510009765625,8137.3701171875,20357.0390625,-400000.0625,-400000.0625,-400000.0625,-400000.0625,-400000.0625
1.231980800628662,826.260009765625,8114.240234375,20343.640625,-400000.0625,-400000.0625,-400000.0625,-400000.0625,-400000.0625
1.2319846153259277,845.6199951171875,8139.75,20370.6796875,-400000.0625,-400000.0625,-400000.0625,-400000.0625,-400000.0625
1.2319886684417725,878.6199951171875,8179.43017578125,20405.580078125,-400000.0625,-400000.0625,-400000.0625,-400000.0625,-400000.0625
1.2642924785614014,869.989990234375,8174.7998046875,20396.900390625,-400000.0625,-400000.0625,-400000.0625,-400000.0625,-400000.0625
1.2693188190460205,825.2100219726562,8125.31005859375,20352.650390625,-400000.0625,-400000.0625,-400000.0625,-400000.0625,-400000.0625
1.2738678455352783,807.9500122070312,8100.3701171875,20337.630859375,-400000.0625,-400000.0625,-400000.0625,-400000.0625,-400000.0625
1.2738773822784424,840.5700073242188,8133.35986328125,20369.8203125,-400000.0625,-400000.0625,-400000.0625,-400000.0625,-400000.0625
1.2738821506500244,864.97998046875,8171.75,20399.330078125,-400000.0625,-400000.0625,-400000.0625,-400000.0625,-400000.0625
1.2738876342773438,860.260009765625,8167.64990234375,20392.560546875,-400000.0625,-400000.0625,-400000.0625,-400000.0625,-400000.0625
1.2738916873931885,831.030029296875,8120.35009765625,20352.990234375,-400000.0625,-400000.0625,-400000.0625,-400000.0625,-400000.0625
1.2738957405090332,821.02001953125,8094.1201171875,20337.5390625,-400000.0625,-400000.0625,-400000.0625,-400000.0625,-400000.0625
1.2738995552062988,853.5900268554688,8133.75,20375.2109375,-400000.0625,-400000.0625,-400000.0625,-400000.0625,-400000.0625
1.2739036083221436,873.760009765625,8167.02978515625,20400.619140625,-400000.0625,-400000.0625,-400000.0625,-400000.0625,-400000.0625
1.27390718460083,850.0599975585938,8149.52978515625,20383.029296875,-400000.0625,-400000.0625,-400000.0625,-400000.0625,-400000.0625
1.273911476135254,815.2999877929688,8100.89013671875,20342.919921875,-400000.0625,-400000.0625,-400000.0625,-400000.0625,-400000.0625
1.2739152908325195,806.760009765625,8087.4501953125,20336.580078125,-400000.0625,-400000.0625,-400000.0625,-400000.0625,-400000.0625
1.2739191055297852,832.9400024414062,8116.2001953125,20365.380859375,-400000.0625,-400000.0625,-400000.0625,-400000.0625,-400000.0625
1.2739231586456299,857.6900024414062,8152.33984375,20393.80078125,-400000.0625,-400000.0625,-400000.0625,-400000.0625,-400000.0625
1.2739269733428955,847.5800170898438,8146.47998046875,20386.83984375,-400000.0625,-400000.0625,-400000.0625,-400000.0625,-400000.0625
1.3212699890136719,807.760009765625,8090.5,20341.779296875,-400000.0625,-400000.0625,-400000.0625,-400000.0625,-400000.0625
1.3316831588745117,806.9500122070312,8079.240234375,20336.390625,-400000.0625,-400000.0625,-400000.0625,-400000.0625,-400000.0625
1.3360447883605957,841.9000244140625,8121.77978515625,20374.779296875,-400000.0625,-400000.0625,-400000.0625,-400000.0625,-400000.0625
1.336052417755127,864.739990234375,8158.5400390625,20405.390625,-400000.0625,-400000.0625,-400000.0625,-400000.0625,-400000.0625
1.3360567092895508,855.8300170898438,8153.77001953125,20396.619140625,-400000.0625,-400000.0625,-400000.0625,-400000.0625,-400000.0625
1.3360607624053955,810.8099975585938,8102.31982421875,20352.41015625,-400000.0625,-400000.0625,-400000.0625,-400000.0625,-400000.0625
1.3360648155212402,792.7899780273438,8069.330078125,20328.669921875,-400000.0625,-400000.0625,-400000.0625,-400000.0625,-400000.0625
1.3360683917999268,809.2899780273438,8082.10009765625,20347.7890625,-400000.0625,-400000.0625,-400000.0625,-400000.0625,-400000.0625
1.3360724449157715,833.8499755859375,8123.06982421875,20383.98046875,-400000.0625,-400000.0625,-400000.0625,-400000.0625,-400000.0625
1.336076259613037,821.72998046875,8148.85986328125,20400.4296875,-400000.0625,-400000.0625,-400000.0625,-400000.0625,-400000.0625
1.3360800743103027,787.1599731445312,8118.8701171875,20371.390625,-400000.0625,-400000.0625,-400000.0625,-400000.0625,-400000.0625
1.3360838890075684,773.530029296875,8111.72021484375,20365.859375,-400000.0625,-400000.0625,-400000.0625,-400000.0625,-400000.0625
1.3360874652862549,784.5900268554688,8145.9501953125,20406.76953125,-400000.0625,-400000.0625,-400000.0625,-400000.0625,-400000.0625
1.3360912799835205,807.6699829101562,8205.7998046875,20459.939453125,-400000.0625,-400000.0625,-400000.0625,-400000.0625,-400000.0625
1.336094856262207,795.75,8213.5703125,20460.990234375,-400000.0625,-400000.0625,-400000.0625,-400000.0625,-400000.0625
1.3360986709594727,752.8800048828125,8160.16015625,20423.990234375,-400000.0625,-400000.0625,-400000.0625,-400000.0625,-400000.0625
1.3876352310180664,723.4099731445312,8138.47021484375,20410.640625,-400000.0625,-400000.0625,-400000.0625,-400000.0625,-400000.0625
1.393385648727417,747.3499755859375,8182.18994140625,20448.400390625,-400000.0625,-400000.0625,-400000.0625,-400000.0625,-400000.0625
1.3980064392089844,775.719970703125,8229.4501953125,20487.5,-400000.0625,-400000.0625,-400000.0625,-400000.0625,-400000.0625
1.3980154991149902,767.7999877929688,8231.400390625,20485.740234375,-400000.0625,-400000.0625,-400000.0625,-400000.0625,-400000.0625
1.3980207443237305,741.77001953125,8192.58984375,20454.119140625,-400000.0625,-400000.0625,-400000.0625,-400000.0625,-400000.0625
1.3980247974395752,723.030029296875,8164.4501953125,20436.48046875,-400000.0625,-400000.0625,-400000.0625,-400000.0625,-400000.0625
1.39802885055542,737.2899780273438,8184.669921875,20454.98046875,-400000.0625,-400000.0625,-400000.0625,-400000.0625,-400000.0625
1.4037084579467773,764.989990234375,8223.6796875,20482.490234375,-400000.0625,-400000.0625,-400000.0625,-400000.0625,-400000.0625
1.409635066986084,769.8099975585938,8232.400390625,20488.7890625,-400000.0625,-400000.0625,-400000.0625,-400000.0625,-400000.0625
1.4149072170257568,743.77001953125,8195.6904296875,20460.26953125,-400000.0625,-400000.0625,-400000.0625,-400000.0625,-400000.0625
1.4193646907806396,723.030029296875,8162.8798828125,20434.91015625,-400000.0625,-400000.0625,-400000.0625,-400000.0625,-400000.0625
1.419372797012329,738.0,8182.10009765625,20452.599609375,-400000.0625,-400000.0625,-400000.0625,-400000.0625,-400000.0625
1.419377088546753,762.6099853515625,8219.2001953125,20482.16015625,-400000.0625,-400000.0625,-400000.0625,-400000.0625,-400000.0625
1.4193811416625977,753.2100219726562,8217.240234375,20476.919921875,-400000.0625,-400000.0625,-400000.0625,-400000.0625,-400000.0625
1.4193859100341797,723.1699829101562,8175.0400390625,20443.349609375,-400000.0625,-400000.0625,-400000.0625,-400000.0625,-400000.0625
1.4193904399871826,725.7899780273438,8174.93994140625,20446.349609375,-400000.0625,-400000.0625,-400000.0625,-400000.0625,-400000.0625
1.4490599632263184,747.780029296875,8201.169921875,20473.630859375,-400000.0625,-400000.0625,-400000.0625,-400000.0625,-400000.0625
1.4608335494995117,761.6500244140625,8226.009765625,20491.75,-400000.0625,-400000.0625,-400000.0625,-400000.0625,-400000.0625
1.4667408466339111,757.3599853515625,8226.4404296875,20488.310546875,-400000.0625,-400000.0625,-400000.0625,-400000.0625,-400000.0625
1.4719574451446533,729.75,8186.43994140625,20455.119140625,-400000.0625,-400000.0625,-400000.0625,-400000.0625,-400000.0625
1.4773333072662354,710.25,8157.02001953125,20436.9609375,-400000.0625,-400000.0625,-400000.0625,-400000.0625,-400000.0625
1.482680320739746,737.9500122070312,8194.7802734375,20470.4296875,-400000.0625,-400000.0625,-400000.0625,-400000.0625,-400000.0625
1.4876437187194824,765.469970703125,8244.1796875,20509.91015625,-400000.0625,-400000.0625,-400000.0625,-400000.0625,-400000.0625
1.4876539707183838,751.6900024414062,8229.919921875,20492.220703125,-400000.0625,-400000.0625,-400000.0625,-400000.0625,-400000.0625
1.487659215927124,716.969970703125,8181.47998046875,20448.970703125,-400000.0625,-400000.0625,-400000.0625,-400000.0625,-400000.0625
1.487663745880127,710.3400268554688,8161.1201171875,20439.2890625,-400000.0625,-400000.0625,-400000.0625,-400000.0625,-400000.0625
1.4876680374145508,738.719970703125,8194.01953125,20473.150390625,-400000.0625,-400000.0625,-400000.0625,-400000.0625,-400000.0625
1.4876720905303955,763.3699951171875,8238.650390625,20508.48046875,-400000.0625,-400000.0625,-400000.0625,-400000.0625,-400000.0625
1.4876761436462402,751.8800048828125,8231.4501953125,20500.94921875,-400000.0625,-400000.0625,-400000.0625,-400000.0625,-400000.0625
1.4876806735992432,711.969970703125,8182.240234375,20457.939453125,-400000.0625,-400000.0625,-400000.0625,-400000.0625,-400000.0625
1.487684726715088,705.47998046875,8159.2998046875,20443.970703125,-400000.0625,-400000.0625,-400000.0625,-400000.0625,-400000.0625
1.4929137229919434,733.760009765625,8195.1201171875,20475.19921875,-400000.0625,-400000.0625,-400000.0625,-400000.0625,-400000.0625
1.5138647556304932,769.5700073242188,8245.66015625,20515.25,-400000.0625,-400000.0625,-400000.0625,-400000.0625,-400000.0625
1.5190789699554443,747.780029296875,8228.349609375,20498.849609375,-400000.0625,-400000.0625,-400000.0625,-400000.0625,-400000.0625
1.5237674713134766,699.9000244140625,8169.3701171875,20447.73046875,-400000.0625,-400000.0625,-400000.0625,-400000.0625,-400000.0625
1.5237762928009033,693.6099853515625,8153.06005859375,20439.19921875,-400000.0625,-400000.0625,-400000.0625,-400000.0625,-400000.0625
1.5237812995910645,736.760009765625,8200.259765625,20487.5,-400000.0625,-400000.0625,-400000.0625,-400000.0625,-400000.0625
1.5237853527069092,763.1300048828125,8246.6103515625,20523.599609375,-400000.0625,-400000.0625,-400000.0625,-400000.0625,-400000.0625
1.5237891674041748,743.6799926757812,8229.4501953125,20501.900390625,-400000.0625,-400000.0625,-400000.0625,-400000.0625,-400000.0625
1.5237929821014404,708.8200073242188,8183.14990234375,20460.509765625,-400000.0625,-400000.0625,-400000.0625,-400000.0625,-400000.0625
1.523796796798706,697.5700073242188,8163.2099609375,20448.58984375,-400000.0625,-400000.0625,-400000.0625,-400000.0625,-400000.0625
1.5238006114959717,729.1799926757812,8196.5,20481.400390625,-400000.0625,-400000.0625,-400000.0625,-400000.0625,-400000.0625
1.5238046646118164,757.6900024414062,8240.0302734375,20518.73046875,-400000.0625,-400000.0625,-400000.0625,-400000.0625,-400000.0625
1.5238087177276611,741.9099731445312,8230.16015625,20507.240234375,-400000.0625,-400000.0625,-400000.0625,-400000.0625,-400000.0625
1.5238122940063477,703.1400146484375,8185.0498046875,20469.0,-400000.0625,-400000.0625,-400000.0625,-400000.0625,-400000.0625
1.5238163471221924,702.0999755859375,8166.7001953125,20459.609375,-400000.0625,-400000.0625,-400000.0625,-400000.0625,-400000.0625
1.523820161819458,728.3200073242188,8195.400390625,20487.83984375,-400000.0625,-400000.0625,-400000.0625,-400000.0625,-400000.0625
1.5238242149353027,742.010009765625,8229.400390625,20515.830078125,-400000.0625,-400000.0625,-400000.0625,-400000.0625,-400000.0625
1.5816805362701416,746.9199829101562,8224.6796875,20506.76953125,-400000.0625,-400000.0625,-400000.0625,-400000.0625,-400000.0625
1.5922801494598389,727.989990234375,8183.77001953125,20466.0,-400000.0625,-400000.0625,-400000.0625,-400000.0625,-400000.0625
1.5972344875335693,729.3200073242188,8161.830078125,20442.970703125,-400000.0625,-400000.0625,-400000.0625,-400000.0625,-400000.0625
1.597243309020996,739.0999755859375,8156.43994140625,20437.669921875,-400000.0625,-400000.0625,-400000.0625,-400000.0625,-400000.0625
1.5972480773925781,758.3599853515625,8160.31005859375,20441.009765625,-400000.0625,-400000.0625,-400000.0625,-400000.0625,-400000.0625
1.597252368927002,768.7999877929688,8156.58984375,20432.189453125,-400000.0625,-400000.0625,-400000.0625,-400000.0625,-400000.0625
1.5972561836242676,787.02001953125,8156.009765625,20424.26953125,-400000.0625,-400000.0625,-400000.0625,-400000.0625,-400000.0625
1.5972602367401123,789.7899780273438,8145.3798828125,20406.060546875,-400000.0625,-400000.0625,-400000.0625,-400000.0625,-400000.0625
1.597264051437378,791.219970703125,8142.85009765625,20401.76953125,-400000.0625,-400000.0625,-400000.0625,-400000.0625,-400000.0625
1.5972681045532227,802.760009765625,8148.47998046875,20405.33984375,-400000.0625,-400000.0625,-400000.0625,-400000.0625,-400000.0625
1.5972719192504883,802.4199829101562,8143.47021484375,20398.810546875,-400000.0625,-400000.0625,-400000.0625,-400000.0625,-400000.0625
1.597275733947754,795.1699829101562,8136.56005859375,20388.41015625,-400000.0625,-400000.0625,-400000.0625,-400000.0625,-400000.0625
1.5972795486450195,796.5599975585938,8142.0400390625,20394.279296875,-400000.0625,-400000.0625,-400000.0625,-400000.0625,-400000.0625
1.5972833633422852,794.510009765625,8137.75,20391.130859375,-400000.0625,-400000.0625,-400000.0625,-400000.0625,-400000.0625
1.5972871780395508,786.780029296875,8130.89013671875,20384.69921875,-400000.0625,-400000.0625,-400000.0625,-400000.0625,-400000.0625
1.6106035709381104,779.4400024414062,8127.169921875,20382.220703125,-400000.0625,-400000.0625,-400000.0625,-400000.0625,-400000.0625
1.6590704917907715,776.6199951171875,8126.31005859375,20384.220703125,-400000.0625,-400000.0625,-400000.0625,-400000.0625,-400000.0625
1.6668925285339355,779.25,8135.22021484375,20392.609375,-400000.0625,-400000.0625,-400000.0625,-400000.0625,-400000.0625
1.6716570854187012,783.5900268554688,8137.419921875,20394.51953125,-400000.0625,-400000.0625,-400000.0625,-400000.0625,-400000.0625
1.671668529510498,784.6799926757812,8136.419921875,20395.7109375,-400000.0625,-400000.0625,-400000.0625,-400000.0625,-400000.0625
1.6716737747192383,782.780029296875,8137.60986328125,20399.0,-400000.0625,-400000.0625,-400000.0625,-400000.0625,-400000.0625
1.6716783046722412,785.4500122070312,8142.14013671875,20404.48046875,-400000.0625,-400000.0625,-400000.0625,-400000.0625,-400000.0625
1.671682596206665,780.6300048828125,8145.91015625,20406.109375,-400000.0625,-400000.0625,-400000.0625,-400000.0625,-400000.0625
1.6716876029968262,783.2100219726562,8147.77001953125,20408.390625,-400000.0625,-400000.0625,-400000.0625,-400000.0625,-400000.0625
1.67169189453125,785.8800048828125,8145.0,20408.390625,-400000.0625,-400000.0625,-400000.0625,-400000.0625,-400000.0625
1.6716957092285156,765.989990234375,8129.740234375,20396.66015625,-400000.0625,-400000.0625,-400000.0625,-400000.0625,-400000.0625
1.6716992855072021,760.1699829101562,8125.259765625,20395.7109375,-400000.0625,-400000.0625,-400000.0625,-400000.0625,-400000.0625
1.6717031002044678,750.02001953125,8123.06982421875,20389.650390625,-400000.0625,-400000.0625,-400000.0625,-400000.0625,-400000.0625
1.6717069149017334,755.5,8122.97021484375,20389.75,-400000.0625,-400000.0625,-400000.0625,-400000.0625,-400000.0625
1.6717112064361572,759.510009765625,8128.64013671875,20397.859375,-400000.0625,-400000.0625,-400000.0625,-400000.0625,-400000.0625
1.6717162132263184,765.8499755859375,8133.56005859375,20404.9609375,-400000.0625,-400000.0625,-400000.0625,-400000.0625,-400000.0625
1.671720027923584,766.4199829101562,8136.18017578125,20407.73046875,-400000.0625,-400000.0625,-400000.0625,-400000.0625,-400000.0625
1.7123854160308838,760.1300048828125,8130.4599609375,20403.669921875,-400000.0625,-400000.0625,-400000.0625,-400000.0625,-400000.0625
1.7246809005737305,758.8900146484375,8134.64990234375,20405.099609375,-400000.0625,-400000.0625,-400000.0625,-400000.0625,-400000.0625
1.7296621799468994,763.030029296875,8139.85009765625,20410.640625,-400000.0625,-400000.0625,-400000.0625,-400000.0625,-400000.0625
1.7296717166900635,763.1799926757812,8130.93017578125,20406.630859375,-400000.0625,-400000.0625,-400000.0625,-400000.0625,-400000.0625
1.7296767234802246,753.4000244140625,8125.740234375,20404.580078125,-400000.0625,-400000.0625,-400000.0625,-400000.0625,-400000.0625
1.7296810150146484,747.8200073242188,8120.5400390625,20400.9609375,-400000.0625,-400000.0625,-400000.0625,-400000.0625,-400000.0625
1.7296853065490723,751.0700073242188,8124.72998046875,20404.76953125,-400000.0625,-400000.0625,-400000.0625,-400000.0625,-400000.0625
1.729689598083496,749.72998046875,8123.39990234375,20405.060546875,-400000.0625,-400000.0625,-400000.0625,-400000.0625,-400000.0625
1.7296931743621826,749.780029296875,8122.10986328125,20402.33984375,-400000.0625,-400000.0625,-400000.0625,-400000.0625,-400000.0625
1.7296977043151855,748.3499755859375,8122.830078125,20403.48046875,-400000.0625,-400000.0625,-400000.0625,-400000.0625,-400000.0625
1.7297017574310303,749.0599975585938,8129.8798828125,20407.73046875,-400000.0625,-400000.0625,-400000.0625,-400000.0625,-400000.0625
1.734422206878662,755.97998046875,8131.27001953125,20407.109375,-400000.0625,-400000.0625,-400000.0625,-400000.0625,-400000.0625
1.7344310283660889,753.780029296875,8127.740234375,20407.919921875,-400000.0625,-400000.0625,-400000.0625,-400000.0625,-400000.0625
1.7344355583190918,745.2999877929688,8122.490234375,20403.630859375,-400000.0625,-400000.0625,-400000.0625,-400000.0625,-400000.0625
1.7344398498535156,743.530029296875,8122.16015625,20404.48046875,-400000.0625,-400000.0625,-400000.0625,-400000.0625,-400000.0625
1.7344436645507812,744.8699951171875,8118.33984375,20404.2890625,-400000.0625,-400000.0625,-400000.0625,-400000.0625,-400000.0625
1.820063829421997,743.0999755859375,8118.68017578125,20406.060546875,-400000.0625,-400000.0625,-400000.0625,-400000.0625,-400000.0625
1.8309783935546875,747.489990234375,8115.669921875,20404.720703125,-400000.0625,-400000.0625,-400000.0625,-400000.0625,-400000.0625
1.8360111713409424,733.52001953125,8104.9501953125,20396.0390625,-400000.0625,-400000.0625,-400000.0625,-400000.0625,-400000.0625
1.8423278331756592,736.239990234375,8106.9501953125,20398.7109375,-400000.0625,-400000.0625,-400000.0625,-400000.0625,-400000.0625
1.8489646911621094,731.6599731445312,8104.3701171875,20396.849609375,-400000.0625,-400000.0625,-400000.0625,-400000.0625,-400000.0625
1.8545050621032715,727.5599975585938,8099.509765625,20394.23046875,-400000.0625,-400000.0625,-400000.0625,-400000.0625,-400000.0625
1.8616611957550049,723.7000122070312,8097.1298828125,20392.08984375,-400000.0625,-400000.0625,-400000.0625,-400000.0625,-400000.0625
1.8665745258331299,728.8900146484375,8102.7998046875,20398.08984375,-400000.0625,-400000.0625,-400000.0625,-400000.0625,-400000.0625
1.8665831089019775,728.75,8106.52001953125,20401.4296875,-400000.0625,-400000.0625,-400000.0625,-400000.0625,-400000.0625
1.8665874004364014,726.8400268554688,8102.1298828125,20400.810546875,-400000.0625,-400000.0625,-400000.0625,-400000.0625,-400000.0625
1.8665919303894043,733.469970703125,8107.81005859375,20408.30078125,-400000.0625,-400000.0625,-400000.0625,-400000.0625,-400000.0625
1.866595983505249,735.469970703125,8110.10009765625,20410.919921875,-400000.0625,-400000.0625,-400000.0625,-400000.0625,-400000.0625
1.8665997982025146,734.1400146484375,8109.7099609375,20410.5390625,-400000.0625,-400000.0625,-400000.0625,-400000.0625,-400000.0625
1.8666036128997803,723.030029296875,8102.27001953125,20401.9609375,-400000.0625,-400000.0625,-400000.0625,-400000.0625,-400000.0625
1.866607427597046,729.1300048828125,8108.9501953125,20406.869140625,-400000.0625,-400000.0625,-400000.0625,-400000.0625,-400000.0625
1.8666112422943115,723.8400268554688,8102.509765625,20402.619140625,-400000.0625,-400000.0625,-400000.0625,-400000.0625,-400000.0625
1.8666152954101562,725.97998046875,8101.75,20404.720703125,-400000.0625,-400000.0625,-400000.0625,-400000.0625,-400000.0625
1.8666191101074219,708.8200073242188,8079.77001953125,20387.599609375,-400000.0625,-400000.0625,-400000.0625,-400000.0625,-400000.0625
1.8666231632232666,695.1300048828125,8070.14013671875,20379.349609375,-400000.0625,-400000.0625,-400000.0625,-400000.0625,-400000.0625
1.8666272163391113,708.1500244140625,8083.06005859375,20392.7109375,-400000.0625,-400000.0625,-400000.0625,-400000.0625,-400000.0625
1.8666315078735352,716.5,8093.740234375,20401.0,-400000.0625,-400000.0625,-400000.0625,-400000.0625,-400000.0625
1.8666362762451172,709.2000122070312,8083.6298828125,20391.990234375,-400000.0625,-400000.0625,-400000.0625,-400000.0625,-400000.0625
1.866640567779541,702.6699829101562,8075.240234375,20386.359375,-400000.0625,-400000.0625,-400000.0625,-400000.0625,-400000.0625
1.8666443824768066,703.1400146484375,8085.6298828125,20392.470703125,-400000.0625,-400000.0625,-400000.0625,-400000.0625,-400000.0625
1.8666481971740723,715.2100219726562,8097.5498046875,20405.33984375,-400000.0625,-400000.0625,-400000.0625,-400000.0625,-400000.0625
1.8666534423828125,708.25,8079.72021484375,20393.609375,-400000.0625,-400000.0625,-400000.0625,-400000.0625,-400000.0625
1.8666572570800781,703.760009765625,8077.72021484375,20393.609375,-400000.0625,-400000.0625,-400000.0625,-400000.0625,-400000.0625
1.8666613101959229,703.1400146484375,8078.669921875,20395.470703125,-400000.0625,-400000.0625,-400000.0625,-400000.0625,-400000.0625
1.8666648864746094,693.22998046875,8075.43017578125,20391.130859375,-400000.0625,-400000.0625,-400000.0625,-400000.0625,-400000.0625
1.866668462753296,691.7999877929688,8075.85986328125,20392.23046875,-400000.0625,-400000.0625,-400000.0625,-400000.0625,-400000.0625
1.8721776008605957,700.6199951171875,8079.9599609375,20397.619140625,-400000.0625,-400000.0625,-400000.0625,-400000.0625,-400000.0625
1.8770432472229004,711.5800170898438,8088.97021484375,20408.349609375,-400000.0625,-400000.0625,-400000.0625,-400000.0625,-400000.0625
1.9088609218597412,705.6699829101562,8081.580078125,20402.48046875,-400000.0625,-400000.0625,-400000.0625,-400000.0625,-400000.0625
1.9147508144378662,691.3200073242188,8073.9501953125,20394.51953125,-400000.0625,-400000.0625,-400000.0625,-400000.0625,-400000.0625
1.9195122718811035,698.52001953125,8083.490234375,20402.9609375,-400000.0625,-400000.0625,-400000.0625,-400000.0625,-400000.0625
1.9195213317871094,698.9000244140625,8079.72021484375,20402.9609375,-400000.0625,-400000.0625,-400000.0625,-400000.0625,-400000.0625
1.9195258617401123,693.6599731445312,8070.14013671875,20396.279296875,-400000.0625,-400000.0625,-400000.0625,-400000.0625,-400000.0625
1.9195306301116943,683.4000244140625,8084.81982421875,20406.9609375,-400000.0625,-400000.0625,-400000.0625,-400000.0625,-400000.0625
1.9195349216461182,676.780029296875,8103.419921875,20421.3203125,-400000.0625,-400000.0625,-400000.0625,-400000.0625,-400000.0625
1.919538974761963,677.489990234375,8107.9501953125,20429.279296875,-400000.0625,-400000.0625,-400000.0625,-400000.0625,-400000.0625
1.9195427894592285,666.0499877929688,8107.6201171875,20427.23046875,-400000.0625,-400000.0625,-400000.0625,-400000.0625,-400000.0625
1.9195473194122314,671.719970703125,8122.39990234375,20443.73046875,-400000.0625,-400000.0625,-400000.0625,-400000.0625,-400000.0625
1.919551134109497,664.4199829101562,8125.2099609375,20451.44921875,-400000.0625,-400000.0625,-400000.0625,-400000.0625,-400000.0625
1.9195551872253418,644.5399780273438,8122.77978515625,20454.26953125,-400000.0625,-400000.0625,-400000.0625,-400000.0625,-400000.0625
1.9195590019226074,647.0700073242188,8122.830078125,20450.640625,-400000.0625,-400000.0625,-400000.0625,-400000.0625,-400000.0625
1.9195630550384521,649.260009765625,8126.5498046875,20457.650390625,-400000.0625,-400000.0625,-400000.0625,-400000.0625,-400000.0625
1.9195680618286133,654.8400268554688,8135.18017578125,20464.7109375,-400000.0625,-400000.0625,-400000.0625,-400000.0625,-400000.0625
1.919571876525879,649.260009765625,8126.5,20455.509765625,-400000.0625,-400000.0625,-400000.0625,-400000.0625,-400000.0625
1.997387409210205,645.6900024414062,8135.27001953125,20462.0390625,-400000.0625,-400000.0625,-400000.0625,-400000.0625,-400000.0625
