time,ch1,ch2,ch3,ch4,ch5,ch6,ch7,ch8
132.80585765838623,-400000.0625,-2118.919921875,1063.5400390625,-400000.0625,-6818.8701171875,-400000.0625,2271.64990234375,-400000.0625
132.81605982780457,-400000.0625,-2122.02001953125,1063.72998046875,-400000.0625,-6821.2001953125,-400000.0625,2265.409912109375,-400000.0625
132.82108354568481,-400000.0625,-2088.739990234375,1097.72998046875,-400000.0625,-6793.830078125,-400000.0625,2296.110107421875,-400000.0625
132.82582664489746,-400000.0625,-2056.7900390625,1120.949951171875,-400000.0625,-6777.14013671875,-400000.0625,2322.860107421875,-400000.0625
132.82583713531494,-400000.0625,-2075.389892578125,1106.4100341796875,-400000.0625,-6789.64013671875,-400000.0625,2310.85009765625,-400000.0625
132.82584238052368,-400000.0625,-2113.14990234375,1075.510009765625,-400000.0625,-6810.3798828125,-400000.0625,2274.080078125,-400000.0625
132.8258466720581,-400000.0625,-2118.639892578125,1064.6800537109375,-400000.0625,-6815.39013671875,-400000.0625,2263.780029296875,-400000.0625
132.82585167884827,-400000.0625,-2087.31005859375,1097.5799560546875,-400000.0625,-6801.27001953125,-400000.0625,2297.1201171875,-400000.0625
132.8258557319641,-400000.0625,-2063.27001953125,1121.0,-400000.0625,-6787.009765625,-400000.0625,2321.2900390625,-400000.0625
132.82585954666138,-400000.0625,-2073.10009765625,1106.9300537109375,-400000.0625,-6793.97998046875,-400000.0625,2303.27001953125,-400000.0625
132.82586359977722,-400000.0625,-2109.429931640625,1073.8399658203125,-400000.0625,-6815.14990234375,-400000.0625,2266.1201171875,-400000.0625
132.82586765289307,-400000.0625,-2117.820068359375,1072.219970703125,-400000.0625,-6819.5400390625,-400000.0625,2262.31005859375,-400000.0625
132.82587218284607,-400000.0625,-2086.929931640625,1096.6800537109375,-400000.0625,-6795.7900390625,-400000.0625,2291.110107421875,-400000.0625
132.8258762359619,-400000.0625,-2061.409912109375,1120.280029296875,-400000.0625,-6773.66015625,-400000.0625,2319.340087890625,-400000.0625
132.82600784301758,-400000.0625,-2079.919921875,1104.5,-400000.0625,-6789.97021484375,-400000.0625,2302.97998046875,-400000.0625
132.82601284980774,-400000.0625,-2117.969970703125,1070.8800048828125,-400000.0625,-6818.72021484375,-400000.0625,2259.830078125,-400000.0625
132.826016664505,-400000.0625,-2121.39990234375,1066.2099609375,-400000.0625,-6816.81982421875,-400000.0625,2256.06005859375,-400000.0625
132.826021194458,-400000.0625,-2090.449951171875,1091.0999755859375,-400000.0625,-6802.89013671875,-400000.0625,2286.239990234375,-400000.0625
132.82602548599243,-400000.0625,-2066.179931640625,1111.4599609375,-400000.0625,-6791.31005859375,-400000.0625,2305.75,-400000.0625
132.82602906227112,-400000.0625,-2078.9599609375,1101.489990234375,-400000.0625,-6798.93994140625,-400000.0625,2293.06005859375,-400000.0625
132.82603287696838,-400000.0625,-2118.679931640625,1066.8299560546875,-400000.0625,-6817.47998046875,-400000.0625,2260.260009765625,-400000.0625
132.82603693008423,-400000.0625,-2121.72998046875,1064.5899658203125,-400000.0625,-6815.85986328125,-400000.0625,2259.639892578125,-400000.0625
132.82604241371155,-400000.0625,-2092.739990234375,1089.530029296875,-400000.0625,-6798.93994140625,-400000.0625,2286.9599609375,-400000.0625
132.8260462284088,-400000.0625,-2063.610107421875,1117.469970703125,-400000.0625,-6788.16015625,-400000.0625,2310.320068359375,-400000.0625
132.82605051994324,-400000.0625,-2080.8701171875,1102.3499755859375,-400000.0625,-6795.60009765625,-400000.0625,2298.159912109375,-400000.0625
132.82605504989624,-400000.0625,-2115.580078125,1070.0699462890625,-400000.0625,-6817.009765625,-400000.0625,2263.360107421875,-400000.0625
132.82605862617493,-400000.0625,-2121.070068359375,1066.780029296875,-400000.0625,-6817.33984375,-400000.0625,2255.25,-400000.0625
132.82606315612793,-400000.0625,-2087.929931640625,1094.8699951171875,-400000.0625,-6799.97998046875,-400000.0625,2284.719970703125,-400000.0625
132.82606720924377,-400000.0625,-2064.659912109375,1114.989990234375,-400000.0625,-6787.2998046875,-400000.0625,2315.469970703125,-400000.0625
132.8260715007782,-400000.0625,-2077.909912109375,1105.2099609375,-400000.0625,-6793.68994140625,-400000.0625,2298.830078125,-400000.0625
132.82607555389404,-400000.0625,-2114.9599609375,1070.97998046875,-400000.0625,-6815.0498046875,-400000.0625,2262.2099609375,-400000.0625
132.82607913017273,-400000.0625,-2122.969970703125,1062.3900146484375,-400000.0625,-6821.2001953125,-400000.0625,2256.679931640625,-400000.0625
132.82608342170715,-400000.0625,-2091.360107421875,1095.3399658203125,-400000.0625,-6801.31982421875,-400000.0625,2287.530029296875,-400000.0625
132.82608914375305,-400000.0625,-2060.1298828125,1121.18994140625,-400000.0625,-6782.33984375,-400000.0625,2316.52001953125,-400000.0625
132.83191514015198,-400000.0625,-2073.860107421875,1106.2099609375,-400000.0625,-6792.16015625,-400000.0625,2300.219970703125,-400000.0625
132.8378562927246,-400000.0625,-2115.77001953125,1071.68994140625,-400000.0625,-6818.8701171875,-400000.0625,2264.260009765625,-400000.0625
132.8427083492279,-400000.0625,-2118.5400390625,1069.1199951171875,-400000.0625,-6817.68017578125,-400000.0625,2258.6298828125,-400000.0625
132.84271669387817,-400000.0625,-2086.260009765625,1098.06005859375,-400000.0625,-6791.64013671875,-400000.0625,2290.77001953125,-400000.0625
132.84272146224976,-400000.0625,-2066.179931640625,1116.9000244140625,-400000.0625,-6783.06005859375,-400000.0625,2312.800048828125,-400000.0625
132.8427255153656,-400000.0625,-2081.489990234375,1104.969970703125,-400000.0625,-6791.830078125,-400000.0625,2296.780029296875,-400000.0625
132.8427300453186,-400000.0625,-2116.5400390625,1067.5899658203125,-400000.0625,-6816.85986328125,-400000.0625,2263.830078125,-400000.0625
132.84273409843445,-400000.0625,-2116.389892578125,1068.31005859375,-400000.0625,-6819.25,-400000.0625,2261.5400390625,-400000.0625
132.8427379131317,-400000.0625,-2084.489990234375,1102.02001953125,-400000.0625,-6792.77978515625,-400000.0625,2288.25,-400000.0625
132.84274172782898,-400000.0625,-2061.840087890625,1118.760009765625,-400000.0625,-6781.25,-400000.0625,2310.7099609375,-400000.0625
132.84274554252625,-400000.0625,-2078.719970703125,1103.9300537109375,-400000.0625,-6794.7900390625,-400000.0625,2295.300048828125,-400000.0625
132.84274911880493,-400000.0625,-2114.820068359375,1070.97998046875,-400000.0625,-6815.52978515625,-400000.0625,2263.830078125,-400000.0625
132.84275269508362,-400000.0625,-2121.39990234375,1068.2099609375,-400000.0625,-6817.6298828125,-400000.0625,2261.830078125,-400000.0625
132.8427562713623,-400000.0625,-2086.780029296875,1099.3499755859375,-400000.0625,-6800.3701171875,-400000.0625,2291.969970703125,-400000.0625
132.84276008605957,-400000.0625,-2063.610107421875,1115.469970703125,-400000.0625,-6782.14990234375,-400000.0625,2312.090087890625,-400000.0625
132.84276461601257,-400000.0625,-2082.8701171875,1098.1099853515625,-400000.0625,-6795.5,-400000.0625,2298.260009765625,-400000.0625
132.84276866912842,-400000.0625,-2113.14990234375,1072.5999755859375,-400000.0625,-6820.81982421875,-400000.0625,2260.39990234375,-400000.0625
132.84277272224426,-400000.0625,-2122.39990234375,1065.6800537109375,-400000.0625,-6822.009765625,-400000.0625,2255.06005859375,-400000.0625
132.8427767753601,-400000.0625,-2093.409912109375,1091.1500244140625,-400000.0625,-6802.4599609375,-400000.0625,2283.949951171875,-400000.0625
132.84278059005737,-400000.0625,-2061.030029296875,1118.6600341796875,-400000.0625,-6778.0498046875,-400000.0625,2308.75,-400000.0625
132.84278464317322,-400000.0625,-2078.580078125,1103.8800048828125,-400000.0625,-6789.4501953125,-400000.0625,2301.31005859375,-400000.0625
132.84278893470764,-400000.0625,-2120.2099609375,1067.5899658203125,-400000.0625,-6816.240234375,-400000.0625,2268.929931640625,-400000.0625
132.84279251098633,-400000.0625,-2120.639892578125,1070.68994140625,-400000.0625,-6814.0498046875,-400000.0625,2257.159912109375,-400000.0625
132.8427963256836,-400000.0625,-2085.830078125,1098.199951171875,-400000.0625,-6793.169921875,-400000.0625,2283.2900390625,-400000.0625
132.84279990196228,-400000.0625,-2065.989990234375,1118.8499755859375,-400000.0625,-6786.2001953125,-400000.0625,2306.3701171875,-400000.0625
132.84280371665955,-400000.0625,-2082.06005859375,1099.5400390625,-400000.0625,-6803.47021484375,-400000.0625,2288.719970703125,-400000.0625
132.8428075313568,-400000.0625,-2113.489990234375,1073.0699462890625,-400000.0625,-6817.81982421875,-400000.0625,2254.580078125,-400000.0625
132.84281134605408,-400000.0625,-2121.070068359375,1064.6800537109375,-400000.0625,-6814.33984375,-400000.0625,2252.6298828125,-400000.0625
132.84281516075134,-400000.0625,-2093.510009765625,1089.719970703125,-400000.0625,-6796.68994140625,-400000.0625,2281.860107421875,-400000.0625
132.84413409233093,-400000.0625,-2064.659912109375,1118.22998046875,-400000.0625,-6781.77001953125,-400000.0625,2310.090087890625,-400000.0625
132.85033321380615,-400000.0625,-2079.300048828125,1101.9200439453125,-400000.0625,-6786.72998046875,-400000.0625,2293.6298828125,-400000.0625
132.85526490211487,-400000.0625,-2115.25,1070.260009765625,-400000.0625,-6813.56982421875,-400000.0625,2258.919921875,-400000.0625
132.8552746772766,-400000.0625,-2120.449951171875,1067.6400146484375,-400000.0625,-6819.2998046875,-400000.0625,2256.300048828125,-400000.0625
132.85527968406677,-400000.0625,-2088.739990234375,1097.8199462890625,-400000.0625,-6794.4501953125,-400000.0625,2285.14990234375,-400000.0625
132.85528373718262,-400000.0625,-2063.699951171875,1118.7099609375,-400000.0625,-6778.18994140625,-400000.0625,2307.080078125,-400000.0625
132.85528802871704,-400000.0625,-2080.06005859375,1101.6800537109375,-400000.0625,-6797.83984375,-400000.0625,2295.159912109375,-400000.0625
132.85529208183289,-400000.0625,-2115.679931640625,1069.02001953125,-400000.0625,-6819.25,-400000.0625,2262.02001953125,-400000.0625
132.85529613494873,-400000.0625,-2118.39990234375,1069.1199951171875,-400000.0625,-6808.89990234375,-400000.0625,2259.39990234375,-400000.0625
132.85530042648315,-400000.0625,-2090.360107421875,1094.25,-400000.0625,-6794.41015625,-400000.0625,2292.389892578125,-400000.0625
132.855304479599,-400000.0625,-2064.800048828125,1117.52001953125,-400000.0625,-6784.14990234375,-400000.0625,2311.85009765625,-400000.0625
132.85530829429626,-400000.0625,-2077.340087890625,1104.9300537109375,-400000.0625,-6793.830078125,-400000.0625,2296.969970703125,-400000.0625
132.8553123474121,-400000.0625,-2117.43994140625,1067.5400390625,-400000.0625,-6815.77001953125,-400000.0625,2260.02001953125,-400000.0625
132.85531640052795,-400000.0625,-2124.31005859375,1066.260009765625,-400000.0625,-6819.5400390625,-400000.0625,2252.719970703125,-400000.0625
132.85532331466675,-400000.0625,-2090.68994140625,1096.3900146484375,-400000.0625,-6795.1201171875,-400000.0625,2286.669921875,-400000.0625
132.855327129364,-400000.0625,-2065.85009765625,1115.510009765625,-400000.0625,-6778.240234375,-400000.0625,2315.659912109375,-400000.0625
132.92649269104004,-400000.0625,-2075.389892578125,1106.6400146484375,-400000.0625,-6789.35009765625,-400000.0625,2301.31005859375,-400000.0625
132.93457913398743,-400000.0625,-2114.389892578125,1072.68994140625,-400000.0625,-6813.9599609375,-400000.0625,2258.780029296875,-400000.0625
132.9389898777008,-400000.0625,-2119.780029296875,1064.4000244140625,-400000.0625,-6817.06005859375,-400000.0625,2256.06005859375,-400000.0625
132.93899655342102,-400000.0625,-2092.409912109375,1090.47998046875,-400000.0625,-6794.830078125,-400000.0625,2287.669921875,-400000.0625
132.93900084495544,-400000.0625,-2058.360107421875,1118.7099609375,-400000.0625,-6773.81005859375,-400000.0625,2312.610107421875,-400000.0625
132.9390046596527,-400000.0625,-2077.25,1103.4000244140625,-400000.0625,-6791.5,-400000.0625,2291.389892578125,-400000.0625
132.93900847434998,-400000.0625,-2118.159912109375,1066.489990234375,-400000.0625,-6814.43017578125,-400000.0625,2252.8701171875,-400000.0625
132.93901228904724,-400000.0625,-2121.969970703125,1059.9599609375,-400000.0625,-6811.2900390625,-400000.0625,2246.139892578125,-400000.0625
132.9390161037445,-400000.0625,-2090.550048828125,1090.6700439453125,-400000.0625,-6796.27001953125,-400000.0625,2280.18994140625,-400000.0625
132.93901991844177,-400000.0625,-2063.3701171875,1112.5999755859375,-400000.0625,-6783.6298828125,-400000.0625,2310.320068359375,-400000.0625
132.93902349472046,-400000.0625,-2078.580078125,1097.25,-400000.0625,-6791.16015625,-400000.0625,2293.110107421875,-400000.0625
132.93902707099915,-400000.0625,-2114.010009765625,1069.68994140625,-400000.0625,-6817.81982421875,-400000.0625,2256.820068359375,-400000.0625
132.939031124115,-400000.0625,-2121.02001953125,1064.780029296875,-400000.0625,-6818.39013671875,-400000.0625,2257.780029296875,-400000.0625
132.9390344619751,-400000.0625,-2088.360107421875,1093.9100341796875,-400000.0625,-6794.259765625,-400000.0625,2285.0,-400000.0625
132.93903946876526,-400000.0625,-2064.090087890625,1114.3199462890625,-400000.0625,-6782.8701171875,-400000.0625,2303.699951171875,-400000.0625
132.93904304504395,-400000.0625,-2080.72998046875,1096.6800537109375,-400000.0625,-6795.4501953125,-400000.0625,2286.719970703125,-400000.0625
132.97958135604858,-400000.0625,-2113.2900390625,1067.1099853515625,-400000.0625,-6813.72021484375,-400000.0625,2253.340087890625,-400000.0625
132.98478031158447,-400000.0625,-2116.72998046875,1065.4000244140625,-400000.0625,-6810.85986328125,-400000.0625,2252.050048828125,-400000.0625
132.9894461631775,-400000.0625,-2088.68994140625,1091.050048828125,-400000.0625,-6788.919921875,-400000.0625,2285.669921875,-400000.0625
132.98945379257202,-400000.0625,-2062.4599609375,1116.0400390625,-400000.0625,-6781.52978515625,-400000.0625,2305.030029296875,-400000.0625
132.98945784568787,-400000.0625,-2078.340087890625,1099.3499755859375,-400000.0625,-6797.02978515625,-400000.0625,2293.72998046875,-400000.0625
132.98946118354797,-400000.0625,-2116.969970703125,1068.8800048828125,-400000.0625,-6820.81982421875,-400000.0625,2259.919921875,-400000.0625
132.98946452140808,-400000.0625,-2120.070068359375,1066.1099853515625,-400000.0625,-6815.9599609375,-400000.0625,2258.2099609375,-400000.0625
132.9894678592682,-400000.0625,-2088.8798828125,1091.77001953125,-400000.0625,-6796.7900390625,-400000.0625,2286.10009765625,-400000.0625
132.9894711971283,-400000.0625,-2064.0400390625,1115.22998046875,-400000.0625,-6779.47998046875,-400000.0625,2307.3701171875,-400000.0625
132.98947477340698,-400000.0625,-2084.679931640625,1092.0999755859375,-400000.0625,-6793.4501953125,-400000.0625,2290.919921875,-400000.0625
132.9894781112671,-400000.0625,-2121.5,1059.3399658203125,-400000.0625,-6816.91015625,-400000.0625,2253.25,-400000.0625
132.9894814491272,-400000.0625,-2125.8798828125,1060.199951171875,-400000.0625,-6818.06005859375,-400000.0625,2254.679931640625,-400000.0625
132.9894847869873,-400000.0625,-2088.830078125,1092.1500244140625,-400000.0625,-6801.7001953125,-400000.0625,2283.530029296875,-400000.0625
132.9894881248474,-400000.0625,-2063.22998046875,1112.030029296875,-400000.0625,-6785.68017578125,-400000.0625,2305.56005859375,-400000.0625
132.98949265480042,-400000.0625,-2083.110107421875,1093.3399658203125,-400000.0625,-6800.4599609375,-400000.0625,2289.77001953125,-400000.0625
132.98949599266052,-400000.0625,-2118.919921875,1063.3900146484375,-400000.0625,-6821.35009765625,-400000.0625,2256.110107421875,-400000.0625
133.04373931884766,-400000.0625,-2123.2099609375,1062.199951171875,-400000.0625,-6818.919921875,-400000.0625,2254.199951171875,-400000.0625
133.0534267425537,-400000.0625,-2090.929931640625,1090.9599609375,-400000.0625,-6796.41015625,-400000.0625,2283.909912109375,-400000.0625
133.05841660499573,-400000.0625,-2067.610107421875,1111.0799560546875,-400000.0625,-6776.2900390625,-400000.0625,2308.1298828125,-400000.0625
133.058429479599,-400000.0625,-2081.25,1096.300048828125,-400000.0625,-6791.06982421875,-400000.0625,2296.919921875,-400000.0625
133.058434009552,-400000.0625,-2114.6298828125,1068.449951171875,-400000.0625,-6816.91015625,-400000.0625,2259.5400390625,-400000.0625
133.06298303604126,-400000.0625,-2121.5,1059.5799560546875,-400000.0625,-6817.91015625,-400000.0625,2252.43994140625,-400000.0625
133.06299138069153,-400000.0625,-2089.68994140625,1090.8599853515625,-400000.0625,-6797.83984375,-400000.0625,2281.47998046875,-400000.0625
133.06299591064453,-400000.0625,-2067.85009765625,1112.4100341796875,-400000.0625,-6786.10986328125,-400000.0625,2308.800048828125,-400000.0625
133.06300020217896,-400000.0625,-2082.780029296875,1095.8199462890625,-400000.0625,-6797.35986328125,-400000.0625,2296.35009765625,-400000.0625
133.06300401687622,-400000.0625,-2116.389892578125,1068.9300537109375,-400000.0625,-6810.6201171875,-400000.0625,2260.969970703125,-400000.0625
133.0630078315735,-400000.0625,-2129.219970703125,1056.0,-400000.0625,-6815.52978515625,-400000.0625,2254.530029296875,-400000.0625
133.06301188468933,-400000.0625,-2092.97998046875,1086.1400146484375,-400000.0625,-6798.7001953125,-400000.0625,2283.139892578125,-400000.0625
133.0630156993866,-400000.0625,-2068.139892578125,1105.4000244140625,-400000.0625,-6792.16015625,-400000.0625,2308.889892578125,-400000.0625
133.06301927566528,-400000.0625,-2085.72998046875,1092.8199462890625,-400000.0625,-6802.27001953125,-400000.0625,2291.820068359375,-400000.0625
133.06302309036255,-400000.0625,-2116.679931640625,1065.6800537109375,-400000.0625,-6818.52978515625,-400000.0625,2257.39990234375,-400000.0625
133.06302666664124,-400000.0625,-2122.590087890625,1061.72998046875,-400000.0625,-6819.72998046875,-400000.0625,2258.489990234375,-400000.0625
133.09742093086243,-400000.0625,-2089.68994140625,1090.0,-400000.0625,-6795.83984375,-400000.0625,2291.969970703125,-400000.0625
133.10260391235352,-400000.0625,-2068.090087890625,1108.31005859375,-400000.0625,-6782.72021484375,-400000.0625,2308.080078125,-400000.0625
133.10749077796936,-400000.0625,-2089.31005859375,1090.4300537109375,-400000.0625,-6797.509765625,-400000.0625,2288.389892578125,-400000.0625
133.1074981689453,-400000.0625,-2121.260009765625,1060.8699951171875,-400000.0625,-6811.43017578125,-400000.0625,2253.25,-400000.0625
133.10750246047974,-400000.0625,-2127.60009765625,1055.81005859375,-400000.0625,-6817.2001953125,-400000.0625,2250.81005859375,-400000.0625
133.10750651359558,-400000.0625,-2092.080078125,1087.5699462890625,-400000.0625,-6799.75,-400000.0625,2279.139892578125,-400000.0625
133.10751032829285,-400000.0625,-2065.469970703125,1113.699951171875,-400000.0625,-6781.39013671875,-400000.0625,2308.659912109375,-400000.0625
133.1075143814087,-400000.0625,-2081.780029296875,1095.1500244140625,-400000.0625,-6793.5498046875,-400000.0625,2295.489990234375,-400000.0625
133.10751819610596,-400000.0625,-2115.489990234375,1064.780029296875,-400000.0625,-6816.9599609375,-400000.0625,2259.06005859375,-400000.0625
133.10752177238464,-400000.0625,-2122.1201171875,1058.1500244140625,-400000.0625,-6819.81982421875,-400000.0625,2252.9599609375,-400000.0625
133.10752534866333,-400000.0625,-2086.969970703125,1087.949951171875,-400000.0625,-6794.64013671875,-400000.0625,2285.18994140625,-400000.0625
133.1075291633606,-400000.0625,-2065.3701171875,1108.4599609375,-400000.0625,-6782.77001953125,-400000.0625,2304.27001953125,-400000.0625
133.1075325012207,-400000.0625,-2086.739990234375,1085.469970703125,-400000.0625,-6798.75,-400000.0625,2286.2900390625,-400000.0625
133.1075360774994,-400000.0625,-2118.919921875,1059.2900390625,-400000.0625,-6815.85986328125,-400000.0625,2250.47998046875,-400000.0625
133.10753989219666,-400000.0625,-2122.969970703125,1056.0999755859375,-400000.0625,-6813.85986328125,-400000.0625,2251.050048828125,-400000.0625
133.10754346847534,-400000.0625,-2090.97998046875,1084.3299560546875,-400000.0625,-6797.080078125,-400000.0625,2283.139892578125,-400000.0625
133.1763288974762,-400000.0625,-2072.139892578125,1105.97998046875,-400000.0625,-6782.9599609375,-400000.0625,2297.070068359375,-400000.0625
133.18550324440002,-400000.0625,-2097.75,1095.6800537109375,-400000.0625,-6795.740234375,-400000.0625,2276.179931640625,-400000.0625
133.19019985198975,-400000.0625,-2142.47998046875,1062.1099853515625,-400000.0625,-6819.2998046875,-400000.0625,2238.4599609375,-400000.0625
133.19020795822144,-400000.0625,-2141.429931640625,1057.77001953125,-400000.0625,-6813.3798828125,-400000.0625,2236.320068359375,-400000.0625
133.19021224975586,-400000.0625,-2115.300048828125,1073.6500244140625,-400000.0625,-6789.2998046875,-400000.0625,2265.840087890625,-400000.0625
133.19021677970886,-400000.0625,-2107.81005859375,1082.4200439453125,-400000.0625,-6774.43017578125,-400000.0625,2281.860107421875,-400000.0625
133.19022178649902,-400000.0625,-2133.699951171875,1066.489990234375,-400000.0625,-6782.81982421875,-400000.0625,2250.669921875,-400000.0625
133.19022631645203,-400000.0625,-2182.050048828125,1021.8599853515625,-400000.0625,-6800.18017578125,-400000.0625,2211.7099609375,-400000.0625
133.19023060798645,-400000.0625,-2198.31005859375,1011.9000244140625,-400000.0625,-6793.4501953125,-400000.0625,2193.5,-400000.0625
133.19023442268372,-400000.0625,-2181.389892578125,1032.72998046875,-400000.0625,-6780.52978515625,-400000.0625,2212.719970703125,-400000.0625
133.19023823738098,-400000.0625,-2169.22998046875,1042.56005859375,-400000.0625,-6764.3701171875,-400000.0625,2229.070068359375,-400000.0625
133.19024229049683,-400000.0625,-2201.699951171875,1019.6699829101562,-400000.0625,-6772.66015625,-400000.0625,2195.31005859375,-400000.0625
133.1902461051941,-400000.0625,-2251.389892578125,979.0900268554688,-400000.0625,-6794.7900390625,-400000.0625,2155.830078125,-400000.0625
133.19025015830994,-400000.0625,-2265.929931640625,968.219970703125,-400000.0625,-6792.06982421875,-400000.0625,2147.389892578125,-400000.0625
133.1902539730072,-400000.0625,-2248.719970703125,988.2000122070312,-400000.0625,-6772.759765625,-400000.0625,2162.5,-400000.0625
133.19025778770447,-400000.0625,-2234.60009765625,1008.4199829101562,-400000.0625,-6760.64990234375,-400000.0625,2186.159912109375,-400000.0625
133.23122763633728,-400000.0625,-2270.510009765625,973.989990234375,-400000.0625,-6777.669921875,-400000.0625,2160.929931640625,-400000.0625
133.23635268211365,-400000.0625,-2314.090087890625,939.5599975585938,-400000.0625,-6795.22021484375,-400000.0625,2119.35009765625,-400000.0625
133.24096059799194,-400000.0625,-2324.679931640625,939.7999877929688,-400000.0625,-6790.97021484375,-400000.0625,2113.389892578125,-400000.0625
133.2409701347351,-400000.0625,-2298.739990234375,961.260009765625,-400000.0625,-6775.6201171875,-400000.0625,2146.77001953125,-400000.0625
133.2409746646881,-400000.0625,-2269.889892578125,986.47998046875,-400000.0625,-6760.31005859375,-400000.0625,2171.989990234375,-400000.0625
133.24097871780396,-400000.0625,-2283.6201171875,978.0399780273438,-400000.0625,-6773.89990234375,-400000.0625,2156.780029296875,-400000.0625
133.24098253250122,-400000.0625,-2318.81005859375,942.8499755859375,-400000.0625,-6801.419921875,-400000.0625,2122.830078125,-400000.0625
133.24098658561707,-400000.0625,-2324.14990234375,940.280029296875,-400000.0625,-6803.60986328125,-400000.0625,2123.8798828125,-400000.0625
133.24099040031433,-400000.0625,-2289.530029296875,978.4199829101562,-400000.0625,-6778.81005859375,-400000.0625,2155.72998046875,-400000.0625
133.2409942150116,-400000.0625,-2258.830078125,1001.260009765625,-400000.0625,-6766.18017578125,-400000.0625,2180.860107421875,-400000.0625
133.2409975528717,-400000.0625,-2270.64990234375,987.0999755859375,-400000.0625,-6780.39013671875,-400000.0625,2163.840087890625,-400000.0625
133.24100136756897,-400000.0625,-2304.169921875,956.2000122070312,-400000.0625,-6806.89990234375,-400000.0625,2129.93994140625,-400000.0625
133.24100494384766,-400000.0625,-2304.60009765625,956.25,-400000.0625,-6809.66015625,-400000.0625,2131.27001953125,-400000.0625
133.24100852012634,-400000.0625,-2271.1298828125,986.719970703125,-400000.0625,-6786.16015625,-400000.0625,2164.64990234375,-400000.0625
133.2410135269165,-400000.0625,-2242.610107421875,1011.3200073242188,-400000.0625,-6770.89990234375,-400000.0625,2192.830078125,-400000.0625
133.2410171031952,-400000.0625,-2256.919921875,999.02001953125,-400000.0625,-6778.77001953125,-400000.0625,2181.199951171875,-400000.0625
133.29965734481812,-400000.0625,-2292.199951171875,968.7899780273438,-400000.0625,-6801.22021484375,-400000.0625,2147.050048828125,-400000.0625
133.30867385864258,-400000.0625,-2295.969970703125,964.5499877929688,-400000.0625,-6809.56982421875,-400000.0625,2144.6201171875,-400000.0625
133.31360864639282,-400000.0625,-2264.39990234375,992.1099853515625,-400000.0625,-6791.1201171875,-400000.0625,2176.860107421875,-400000.0625
133.31361722946167,-400000.0625,-2240.89990234375,1011.75,-400000.0625,-6778.81005859375,-400000.0625,2196.169921875,-400000.0625
133.3136215209961,-400000.0625,-2257.110107421875,996.969970703125,-400000.0625,-6792.35986328125,-400000.0625,2182.909912109375,-400000.0625
133.31362557411194,-400000.0625,-2297.590087890625,962.8300170898438,-400000.0625,-6818.68017578125,-400000.0625,2151.6298828125,-400000.0625
133.31362962722778,-400000.0625,-2298.590087890625,962.5900268554688,-400000.0625,-6817.72021484375,-400000.0625,2150.25,-400000.0625
133.31363344192505,-400000.0625,-2261.159912109375,993.9199829101562,-400000.0625,-6793.31005859375,-400000.0625,2184.010009765625,-400000.0625
133.31363725662231,-400000.0625,-2231.169921875,1019.8099975585938,-400000.0625,-6776.18994140625,-400000.0625,2211.81005859375,-400000.0625
133.31364130973816,-400000.0625,-2249.719970703125,1002.739990234375,-400000.0625,-6788.10986328125,-400000.0625,2199.27001953125,-400000.0625
133.31364512443542,-400000.0625,-2288.2900390625,968.27001953125,-400000.0625,-6817.77001953125,-400000.0625,2159.169921875,-400000.0625
133.3136487007141,-400000.0625,-2286.340087890625,969.739990234375,-400000.0625,-6814.81005859375,-400000.0625,2156.31005859375,-400000.0625
133.3136522769928,-400000.0625,-2259.25,993.2000122070312,-400000.0625,-6792.31005859375,-400000.0625,2187.780029296875,-400000.0625
133.31365609169006,-400000.0625,-2236.320068359375,1015.7100219726562,-400000.0625,-6781.0498046875,-400000.0625,2207.330078125,-400000.0625
133.31365966796875,-400000.0625,-2251.429931640625,1002.1199951171875,-400000.0625,-6792.58984375,-400000.0625,2190.5400390625,-400000.0625
133.31366348266602,-400000.0625,-2282.139892578125,976.0399780273438,-400000.0625,-6812.72021484375,-400000.0625,2154.39990234375,-400000.0625
133.3793351650238,-400000.0625,-2286.010009765625,969.5999755859375,-400000.0625,-6815.72021484375,-400000.0625,2155.070068359375,-400000.0625
133.3843333721161,-400000.0625,-2257.919921875,998.1599731445312,-400000.0625,-6795.93017578125,-400000.0625,2186.25,-400000.0625
133.384343624115,-400000.0625,-2226.780029296875,1027.300048828125,-400000.0625,-6775.18994140625,-400000.0625,2209.0,-400000.0625
133.38434767723083,-400000.0625,-2243.610107421875,1009.989990234375,-400000.0625,-6788.72998046875,-400000.0625,2191.8798828125,-400000.0625
133.3843514919281,-400000.0625,-2281.6201171875,975.6599731445312,-400000.0625,-6815.580078125,-400000.0625,2162.840087890625,-400000.0625
133.38873410224915,-400000.0625,-2286.9599609375,973.75,-400000.0625,-6815.580078125,-400000.0625,2156.39990234375,-400000.0625
133.3887424468994,-400000.0625,-2260.590087890625,1000.1699829101562,-400000.0625,-6799.64990234375,-400000.0625,2184.679931640625,-400000.0625
133.38874697685242,-400000.0625,-2237.93994140625,1025.530029296875,-400000.0625,-6783.81982421875,-400000.0625,2214.340087890625,-400000.0625
133.38875079154968,-400000.0625,-2245.949951171875,1003.1699829101562,-400000.0625,-6789.4501953125,-400000.0625,2208.419921875,-400000.0625
133.3887538909912,-400000.0625,-2282.719970703125,959.9199829101562,-400000.0625,-6816.0498046875,-400000.0625,2179.909912109375,-400000.0625
133.3887584209442,-400000.0625,-2294.02001953125,953.6300048828125,-400000.0625,-6817.52978515625,-400000.0625,2172.659912109375,-400000.0625
133.38876175880432,-400000.0625,-2265.929931640625,982.239990234375,-400000.0625,-6798.509765625,-400000.0625,2208.22998046875,-400000.0625
133.38876509666443,-400000.0625,-2241.7099609375,997.02001953125,-400000.0625,-6788.2998046875,-400000.0625,2243.18994140625,-400000.0625
133.38876819610596,-400000.0625,-2256.199951171875,981.0,-400000.0625,-6797.4599609375,-400000.0625,2235.320068359375,-400000.0625
133.38877177238464,-400000.0625,-2291.5400390625,944.0399780273438,-400000.0625,-6820.16015625,-400000.0625,2204.56005859375,-400000.0625
133.38877511024475,-400000.0625,-2295.590087890625,938.030029296875,-400000.0625,-6828.5,-400000.0625,2200.169921875,-400000.0625
133.41288352012634,-400000.0625,-2262.929931640625,966.1699829101562,-400000.0625,-6804.85009765625,-400000.0625,2235.219970703125,-400000.0625
133.42446851730347,-400000.0625,-2238.56005859375,989.2899780273438,-400000.0625,-6787.919921875,-400000.0625,2257.300048828125,-400000.0625
133.4296064376831,-400000.0625,-2250.10009765625,975.510009765625,-400000.0625,-6795.259765625,-400000.0625,2239.800048828125,-400000.0625
133.4342224597931,-400000.0625,-2285.81005859375,947.4299926757812,-400000.0625,-6816.91015625,-400000.0625,2206.280029296875,-400000.0625
133.43422985076904,-400000.0625,-2284.10009765625,948.3300170898438,-400000.0625,-6822.5400390625,-400000.0625,2207.7099609375,-400000.0625
133.43423438072205,-400000.0625,-2254.719970703125,974.0800170898438,-400000.0625,-6799.080078125,-400000.0625,2236.030029296875,-400000.0625
133.43423891067505,-400000.0625,-2231.739990234375,993.72998046875,-400000.0625,-6784.009765625,-400000.0625,2263.449951171875,-400000.0625
133.43424344062805,-400000.0625,-2242.139892578125,982.6699829101562,-400000.0625,-6795.06982421875,-400000.0625,2253.25,-400000.0625
133.4342474937439,-400000.0625,-2278.610107421875,949.1900024414062,-400000.0625,-6817.52978515625,-400000.0625,2217.14990234375,-400000.0625
133.43425154685974,-400000.0625,-2280.0400390625,947.3300170898438,-400000.0625,-6821.72998046875,-400000.0625,2213.909912109375,-400000.0625
133.43425512313843,-400000.0625,-2248.10009765625,976.7100219726562,-400000.0625,-6807.85009765625,-400000.0625,2247.050048828125,-400000.0625
133.43425917625427,-400000.0625,-2221.06005859375,999.739990234375,-400000.0625,-6792.97998046875,-400000.0625,2269.320068359375,-400000.0625
133.43426299095154,-400000.0625,-2238.85009765625,982.47998046875,-400000.0625,-6806.419921875,-400000.0625,2250.530029296875,-400000.0625
133.43426704406738,-400000.0625,-2275.22998046875,948.3300170898438,-400000.0625,-6828.39990234375,-400000.0625,2218.6298828125,-400000.0625
133.43427109718323,-400000.0625,-2277.89990234375,948.719970703125,-400000.0625,-6827.16015625,-400000.0625,2216.6298828125,-400000.0625
133.43427515029907,-400000.0625,-2244.89990234375,982.1900024414062,-400000.0625,-6802.0400390625,-400000.0625,2245.949951171875,-400000.0625
133.47798013687134,-400000.0625,-2218.530029296875,1001.1199951171875,-400000.0625,-6786.2998046875,-400000.0625,2271.56005859375,-400000.0625
133.48307704925537,-400000.0625,-2235.889892578125,984.8599853515625,-400000.0625,-6798.60009765625,-400000.0625,2256.159912109375,-400000.0625
133.48780226707458,-400000.0625,-2272.030029296875,952.6300048828125,-400000.0625,-6827.93017578125,-400000.0625,2216.860107421875,-400000.0625
133.487811088562,-400000.0625,-2271.93994140625,951.9600219726562,-400000.0625,-6826.93017578125,-400000.0625,2217.669921875,-400000.0625
133.48781538009644,-400000.0625,-2237.4599609375,980.5700073242188,-400000.0625,-6807.85009765625,-400000.0625,2257.6298828125,-400000.0625
133.4878191947937,-400000.0625,-2214.340087890625,1000.5999755859375,-400000.0625,-6795.22021484375,-400000.0625,2280.090087890625,-400000.0625
133.48782300949097,-400000.0625,-2232.1201171875,985.6699829101562,-400000.0625,-6806.52001953125,-400000.0625,2261.830078125,-400000.0625
133.48782682418823,-400000.0625,-2264.31005859375,957.1599731445312,-400000.0625,-6825.2998046875,-400000.0625,2227.929931640625,-400000.0625
133.48783111572266,-400000.0625,-2268.97998046875,955.0999755859375,-400000.0625,-6825.5,-400000.0625,2224.489990234375,-400000.0625
133.48783493041992,-400000.0625,-2236.27001953125,985.4299926757812,-400000.0625,-6804.31982421875,-400000.0625,2253.719970703125,-400000.0625
133.4878396987915,-400000.0625,-2214.3798828125,1001.6400146484375,-400000.0625,-6792.02001953125,-400000.0625,2275.510009765625,-400000.0625
133.4878432750702,-400000.0625,-2226.5400390625,987.239990234375,-400000.0625,-6799.509765625,-400000.0625,2262.39990234375,-400000.0625
133.48784685134888,-400000.0625,-2264.830078125,957.2000122070312,-400000.0625,-6825.16015625,-400000.0625,2226.969970703125,-400000.0625
133.48785066604614,-400000.0625,-2270.56005859375,953.0999755859375,-400000.0625,-6830.4501953125,-400000.0625,2221.300048828125,-400000.0625
133.48785424232483,-400000.0625,-2235.27001953125,982.4299926757812,-400000.0625,-6811.7099609375,-400000.0625,2256.43994140625,-400000.0625
133.48785781860352,-400000.0625,-2210.949951171875,1003.6900024414062,-400000.0625,-6798.93994140625,-400000.0625,2281.139892578125,-400000.0625
133.54723405838013,-400000.0625,-2227.2099609375,990.8699951171875,-400000.0625,-6801.080078125,-400000.0625,2261.2099609375,-400000.0625
133.55602860450745,-400000.0625,-2263.639892578125,953.5800170898438,-400000.0625,-6825.58984375,-400000.0625,2227.2099609375,-400000.0625
133.56078004837036,-400000.0625,-2267.929931640625,952.0999755859375,-400000.0625,-6830.1201171875,-400000.0625,2222.300048828125,-400000.0625
133.56079006195068,-400000.0625,-2238.320068359375,981.9000244140625,-400000.0625,-6809.08984375,-400000.0625,2255.010009765625,-400000.0625
133.5607943534851,-400000.0625,-2214.9599609375,1006.27001953125,-400000.0625,-6798.75,-400000.0625,2275.989990234375,-400000.0625
133.56079840660095,-400000.0625,-2217.10009765625,1004.9299926757812,-400000.0625,-6803.509765625,-400000.0625,2257.919921875,-400000.0625
133.56080222129822,-400000.0625,-2235.4599609375,979.469970703125,-400000.0625,-6815.6298828125,-400000.0625,2214.10009765625,-400000.0625
133.5608057975769,-400000.0625,-2231.4599609375,982.6199951171875,-400000.0625,-6812.47998046875,-400000.0625,2205.0400390625,-400000.0625
133.56080961227417,-400000.0625,-2195.219970703125,1019.4299926757812,-400000.0625,-6796.22021484375,-400000.0625,2226.780029296875,-400000.0625
133.56081342697144,-400000.0625,-2162.080078125,1051.0,-400000.0625,-6787.8701171875,-400000.0625,2245.330078125,-400000.0625
133.5608172416687,-400000.0625,-2169.659912109375,1041.93994140625,-400000.0625,-6793.35986328125,-400000.0625,2219.010009765625,-400000.0625
133.5608208179474,-400000.0625,-2201.1298828125,1020.5700073242188,-400000.0625,-6808.08984375,-400000.0625,2173.330078125,-400000.0625
133.56082463264465,-400000.0625,-2198.550048828125,1027.3900146484375,-400000.0625,-6808.330078125,-400000.0625,2161.1201171875,-400000.0625
133.56082844734192,-400000.0625,-2165.75,1062.1099853515625,-400000.0625,-6789.35009765625,-400000.0625,2185.5400390625,-400000.0625
133.5608320236206,-400000.0625,-2136.419921875,1092.3399658203125,-400000.0625,-6771.759765625,-400000.0625,2203.1298828125,-400000.0625
133.5608355998993,-400000.0625,-2149.06005859375,1080.6600341796875,-400000.0625,-6783.2001953125,-400000.0625,2186.919921875,-400000.0625
133.6460645198822,-400000.0625,-2187.43994140625,1046.6099853515625,-400000.0625,-6810.27978515625,-400000.0625,2154.39990234375,-400000.0625
133.65140008926392,-400000.0625,-2190.2099609375,1047.1800537109375,-400000.0625,-6810.0,-400000.0625,2151.8701171875,-400000.0625
133.65948009490967,-400000.0625,-2155.260009765625,1074.97998046875,-400000.0625,-6792.58984375,-400000.0625,2186.919921875,-400000.0625
133.6640636920929,-400000.0625,-2132.4599609375,1094.47998046875,-400000.0625,-6775.240234375,-400000.0625,2210.050048828125,-400000.0625
133.66407299041748,-400000.0625,-2148.719970703125,1078.699951171875,-400000.0625,-6790.5400390625,-400000.0625,2195.739990234375,-400000.0625
133.6640772819519,-400000.0625,-2180.860107421875,1047.8499755859375,-400000.0625,-6815.77001953125,-400000.0625,2159.7900390625,-400000.0625
133.66408133506775,-400000.0625,-2187.110107421875,1042.800048828125,-400000.0625,-6818.919921875,-400000.0625,2151.679931640625,-400000.0625
133.66408514976501,-400000.0625,-2156.31005859375,1074.4100341796875,-400000.0625,-6796.169921875,-400000.0625,2186.110107421875,-400000.0625
133.6640887260437,-400000.0625,-2128.60009765625,1096.489990234375,-400000.0625,-6784.2998046875,-400000.0625,2209.0,-400000.0625
133.6640923023224,-400000.0625,-2143.239990234375,1079.4200439453125,-400000.0625,-6797.740234375,-400000.0625,2196.68994140625,-400000.0625
133.66409611701965,-400000.0625,-2176.18994140625,1049.280029296875,-400000.0625,-6816.2900390625,-400000.0625,2163.699951171875,-400000.0625
133.6641001701355,-400000.0625,-2179.81005859375,1045.3199462890625,-400000.0625,-6818.490234375,-400000.0625,2160.840087890625,-400000.0625
133.6641035079956,-400000.0625,-2146.530029296875,1076.3199462890625,-400000.0625,-6797.41015625,-400000.0625,2191.639892578125,-400000.0625
133.6641070842743,-400000.0625,-2121.8798828125,1098.9200439453125,-400000.0625,-6783.77001953125,-400000.0625,2214.47998046875,-400000.0625
133.6641116142273,-400000.0625,-2134.280029296875,1082.800048828125,-400000.0625,-6795.31005859375,-400000.0625,2196.68994140625,-400000.0625
133.66411542892456,-400000.0625,-2164.1298828125,1060.1500244140625,-400000.0625,-6819.81982421875,-400000.0625,2167.85009765625,-400000.0625
133.67659497261047,-400000.0625,-2164.030029296875,1059.6800537109375,-400000.0625,-6817.06005859375,-400000.0625,2170.989990234375,-400000.0625
133.6819760799408,-400000.0625,-2133.85009765625,1087.9000244140625,-400000.0625,-6796.06982421875,-400000.0625,2195.97998046875,-400000.0625
133.68696188926697,-400000.0625,-2109.0,1112.699951171875,-400000.0625,-6781.33984375,-400000.0625,2223.679931640625,-400000.0625
133.68697237968445,-400000.0625,-2123.550048828125,1093.0999755859375,-400000.0625,-6792.02001953125,-400000.0625,2209.85009765625,-400000.0625
133.6869764328003,-400000.0625,-2152.919921875,1067.969970703125,-400000.0625,-6813.47998046875,-400000.0625,2174.570068359375,-400000.0625
133.68698048591614,-400000.0625,-2157.260009765625,1063.3499755859375,-400000.0625,-6818.919921875,-400000.0625,2168.3701171875,-400000.0625
133.68698477745056,-400000.0625,-2122.68994140625,1094.010009765625,-400000.0625,-6799.080078125,-400000.0625,2201.1298828125,-400000.0625
133.69148659706116,-400000.0625,-2095.510009765625,1116.3699951171875,-400000.0625,-6785.490234375,-400000.0625,2224.969970703125,-400000.0625
133.69149518013,-400000.0625,-2112.669921875,1099.6300048828125,-400000.0625,-6795.169921875,-400000.0625,2208.52001953125,-400000.0625
133.691499710083,-400000.0625,-2147.77001953125,1067.3499755859375,-400000.0625,-6813.240234375,-400000.0625,2173.3798828125,-400000.0625
133.69150352478027,-400000.0625,-2148.10009765625,1065.5400390625,-400000.0625,-6815.14990234375,-400000.0625,2174.18994140625,-400000.0625
133.69150805473328,-400000.0625,-2115.580078125,1094.530029296875,-400000.0625,-6792.68994140625,-400000.0625,2209.81005859375,-400000.0625
133.69151163101196,-400000.0625,-2090.1201171875,1119.22998046875,-400000.0625,-6785.25,-400000.0625,2233.27001953125,-400000.0625
133.6915156841278,-400000.0625,-2108.18994140625,1101.02001953125,-400000.0625,-6803.66015625,-400000.0625,2214.429931640625,-400000.0625
133.69151949882507,-400000.0625,-2142.050048828125,1068.5,-400000.0625,-6822.490234375,-400000.0625,2181.669921875,-400000.0625
133.69152331352234,-400000.0625,-2144.909912109375,1062.300048828125,-400000.0625,-6822.43994140625,-400000.0625,2177.3798828125,-400000.0625
133.73214411735535,-400000.0625,-2110.199951171875,1098.5400390625,-400000.0625,-6800.60009765625,-400000.0625,2208.469970703125,-400000.0625
133.7371301651001,-400000.0625,-2089.60009765625,1117.800048828125,-400000.0625,-6785.919921875,-400000.0625,2231.260009765625,-400000.0625
133.73714017868042,-400000.0625,-2104.949951171875,1100.5899658203125,-400000.0625,-6796.5498046875,-400000.0625,2217.10009765625,-400000.0625
133.73714447021484,-400000.0625,-2143.18994140625,1069.31005859375,-400000.0625,-6817.25,-400000.0625,2182.14990234375,-400000.0625
133.73714876174927,-400000.0625,-2146.530029296875,1067.5,-400000.0625,-6823.16015625,-400000.0625,2179.909912109375,-400000.0625
133.73715257644653,-400000.0625,-2113.06005859375,1097.3900146484375,-400000.0625,-6805.7099609375,-400000.0625,2212.429931640625,-400000.0625
133.7371563911438,-400000.0625,-2083.919921875,1124.9100341796875,-400000.0625,-6785.919921875,-400000.0625,2237.93994140625,-400000.0625
133.74130702018738,-400000.0625,-2098.320068359375,1108.27001953125,-400000.0625,-6795.35986328125,-400000.0625,2224.830078125,-400000.0625
133.74131536483765,-400000.0625,-2141.139892578125,1073.0699462890625,-400000.0625,-6816.10009765625,-400000.0625,2184.199951171875,-400000.0625
133.74131965637207,-400000.0625,-2142.81005859375,1068.969970703125,-400000.0625,-6816.9599609375,-400000.0625,2180.47998046875,-400000.0625
133.74132347106934,-400000.0625,-2111.860107421875,1094.3399658203125,-400000.0625,-6802.89013671875,-400000.0625,2208.760009765625,-400000.0625
133.7413272857666,-400000.0625,-2086.68994140625,1120.1400146484375,-400000.0625,-6786.490234375,-400000.0625,2233.7900390625,-400000.0625
133.74133110046387,-400000.0625,-2108.18994140625,1100.02001953125,-400000.0625,-6797.080078125,-400000.0625,2219.6298828125,-400000.0625
133.74133443832397,-400000.0625,-2141.090087890625,1070.8800048828125,-400000.0625,-6817.10009765625,-400000.0625,2182.8701171875,-400000.0625
133.74133801460266,-400000.0625,-2145.0,1072.3599853515625,-400000.0625,-6810.85986328125,-400000.0625,2178.239990234375,-400000.0625
133.74134182929993,-400000.0625,-2117.590087890625,1098.780029296875,-400000.0625,-6793.7900390625,-400000.0625,2211.239990234375,-400000.0625
133.79878997802734,-400000.0625,-2089.7900390625,1118.0400390625,-400000.0625,-6787.97021484375,-400000.0625,2238.4599609375,-400000.0625
133.80745244026184,-400000.0625,-2106.949951171875,1094.6300048828125,-400000.0625,-6799.64990234375,-400000.0625,2225.72998046875,-400000.0625
133.8132553100586,-400000.0625,-2144.2900390625,1059.25,-400000.0625,-6818.39013671875,-400000.0625,2196.070068359375,-400000.0625
133.81815481185913,-400000.0625,-2146.050048828125,1055.9100341796875,-400000.0625,-6817.10009765625,-400000.0625,2194.7900390625,-400000.0625
133.81816363334656,-400000.0625,-2124.830078125,1070.260009765625,-400000.0625,-6802.85009765625,-400000.0625,2230.60009765625,-400000.0625
133.81816840171814,-400000.0625,-2108.050048828125,1081.93994140625,-400000.0625,-6789.77978515625,-400000.0625,2261.35009765625,-400000.0625
133.81817388534546,-400000.0625,-2130.7900390625,1060.9200439453125,-400000.0625,-6803.85009765625,-400000.0625,2243.7099609375,-400000.0625
133.8181779384613,-400000.0625,-2166.080078125,1028.5899658203125,-400000.0625,-6824.58984375,-400000.0625,2208.610107421875,-400000.0625
133.81818222999573,-400000.0625,-2168.4599609375,1019.3300170898438,-400000.0625,-6826.35009765625,-400000.0625,2210.669921875,-400000.0625
133.81818628311157,-400000.0625,-2137.469970703125,1046.1800537109375,-400000.0625,-6809.66015625,-400000.0625,2244.0400390625,-400000.0625
133.81818985939026,-400000.0625,-2114.679931640625,1069.3599853515625,-400000.0625,-6792.58984375,-400000.0625,2264.929931640625,-400000.0625
133.81819343566895,-400000.0625,-2131.179931640625,1054.949951171875,-400000.0625,-6802.93994140625,-400000.0625,2246.949951171875,-400000.0625
133.81819701194763,-400000.0625,-2165.889892578125,1022.010009765625,-400000.0625,-6828.31005859375,-400000.0625,2211.570068359375,-400000.0625
133.8182008266449,-400000.0625,-2168.75,1021.1900024414062,-400000.0625,-6824.490234375,-400000.0625,2210.570068359375,-400000.0625
133.81820464134216,-400000.0625,-2138.330078125,1048.6099853515625,-400000.0625,-6806.27978515625,-400000.0625,2244.18994140625,-400000.0625
133.8182089328766,-400000.0625,-2111.050048828125,1067.5400390625,-400000.0625,-6793.06982421875,-400000.0625,2262.639892578125,-400000.0625
133.86366391181946,-400000.0625,-2131.409912109375,1051.0899658203125,-400000.0625,-6804.56005859375,-400000.0625,2249.429931640625,-400000.0625
133.8693492412567,-400000.0625,-2169.93994140625,1017.5700073242188,-400000.0625,-6830.5,-400000.0625,2213.050048828125,-400000.0625
133.87449145317078,-400000.0625,-2170.75,1018.6699829101562,-400000.0625,-6828.02001953125,-400000.0625,2210.0,-400000.0625
133.88066267967224,-400000.0625,-2142.139892578125,1045.800048828125,-400000.0625,-6804.27978515625,-400000.0625,2238.510009765625,-400000.0625
133.88548612594604,-400000.0625,-2121.449951171875,1066.72998046875,-400000.0625,-6792.4501953125,-400000.0625,2260.919921875,-400000.0625
133.88549613952637,-400000.0625,-2141.18994140625,1048.800048828125,-400000.0625,-6809.66015625,-400000.0625,2241.85009765625,-400000.0625
133.88550066947937,-400000.0625,-2176.669921875,1016.0399780273438,-400000.0625,-6830.7900390625,-400000.0625,2206.139892578125,-400000.0625
133.8855049610138,-400000.0625,-2181.10009765625,1011.989990234375,-400000.0625,-6829.830078125,-400000.0625,2200.989990234375,-400000.0625
133.88550877571106,-400000.0625,-2148.340087890625,1040.8900146484375,-400000.0625,-6807.3798828125,-400000.0625,2232.68994140625,-400000.0625
133.88551259040833,-400000.0625,-2124.7900390625,1064.2099609375,-400000.0625,-6789.259765625,-400000.0625,2263.39990234375,-400000.0625
133.885516166687,-400000.0625,-2138.89990234375,1049.4200439453125,-400000.0625,-6801.7001953125,-400000.0625,2244.3798828125,-400000.0625
133.88552021980286,-400000.0625,-2172.610107421875,1024.06005859375,-400000.0625,-6826.02001953125,-400000.0625,2207.52001953125,-400000.0625
133.88552403450012,-400000.0625,-2178.9599609375,1018.9500122070312,-400000.0625,-6826.35009765625,-400000.0625,2207.330078125,-400000.0625
133.88552808761597,-400000.0625,-2152.110107421875,1043.510009765625,-400000.0625,-6801.18017578125,-400000.0625,2237.610107421875,-400000.0625
133.88553166389465,-400000.0625,-2130.1298828125,1064.300048828125,-400000.0625,-6792.97998046875,-400000.0625,2257.8701171875,-400000.0625
133.88553524017334,-400000.0625,-2144.9599609375,1050.949951171875,-400000.0625,-6807.0400390625,-400000.0625,2244.760009765625,-400000.0625
133.92625093460083,-400000.0625,-2191.02001953125,1011.1300048828125,-400000.0625,-6832.60009765625,-400000.0625,2206.280029296875,-400000.0625
133.9421226978302,-400000.0625,-2194.02001953125,1007.3699951171875,-400000.0625,-6832.740234375,-400000.0625,2200.56005859375,-400000.0625
133.94694542884827,-400000.0625,-2161.7900390625,1034.68994140625,-400000.0625,-6812.91015625,-400000.0625,2234.169921875,-400000.0625
133.94695401191711,-400000.0625,-2134.659912109375,1058.050048828125,-400000.0625,-6795.740234375,-400000.0625,2258.110107421875,-400000.0625
133.94695830345154,-400000.0625,-2154.39990234375,1040.5999755859375,-400000.0625,-6802.60986328125,-400000.0625,2239.510009765625,-400000.0625
133.9469621181488,-400000.0625,-2196.260009765625,1004.1699829101562,-400000.0625,-6829.259765625,-400000.0625,2206.56005859375,-400000.0625
133.94696593284607,-400000.0625,-2197.889892578125,1003.8900146484375,-400000.0625,-6833.7900390625,-400000.0625,2203.1298828125,-400000.0625
133.94696974754333,-400000.0625,-2165.989990234375,1032.449951171875,-400000.0625,-6811.669921875,-400000.0625,2233.699951171875,-400000.0625
133.94697332382202,-400000.0625,-2141.47998046875,1055.1500244140625,-400000.0625,-6797.60009765625,-400000.0625,2252.10009765625,-400000.0625
133.9469771385193,-400000.0625,-2157.39990234375,1038.739990234375,-400000.0625,-6809.18994140625,-400000.0625,2230.31005859375,-400000.0625
133.94698095321655,-400000.0625,-2198.219970703125,1004.3599853515625,-400000.0625,-6829.06982421875,-400000.0625,2196.1201171875,-400000.0625
133.94698452949524,-400000.0625,-2202.989990234375,1003.6500244140625,-400000.0625,-6825.72998046875,-400000.0625,2195.7900390625,-400000.0625
133.94698810577393,-400000.0625,-2164.699951171875,1033.3499755859375,-400000.0625,-6801.080078125,-400000.0625,2228.31005859375,-400000.0625
133.94699263572693,-400000.0625,-2146.47998046875,1050.6199951171875,-400000.0625,-6791.06982421875,-400000.0625,2247.050048828125,-400000.0625
133.94699597358704,-400000.0625,-2168.93994140625,1031.8800048828125,-400000.0625,-6806.419921875,-400000.0625,2225.590087890625,-400000.0625
133.94699931144714,-400000.0625,-2203.699951171875,996.489990234375,-400000.0625,-6829.93017578125,-400000.0625,2190.02001953125,-400000.0625
134.04465794563293,-400000.0625,-2201.3701171875,995.5900268554688,-400000.0625,-6830.169921875,-400000.0625,2190.68994140625,-400000.0625
134.05327653884888,-400000.0625,-2167.75,1030.300048828125,-400000.0625,-6807.3798828125,-400000.0625,2220.199951171875,-400000.0625
134.05788040161133,-400000.0625,-2148.43994140625,1050.760009765625,-400000.0625,-6788.830078125,-400000.0625,2242.989990234375,-400000.0625
134.0578863620758,-400000.0625,-2164.699951171875,1036.5999755859375,-400000.0625,-6795.68994140625,-400000.0625,2225.070068359375,-400000.0625
134.05789065361023,-400000.0625,-2204.1298828125,999.97998046875,-400000.0625,-6818.06005859375,-400000.0625,2190.39990234375,-400000.0625
134.0578944683075,-400000.0625,-2206.989990234375,998.0700073242188,-400000.0625,-6820.72998046875,-400000.0625,2187.199951171875,-400000.0625
134.05789828300476,-400000.0625,-2177.239990234375,1026.77001953125,-400000.0625,-6803.1298828125,-400000.0625,2218.909912109375,-400000.0625
134.05790185928345,-400000.0625,-2157.780029296875,1048.8499755859375,-400000.0625,-6787.16015625,-400000.0625,2238.800048828125,-400000.0625
134.0579056739807,-400000.0625,-2169.179931640625,1036.4100341796875,-400000.0625,-6791.77978515625,-400000.0625,2227.780029296875,-400000.0625
134.0579092502594,-400000.0625,-2199.510009765625,995.969970703125,-400000.0625,-6812.56982421875,-400000.0625,2199.699951171875,-400000.0625
134.0579128265381,-400000.0625,-2208.090087890625,986.6199951171875,-400000.0625,-6820.8701171875,-400000.0625,2198.409912109375,-400000.0625
134.05791640281677,-400000.0625,-2183.06005859375,1017.47998046875,-400000.0625,-6798.7001953125,-400000.0625,2230.31005859375,-400000.0625
134.05791997909546,-400000.0625,-2165.75,1031.6800537109375,-400000.0625,-6788.72998046875,-400000.0625,2256.580078125,-400000.0625
134.05792355537415,-400000.0625,-2177.18994140625,1017.8599853515625,-400000.0625,-6801.56005859375,-400000.0625,2237.699951171875,-400000.0625
134.0579273700714,-400000.0625,-2213.81005859375,986.4299926757812,-400000.0625,-6819.580078125,-400000.0625,2208.139892578125,-400000.0625
134.0579309463501,-400000.0625,-2214.81005859375,984.719970703125,-400000.0625,-6819.43994140625,-400000.0625,2205.93994140625,-400000.0625
134.07149291038513,-400000.0625,-2181.9599609375,1014.1400146484375,-400000.0625,-6795.93017578125,-400000.0625,2241.090087890625,-400000.0625
134.0758512020111,-400000.0625,-2160.840087890625,1032.0699462890625,-400000.0625,-6783.77001953125,-400000.0625,2264.02001953125,-400000.0625
134.07585954666138,-400000.0625,-2186.6298828125,1009.27001953125,-400000.0625,-6797.7900390625,-400000.0625,2241.280029296875,-400000.0625
134.07594513893127,-400000.0625,-2222.06005859375,976.510009765625,-400000.0625,-6818.52978515625,-400000.0625,2205.1298828125,-400000.0625
134.07594895362854,-400000.0625,-2217.340087890625,980.1400146484375,-400000.0625,-6814.669921875,-400000.0625,2202.320068359375,-400000.0625
134.07595252990723,-400000.0625,-2181.77001953125,1010.8499755859375,-400000.0625,-6799.31982421875,-400000.0625,2235.840087890625,-400000.0625
134.07595586776733,-400000.0625,-2160.60009765625,1029.6800537109375,-400000.0625,-6790.259765625,-400000.0625,2257.06005859375,-400000.0625
134.07595944404602,-400000.0625,-2180.389892578125,1012.9500122070312,-400000.0625,-6800.509765625,-400000.0625,2240.610107421875,-400000.0625
134.07596278190613,-400000.0625,-2214.47998046875,980.469970703125,-400000.0625,-6822.68017578125,-400000.0625,2206.22998046875,-400000.0625
134.07596635818481,-400000.0625,-2217.389892578125,983.0,-400000.0625,-6820.16015625,-400000.0625,2203.1298828125,-400000.0625
134.07596969604492,-400000.0625,-2190.449951171875,1009.5599975585938,-400000.0625,-6797.1201171875,-400000.0625,2237.93994140625,-400000.0625
134.07597303390503,-400000.0625,-2166.320068359375,1031.5899658203125,-400000.0625,-6778.669921875,-400000.0625,2253.909912109375,-400000.0625
134.07597637176514,-400000.0625,-2183.820068359375,1014.9000244140625,-400000.0625,-6789.72998046875,-400000.0625,2237.93994140625,-400000.0625
134.07597994804382,-400000.0625,-2221.010009765625,987.47998046875,-400000.0625,-6812.52978515625,-400000.0625,2204.080078125,-400000.0625
134.07598304748535,-400000.0625,-2225.02001953125,983.1900024414062,-400000.0625,-6816.72021484375,-400000.0625,2201.219970703125,-400000.0625
134.07598638534546,-400000.0625,-2196.219970703125,1011.3200073242188,-400000.0625,-6793.2099609375,-400000.0625,2230.840087890625,-400000.0625
134.12678289413452,-400000.0625,-2194.449951171875,1042.510009765625,-400000.0625,-6775.759765625,-400000.0625,2261.590087890625,-400000.0625
134.13197350502014,-400000.0625,-2221.35009765625,1040.5999755859375,-400000.0625,-6783.10009765625,-400000.0625,2268.97998046875,-400000.0625
134.1373631954193,-400000.0625,-2254.340087890625,1000.6900024414062,-400000.0625,-6798.509765625,-400000.0625,2222.679931640625,-400000.0625
134.14318752288818,-400000.0625,-2255.25,981.0399780273438,-400000.0625,-6801.18017578125,-400000.0625,2195.02001953125,-400000.0625
134.14906334877014,-400000.0625,-2234.360107421875,999.8800048828125,-400000.0625,-6771.14013671875,-400000.0625,2232.68994140625,-400000.0625
134.15849113464355,-400000.0625,-2224.110107421875,1016.4299926757812,-400000.0625,-6751.81982421875,-400000.0625,2247.949951171875,-400000.0625
134.1637544631958,-400000.0625,-2288.820068359375,997.5900268554688,-400000.0625,-6755.5400390625,-400000.0625,2217.25,-400000.0625
134.16912841796875,-400000.0625,-2345.93994140625,962.260009765625,-400000.0625,-6765.83984375,-400000.0625,2178.81005859375,-400000.0625
134.1740870475769,-400000.0625,-2337.27001953125,936.3699951171875,-400000.0625,-6765.02978515625,-400000.0625,2160.1201171875,-400000.0625
134.17409420013428,-400000.0625,-2351.239990234375,936.8400268554688,-400000.0625,-6738.27978515625,-400000.0625,2160.070068359375,-400000.0625
134.17409873008728,-400000.0625,-2362.43994140625,949.3400268554688,-400000.0625,-6703.47021484375,-400000.0625,2165.1298828125,-400000.0625
134.17410254478455,-400000.0625,-2424.3798828125,910.1900024414062,-400000.0625,-6693.97998046875,-400000.0625,2127.4599609375,-400000.0625
134.17410612106323,-400000.0625,-2526.3798828125,848.3400268554688,-400000.0625,-6705.3798828125,-400000.0625,2050.449951171875,-400000.0625
134.17410969734192,-400000.0625,-2581.8798828125,829.739990234375,-400000.0625,-6686.68994140625,-400000.0625,2025.989990234375,-400000.0625
134.17411303520203,-400000.0625,-2566.340087890625,845.8599853515625,-400000.0625,-6650.72998046875,-400000.0625,2046.1600341796875,-400000.0625
134.1741166114807,-400000.0625,-2579.5,854.1099853515625,-400000.0625,-6626.93994140625,-400000.0625,2050.449951171875,-400000.0625
134.18116784095764,-400000.0625,-2605.9599609375,829.1699829101562,-400000.0625,-6634.7099609375,-400000.0625,2007.8699951171875,-400000.0625
134.18658185005188,-400000.0625,-2663.949951171875,786.2100219726562,-400000.0625,-6650.2099609375,-400000.0625,1959.280029296875,-400000.0625
134.1907353401184,-400000.0625,-2689.219970703125,786.260009765625,-400000.0625,-6643.39013671875,-400000.0625,1950.1700439453125,-400000.0625
134.19074273109436,-400000.0625,-2669.760009765625,817.0599975585938,-400000.0625,-6617.39990234375,-400000.0625,1974.3900146484375,-400000.0625
134.1907467842102,-400000.0625,-2653.219970703125,833.7000122070312,-400000.0625,-6599.759765625,-400000.0625,1987.699951171875,-400000.0625
134.19075059890747,-400000.0625,-2680.02001953125,820.9199829101562,-400000.0625,-6600.0498046875,-400000.0625,1964.469970703125,-400000.0625
134.19075417518616,-400000.0625,-2724.219970703125,791.5,-400000.0625,-6618.5498046875,-400000.0625,1928.0,-400000.0625
134.19075846672058,-400000.0625,-2726.27001953125,790.739990234375,-400000.0625,-6628.3701171875,-400000.0625,1917.27001953125,-400000.0625
134.1907618045807,-400000.0625,-2674.9599609375,834.469970703125,-400000.0625,-6607.72021484375,-400000.0625,1945.8800048828125,-400000.0625
134.19076538085938,-400000.0625,-2641.6298828125,861.1199951171875,-400000.0625,-6599.3798828125,-400000.0625,1970.199951171875,-400000.0625
134.19076871871948,-400000.0625,-2651.409912109375,852.3499755859375,-400000.0625,-6616.8798828125,-400000.0625,1954.3699951171875,-400000.0625
134.19077229499817,-400000.0625,-2674.679931640625,826.030029296875,-400000.0625,-6638.91015625,-400000.0625,1927.1400146484375,-400000.0625
134.190776348114,-400000.0625,-2655.409912109375,831.5599975585938,-400000.0625,-6644.490234375,-400000.0625,1926.3299560546875,-400000.0625
134.19078016281128,-400000.0625,-2608.159912109375,867.5599975585938,-400000.0625,-6630.18017578125,-400000.0625,1953.550048828125,-400000.0625
134.19078397750854,-400000.0625,-2574.969970703125,894.02001953125,-400000.0625,-6623.93994140625,-400000.0625,1980.2099609375,-400000.0625
134.1907877922058,-400000.0625,-2572.199951171875,882.2899780273438,-400000.0625,-6639.2001953125,-400000.0625,1964.8599853515625,-400000.0625
134.24859142303467,-400000.0625,-2592.469970703125,852.1599731445312,-400000.0625,-6665.759765625,-400000.0625,1931.0,-400000.0625
134.25359296798706,-400000.0625,-2577.449951171875,861.6900024414062,-400000.0625,-6669.47021484375,-400000.0625,1930.3800048828125,-400000.0625
134.2573664188385,-400000.0625,-2530.77001953125,895.7899780273438,-400000.0625,-6656.27001953125,-400000.0625,1970.1500244140625,-400000.0625
134.26230907440186,-400000.0625,-2491.669921875,914.9600219726562,-400000.0625,-6652.5498046875,-400000.0625,2001.6199951171875,-400000.0625
134.26231837272644,-400000.0625,-2492.7099609375,905.22998046875,-400000.0625,-6665.85009765625,-400000.0625,1993.1800537109375,-400000.0625
134.26232242584229,-400000.0625,-2518.64990234375,877.0900268554688,-400000.0625,-6700.60986328125,-400000.0625,1960.989990234375,-400000.0625
134.26232600212097,-400000.0625,-2504.5400390625,882.47998046875,-400000.0625,-6705.330078125,-400000.0625,1967.239990234375,-400000.0625
134.26232981681824,-400000.0625,-2456.280029296875,920.9600219726562,-400000.0625,-6688.64013671875,-400000.0625,2004.18994140625,-400000.0625
134.26233315467834,-400000.0625,-2417.56005859375,947.1900024414062,-400000.0625,-6679.77001953125,-400000.0625,2033.1400146484375,-400000.0625
134.2623369693756,-400000.0625,-2425.77001953125,931.6900024414062,-400000.0625,-6694.93994140625,-400000.0625,2022.510009765625,-400000.0625
134.26234006881714,-400000.0625,-2445.409912109375,909.280029296875,-400000.0625,-6716.43994140625,-400000.0625,1992.6600341796875,-400000.0625
134.26234340667725,-400000.0625,-2436.39990234375,912.52001953125,-400000.0625,-6717.97021484375,-400000.0625,2001.8599853515625,-400000.0625
134.26234650611877,-400000.0625,-2395.010009765625,947.52001953125,-400000.0625,-6706.0498046875,-400000.0625,2039.9100341796875,-400000.0625
134.26234984397888,-400000.0625,-2361.389892578125,970.3599853515625,-400000.0625,-6699.66015625,-400000.0625,2065.989990234375,-400000.0625
134.262353181839,-400000.0625,-2369.830078125,959.0599975585938,-400000.0625,-6714.33984375,-400000.0625,2054.5,-400000.0625
134.2623565196991,-400000.0625,-2397.489990234375,931.7899780273438,-400000.0625,-6742.10009765625,-400000.0625,2023.6500244140625,-400000.0625
134.32772731781006,-400000.0625,-2386.3798828125,937.989990234375,-400000.0625,-6744.52978515625,-400000.0625,2029.6099853515625,-400000.0625
134.33311891555786,-400000.0625,-2348.280029296875,970.030029296875,-400000.0625,-6727.35986328125,-400000.0625,2068.22998046875,-400000.0625
134.33791208267212,-400000.0625,-2315.860107421875,996.4500122070312,-400000.0625,-6714.2998046875,-400000.0625,2095.7900390625,-400000.0625
134.3379201889038,-400000.0625,-2325.489990234375,981.0399780273438,-400000.0625,-6731.3701171875,-400000.0625,2080.25,-400000.0625
134.33792400360107,-400000.0625,-2354.669921875,952.0999755859375,-400000.0625,-6759.35986328125,-400000.0625,2047.9200439453125,-400000.0625
134.33792781829834,-400000.0625,-2350.0,955.6799926757812,-400000.0625,-6761.60009765625,-400000.0625,2051.070068359375,-400000.0625
134.33793139457703,-400000.0625,-2312.090087890625,986.719970703125,-400000.0625,-6742.91015625,-400000.0625,2087.929931640625,-400000.0625
134.33793544769287,-400000.0625,-2283.2900390625,1011.280029296875,-400000.0625,-6731.83984375,-400000.0625,2113.389892578125,-400000.0625
134.33793902397156,-400000.0625,-2293.06005859375,1000.0700073242188,-400000.0625,-6745.77001953125,-400000.0625,2101.3701171875,-400000.0625
134.33794331550598,-400000.0625,-2323.06005859375,968.5,-400000.0625,-6771.66015625,-400000.0625,2067.760009765625,-400000.0625
134.33794736862183,-400000.0625,-2318.47998046875,970.1699829101562,-400000.0625,-6766.7001953125,-400000.0625,2067.469970703125,-400000.0625
134.3379509449005,-400000.0625,-2280.090087890625,1004.1199951171875,-400000.0625,-6747.10009765625,-400000.0625,2105.570068359375,-400000.0625
134.33811807632446,-400000.0625,-2255.06005859375,1024.3900146484375,-400000.0625,-6733.7998046875,-400000.0625,2131.1298828125,-400000.0625
134.3381223678589,-400000.0625,-2269.360107421875,1011.280029296875,-400000.0625,-6748.2001953125,-400000.0625,2116.300048828125,-400000.0625
134.3381266593933,-400000.0625,-2300.1201171875,982.760009765625,-400000.0625,-6777.6201171875,-400000.0625,2086.070068359375,-400000.0625
134.3431077003479,-400000.0625,-2299.60009765625,983.6199951171875,-400000.0625,-6777.240234375,-400000.0625,2084.449951171875,-400000.0625
134.38972997665405,-400000.0625,-2262.2099609375,1013.6099853515625,-400000.0625,-6755.4501953125,-400000.0625,2116.35009765625,-400000.0625
134.40010619163513,-400000.0625,-2234.030029296875,1033.969970703125,-400000.0625,-6743.0498046875,-400000.0625,2143.2900390625,-400000.0625
134.40453433990479,-400000.0625,-2245.469970703125,1024.9100341796875,-400000.0625,-6751.490234375,-400000.0625,2129.219970703125,-400000.0625
134.40454268455505,-400000.0625,-2277.760009765625,994.489990234375,-400000.0625,-6770.990234375,-400000.0625,2097.179931640625,-400000.0625
134.40454721450806,-400000.0625,-2281.0,990.6799926757812,-400000.0625,-6773.14013671875,-400000.0625,2096.030029296875,-400000.0625
134.40455150604248,-400000.0625,-2249.9599609375,1015.52001953125,-400000.0625,-6756.8798828125,-400000.0625,2124.2099609375,-400000.0625
134.40455555915833,-400000.0625,-2223.159912109375,1040.8399658203125,-400000.0625,-6747.2001953125,-400000.0625,2149.010009765625,-400000.0625
134.40455961227417,-400000.0625,-2243.81005859375,1026.06005859375,-400000.0625,-6757.830078125,-400000.0625,2137.570068359375,-400000.0625
134.4045639038086,-400000.0625,-2272.64990234375,997.260009765625,-400000.0625,-6772.81005859375,-400000.0625,2105.760009765625,-400000.0625
134.40456771850586,-400000.0625,-2269.550048828125,998.5900268554688,-400000.0625,-6777.56982421875,-400000.0625,2103.0400390625,-400000.0625
134.40457344055176,-400000.0625,-2240.090087890625,1023.719970703125,-400000.0625,-6765.64990234375,-400000.0625,2129.75,-400000.0625
134.40457701683044,-400000.0625,-2216.429931640625,1044.510009765625,-400000.0625,-6749.06005859375,-400000.0625,2153.590087890625,-400000.0625
134.4045808315277,-400000.0625,-2230.219970703125,1031.5400390625,-400000.0625,-6757.2099609375,-400000.0625,2137.659912109375,-400000.0625
134.4045844078064,-400000.0625,-2265.639892578125,1001.5,-400000.0625,-6779.39013671875,-400000.0625,2102.330078125,-400000.0625
134.40458869934082,-400000.0625,-2274.610107421875,997.6400146484375,-400000.0625,-6778.52978515625,-400000.0625,2099.75,-400000.0625
134.40459322929382,-400000.0625,-2242.659912109375,1025.6300048828125,-400000.0625,-6759.740234375,-400000.0625,2133.989990234375,-400000.0625
134.4440233707428,-400000.0625,-2213.2900390625,1050.1400146484375,-400000.0625,-6745.6298828125,-400000.0625,2155.68994140625,-400000.0625
134.44928097724915,-400000.0625,-2229.5,1033.3499755859375,-400000.0625,-6754.2998046875,-400000.0625,2140.18994140625,-400000.0625
134.4537055492401,-400000.0625,-2267.360107421875,999.6400146484375,-400000.0625,-6775.81005859375,-400000.0625,2108.530029296875,-400000.0625
134.45371532440186,-400000.0625,-2266.929931640625,997.9199829101562,-400000.0625,-6775.81005859375,-400000.0625,2104.760009765625,-400000.0625
134.45372009277344,-400000.0625,-2234.7900390625,1026.8199462890625,-400000.0625,-6761.02978515625,-400000.0625,2133.889892578125,-400000.0625
134.45372438430786,-400000.0625,-2213.429931640625,1047.3299560546875,-400000.0625,-6748.06005859375,-400000.0625,2158.8798828125,-400000.0625
134.45372891426086,-400000.0625,-2232.97998046875,1029.300048828125,-400000.0625,-6758.740234375,-400000.0625,2142.2900390625,-400000.0625
134.45373439788818,-400000.0625,-2275.75,993.6799926757812,-400000.0625,-6778.85986328125,-400000.0625,2102.659912109375,-400000.0625
134.45373845100403,-400000.0625,-2277.419921875,1000.2100219726562,-400000.0625,-6773.47021484375,-400000.0625,2105.669921875,-400000.0625
134.45374274253845,-400000.0625,-2246.0,1024.530029296875,-400000.0625,-6751.58984375,-400000.0625,2137.89990234375,-400000.0625
134.45374631881714,-400000.0625,-2240.0400390625,1038.219970703125,-400000.0625,-6743.77001953125,-400000.0625,2158.929931640625,-400000.0625
134.45375061035156,-400000.0625,-2271.64990234375,1037.31005859375,-400000.0625,-6745.580078125,-400000.0625,2153.39990234375,-400000.0625
134.45375442504883,-400000.0625,-2307.510009765625,1003.4099731445312,-400000.0625,-6757.77978515625,-400000.0625,2115.25,-400000.0625
134.45375800132751,-400000.0625,-2320.050048828125,999.3599853515625,-400000.0625,-6757.35986328125,-400000.0625,2109.909912109375,-400000.0625
134.45376181602478,-400000.0625,-2295.919921875,1018.4299926757812,-400000.0625,-6733.93994140625,-400000.0625,2134.85009765625,-400000.0625
134.45376539230347,-400000.0625,-2303.64990234375,1028.5899658203125,-400000.0625,-6721.58984375,-400000.0625,2136.469970703125,-400000.0625
134.50972080230713,-400000.0625,-2345.800048828125,999.4000244140625,-400000.0625,-6726.83984375,-400000.0625,2102.800048828125,-400000.0625
134.5211570262909,-400000.0625,-2392.530029296875,963.969970703125,-400000.0625,-6740.56982421875,-400000.0625,2056.070068359375,-400000.0625
134.52584290504456,-400000.0625,-2416.090087890625,950.9600219726562,-400000.0625,-6720.06982421875,-400000.0625,2026.3199462890625,-400000.0625
134.52585101127625,-400000.0625,-2408.840087890625,953.3900146484375,-400000.0625,-6675.009765625,-400000.0625,2039.239990234375,-400000.0625
134.52585554122925,-400000.0625,-2476.840087890625,935.6500244140625,-400000.0625,-6653.97998046875,-400000.0625,2015.1099853515625,-400000.0625
134.52586030960083,-400000.0625,-2562.18994140625,906.1799926757812,-400000.0625,-6640.52978515625,-400000.0625,1981.9300537109375,-400000.0625
134.52586436271667,-400000.0625,-2636.81005859375,868.8499755859375,-400000.0625,-6628.7001953125,-400000.0625,1931.3800048828125,-400000.0625
134.52586936950684,-400000.0625,-2707.429931640625,852.010009765625,-400000.0625,-6611.009765625,-400000.0625,1889.9000244140625,-400000.0625
134.52587389945984,-400000.0625,-2698.090087890625,872.0399780273438,-400000.0625,-6588.7900390625,-400000.0625,1905.06005859375,-400000.0625
134.52587819099426,-400000.0625,-2693.27001953125,880.8599853515625,-400000.0625,-6563.9501953125,-400000.0625,1917.0799560546875,-400000.0625
134.5258822441101,-400000.0625,-2757.169921875,855.6400146484375,-400000.0625,-6568.669921875,-400000.0625,1881.7900390625,-400000.0625
134.52588629722595,-400000.0625,-2816.9599609375,820.2100219726562,-400000.0625,-6586.83984375,-400000.0625,1837.6800537109375,-400000.0625
134.52589058876038,-400000.0625,-2828.070068359375,812.3900146484375,-400000.0625,-6577.77978515625,-400000.0625,1836.06005859375,-400000.0625
134.52589511871338,-400000.0625,-2802.89990234375,843.0499877929688,-400000.0625,-6550.27001953125,-400000.0625,1863.3800048828125,-400000.0625
134.5258994102478,-400000.0625,-2793.60009765625,869.7999877929688,-400000.0625,-6538.77001953125,-400000.0625,1899.3900146484375,-400000.0625
134.52590322494507,-400000.0625,-2803.0400390625,853.5900268554688,-400000.0625,-6541.43994140625,-400000.0625,1890.3299560546875,-400000.0625
134.57127809524536,-400000.0625,-2877.52001953125,830.7899780273438,-400000.0625,-6562.330078125,-400000.0625,1848.5999755859375,-400000.0625
134.57661867141724,-400000.0625,-2878.090087890625,840.469970703125,-400000.0625,-6562.22998046875,-400000.0625,1852.6600341796875,-400000.0625
134.58225560188293,-400000.0625,-2825.31005859375,870.510009765625,-400000.0625,-6539.2998046875,-400000.0625,1888.6600341796875,-400000.0625
134.5872619152069,-400000.0625,-2795.7900390625,893.3099975585938,-400000.0625,-6521.89013671875,-400000.0625,1929.0899658203125,-400000.0625
134.5919280052185,-400000.0625,-2821.830078125,896.219970703125,-400000.0625,-6530.08984375,-400000.0625,1928.9000244140625,-400000.0625
134.59193539619446,-400000.0625,-2864.169921875,875.1900024414062,-400000.0625,-6543.97021484375,-400000.0625,1893.5699462890625,-400000.0625
134.59193992614746,-400000.0625,-2864.60009765625,882.0499877929688,-400000.0625,-6542.77978515625,-400000.0625,1901.3900146484375,-400000.0625
134.59194421768188,-400000.0625,-2795.219970703125,921.9600219726562,-400000.0625,-6524.0400390625,-400000.0625,1943.2099609375,-400000.0625
134.5919485092163,-400000.0625,-2775.2900390625,952.6699829101562,-400000.0625,-6511.5498046875,-400000.0625,1980.4000244140625,-400000.0625
134.59195256233215,-400000.0625,-2802.659912109375,953.3900146484375,-400000.0625,-6513.93017578125,-400000.0625,1986.4599609375,-400000.0625
134.59195637702942,-400000.0625,-2831.080078125,928.1199951171875,-400000.0625,-6535.6298828125,-400000.0625,1956.27001953125,-400000.0625
134.59196019172668,-400000.0625,-2835.989990234375,947.239990234375,-400000.0625,-6540.16015625,-400000.0625,1972.6300048828125,-400000.0625
134.5919644832611,-400000.0625,-2797.56005859375,979.22998046875,-400000.0625,-6513.4501953125,-400000.0625,2008.3399658203125,-400000.0625
134.59196829795837,-400000.0625,-2743.199951171875,1009.4199829101562,-400000.0625,-6500.2900390625,-400000.0625,2052.070068359375,-400000.0625
134.5919725894928,-400000.0625,-2775.0,1012.9500122070312,-400000.0625,-6509.10986328125,-400000.0625,2054.260009765625,-400000.0625
134.59197688102722,-400000.0625,-2806.3798828125,989.3900146484375,-400000.0625,-6530.330078125,-400000.0625,2020.8399658203125,-400000.0625
134.65927696228027,-400000.0625,-2812.199951171875,984.6199951171875,-400000.0625,-6532.3798828125,-400000.0625,2026.030029296875,-400000.0625
134.66789197921753,-400000.0625,-2800.659912109375,1027.6300048828125,-400000.0625,-6510.5400390625,-400000.0625,2079.820068359375,-400000.0625
134.67211818695068,-400000.0625,-2761.409912109375,1066.6800537109375,-400000.0625,-6488.0400390625,-400000.0625,2123.260009765625,-400000.0625
134.67212533950806,-400000.0625,-2772.860107421875,1057.3399658203125,-400000.0625,-6501.68017578125,-400000.0625,2106.909912109375,-400000.0625
134.67213010787964,-400000.0625,-2815.580078125,1033.260009765625,-400000.0625,-6522.7001953125,-400000.0625,2086.31005859375,-400000.0625
134.67213416099548,-400000.0625,-2822.489990234375,1033.1600341796875,-400000.0625,-6520.31982421875,-400000.0625,2083.159912109375,-400000.0625
134.67213821411133,-400000.0625,-2771.570068359375,1071.260009765625,-400000.0625,-6498.669921875,-400000.0625,2120.300048828125,-400000.0625
134.67214226722717,-400000.0625,-2759.4599609375,1107.260009765625,-400000.0625,-6481.4599609375,-400000.0625,2163.080078125,-400000.0625
134.67214584350586,-400000.0625,-2763.840087890625,1105.02001953125,-400000.0625,-6487.93994140625,-400000.0625,2172.139892578125,-400000.0625
134.67214965820312,-400000.0625,-2802.320068359375,1078.510009765625,-400000.0625,-6502.14990234375,-400000.0625,2139.280029296875,-400000.0625
134.67215514183044,-400000.0625,-2823.68994140625,1085.8499755859375,-400000.0625,-6503.68017578125,-400000.0625,2139.89990234375,-400000.0625
134.67215871810913,-400000.0625,-2765.469970703125,1132.43994140625,-400000.0625,-6482.7001953125,-400000.0625,2202.56005859375,-400000.0625
134.6721625328064,-400000.0625,-2750.590087890625,1153.52001953125,-400000.0625,-6465.39013671875,-400000.0625,2218.340087890625,-400000.0625
134.67216610908508,-400000.0625,-2752.72998046875,1134.4000244140625,-400000.0625,-6485.509765625,-400000.0625,2207.469970703125,-400000.0625
134.67216992378235,-400000.0625,-2807.949951171875,1109.7900390625,-400000.0625,-6503.68017578125,-400000.0625,2189.969970703125,-400000.0625
134.67217588424683,-400000.0625,-2797.64990234375,1131.9599609375,-400000.0625,-6495.43017578125,-400000.0625,2212.719970703125,-400000.0625
134.69633030891418,-400000.0625,-2757.739990234375,1164.8699951171875,-400000.0625,-6467.2001953125,-400000.0625,2259.679931640625,-400000.0625
134.70150542259216,-400000.0625,-2761.56005859375,1180.27001953125,-400000.0625,-6460.330078125,-400000.0625,2287.14990234375,-400000.0625
134.70561575889587,-400000.0625,-2752.639892578125,1164.6300048828125,-400000.0625,-6479.93017578125,-400000.0625,2265.739990234375,-400000.0625
134.70562410354614,-400000.0625,-2774.909912109375,1136.06005859375,-400000.0625,-6498.2900390625,-400000.0625,2231.030029296875,-400000.0625
134.7056279182434,-400000.0625,-2787.159912109375,1137.68994140625,-400000.0625,-6494.27978515625,-400000.0625,2247.860107421875,-400000.0625
134.70563173294067,-400000.0625,-2742.239990234375,1178.1700439453125,-400000.0625,-6469.97021484375,-400000.0625,2306.4599609375,-400000.0625
134.70563530921936,-400000.0625,-2728.64990234375,1210.260009765625,-400000.0625,-6455.419921875,-400000.0625,2345.85009765625,-400000.0625
134.70563960075378,-400000.0625,-2756.02001953125,1193.3299560546875,-400000.0625,-6474.830078125,-400000.0625,2328.39990234375,-400000.0625
134.70564317703247,-400000.0625,-2790.31005859375,1162.3399658203125,-400000.0625,-6494.0,-400000.0625,2299.1201171875,-400000.0625
134.70564651489258,-400000.0625,-2785.8701171875,1163.6300048828125,-400000.0625,-6490.14013671875,-400000.0625,2321.199951171875,-400000.0625
134.70565009117126,-400000.0625,-2752.39990234375,1190.1400146484375,-400000.0625,-6467.10009765625,-400000.0625,2349.6201171875,-400000.0625
134.70565390586853,-400000.0625,-2716.639892578125,1208.5,-400000.0625,-6456.419921875,-400000.0625,2369.68994140625,-400000.0625
134.70565748214722,-400000.0625,-2722.97998046875,1193.0899658203125,-400000.0625,-6469.2001953125,-400000.0625,2365.02001953125,-400000.0625
134.70566129684448,-400000.0625,-2766.090087890625,1179.5,-400000.0625,-6488.56005859375,-400000.0625,2361.010009765625,-400000.0625
134.70566511154175,-400000.0625,-2764.56005859375,1184.75,-400000.0625,-6487.7001953125,-400000.0625,2375.030029296875,-400000.0625
134.70566868782043,-400000.0625,-2750.830078125,1217.3199462890625,-400000.0625,-6467.52978515625,-400000.0625,2401.159912109375,-400000.0625
134.7849235534668,-400000.0625,-2728.889892578125,1233.1500244140625,-400000.0625,-6452.85009765625,-400000.0625,2438.449951171875,-400000.0625
134.79350590705872,-400000.0625,-2722.449951171875,1197.3900146484375,-400000.0625,-6475.31005859375,-400000.0625,2416.179931640625,-400000.0625
134.7982099056244,-400000.0625,-2754.070068359375,1178.6500244140625,-400000.0625,-6489.3701171875,-400000.0625,2384.81005859375,-400000.0625
134.79821944236755,-400000.0625,-2764.179931640625,1177.31005859375,-400000.0625,-6483.35986328125,-400000.0625,2396.919921875,-400000.0625
134.79822444915771,-400000.0625,-2733.800048828125,1203.06005859375,-400000.0625,-6461.47998046875,-400000.0625,2438.830078125,-400000.0625
134.79822874069214,-400000.0625,-2701.0,1231.3800048828125,-400000.0625,-6448.7001953125,-400000.0625,2459.719970703125,-400000.0625
134.79823279380798,-400000.0625,-2717.590087890625,1208.0699462890625,-400000.0625,-6463.81005859375,-400000.0625,2467.780029296875,-400000.0625
134.79823684692383,-400000.0625,-2776.719970703125,1169.8199462890625,-400000.0625,-6485.60986328125,-400000.0625,2424.6201171875,-400000.0625
134.79824090003967,-400000.0625,-2766.93994140625,1165.530029296875,-400000.0625,-6481.5498046875,-400000.0625,2412.56005859375,-400000.0625
134.79824495315552,-400000.0625,-2750.35009765625,1196.6199951171875,-400000.0625,-6451.419921875,-400000.0625,2471.159912109375,-400000.0625
134.79824876785278,-400000.0625,-2736.18994140625,1198.4300537109375,-400000.0625,-6442.7900390625,-400000.0625,2490.89990234375,-400000.0625
134.7982530593872,-400000.0625,-2746.300048828125,1160.2900390625,-400000.0625,-6458.56982421875,-400000.0625,2455.81005859375,-400000.0625
134.7982566356659,-400000.0625,-2796.27001953125,1125.239990234375,-400000.0625,-6475.39990234375,-400000.0625,2426.10009765625,-400000.0625
134.79826068878174,-400000.0625,-2812.9599609375,1114.75,-400000.0625,-6478.259765625,-400000.0625,2436.449951171875,-400000.0625
134.79826426506042,-400000.0625,-2802.179931640625,1146.8399658203125,-400000.0625,-6451.27001953125,-400000.0625,2483.179931640625,-400000.0625
134.79826879501343,-400000.0625,-2778.47998046875,1147.510009765625,-400000.0625,-6447.02978515625,-400000.0625,2520.469970703125,-400000.0625
134.8440887928009,-400000.0625,-2788.449951171875,1114.800048828125,-400000.0625,-6456.81005859375,-400000.0625,2490.429931640625,-400000.0625
134.8499631881714,-400000.0625,-2808.0,1077.510009765625,-400000.0625,-6475.5,-400000.0625,2467.159912109375,-400000.0625
134.85434317588806,-400000.0625,-2824.639892578125,1072.1199951171875,-400000.0625,-6466.68017578125,-400000.0625,2480.080078125,-400000.0625
134.85435152053833,-400000.0625,-2817.110107421875,1082.9000244140625,-400000.0625,-6450.509765625,-400000.0625,2494.0,-400000.0625
134.8543562889099,-400000.0625,-2794.31005859375,1078.75,-400000.0625,-6440.1201171875,-400000.0625,2514.699951171875,-400000.0625
134.85436010360718,-400000.0625,-2798.1298828125,1047.0899658203125,-400000.0625,-6448.4599609375,-400000.0625,2500.820068359375,-400000.0625
134.8543643951416,-400000.0625,-2856.39990234375,1002.3599853515625,-400000.0625,-6472.02001953125,-400000.0625,2489.85009765625,-400000.0625
134.8543689250946,-400000.0625,-2898.219970703125,975.3200073242188,-400000.0625,-6470.10986328125,-400000.0625,2489.89990234375,-400000.0625
134.8543736934662,-400000.0625,-2837.56005859375,1001.02001953125,-400000.0625,-6447.7001953125,-400000.0625,2507.5400390625,-400000.0625
134.8543779850006,-400000.0625,-2818.580078125,998.9299926757812,-400000.0625,-6434.10986328125,-400000.0625,2529.669921875,-400000.0625
134.8543825149536,-400000.0625,-2836.610107421875,964.780029296875,-400000.0625,-6444.259765625,-400000.0625,2525.52001953125,-400000.0625
134.85438680648804,-400000.0625,-2905.800048828125,915.77001953125,-400000.0625,-6464.33984375,-400000.0625,2501.14990234375,-400000.0625
134.85439109802246,-400000.0625,-2901.030029296875,891.969970703125,-400000.0625,-6469.009765625,-400000.0625,2497.429931640625,-400000.0625
134.8543951511383,-400000.0625,-2880.10009765625,906.280029296875,-400000.0625,-6447.64990234375,-400000.0625,2527.050048828125,-400000.0625
134.85439920425415,-400000.0625,-2868.989990234375,909.280029296875,-400000.0625,-6432.10009765625,-400000.0625,2563.2900390625,-400000.0625
134.85440325737,-400000.0625,-2892.159912109375,885.010009765625,-400000.0625,-6444.259765625,-400000.0625,2561.0400390625,-400000.0625
134.88477277755737,-400000.0625,-2930.550048828125,825.9299926757812,-400000.0625,-6469.81982421875,-400000.0625,2516.56005859375,-400000.0625
134.88982963562012,-400000.0625,-2931.639892578125,810.3800048828125,-400000.0625,-6468.009765625,-400000.0625,2537.159912109375,-400000.0625
134.89968490600586,-400000.0625,-2883.340087890625,816.8200073242188,-400000.0625,-6447.83984375,-400000.0625,2567.389892578125,-400000.0625
134.90392231941223,-400000.0625,-2888.8701171875,842.52001953125,-400000.0625,-6425.330078125,-400000.0625,2597.949951171875,-400000.0625
134.90393137931824,-400000.0625,-2912.0,802.1400146484375,-400000.0625,-6442.97998046875,-400000.0625,2586.93994140625,-400000.0625
134.90393614768982,-400000.0625,-2954.010009765625,752.0700073242188,-400000.0625,-6466.81982421875,-400000.0625,2573.6298828125,-400000.0625
134.90394139289856,-400000.0625,-2957.72998046875,739.9600219726562,-400000.0625,-6472.97021484375,-400000.0625,2567.820068359375,-400000.0625
134.9039454460144,-400000.0625,-2897.219970703125,745.6799926757812,-400000.0625,-6456.7099609375,-400000.0625,2602.239990234375,-400000.0625
134.90394973754883,-400000.0625,-2877.6201171875,758.4600219726562,-400000.0625,-6439.58984375,-400000.0625,2642.919921875,-400000.0625
134.90395379066467,-400000.0625,-2911.280029296875,730.7100219726562,-400000.0625,-6448.60009765625,-400000.0625,2641.25,-400000.0625
134.9039580821991,-400000.0625,-2939.610107421875,693.0399780273438,-400000.0625,-6472.97021484375,-400000.0625,2613.5400390625,-400000.0625
134.90396237373352,-400000.0625,-2932.60009765625,672.25,-400000.0625,-6478.41015625,-400000.0625,2623.64990234375,-400000.0625
134.90396690368652,-400000.0625,-2905.320068359375,697.3699951171875,-400000.0625,-6457.27978515625,-400000.0625,2664.610107421875,-400000.0625
134.9039716720581,-400000.0625,-2872.659912109375,711.8699951171875,-400000.0625,-6449.89013671875,-400000.0625,2710.580078125,-400000.0625
134.90397572517395,-400000.0625,-2868.4599609375,676.0599975585938,-400000.0625,-6479.68994140625,-400000.0625,2717.780029296875,-400000.0625
134.90398001670837,-400000.0625,-2876.22998046875,642.5399780273438,-400000.0625,-6502.33984375,-400000.0625,2689.27001953125,-400000.0625
134.95092463493347,-400000.0625,-2860.639892578125,640.8699951171875,-400000.0625,-6506.8701171875,-400000.0625,2708.389892578125,-400000.0625
134.9560296535492,-400000.0625,-2803.659912109375,668.8599853515625,-400000.0625,-6502.8701171875,-400000.0625,2762.169921875,-400000.0625
134.9606068134308,-400000.0625,-2755.68994140625,689.1699829101562,-400000.0625,-6507.919921875,-400000.0625,2794.1201171875,-400000.0625
134.96061944961548,-400000.0625,-2746.43994140625,673.3400268554688,-400000.0625,-6534.6201171875,-400000.0625,2790.8798828125,-400000.0625
134.96062421798706,-400000.0625,-2744.14990234375,647.2100219726562,-400000.0625,-6564.669921875,-400000.0625,2767.469970703125,-400000.0625
134.9606282711029,-400000.0625,-2707.199951171875,658.9400024414062,-400000.0625,-6571.39013671875,-400000.0625,2781.300048828125,-400000.0625
134.96066093444824,-400000.0625,-2642.010009765625,701.3800048828125,-400000.0625,-6559.93994140625,-400000.0625,2823.260009765625,-400000.0625
134.96068120002747,-400000.0625,-2576.39990234375,729.469970703125,-400000.0625,-6558.27978515625,-400000.0625,2846.860107421875,-400000.0625
134.96069169044495,-400000.0625,-2549.840087890625,723.6500244140625,-400000.0625,-6581.740234375,-400000.0625,2824.929931640625,-400000.0625
134.9607014656067,-400000.0625,-2550.840087890625,706.3900146484375,-400000.0625,-6605.10009765625,-400000.0625,2780.6298828125,-400000.0625
134.96071004867554,-400000.0625,-2531.239990234375,716.6900024414062,-400000.0625,-6610.39013671875,-400000.0625,2778.2900390625,-400000.0625
134.96073198318481,-400000.0625,-2468.919921875,753.0700073242188,-400000.0625,-6602.18994140625,-400000.0625,2806.3798828125,-400000.0625
134.96074056625366,-400000.0625,-2415.3701171875,782.1599731445312,-400000.0625,-6598.14013671875,-400000.0625,2821.639892578125,-400000.0625
134.9607491493225,-400000.0625,-2412.75,772.3800048828125,-400000.0625,-6610.72998046875,-400000.0625,2791.550048828125,-400000.0625
134.96075701713562,-400000.0625,-2425.2900390625,748.72998046875,-400000.0625,-6637.33984375,-400000.0625,2750.5400390625,-400000.0625
134.9607653617859,-400000.0625,-2412.64990234375,746.1500244140625,-400000.0625,-6645.009765625,-400000.0625,2747.580078125,-400000.0625
135.01497173309326,-400000.0625,-2360.199951171875,780.8200073242188,-400000.0625,-6629.3701171875,-400000.0625,2774.669921875,-400000.0625
135.02416586875916,-400000.0625,-2326.919921875,805.4299926757812,-400000.0625,-6625.18017578125,-400000.0625,2789.070068359375,-400000.0625
135.029522895813,-400000.0625,-2338.080078125,790.9299926757812,-400000.0625,-6652.68994140625,-400000.0625,2764.030029296875,-400000.0625
135.03414821624756,-400000.0625,-2354.14990234375,762.1300048828125,-400000.0625,-6679.10986328125,-400000.0625,2726.219970703125,-400000.0625
135.03415727615356,-400000.0625,-2334.39990234375,770.8099975585938,-400000.0625,-6686.4501953125,-400000.0625,2723.8798828125,-400000.0625
135.0341625213623,-400000.0625,-2291.489990234375,811.2899780273438,-400000.0625,-6670.52001953125,-400000.0625,2753.5400390625,-400000.0625
135.0341670513153,-400000.0625,-2249.77001953125,837.9500122070312,-400000.0625,-6664.22998046875,-400000.0625,2778.10009765625,-400000.0625
135.03417110443115,-400000.0625,-2246.18994140625,831.1300048828125,-400000.0625,-6683.919921875,-400000.0625,2764.64990234375,-400000.0625
135.03417563438416,-400000.0625,-2267.550048828125,808.760009765625,-400000.0625,-6707.14013671875,-400000.0625,2731.989990234375,-400000.0625
135.03417944908142,-400000.0625,-2264.31005859375,809.6199951171875,-400000.0625,-6716.77978515625,-400000.0625,2731.0400390625,-400000.0625
135.03418397903442,-400000.0625,-2216.14990234375,849.530029296875,-400000.0625,-6706.91015625,-400000.0625,2765.510009765625,-400000.0625
135.03418803215027,-400000.0625,-2177.6201171875,878.0999755859375,-400000.0625,-6700.89990234375,-400000.0625,2789.02001953125,-400000.0625
135.0341923236847,-400000.0625,-2186.72998046875,864.5499877929688,-400000.0625,-6721.1201171875,-400000.0625,2772.139892578125,-400000.0625
135.03419613838196,-400000.0625,-2216.10009765625,837.8499755859375,-400000.0625,-6749.580078125,-400000.0625,2738.909912109375,-400000.0625
135.0342001914978,-400000.0625,-2204.89990234375,844.1900024414062,-400000.0625,-6751.490234375,-400000.0625,2742.860107421875,-400000.0625
135.03420424461365,-400000.0625,-2156.159912109375,883.8699951171875,-400000.0625,-6729.83984375,-400000.0625,2777.429931640625,-400000.0625
135.12856340408325,-400000.0625,-2121.5400390625,910.9500122070312,-400000.0625,-6722.740234375,-400000.0625,2802.280029296875,-400000.0625
135.1378562450409,-400000.0625,-2132.989990234375,900.7899780273438,-400000.0625,-6739.66015625,-400000.0625,2786.110107421875,-400000.0625
135.1424536705017,-400000.0625,-2157.02001953125,878.8599853515625,-400000.0625,-6764.75,-400000.0625,2759.739990234375,-400000.0625
135.14246225357056,-400000.0625,-2145.580078125,886.3499755859375,-400000.0625,-6765.93994140625,-400000.0625,2761.27001953125,-400000.0625
135.14246702194214,-400000.0625,-2104.81005859375,922.72998046875,-400000.0625,-6749.33984375,-400000.0625,2787.780029296875,-400000.0625
135.14247131347656,-400000.0625,-2077.010009765625,947.3800048828125,-400000.0625,-6735.85009765625,-400000.0625,2814.10009765625,-400000.0625
135.14249324798584,-400000.0625,-2086.590087890625,934.27001953125,-400000.0625,-6747.81982421875,-400000.0625,2797.1298828125,-400000.0625
135.14250564575195,-400000.0625,-2117.8701171875,906.0900268554688,-400000.0625,-6776.330078125,-400000.0625,2764.080078125,-400000.0625
135.142511844635,-400000.0625,-2112.10009765625,914.8099975585938,-400000.0625,-6772.419921875,-400000.0625,2770.139892578125,-400000.0625
135.1425166130066,-400000.0625,-2070.89990234375,949.0,-400000.0625,-6751.25,-400000.0625,2804.570068359375,-400000.0625
135.14252090454102,-400000.0625,-2042.719970703125,972.989990234375,-400000.0625,-6740.43017578125,-400000.0625,2825.070068359375,-400000.0625
135.14252495765686,-400000.0625,-2057.739990234375,958.0599975585938,-400000.0625,-6752.919921875,-400000.0625,2809.719970703125,-400000.0625
135.14252972602844,-400000.0625,-2090.31005859375,928.969970703125,-400000.0625,-6776.72021484375,-400000.0625,2774.669921875,-400000.0625
135.14253497123718,-400000.0625,-2089.830078125,930.9299926757812,-400000.0625,-6778.52978515625,-400000.0625,2774.570068359375,-400000.0625
135.1425392627716,-400000.0625,-2051.159912109375,967.5499877929688,-400000.0625,-6751.58984375,-400000.0625,2802.52001953125,-400000.0625
135.14254355430603,-400000.0625,-2028.0400390625,989.010009765625,-400000.0625,-6740.18994140625,-400000.0625,2824.739990234375,-400000.0625
135.14396929740906,-400000.0625,-2045.489990234375,972.4099731445312,-400000.0625,-6756.830078125,-400000.0625,2809.719970703125,-400000.0625
135.14916443824768,-400000.0625,-2079.679931640625,945.3300170898438,-400000.0625,-6776.43017578125,-400000.0625,2773.669921875,-400000.0625
135.15346503257751,-400000.0625,-2081.25,943.3300170898438,-400000.0625,-6776.669921875,-400000.0625,2772.3798828125,-400000.0625
135.15347361564636,-400000.0625,-2051.969970703125,972.4099731445312,-400000.0625,-6755.8798828125,-400000.0625,2800.1298828125,-400000.0625
135.15347814559937,-400000.0625,-2026.8399658203125,993.4400024414062,-400000.0625,-6746.43994140625,-400000.0625,2818.389892578125,-400000.0625
135.15348196029663,-400000.0625,-2045.25,977.4199829101562,-400000.0625,-6761.93017578125,-400000.0625,2803.52001953125,-400000.0625
135.15348553657532,-400000.0625,-2077.909912109375,949.4299926757812,-400000.0625,-6776.2900390625,-400000.0625,2767.22998046875,-400000.0625
135.15348958969116,-400000.0625,-2078.010009765625,951.0,-400000.0625,-6775.0,-400000.0625,2765.3701171875,-400000.0625
135.15349316596985,-400000.0625,-2048.39990234375,980.0399780273438,-400000.0625,-6762.509765625,-400000.0625,2798.27001953125,-400000.0625
135.15349674224854,-400000.0625,-2021.5,1003.27001953125,-400000.0625,-6747.10009765625,-400000.0625,2819.820068359375,-400000.0625
135.15350127220154,-400000.0625,-2036.8599853515625,990.010009765625,-400000.0625,-6760.41015625,-400000.0625,2798.320068359375,-400000.0625
135.15350484848022,-400000.0625,-2070.52001953125,959.3499755859375,-400000.0625,-6782.14990234375,-400000.0625,2760.889892578125,-400000.0625
135.1535086631775,-400000.0625,-2076.47998046875,960.6400146484375,-400000.0625,-6776.52001953125,-400000.0625,2760.64990234375,-400000.0625
135.15351247787476,-400000.0625,-2041.239990234375,993.2999877929688,-400000.0625,-6751.2001953125,-400000.0625,2790.639892578125,-400000.0625
135.15351581573486,-400000.0625,-2017.1199951171875,1013.8499755859375,-400000.0625,-6740.43017578125,-400000.0625,2813.719970703125,-400000.0625
135.15351915359497,-400000.0625,-2037.6700439453125,993.25,-400000.0625,-6757.1201171875,-400000.0625,2793.68994140625,-400000.0625
135.22731161117554,-400000.0625,-2071.050048828125,964.3599853515625,-400000.0625,-6775.89990234375,-400000.0625,2756.7900390625,-400000.0625
135.23264503479004,-400000.0625,-2071.570068359375,967.4600219726562,-400000.0625,-6773.89990234375,-400000.0625,2752.5,-400000.0625
135.24102783203125,-400000.0625,-2037.5699462890625,998.2100219726562,-400000.0625,-6752.77978515625,-400000.0625,2781.43994140625,-400000.0625
135.24564909934998,-400000.0625,-2021.030029296875,1011.7100219726562,-400000.0625,-6742.91015625,-400000.0625,2797.030029296875,-400000.0625
135.2456579208374,-400000.0625,-2042.47998046875,995.2100219726562,-400000.0625,-6759.35986328125,-400000.0625,2775.9599609375,-400000.0625
135.24566221237183,-400000.0625,-2071.090087890625,965.6400146484375,-400000.0625,-6778.0498046875,-400000.0625,2740.570068359375,-400000.0625
135.24566650390625,-400000.0625,-2072.669921875,962.3499755859375,-400000.0625,-6772.22998046875,-400000.0625,2738.570068359375,-400000.0625
135.24567079544067,-400000.0625,-2043.0999755859375,992.6799926757812,-400000.0625,-6759.02001953125,-400000.0625,2767.3701171875,-400000.0625
135.24567461013794,-400000.0625,-2021.6500244140625,1012.9500122070312,-400000.0625,-6748.6298828125,-400000.0625,2784.39990234375,-400000.0625
135.2456784248352,-400000.0625,-2041.43994140625,993.4400024414062,-400000.0625,-6761.35986328125,-400000.0625,2764.179931640625,-400000.0625
135.2456820011139,-400000.0625,-2080.110107421875,957.9199829101562,-400000.0625,-6784.009765625,-400000.0625,2727.56005859375,-400000.0625
135.24568605422974,-400000.0625,-2081.5400390625,960.8699951171875,-400000.0625,-6777.0498046875,-400000.0625,2725.739990234375,-400000.0625
135.245689868927,-400000.0625,-2048.590087890625,987.6699829101562,-400000.0625,-6752.97021484375,-400000.0625,2756.360107421875,-400000.0625
135.24569368362427,-400000.0625,-2025.510009765625,1007.27001953125,-400000.0625,-6736.60986328125,-400000.0625,2777.47998046875,-400000.0625
135.24569749832153,-400000.0625,-2046.06005859375,991.6300048828125,-400000.0625,-6754.830078125,-400000.0625,2756.7900390625,-400000.0625
135.2457013130188,-400000.0625,-2084.02001953125,959.0599975585938,-400000.0625,-6779.669921875,-400000.0625,2714.25,-400000.0625
135.30981469154358,-400000.0625,-2086.830078125,956.2999877929688,-400000.0625,-6778.18994140625,-400000.0625,2707.719970703125,-400000.0625
135.31546998023987,-400000.0625,-2053.1201171875,988.1500244140625,-400000.0625,-6757.77978515625,-400000.0625,2737.429931640625,-400000.0625
135.31987071037292,-400000.0625,-2035.0899658203125,1004.8900146484375,-400000.0625,-6744.9599609375,-400000.0625,2756.169921875,-400000.0625
135.3198800086975,-400000.0625,-2062.320068359375,986.9600219726562,-400000.0625,-6754.5400390625,-400000.0625,2735.0400390625,-400000.0625
135.31988382339478,-400000.0625,-2092.60009765625,965.5499877929688,-400000.0625,-6774.240234375,-400000.0625,2704.6201171875,-400000.0625
135.31988763809204,-400000.0625,-2085.969970703125,958.4000244140625,-400000.0625,-6772.56982421875,-400000.0625,2710.6298828125,-400000.0625
135.31989121437073,-400000.0625,-2059.320068359375,974.27001953125,-400000.0625,-6750.8701171875,-400000.0625,2738.3798828125,-400000.0625
135.31989455223083,-400000.0625,-2051.159912109375,993.3499755859375,-400000.0625,-6735.89990234375,-400000.0625,2753.5400390625,-400000.0625
135.31989812850952,-400000.0625,-2078.389892578125,975.6599731445312,-400000.0625,-6752.77978515625,-400000.0625,2735.570068359375,-400000.0625
135.31990146636963,-400000.0625,-2103.949951171875,947.9000244140625,-400000.0625,-6776.2900390625,-400000.0625,2697.1298828125,-400000.0625
135.31990504264832,-400000.0625,-2102.22998046875,946.1900024414062,-400000.0625,-6774.240234375,-400000.0625,2690.510009765625,-400000.0625
135.319908618927,-400000.0625,-2071.18994140625,973.5599975585938,-400000.0625,-6752.43994140625,-400000.0625,2720.97998046875,-400000.0625
135.3199119567871,-400000.0625,-2050.449951171875,997.780029296875,-400000.0625,-6736.85009765625,-400000.0625,2736.7099609375,-400000.0625
135.31991577148438,-400000.0625,-2066.800048828125,982.8099975585938,-400000.0625,-6748.6298828125,-400000.0625,2715.5400390625,-400000.0625
135.31991958618164,-400000.0625,-2106.81005859375,947.3800048828125,-400000.0625,-6773.47021484375,-400000.0625,2683.830078125,-400000.0625
135.31992316246033,-400000.0625,-2108.570068359375,945.9500122070312,-400000.0625,-6772.0400390625,-400000.0625,2675.9599609375,-400000.0625
135.34351015090942,-400000.0625,-2070.570068359375,977.3300170898438,-400000.0625,-6750.06005859375,-400000.0625,2709.679931640625,-400000.0625
135.35338258743286,-400000.0625,-2048.919921875,999.5499877929688,-400000.0625,-6739.240234375,-400000.0625,2733.179931640625,-400000.0625
135.3583424091339,-400000.0625,-2067.7099609375,984.9500122070312,-400000.0625,-6754.5400390625,-400000.0625,2711.489990234375,-400000.0625
135.35834980010986,-400000.0625,-2103.570068359375,950.2899780273438,-400000.0625,-6774.47021484375,-400000.0625,2674.679931640625,-400000.0625
135.3583538532257,-400000.0625,-2107.6201171875,949.5700073242188,-400000.0625,-6767.4599609375,-400000.0625,2670.14990234375,-400000.0625
135.35835790634155,-400000.0625,-2074.14990234375,979.6099853515625,-400000.0625,-6743.47998046875,-400000.0625,2701.89990234375,-400000.0625
135.35836219787598,-400000.0625,-2052.5,998.2100219726562,-400000.0625,-6732.990234375,-400000.0625,2718.8798828125,-400000.0625
135.35836601257324,-400000.0625,-2078.10009765625,979.9500122070312,-400000.0625,-6749.490234375,-400000.0625,2698.659912109375,-400000.0625
135.35836958885193,-400000.0625,-2112.2900390625,951.0999755859375,-400000.0625,-6771.27978515625,-400000.0625,2665.419921875,-400000.0625
135.35837316513062,-400000.0625,-2112.10009765625,951.4299926757812,-400000.0625,-6769.1298828125,-400000.0625,2659.3701171875,-400000.0625
135.3583767414093,-400000.0625,-2083.830078125,978.469970703125,-400000.0625,-6747.77001953125,-400000.0625,2685.5,-400000.0625
135.35838055610657,-400000.0625,-2061.4599609375,999.5,-400000.0625,-6737.08984375,-400000.0625,2706.239990234375,-400000.0625
135.35838413238525,-400000.0625,-2081.5400390625,982.1900024414062,-400000.0625,-6751.68017578125,-400000.0625,2684.260009765625,-400000.0625
135.35838770866394,-400000.0625,-2116.72998046875,951.0999755859375,-400000.0625,-6770.75,-400000.0625,2650.830078125,-400000.0625
135.3631157875061,-400000.0625,-2116.72998046875,952.0499877929688,-400000.0625,-6765.4599609375,-400000.0625,2649.260009765625,-400000.0625
135.3631236553192,-400000.0625,-2083.159912109375,981.6599731445312,-400000.0625,-6745.43017578125,-400000.0625,2681.300048828125,-400000.0625
135.39730715751648,-400000.0625,-2062.080078125,1000.1199951171875,-400000.0625,-6735.18017578125,-400000.0625,2697.419921875,-400000.0625
135.40278434753418,-400000.0625,-2080.969970703125,980.5700073242188,-400000.0625,-6749.68017578125,-400000.0625,2675.820068359375,-400000.0625
135.40737533569336,-400000.0625,-2120.2099609375,946.8599853515625,-400000.0625,-6770.66015625,-400000.0625,2640.77001953125,-400000.0625
135.40738534927368,-400000.0625,-2118.780029296875,949.1900024414062,-400000.0625,-6770.85009765625,-400000.0625,2636.0,-400000.0625
135.40738987922668,-400000.0625,-2083.489990234375,981.3300170898438,-400000.0625,-6751.490234375,-400000.0625,2668.2900390625,-400000.0625
135.40739393234253,-400000.0625,-2064.510009765625,999.9299926757812,-400000.0625,-6736.3701171875,-400000.0625,2687.030029296875,-400000.0625
135.40739750862122,-400000.0625,-2086.739990234375,981.0,-400000.0625,-6751.009765625,-400000.0625,2662.1298828125,-400000.0625
135.4074010848999,-400000.0625,-2122.830078125,947.3800048828125,-400000.0625,-6770.66015625,-400000.0625,2627.610107421875,-400000.0625
135.40740513801575,-400000.0625,-2120.8798828125,950.6699829101562,-400000.0625,-6768.22998046875,-400000.0625,2627.419921875,-400000.0625
135.40740871429443,-400000.0625,-2087.639892578125,980.8099975585938,-400000.0625,-6747.39013671875,-400000.0625,2655.7900390625,-400000.0625
135.40741205215454,-400000.0625,-2072.909912109375,997.260009765625,-400000.0625,-6738.27978515625,-400000.0625,2674.909912109375,-400000.0625
135.40741562843323,-400000.0625,-2093.60009765625,979.3300170898438,-400000.0625,-6750.77978515625,-400000.0625,2652.739990234375,-400000.0625
135.4074192047119,-400000.0625,-2128.60009765625,947.760009765625,-400000.0625,-6772.60986328125,-400000.0625,2616.070068359375,-400000.0625
135.40742254257202,-400000.0625,-2128.169921875,950.0,-400000.0625,-6770.419921875,-400000.0625,2612.969970703125,-400000.0625
135.40742540359497,-400000.0625,-2089.260009765625,985.719970703125,-400000.0625,-6742.18994140625,-400000.0625,2647.35009765625,-400000.0625
135.40742897987366,-400000.0625,-2065.85009765625,1004.6500244140625,-400000.0625,-6724.64013671875,-400000.0625,2667.0,-400000.0625
135.48623418807983,-400000.0625,-2091.4599609375,984.0,-400000.0625,-6747.8701171875,-400000.0625,2640.679931640625,-400000.0625
135.49685621261597,-400000.0625,-2131.080078125,954.8699951171875,-400000.0625,-6767.93994140625,-400000.0625,2606.820068359375,-400000.0625
135.50197291374207,-400000.0625,-2132.27001953125,958.5900268554688,-400000.0625,-6761.68994140625,-400000.0625,2608.389892578125,-400000.0625
135.50657844543457,-400000.0625,-2105.81005859375,990.0599975585938,-400000.0625,-6738.759765625,-400000.0625,2636.0,-400000.0625
135.5065882205963,-400000.0625,-2075.669921875,998.780029296875,-400000.0625,-6730.7998046875,-400000.0625,2653.64990234375,-400000.0625
135.50659251213074,-400000.0625,-2096.64990234375,978.6099853515625,-400000.0625,-6744.43017578125,-400000.0625,2628.22998046875,-400000.0625
135.506596326828,-400000.0625,-2144.340087890625,941.5599975585938,-400000.0625,-6762.83984375,-400000.0625,2590.93994140625,-400000.0625
135.50660109519958,-400000.0625,-2166.610107421875,945.760009765625,-400000.0625,-6756.2099609375,-400000.0625,2600.0,-400000.0625
135.50660514831543,-400000.0625,-2132.22998046875,985.2899780273438,-400000.0625,-6727.97998046875,-400000.0625,2641.199951171875,-400000.0625
135.50660872459412,-400000.0625,-2125.219970703125,1004.7899780273438,-400000.0625,-6709.77001953125,-400000.0625,2651.639892578125,-400000.0625
135.5066123008728,-400000.0625,-2163.699951171875,973.3699951171875,-400000.0625,-6720.10986328125,-400000.0625,2615.97998046875,-400000.0625
135.5066158771515,-400000.0625,-2190.159912109375,931.4500122070312,-400000.0625,-6734.990234375,-400000.0625,2578.02001953125,-400000.0625
135.50661945343018,-400000.0625,-2221.110107421875,913.47998046875,-400000.0625,-6733.1298828125,-400000.0625,2555.510009765625,-400000.0625
135.50662326812744,-400000.0625,-2192.739990234375,934.1699829101562,-400000.0625,-6707.33984375,-400000.0625,2576.780029296875,-400000.0625
135.5066273212433,-400000.0625,-2212.669921875,938.9400024414062,-400000.0625,-6682.58984375,-400000.0625,2589.1298828125,-400000.0625
135.50663113594055,-400000.0625,-2287.14990234375,907.22998046875,-400000.0625,-6675.669921875,-400000.0625,2542.449951171875,-400000.0625
135.52734994888306,-400000.0625,-2367.35009765625,844.239990234375,-400000.0625,-6691.35986328125,-400000.0625,2474.449951171875,-400000.0625
135.5329625606537,-400000.0625,-2385.0,812.3400268554688,-400000.0625,-6670.08984375,-400000.0625,2443.360107421875,-400000.0625
135.53789973258972,-400000.0625,-2423.860107421875,815.5800170898438,-400000.0625,-6627.1298828125,-400000.0625,2449.659912109375,-400000.0625
135.5379078388214,-400000.0625,-2453.3798828125,815.1500244140625,-400000.0625,-6604.0,-400000.0625,2441.449951171875,-400000.0625
135.53791213035583,-400000.0625,-2505.260009765625,785.1599731445312,-400000.0625,-6606.06005859375,-400000.0625,2409.840087890625,-400000.0625
135.53791546821594,-400000.0625,-2557.800048828125,750.6799926757812,-400000.0625,-6605.669921875,-400000.0625,2361.919921875,-400000.0625
135.53791880607605,-400000.0625,-2580.169921875,747.25,-400000.0625,-6594.85009765625,-400000.0625,2347.52001953125,-400000.0625
135.53792238235474,-400000.0625,-2564.6201171875,778.8699951171875,-400000.0625,-6580.02001953125,-400000.0625,2376.93994140625,-400000.0625
135.53792572021484,-400000.0625,-2536.25,805.1900024414062,-400000.0625,-6559.990234375,-400000.0625,2396.580078125,-400000.0625
135.53792881965637,-400000.0625,-2546.60009765625,790.7899780273438,-400000.0625,-6572.52978515625,-400000.0625,2378.27001953125,-400000.0625
135.53793263435364,-400000.0625,-2578.969970703125,768.7100219726562,-400000.0625,-6603.580078125,-400000.0625,2348.610107421875,-400000.0625
135.53793621063232,-400000.0625,-2568.010009765625,776.0,-400000.0625,-6610.490234375,-400000.0625,2354.2900390625,-400000.0625
135.53793954849243,-400000.0625,-2508.550048828125,812.6300048828125,-400000.0625,-6595.7998046875,-400000.0625,2387.7099609375,-400000.0625
135.53794240951538,-400000.0625,-2470.830078125,840.6199951171875,-400000.0625,-6588.31982421875,-400000.0625,2414.27001953125,-400000.0625
135.5379457473755,-400000.0625,-2470.5400390625,832.9400024414062,-400000.0625,-6606.669921875,-400000.0625,2398.8701171875,-400000.0625
135.53794884681702,-400000.0625,-2482.4599609375,807.1400146484375,-400000.0625,-6637.56982421875,-400000.0625,2368.02001953125,-400000.0625
135.593909740448,-400000.0625,-2459.9599609375,816.4400024414062,-400000.0625,-6640.77001953125,-400000.0625,2372.030029296875,-400000.0625
135.6034278869629,-400000.0625,-2405.02001953125,850.3900146484375,-400000.0625,-6631.47021484375,-400000.0625,2411.27001953125,-400000.0625
135.60839319229126,-400000.0625,-2358.25,877.239990234375,-400000.0625,-6633.89990234375,-400000.0625,2437.68994140625,-400000.0625
135.60840153694153,-400000.0625,-2359.14990234375,868.6500244140625,-400000.0625,-6653.8798828125,-400000.0625,2425.239990234375,-400000.0625
135.60840582847595,-400000.0625,-2377.889892578125,841.5700073242188,-400000.0625,-6682.35009765625,-400000.0625,2398.2099609375,-400000.0625
135.60840964317322,-400000.0625,-2354.669921875,854.780029296875,-400000.0625,-6684.97021484375,-400000.0625,2404.39990234375,-400000.0625
135.6084132194519,-400000.0625,-2301.030029296875,890.5900268554688,-400000.0625,-6667.27978515625,-400000.0625,2442.97998046875,-400000.0625
135.60841703414917,-400000.0625,-2262.830078125,917.47998046875,-400000.0625,-6662.31982421875,-400000.0625,2468.159912109375,-400000.0625
135.60842084884644,-400000.0625,-2264.7900390625,909.9500122070312,-400000.0625,-6682.35009765625,-400000.0625,2456.090087890625,-400000.0625
135.60842442512512,-400000.0625,-2289.919921875,879.760009765625,-400000.0625,-6712.14990234375,-400000.0625,2432.969970703125,-400000.0625
135.6084303855896,-400000.0625,-2276.949951171875,887.0599975585938,-400000.0625,-6719.16015625,-400000.0625,2435.72998046875,-400000.0625
135.6084339618683,-400000.0625,-2227.31005859375,926.489990234375,-400000.0625,-6702.60986328125,-400000.0625,2475.929931640625,-400000.0625
135.61303114891052,-400000.0625,-2196.260009765625,947.52001953125,-400000.0625,-6692.740234375,-400000.0625,2501.6298828125,-400000.0625
135.61304020881653,-400000.0625,-2199.409912109375,942.1300048828125,-400000.0625,-6709.72021484375,-400000.0625,2489.3798828125,-400000.0625
135.61304450035095,-400000.0625,-2225.919921875,914.239990234375,-400000.0625,-6735.18017578125,-400000.0625,2460.77001953125,-400000.0625
135.61304831504822,-400000.0625,-2217.25,917.6300048828125,-400000.0625,-6736.3701171875,-400000.0625,2460.6201171875,-400000.0625
135.67748045921326,-400000.0625,-2171.22998046875,954.719970703125,-400000.0625,-6714.9599609375,-400000.0625,2496.239990234375,-400000.0625
135.68279671669006,-400000.0625,-2144.2900390625,977.3300170898438,-400000.0625,-6708.240234375,-400000.0625,2522.52001953125,-400000.0625
135.68745803833008,-400000.0625,-2156.8798828125,965.8300170898438,-400000.0625,-6727.31005859375,-400000.0625,2503.43994140625,-400000.0625
135.68746662139893,-400000.0625,-2182.2900390625,938.75,-400000.0625,-6744.91015625,-400000.0625,2471.639892578125,-400000.0625
135.68747067451477,-400000.0625,-2174.89990234375,943.22998046875,-400000.0625,-6747.490234375,-400000.0625,2475.60009765625,-400000.0625
135.68747401237488,-400000.0625,-2137.280029296875,974.9400024414062,-400000.0625,-6735.0400390625,-400000.0625,2506.300048828125,-400000.0625
135.6874771118164,-400000.0625,-2110.340087890625,997.780029296875,-400000.0625,-6726.22021484375,-400000.0625,2529.3798828125,-400000.0625
135.68748021125793,-400000.0625,-2126.31005859375,981.8599853515625,-400000.0625,-6737.89990234375,-400000.0625,2513.360107421875,-400000.0625
135.68748378753662,-400000.0625,-2155.35009765625,951.0999755859375,-400000.0625,-6757.5498046875,-400000.0625,2483.64990234375,-400000.0625
135.68748712539673,-400000.0625,-2148.489990234375,958.6799926757812,-400000.0625,-6751.8701171875,-400000.0625,2484.179931640625,-400000.0625
135.68749046325684,-400000.0625,-2112.6298828125,991.3900146484375,-400000.0625,-6733.1298828125,-400000.0625,2521.75,-400000.0625
135.68749380111694,-400000.0625,-2086.02001953125,1016.8599853515625,-400000.0625,-6720.31005859375,-400000.0625,2545.449951171875,-400000.0625
135.68749737739563,-400000.0625,-2104.760009765625,996.6400146484375,-400000.0625,-6735.52001953125,-400000.0625,2531.81005859375,-400000.0625
135.6875011920929,-400000.0625,-2134.179931640625,968.0700073242188,-400000.0625,-6759.64013671875,-400000.0625,2497.2900390625,-400000.0625
135.68750476837158,-400000.0625,-2133.56005859375,968.8400268554688,-400000.0625,-6759.169921875,-400000.0625,2496.669921875,-400000.0625
135.68750834465027,-400000.0625,-2102.659912109375,997.4500122070312,-400000.0625,-6739.18994140625,-400000.0625,2527.570068359375,-400000.0625
135.72835636138916,-400000.0625,-2079.679931640625,1018.1900024414062,-400000.0625,-6725.169921875,-400000.0625,2546.60009765625,-400000.0625
135.73958659172058,-400000.0625,-2097.699951171875,1003.0700073242188,-400000.0625,-6738.47021484375,-400000.0625,2524.090087890625,-400000.0625
135.74431443214417,-400000.0625,-2129.75,971.8400268554688,-400000.0625,-6760.7900390625,-400000.0625,2490.090087890625,-400000.0625
135.74432373046875,-400000.0625,-2129.1298828125,974.6099853515625,-400000.0625,-6756.259765625,-400000.0625,2496.050048828125,-400000.0625
135.74432826042175,-400000.0625,-2097.989990234375,1004.8900146484375,-400000.0625,-6736.60986328125,-400000.0625,2521.610107421875,-400000.0625
135.74433207511902,-400000.0625,-2077.06005859375,1024.47998046875,-400000.0625,-6731.75,-400000.0625,2540.39990234375,-400000.0625
135.74433588981628,-400000.0625,-2097.22998046875,1005.7000122070312,-400000.0625,-6747.68017578125,-400000.0625,2516.93994140625,-400000.0625
135.7443404197693,-400000.0625,-2128.320068359375,979.469970703125,-400000.0625,-6767.7001953125,-400000.0625,2480.840087890625,-400000.0625
135.74434399604797,-400000.0625,-2130.320068359375,975.1300048828125,-400000.0625,-6765.60009765625,-400000.0625,2483.93994140625,-400000.0625
135.74434781074524,-400000.0625,-2094.93994140625,1008.219970703125,-400000.0625,-6742.9599609375,-400000.0625,2513.1201171875,-400000.0625
135.74435138702393,-400000.0625,-2070.860107421875,1028.72998046875,-400000.0625,-6724.68994140625,-400000.0625,2532.10009765625,-400000.0625
135.74435472488403,-400000.0625,-2086.639892578125,1014.4199829101562,-400000.0625,-6735.60986328125,-400000.0625,2512.60009765625,-400000.0625
135.7443585395813,-400000.0625,-2124.1201171875,981.9500122070312,-400000.0625,-6758.2099609375,-400000.0625,2481.169921875,-400000.0625
135.74436211585999,-400000.0625,-2130.409912109375,979.3800048828125,-400000.0625,-6761.1201171875,-400000.0625,2483.320068359375,-400000.0625
135.74436569213867,-400000.0625,-2096.030029296875,1010.1300048828125,-400000.0625,-6739.330078125,-400000.0625,2514.7900390625,-400000.0625
135.7443699836731,-400000.0625,-2070.330078125,1030.5899658203125,-400000.0625,-6719.490234375,-400000.0625,2532.860107421875,-400000.0625
135.7823851108551,-400000.0625,-2090.8798828125,1012.280029296875,-400000.0625,-6732.419921875,-400000.0625,2511.68994140625,-400000.0625
135.789244890213,-400000.0625,-2129.840087890625,975.5599975585938,-400000.0625,-6760.1201171875,-400000.0625,2473.969970703125,-400000.0625
135.79537057876587,-400000.0625,-2130.60009765625,977.1300048828125,-400000.0625,-6766.419921875,-400000.0625,2470.06005859375,-400000.0625
135.80039286613464,-400000.0625,-2085.449951171875,1014.9000244140625,-400000.0625,-6746.72021484375,-400000.0625,2501.340087890625,-400000.0625
135.80504417419434,-400000.0625,-2047.969970703125,1042.8900146484375,-400000.0625,-6723.5,-400000.0625,2518.1298828125,-400000.0625
135.80505418777466,-400000.0625,-2062.610107421875,1032.8800048828125,-400000.0625,-6736.14013671875,-400000.0625,2497.239990234375,-400000.0625
135.80505895614624,-400000.0625,-2086.780029296875,1008.4199829101562,-400000.0625,-6758.64013671875,-400000.0625,2453.139892578125,-400000.0625
135.80506324768066,-400000.0625,-2082.590087890625,1015.8499755859375,-400000.0625,-6759.259765625,-400000.0625,2449.659912109375,-400000.0625
135.8050673007965,-400000.0625,-2041.1500244140625,1055.18994140625,-400000.0625,-6735.0400390625,-400000.0625,2479.320068359375,-400000.0625
135.80507111549377,-400000.0625,-2011.8199462890625,1080.800048828125,-400000.0625,-6721.58984375,-400000.0625,2499.489990234375,-400000.0625
135.80507493019104,-400000.0625,-2030.56005859375,1062.9200439453125,-400000.0625,-6737.759765625,-400000.0625,2475.02001953125,-400000.0625
135.80507850646973,-400000.0625,-2059.699951171875,1037.3599853515625,-400000.0625,-6756.68994140625,-400000.0625,2436.969970703125,-400000.0625
135.805082321167,-400000.0625,-2051.070068359375,1041.27001953125,-400000.0625,-6752.8701171875,-400000.0625,2438.449951171875,-400000.0625
135.80508613586426,-400000.0625,-2019.739990234375,1069.5,-400000.0625,-6730.02978515625,-400000.0625,2473.159912109375,-400000.0625
135.80508971214294,-400000.0625,-1998.469970703125,1090.5699462890625,-400000.0625,-6717.830078125,-400000.0625,2496.860107421875,-400000.0625
135.80509448051453,-400000.0625,-2014.8299560546875,1073.27001953125,-400000.0625,-6732.56005859375,-400000.0625,2474.449951171875,-400000.0625
135.87742590904236,-400000.0625,-2057.889892578125,1037.1199951171875,-400000.0625,-6761.02978515625,-400000.0625,2433.679931640625,-400000.0625
135.88655352592468,-400000.0625,-2060.4599609375,1034.8800048828125,-400000.0625,-6754.16015625,-400000.0625,2434.590087890625,-400000.0625
135.8909523487091,-400000.0625,-2025.1800537109375,1067.2099609375,-400000.0625,-6726.169921875,-400000.0625,2465.199951171875,-400000.0625
135.8909604549408,-400000.0625,-2005.719970703125,1086.0400390625,-400000.0625,-6722.740234375,-400000.0625,2483.989990234375,-400000.0625
135.89096450805664,-400000.0625,-2027.3199462890625,1067.1099853515625,-400000.0625,-6736.14013671875,-400000.0625,2463.9599609375,-400000.0625
135.8909683227539,-400000.0625,-2062.989990234375,1034.0699462890625,-400000.0625,-6760.68994140625,-400000.0625,2430.06005859375,-400000.0625
135.89097213745117,-400000.0625,-2057.5,1040.510009765625,-400000.0625,-6761.06982421875,-400000.0625,2425.719970703125,-400000.0625
135.89097571372986,-400000.0625,-2021.6500244140625,1074.699951171875,-400000.0625,-6729.22021484375,-400000.0625,2457.050048828125,-400000.0625
135.89097929000854,-400000.0625,-2008.3900146484375,1087.4300537109375,-400000.0625,-6713.81982421875,-400000.0625,2480.219970703125,-400000.0625
135.89098286628723,-400000.0625,-2030.0899658203125,1068.9300537109375,-400000.0625,-6729.75,-400000.0625,2457.050048828125,-400000.0625
135.8909866809845,-400000.0625,-2057.60009765625,1043.3699951171875,-400000.0625,-6755.4501953125,-400000.0625,2420.18994140625,-400000.0625
135.89099025726318,-400000.0625,-2056.929931640625,1042.93994140625,-400000.0625,-6752.2998046875,-400000.0625,2423.669921875,-400000.0625
135.8909935951233,-400000.0625,-2025.219970703125,1072.8800048828125,-400000.0625,-6728.60009765625,-400000.0625,2458.81005859375,-400000.0625
135.89099717140198,-400000.0625,-2002.050048828125,1093.2900390625,-400000.0625,-6716.58984375,-400000.0625,2478.080078125,-400000.0625
135.89100074768066,-400000.0625,-2021.6500244140625,1074.1700439453125,-400000.0625,-6732.0400390625,-400000.0625,2455.139892578125,-400000.0625
135.89100432395935,-400000.0625,-2059.219970703125,1039.8900146484375,-400000.0625,-6753.68017578125,-400000.0625,2418.419921875,-400000.0625
135.9460859298706,-400000.0625,-2059.320068359375,1039.4599609375,-400000.0625,-6752.68017578125,-400000.0625,2418.570068359375,-400000.0625
135.9515175819397,-400000.0625,-2029.75,1067.780029296875,-400000.0625,-6731.75,-400000.0625,2449.419921875,-400000.0625
135.95587754249573,-400000.0625,-2009.8699951171875,1088.0,-400000.0625,-6717.2998046875,-400000.0625,2467.820068359375,-400000.0625
135.9558846950531,-400000.0625,-2026.030029296875,1071.8800048828125,-400000.0625,-6726.7900390625,-400000.0625,2447.75,-400000.0625
135.95588850975037,-400000.0625,-2059.64990234375,1039.699951171875,-400000.0625,-6756.64013671875,-400000.0625,2414.610107421875,-400000.0625
135.9558928012848,-400000.0625,-2058.550048828125,1042.699951171875,-400000.0625,-6755.39990234375,-400000.0625,2414.56005859375,-400000.0625
135.9558961391449,-400000.0625,-2028.1800537109375,1071.68994140625,-400000.0625,-6732.31982421875,-400000.0625,2445.60009765625,-400000.0625
135.95589971542358,-400000.0625,-2006.8599853515625,1090.5699462890625,-400000.0625,-6719.58984375,-400000.0625,2464.9599609375,-400000.0625
135.95590257644653,-400000.0625,-2023.030029296875,1076.97998046875,-400000.0625,-6731.509765625,-400000.0625,2447.080078125,-400000.0625
135.95590662956238,-400000.0625,-2061.3701171875,1046.8499755859375,-400000.0625,-6752.8701171875,-400000.0625,2409.889892578125,-400000.0625
135.95591020584106,-400000.0625,-2064.989990234375,1040.97998046875,-400000.0625,-6753.8701171875,-400000.0625,2409.1201171875,-400000.0625
135.95591354370117,-400000.0625,-2033.6600341796875,1070.6400146484375,-400000.0625,-6731.3701171875,-400000.0625,2437.969970703125,-400000.0625
135.95591711997986,-400000.0625,-2014.02001953125,1087.9000244140625,-400000.0625,-6721.77978515625,-400000.0625,2455.89990234375,-400000.0625
135.95592069625854,-400000.0625,-2032.3299560546875,1069.3599853515625,-400000.0625,-6739.330078125,-400000.0625,2434.72998046875,-400000.0625
135.95592403411865,-400000.0625,-2063.419921875,1038.31005859375,-400000.0625,-6752.5400390625,-400000.0625,2402.449951171875,-400000.0625
135.95592761039734,-400000.0625,-2062.989990234375,1040.3599853515625,-400000.0625,-6743.77001953125,-400000.0625,2403.639892578125,-400000.0625
135.97617840766907,-400000.0625,-2031.0400390625,1071.6400146484375,-400000.0625,-6726.1201171875,-400000.0625,2436.070068359375,-400000.0625
135.98174405097961,-400000.0625,-2014.2099609375,1086.1400146484375,-400000.0625,-6718.97021484375,-400000.0625,2455.89990234375,-400000.0625
135.9902868270874,-400000.0625,-2031.1800537109375,1069.97998046875,-400000.0625,-6735.7099609375,-400000.0625,2429.6298828125,-400000.0625
135.99516081809998,-400000.0625,-2067.280029296875,1038.4100341796875,-400000.0625,-6760.64990234375,-400000.0625,2396.35009765625,-400000.0625
135.99516987800598,-400000.0625,-2065.330078125,1041.1300048828125,-400000.0625,-6755.64013671875,-400000.0625,2398.06005859375,-400000.0625
135.99517488479614,-400000.0625,-2027.800048828125,1071.260009765625,-400000.0625,-6734.08984375,-400000.0625,2427.530029296875,-400000.0625
135.9951786994934,-400000.0625,-2009.6300048828125,1086.760009765625,-400000.0625,-6728.169921875,-400000.0625,2451.56005859375,-400000.0625
135.99518299102783,-400000.0625,-2033.0899658203125,1065.9200439453125,-400000.0625,-6741.669921875,-400000.0625,2431.43994140625,-400000.0625
135.9951868057251,-400000.0625,-2067.52001953125,1039.8399658203125,-400000.0625,-6756.1201171875,-400000.0625,2392.10009765625,-400000.0625
135.99519062042236,-400000.0625,-2068.3798828125,1043.93994140625,-400000.0625,-6751.72998046875,-400000.0625,2390.47998046875,-400000.0625
