time,ch1,ch2,ch3,ch4,ch5,ch6,ch7,ch8
164.28372859954834,-400000.0625,-11599.6904296875,-6277.18017578125,-400000.0625,-18882.369140625,-400000.0625,-4990.85986328125,-400000.0625
164.30051565170288,-400000.0625,-11580.66015625,-6261.72998046875,-400000.0625,-18868.0703125,-400000.0625,-4972.89013671875,-400000.0625
164.31464266777039,-400000.0625,-11601.400390625,-6279.89990234375,-400000.0625,-18882.80078125,-400000.0625,-4991.14990234375,-400000.0625
164.3249707221985,-400000.0625,-11629.3896484375,-6301.97998046875,-400000.0625,-18899.490234375,-400000.0625,-5019.0498046875,-400000.0625
164.34721517562866,-400000.0625,-11635.58984375,-6305.64990234375,-400000.0625,-18906.359375,-400000.0625,-5025.81982421875,-400000.0625
164.38648915290833,-400000.0625,-11619.5703125,-6292.68017578125,-400000.0625,-18900.400390625,-400000.0625,-5010.18017578125,-400000.0625
164.40182518959045,-400000.0625,-11601.400390625,-6277.419921875,-400000.0625,-18880.990234375,-400000.0625,-4990.009765625,-400000.0625
164.41440200805664,-400000.0625,-11598.16015625,-6274.509765625,-400000.0625,-18873.119140625,-400000.0625,-4985.0498046875,-400000.0625
164.4290735721588,-400000.0625,-11628.6298828125,-6296.10986328125,-400000.0625,-18893.76953125,-400000.0625,-5013.509765625,-400000.0625
164.44624662399292,-400000.0625,-11644.599609375,-6312.89990234375,-400000.0625,-18908.55078125,-400000.0625,-5033.919921875,-400000.0625
164.4580955505371,-400000.0625,-11636.1201171875,-6301.259765625,-400000.0625,-18904.01953125,-400000.0625,-5017.47021484375,-400000.0625
164.49399709701538,-400000.0625,-11612.7998046875,-6275.1298828125,-400000.0625,-18880.75,-400000.0625,-4991.33984375,-400000.0625
164.5044994354248,-400000.0625,-11615.1298828125,-6280.9501953125,-400000.0625,-18887.759765625,-400000.0625,-4996.72998046875,-400000.0625
164.52494955062866,-400000.0625,-11643.4599609375,-6312.60986328125,-400000.0625,-18903.44921875,-400000.0625,-5024.77001953125,-400000.0625
164.53510665893555,-400000.0625,-11654.330078125,-6320.3798828125,-400000.0625,-18908.55078125,-400000.0625,-5025.91015625,-400000.0625
164.55738258361816,-400000.0625,-11635.400390625,-6302.8798828125,-400000.0625,-18897.009765625,-400000.0625,-5007.31982421875,-400000.0625
164.56817030906677,-400000.0625,-11619.4697265625,-6283.14013671875,-400000.0625,-18877.599609375,-400000.0625,-4977.1298828125,-400000.0625
164.6102421283722,-400000.0625,-11618.8095703125,-6284.52001953125,-400000.0625,-18872.98046875,-400000.0625,-4973.27001953125,-400000.0625
164.62080001831055,-400000.0625,-11649.3203125,-6311.60986328125,-400000.0625,-18894.25,-400000.0625,-5006.97998046875,-400000.0625
164.6433229446411,-400000.0625,-11670.6396484375,-6330.919921875,-400000.0625,-18917.75,-400000.0625,-5024.72021484375,-400000.0625
164.65818881988525,-400000.0625,-11642.98046875,-6306.7001953125,-400000.0625,-18895.150390625,-400000.0625,-4996.2001953125,-400000.0625
164.67052292823792,-400000.0625,-11621.759765625,-6285.240234375,-400000.0625,-18878.1796875,-400000.0625,-4971.35986328125,-400000.0625
164.72146105766296,-400000.0625,-11630.6298828125,-6292.490234375,-400000.0625,-18885.7109375,-400000.0625,-4982.0400390625,-400000.0625
164.7469630241394,-400000.0625,-11665.0595703125,-6322.18994140625,-400000.0625,-18905.880859375,-400000.0625,-5015.419921875,-400000.0625
164.76439332962036,-400000.0625,-11673.400390625,-6329.16015625,-400000.0625,-18910.41015625,-400000.0625,-5025.77001953125,-400000.0625
164.78656101226807,-400000.0625,-11644.8896484375,-6302.740234375,-400000.0625,-18887.0,-400000.0625,-4995.97021484375,-400000.0625
164.8270652294159,-400000.0625,-11621.2900390625,-6281.330078125,-400000.0625,-18870.880859375,-400000.0625,-4972.4599609375,-400000.0625
164.8524398803711,-400000.0625,-11638.259765625,-6295.72998046875,-400000.0625,-18884.279296875,-400000.0625,-4990.85986328125,-400000.0625
164.8800344467163,-400000.0625,-11666.490234375,-6319.2900390625,-400000.0625,-18911.26953125,-400000.0625,-5021.52978515625,-400000.0625
164.90310883522034,-400000.0625,-11674.3603515625,-6326.72021484375,-400000.0625,-18915.509765625,-400000.0625,-5030.68017578125,-400000.0625
164.95803809165955,-400000.0625,-11648.0400390625,-6302.06982421875,-400000.0625,-18890.5703125,-400000.0625,-4998.77978515625,-400000.0625
164.97237467765808,-400000.0625,-11629.2001953125,-6281.6201171875,-400000.0625,-18875.119140625,-400000.0625,-4979.22998046875,-400000.0625
165.00032329559326,-400000.0625,-11644.080078125,-6286.0,-400000.0625,-18879.609375,-400000.0625,-4988.72021484375,-400000.0625
165.02309250831604,-400000.0625,-11686.419921875,-6319.18994140625,-400000.0625,-18909.55078125,-400000.0625,-5023.10009765625,-400000.0625
165.07285714149475,-400000.0625,-11687.4697265625,-6333.4501953125,-400000.0625,-18914.890625,-400000.0625,-5024.9599609375,-400000.0625
165.09769582748413,-400000.0625,-11662.0595703125,-6317.330078125,-400000.0625,-18893.05078125,-400000.0625,-5001.77978515625,-400000.0625
165.11764240264893,-400000.0625,-11637.8798828125,-6293.43994140625,-400000.0625,-18871.830078125,-400000.0625,-4967.31005859375,-400000.0625
165.14176034927368,-400000.0625,-11648.7998046875,-6302.02001953125,-400000.0625,-18874.26953125,-400000.0625,-4976.4599609375,-400000.0625
165.20183610916138,-400000.0625,-11679.83984375,-6327.25,-400000.0625,-18900.58984375,-400000.0625,-5002.4501953125,-400000.0625
165.22463393211365,-400000.0625,-11689.51953125,-6333.16015625,-400000.0625,-18905.740234375,-400000.0625,-5006.169921875,-400000.0625
165.24045038223267,-400000.0625,-11681.1796875,-6322.77001953125,-400000.0625,-18899.060546875,-400000.0625,-4992.009765625,-400000.0625
165.26175618171692,-400000.0625,-11656.759765625,-6303.1201171875,-400000.0625,-18879.1796875,-400000.0625,-4973.7001953125,-400000.0625
165.30340147018433,-400000.0625,-11663.3896484375,-6310.31982421875,-400000.0625,-18882.849609375,-400000.0625,-4982.89990234375,-400000.0625
165.31825399398804,-400000.0625,-11698.91015625,-6341.02978515625,-400000.0625,-18906.44921875,-400000.0625,-5011.89013671875,-400000.0625
165.34270691871643,-400000.0625,-11709.740234375,-6348.89990234375,-400000.0625,-18914.69921875,-400000.0625,-5021.0,-400000.0625
165.3561749458313,-400000.0625,-11682.650390625,-6325.669921875,-400000.0625,-18896.73046875,-400000.0625,-4994.10986328125,-400000.0625
165.37787580490112,-400000.0625,-11652.3798828125,-6300.8798828125,-400000.0625,-18875.650390625,-400000.0625,-4968.4501953125,-400000.0625
165.42846035957336,-400000.0625,-11663.8203125,-6307.5498046875,-400000.0625,-18879.26953125,-400000.0625,-4972.83984375,-400000.0625
165.44538831710815,-400000.0625,-11688.0400390625,-6326.009765625,-400000.0625,-18895.869140625,-400000.0625,-4998.72998046875,-400000.0625
165.46546936035156,-400000.0625,-11700.9697265625,-6339.740234375,-400000.0625,-18907.689453125,-400000.0625,-5016.60986328125,-400000.0625
165.49600315093994,-400000.0625,-11676.0302734375,-6318.14013671875,-400000.0625,-18887.189453125,-400000.0625,-4992.81982421875,-400000.0625
165.5593683719635,-400000.0625,-11662.2001953125,-6304.31005859375,-400000.0625,-18877.169921875,-400000.0625,-4978.3701171875,-400000.0625
165.58100938796997,-400000.0625,-11676.4599609375,-6316.419921875,-400000.0625,-18888.05078125,-400000.0625,-4988.72021484375,-400000.0625
165.61298871040344,-400000.0625,-11702.9697265625,-6337.4501953125,-400000.0625,-18909.310546875,-400000.0625,-5013.89990234375,-400000.0625
165.69206070899963,-400000.0625,-11707.01953125,-6340.83984375,-400000.0625,-18914.419921875,-400000.0625,-5020.3798828125,-400000.0625
165.73145747184753,-400000.0625,-11680.3701171875,-6318.6201171875,-400000.0625,-18893.76953125,-400000.0625,-4987.81005859375,-400000.0625
165.79802894592285,-400000.0625,-11656.5703125,-6295.16015625,-400000.0625,-18876.3203125,-400000.0625,-4964.35009765625,-400000.0625
165.8230962753296,-400000.0625,-11667.2998046875,-6304.60009765625,-400000.0625,-18875.9296875,-400000.0625,-4976.27001953125,-400000.0625
165.8413372039795,-400000.0625,-11708.8798828125,-6342.4599609375,-400000.0625,-18908.119140625,-400000.0625,-5018.47021484375,-400000.0625
165.9058620929718,-400000.0625,-11723.6201171875,-6352.9501953125,-400000.0625,-18918.849609375,-400000.0625,-5027.10009765625,-400000.0625
165.92633891105652,-400000.0625,-11691.8603515625,-6323.39013671875,-400000.0625,-18892.390625,-400000.0625,-4995.81982421875,-400000.0625
165.94359970092773,-400000.0625,-11671.259765625,-6303.5498046875,-400000.0625,-18876.75,-400000.0625,-4971.169921875,-400000.0625
165.99789476394653,-400000.0625,-11683.0400390625,-6309.7001953125,-400000.0625,-18881.849609375,-400000.0625,-4985.85986328125,-400000.0625
166.0166642665863,-400000.0625,-11708.3603515625,-6328.77001953125,-400000.0625,-18899.009765625,-400000.0625,-5011.60986328125,-400000.0625
166.037456035614,-400000.0625,-11718.9404296875,-6336.8798828125,-400000.0625,-18908.4609375,-400000.0625,-5019.6201171875,-400000.0625
166.05884099006653,-400000.0625,-11707.16015625,-6330.25,-400000.0625,-18906.98046875,-400000.0625,-5006.169921875,-400000.0625
166.1149139404297,-400000.0625,-11688.66015625,-6315.52001953125,-400000.0625,-18889.94921875,-400000.0625,-4986.0,-400000.0625
166.13406205177307,-400000.0625,-11687.7099609375,-6314.330078125,-400000.0625,-18891.810546875,-400000.0625,-4989.0,-400000.0625
166.1588101387024,-400000.0625,-11718.4697265625,-6338.68994140625,-400000.0625,-18906.0703125,-400000.0625,-5017.18994140625,-400000.0625
166.18659090995789,-400000.0625,-11730.580078125,-6348.93994140625,-400000.0625,-18913.41015625,-400000.0625,-5033.5400390625,-400000.0625
166.24140763282776,-400000.0625,-11700.2998046875,-6321.14013671875,-400000.0625,-18895.009765625,-400000.0625,-5003.259765625,-400000.0625
166.26582288742065,-400000.0625,-11677.7900390625,-6302.41015625,-400000.0625,-18874.359375,-400000.0625,-4979.60986328125,-400000.0625
166.2818214893341,-400000.0625,-11695.0,-6315.27978515625,-400000.0625,-18879.990234375,-400000.0625,-4993.14990234375,-400000.0625
166.30005931854248,-400000.0625,-11728.5302734375,-6343.64990234375,-400000.0625,-18907.169921875,-400000.0625,-5020.52001953125,-400000.0625
166.35109543800354,-400000.0625,-11740.1103515625,-6356.9599609375,-400000.0625,-18924.099609375,-400000.0625,-5033.5400390625,-400000.0625
166.37241077423096,-400000.0625,-11711.4599609375,-6330.58984375,-400000.0625,-18897.9609375,-400000.0625,-5009.1298828125,-400000.0625
166.38917565345764,-400000.0625,-11680.7001953125,-6299.830078125,-400000.0625,-18870.640625,-400000.0625,-4975.83984375,-400000.0625
166.40951776504517,-400000.0625,-11696.5302734375,-6309.89013671875,-400000.0625,-18882.369140625,-400000.0625,-4991.580078125,-400000.0625
166.46006894111633,-400000.0625,-11731.669921875,-6338.83984375,-400000.0625,-18907.9296875,-400000.0625,-5023.0,-400000.0625
166.48628044128418,-400000.0625,-11744.1201171875,-6351.66015625,-400000.0625,-18919.419921875,-400000.0625,-5031.8701171875,-400000.0625
166.50463390350342,-400000.0625,-11730.669921875,-6340.35986328125,-400000.0625,-18907.359375,-400000.0625,-5018.43017578125,-400000.0625
166.52960300445557,-400000.0625,-11707.5,-6319.330078125,-400000.0625,-18890.099609375,-400000.0625,-4992.81982421875,-400000.0625
166.58409881591797,-400000.0625,-11711.3095703125,-6321.0,-400000.0625,-18891.619140625,-400000.0625,-4995.2001953125,-400000.0625
166.5975477695465,-400000.0625,-11734.8203125,-6338.97998046875,-400000.0625,-18909.5,-400000.0625,-5020.81005859375,-400000.0625
166.62419962882996,-400000.0625,-11734.25,-6336.5,-400000.0625,-18906.359375,-400000.0625,-5016.52001953125,-400000.0625
166.64898824691772,-400000.0625,-11709.830078125,-6319.3798828125,-400000.0625,-18887.51953125,-400000.0625,-4992.10009765625,-400000.0625
166.69486212730408,-400000.0625,-11695.099609375,-6307.5498046875,-400000.0625,-18873.0703125,-400000.0625,-4974.56005859375,-400000.0625
166.7116060256958,-400000.0625,-11706.5400390625,-6315.759765625,-400000.0625,-18883.900390625,-400000.0625,-4985.6201171875,-400000.0625
166.74499082565308,-400000.0625,-11743.8798828125,-6347.18017578125,-400000.0625,-18918.330078125,-400000.0625,-5021.6201171875,-400000.0625
166.76311993598938,-400000.0625,-11760.8095703125,-6360.39013671875,-400000.0625,-18928.05078125,-400000.0625,-5034.5,-400000.0625
166.81911516189575,-400000.0625,-11733.099609375,-6335.68994140625,-400000.0625,-18904.55078125,-400000.0625,-5006.22021484375,-400000.0625
166.83150839805603,-400000.0625,-11707.9296875,-6312.31982421875,-400000.0625,-18884.140625,-400000.0625,-4980.60986328125,-400000.0625
166.84551286697388,-400000.0625,-11720.1796875,-6323.6201171875,-400000.0625,-18889.669921875,-400000.0625,-4994.14990234375,-400000.0625
166.859459400177,-400000.0625,-11746.0703125,-6342.02978515625,-400000.0625,-18906.0703125,-400000.0625,-5022.240234375,-400000.0625
166.87933802604675,-400000.0625,-11750.1298828125,-6343.64990234375,-400000.0625,-18911.41015625,-400000.0625,-5026.81982421875,-400000.0625
166.92818593978882,-400000.0625,-11721.330078125,-6319.81005859375,-400000.0625,-18891.150390625,-400000.0625,-4998.10986328125,-400000.0625
166.94856023788452,-400000.0625,-11717.8896484375,-6317.22998046875,-400000.0625,-18886.279296875,-400000.0625,-4990.52978515625,-400000.0625
166.96165204048157,-400000.0625,-11732.8701171875,-6331.64013671875,-400000.0625,-18900.830078125,-400000.0625,-5003.7900390625,-400000.0625
166.98181700706482,-400000.0625,-11757.330078125,-6347.60986328125,-400000.0625,-18915.849609375,-400000.0625,-5028.77001953125,-400000.0625
167.0251588821411,-400000.0625,-11763.4296875,-6350.89990234375,-400000.0625,-18915.69921875,-400000.0625,-5030.009765625,-400000.0625
167.04789113998413,-400000.0625,-11735.2001953125,-6328.490234375,-400000.0625,-18894.91015625,-400000.0625,-5004.97998046875,-400000.0625
167.0672059059143,-400000.0625,-11718.080078125,-6313.52001953125,-400000.0625,-18882.80078125,-400000.0625,-4987.81005859375,-400000.0625
167.08779287338257,-400000.0625,-11727.3798828125,-6317.22998046875,-400000.0625,-18887.380859375,-400000.0625,-4999.58984375,-400000.0625
167.15906524658203,-400000.0625,-11756.900390625,-6344.75,-400000.0625,-18909.169921875,-400000.0625,-5029.77001953125,-400000.0625
167.17120814323425,-400000.0625,-11764.0498046875,-6351.0400390625,-400000.0625,-18919.1796875,-400000.0625,-5038.740234375,-400000.0625
167.19783115386963,-400000.0625,-11749.98046875,-6338.31005859375,-400000.0625,-18908.4609375,-400000.0625,-5021.0,-400000.0625
167.26051115989685,-400000.0625,-11731.33984375,-6320.10009765625,-400000.0625,-18887.810546875,-400000.0625,-4997.5400390625,-400000.0625
167.28602933883667,-400000.0625,-11732.8701171875,-6324.2001953125,-400000.0625,-18890.0,-400000.0625,-5003.259765625,-400000.0625
167.30439114570618,-400000.0625,-11760.669921875,-6346.7998046875,-400000.0625,-18908.220703125,-400000.0625,-5030.2998046875,-400000.0625
167.35371851921082,-400000.0625,-11768.2001953125,-6350.18017578125,-400000.0625,-18916.470703125,-400000.0625,-5039.8798828125,-400000.0625
167.36645770072937,-400000.0625,-11742.6904296875,-6325.009765625,-400000.0625,-18896.009765625,-400000.0625,-5013.85009765625,-400000.0625
167.386958360672,-400000.0625,-11714.509765625,-6300.830078125,-400000.0625,-18873.029296875,-400000.0625,-4985.14013671875,-400000.0625
167.40738725662231,-400000.0625,-11737.16015625,-6320.6201171875,-400000.0625,-18892.619140625,-400000.0625,-5006.89013671875,-400000.0625
167.46002745628357,-400000.0625,-11765.099609375,-6344.93994140625,-400000.0625,-18916.23046875,-400000.0625,-5031.72998046875,-400000.0625
167.47569751739502,-400000.0625,-11775.16015625,-6350.0400390625,-400000.0625,-18918.80078125,-400000.0625,-5040.35986328125,-400000.0625
167.49767088890076,-400000.0625,-11749.1298828125,-6328.81982421875,-400000.0625,-18897.580078125,-400000.0625,-5016.0400390625,-400000.0625
167.5100224018097,-400000.0625,-11721.419921875,-6304.83984375,-400000.0625,-18876.98046875,-400000.0625,-4993.2998046875,-400000.0625
167.5551474094391,-400000.0625,-11736.73046875,-6316.22998046875,-400000.0625,-18887.619140625,-400000.0625,-5003.8798828125,-400000.0625
167.5715103149414,-400000.0625,-11773.400390625,-6347.60986328125,-400000.0625,-18917.08984375,-400000.0625,-5039.5498046875,-400000.0625
167.58141803741455,-400000.0625,-11772.6796875,-6345.31982421875,-400000.0625,-18911.359375,-400000.0625,-5034.58984375,-400000.0625
167.59873914718628,-400000.0625,-11739.919921875,-6316.759765625,-400000.0625,-18880.849609375,-400000.0625,-5004.5498046875,-400000.0625
167.61377596855164,-400000.0625,-11731.009765625,-6309.080078125,-400000.0625,-18879.939453125,-400000.0625,-4996.43994140625,-400000.0625
167.6755406856537,-400000.0625,-11737.2001953125,-6315.9501953125,-400000.0625,-18890.4296875,-400000.0625,-5003.2099609375,-400000.0625
167.69493961334229,-400000.0625,-11771.73046875,-6345.85009765625,-400000.0625,-18914.029296875,-400000.0625,-5032.10986328125,-400000.0625
167.71229481697083,-400000.0625,-11787.6103515625,-6358.240234375,-400000.0625,-18925.759765625,-400000.0625,-5037.39990234375,-400000.0625
167.74159359931946,-400000.0625,-11769.3896484375,-6338.740234375,-400000.0625,-18910.650390625,-400000.0625,-5015.47021484375,-400000.0625
167.78217840194702,-400000.0625,-11747.4599609375,-6326.52978515625,-400000.0625,-18899.349609375,-400000.0625,-4994.10986328125,-400000.0625
167.80223608016968,-400000.0625,-11753.990234375,-6327.9599609375,-400000.0625,-18898.060546875,-400000.0625,-5007.7001953125,-400000.0625
167.81494998931885,-400000.0625,-11766.2900390625,-6334.72998046875,-400000.0625,-18905.689453125,-400000.0625,-5039.93017578125,-400000.0625
167.83374786376953,-400000.0625,-11767.48046875,-6333.72998046875,-400000.0625,-18908.220703125,-400000.0625,-5047.419921875,-400000.0625
167.8524889945984,-400000.0625,-11749.8896484375,-6317.89990234375,-400000.0625,-18892.76953125,-400000.0625,-5036.39990234375,-400000.0625
167.89329648017883,-400000.0625,-11718.8896484375,-6289.81982421875,-400000.0625,-18869.9296875,-400000.0625,-5003.7900390625,-400000.0625
167.9111499786377,-400000.0625,-11737.58984375,-6303.4501953125,-400000.0625,-18884.140625,-400000.0625,-5020.18994140625,-400000.0625
167.93016362190247,-400000.0625,-11775.1103515625,-6337.68994140625,-400000.0625,-18913.220703125,-400000.0625,-5061.33984375,-400000.0625
167.94374322891235,-400000.0625,-11779.740234375,-6339.7900390625,-400000.0625,-18914.80078125,-400000.0625,-5065.43994140625,-400000.0625
167.96803522109985,-400000.0625,-11757.2802734375,-6321.759765625,-400000.0625,-18901.6796875,-400000.0625,-5040.06982421875,-400000.0625
168.00901818275452,-400000.0625,-11735.2998046875,-6300.77978515625,-400000.0625,-18881.1796875,-400000.0625,-5015.330078125,-400000.0625
168.02871346473694,-400000.0625,-11755.6103515625,-6315.759765625,-400000.0625,-18894.05078125,-400000.0625,-5032.10986328125,-400000.0625
168.0510778427124,-400000.0625,-11786.1796875,-6339.41015625,-400000.0625,-18908.98046875,-400000.0625,-5055.759765625,-400000.0625
168.06655502319336,-400000.0625,-11787.4599609375,-6343.080078125,-400000.0625,-18913.220703125,-400000.0625,-5054.669921875,-400000.0625
168.0895175933838,-400000.0625,-11765.3896484375,-6327.68017578125,-400000.0625,-18898.6796875,-400000.0625,-5042.1201171875,-400000.0625
168.15535378456116,-400000.0625,-11750.5595703125,-6312.18017578125,-400000.0625,-18889.619140625,-400000.0625,-5029.43994140625,-400000.0625
168.17785000801086,-400000.0625,-11761.9501953125,-6316.52001953125,-400000.0625,-18894.869140625,-400000.0625,-5039.31005859375,-400000.0625
168.20085263252258,-400000.0625,-11788.8896484375,-6343.89013671875,-400000.0625,-18917.3203125,-400000.0625,-5063.43994140625,-400000.0625
168.25679326057434,-400000.0625,-11794.2802734375,-6346.27001953125,-400000.0625,-18914.75,-400000.0625,-5062.52978515625,-400000.0625
168.26766347885132,-400000.0625,-11776.6396484375,-6329.919921875,-400000.0625,-18899.060546875,-400000.0625,-5042.83984375,-400000.0625
168.29257464408875,-400000.0625,-11758.330078125,-6314.52001953125,-400000.0625,-18892.76953125,-400000.0625,-5020.47998046875,-400000.0625
168.3075966835022,-400000.0625,-11763.6201171875,-6314.22998046875,-400000.0625,-18892.0,-400000.0625,-5025.240234375,-400000.0625
168.35898613929749,-400000.0625,-11782.98046875,-6331.97021484375,-400000.0625,-18903.349609375,-400000.0625,-5046.89013671875,-400000.0625
168.3748917579651,-400000.0625,-11799.3798828125,-6346.1298828125,-400000.0625,-18917.51953125,-400000.0625,-5061.009765625,-400000.0625
168.39634823799133,-400000.0625,-11781.1201171875,-6329.5400390625,-400000.0625,-18903.830078125,-400000.0625,-5042.41015625,-400000.0625
168.41254138946533,-400000.0625,-11753.7998046875,-6306.60009765625,-400000.0625,-18881.279296875,-400000.0625,-5014.89990234375,-400000.0625
168.45025277137756,-400000.0625,-11765.0,-6314.22998046875,-400000.0625,-18893.150390625,-400000.0625,-5026.39013671875,-400000.0625
168.4674427509308,-400000.0625,-11796.669921875,-6340.1201171875,-400000.0625,-18918.900390625,-400000.0625,-5055.7099609375,-400000.0625
168.48585057258606,-400000.0625,-11803.099609375,-6343.990234375,-400000.0625,-18916.509765625,-400000.0625,-5056.56982421875,-400000.0625
168.5000102519989,-400000.0625,-11770.25,-6314.18017578125,-400000.0625,-18892.9609375,-400000.0625,-5030.2998046875,-400000.0625
168.51514983177185,-400000.0625,-11748.26953125,-6291.91015625,-400000.0625,-18876.169921875,-400000.0625,-5006.35986328125,-400000.0625
168.55962681770325,-400000.0625,-11774.6396484375,-6316.330078125,-400000.0625,-18891.240234375,-400000.0625,-5028.06005859375,-400000.0625
168.5707015991211,-400000.0625,-11808.58984375,-6347.89990234375,-400000.0625,-18915.80078125,-400000.0625,-5067.490234375,-400000.0625
168.59101104736328,-400000.0625,-11811.6904296875,-6347.56005859375,-400000.0625,-18918.94921875,-400000.0625,-5068.77978515625,-400000.0625
168.60728216171265,-400000.0625,-11784.3603515625,-6321.14013671875,-400000.0625,-18896.060546875,-400000.0625,-5037.97998046875,-400000.0625
168.62304615974426,-400000.0625,-11769.5302734375,-6306.4599609375,-400000.0625,-18882.470703125,-400000.0625,-5023.10009765625,-400000.0625
168.66103172302246,-400000.0625,-11789.23046875,-6322.2900390625,-400000.0625,-18896.19921875,-400000.0625,-5037.64013671875,-400000.0625
168.67598819732666,-400000.0625,-11811.6904296875,-6344.080078125,-400000.0625,-18913.890625,-400000.0625,-5065.25,-400000.0625
168.6940085887909,-400000.0625,-11811.3095703125,-6341.64990234375,-400000.0625,-18908.119140625,-400000.0625,-5062.8701171875,-400000.0625
168.7083683013916,-400000.0625,-11794.3798828125,-6325.9599609375,-400000.0625,-18896.060546875,-400000.0625,-5043.4599609375,-400000.0625
168.73948001861572,-400000.0625,-11778.740234375,-6314.85009765625,-400000.0625,-18887.619140625,-400000.0625,-5027.77001953125,-400000.0625
168.78567695617676,-400000.0625,-11792.849609375,-6322.580078125,-400000.0625,-18896.9609375,-400000.0625,-5033.8798828125,-400000.0625
168.80467247962952,-400000.0625,-11814.6396484375,-6341.169921875,-400000.0625,-18910.890625,-400000.0625,-5058.6201171875,-400000.0625
168.81700158119202,-400000.0625,-11830.8603515625,-6353.0,-400000.0625,-18924.859375,-400000.0625,-5070.8798828125,-400000.0625
168.83629941940308,-400000.0625,-11810.830078125,-6334.77978515625,-400000.0625,-18903.970703125,-400000.0625,-5052.52001953125,-400000.0625
168.85825562477112,-400000.0625,-11793.7099609375,-6319.81005859375,-400000.0625,-18888.7109375,-400000.0625,-5033.68017578125,-400000.0625
168.89645051956177,-400000.0625,-11801.91015625,-6326.2900390625,-400000.0625,-18899.779296875,-400000.0625,-5043.4599609375,-400000.0625
168.91378211975098,-400000.0625,-11830.669921875,-6348.85009765625,-400000.0625,-18917.990234375,-400000.0625,-5073.35986328125,-400000.0625
168.9306514263153,-400000.0625,-11833.7197265625,-6349.89990234375,-400000.0625,-18917.51953125,-400000.0625,-5074.31005859375,-400000.0625
168.94900918006897,-400000.0625,-11813.58984375,-6332.58984375,-400000.0625,-18904.44921875,-400000.0625,-5055.43017578125,-400000.0625
168.96425104141235,-400000.0625,-11799.3798828125,-6318.56982421875,-400000.0625,-18894.48046875,-400000.0625,-5038.2099609375,-400000.0625
169.0074429512024,-400000.0625,-11809.2998046875,-6325.81982421875,-400000.0625,-18899.30078125,-400000.0625,-5049.1298828125,-400000.0625
169.0210702419281,-400000.0625,-11836.2001953125,-6349.759765625,-400000.0625,-18921.23046875,-400000.0625,-5075.5,-400000.0625
169.04091453552246,-400000.0625,-11840.580078125,-6353.89990234375,-400000.0625,-18923.279296875,-400000.0625,-5079.509765625,-400000.0625
169.0590181350708,-400000.0625,-11816.2197265625,-6331.02001953125,-400000.0625,-18900.640625,-400000.0625,-5050.60986328125,-400000.0625
169.0824384689331,-400000.0625,-11786.41015625,-6305.93017578125,-400000.0625,-18876.359375,-400000.0625,-5021.2900390625,-400000.0625
169.12125253677368,-400000.0625,-11794.23046875,-6308.509765625,-400000.0625,-18882.66015625,-400000.0625,-5030.81982421875,-400000.0625
169.14345002174377,-400000.0625,-11837.25,-6347.990234375,-400000.0625,-18919.51953125,-400000.0625,-5069.830078125,-400000.0625
169.16238522529602,-400000.0625,-11847.6904296875,-6357.0498046875,-400000.0625,-18924.720703125,-400000.0625,-5080.75,-400000.0625
169.17304730415344,-400000.0625,-11815.599609375,-6327.2001953125,-400000.0625,-18897.9609375,-400000.0625,-5047.3701171875,-400000.0625
169.18939089775085,-400000.0625,-11801.8203125,-6313.89990234375,-400000.0625,-18890.4296875,-400000.0625,-5030.35009765625,-400000.0625
169.22875428199768,-400000.0625,-11814.5498046875,-6325.580078125,-400000.0625,-18897.009765625,-400000.0625,-5043.080078125,-400000.0625
169.24227499961853,-400000.0625,-11839.1103515625,-6342.75,-400000.0625,-18913.029296875,-400000.0625,-5067.10986328125,-400000.0625
169.2619161605835,-400000.0625,-11849.830078125,-6351.27978515625,-400000.0625,-18923.140625,-400000.0625,-5073.97998046875,-400000.0625
169.27875232696533,-400000.0625,-11822.990234375,-6328.39013671875,-400000.0625,-18904.640625,-400000.0625,-5046.64990234375,-400000.0625
169.29815220832825,-400000.0625,-11807.349609375,-6316.0,-400000.0625,-18889.0,-400000.0625,-5027.580078125,-400000.0625
169.4094672203064,-400000.0625,-11828.0400390625,-6336.740234375,-400000.0625,-18898.779296875,-400000.0625,-5048.93994140625,-400000.0625
169.45734548568726,-400000.0625,-11861.419921875,-6362.2001953125,-400000.0625,-18928.4296875,-400000.0625,-5078.4599609375,-400000.0625
169.47192335128784,-400000.0625,-11859.4697265625,-6357.52978515625,-400000.0625,-18926.33984375,-400000.0625,-5080.89013671875,-400000.0625
169.48667883872986,-400000.0625,-11832.7197265625,-6328.77001953125,-400000.0625,-18901.6796875,-400000.0625,-5051.18017578125,-400000.0625
169.50727891921997,-400000.0625,-11810.259765625,-6309.22021484375,-400000.0625,-18882.80078125,-400000.0625,-5023.77001953125,-400000.0625
169.54949712753296,-400000.0625,-11825.6103515625,-6329.39013671875,-400000.0625,-18902.73046875,-400000.0625,-5041.5,-400000.0625
169.58902502059937,-400000.0625,-11860.66015625,-6359.14990234375,-400000.0625,-18923.4296875,-400000.0625,-5070.39990234375,-400000.0625
169.60707426071167,-400000.0625,-11867.5703125,-6354.81005859375,-400000.0625,-18920.419921875,-400000.0625,-5069.16015625,-400000.0625
169.64956545829773,-400000.0625,-11835.33984375,-6326.8701171875,-400000.0625,-18895.580078125,-400000.0625,-5041.64990234375,-400000.0625
169.6899116039276,-400000.0625,-11815.01953125,-6310.990234375,-400000.0625,-18880.26953125,-400000.0625,-5020.85986328125,-400000.0625
169.7141547203064,-400000.0625,-11840.8701171875,-6332.35009765625,-400000.0625,-18901.640625,-400000.0625,-5043.41015625,-400000.0625
169.74627232551575,-400000.0625,-11876.2998046875,-6363.2001953125,-400000.0625,-18931.8203125,-400000.0625,-5077.7001953125,-400000.0625
169.75802898406982,-400000.0625,-11874.6796875,-6362.8701171875,-400000.0625,-18934.630859375,-400000.0625,-5079.75,-400000.0625
169.8252317905426,-400000.0625,-11839.150390625,-6327.81982421875,-400000.0625,-18903.5390625,-400000.0625,-5047.0400390625,-400000.0625
169.84245467185974,-400000.0625,-11818.5498046875,-6307.22021484375,-400000.0625,-18882.130859375,-400000.0625,-5025.9599609375,-400000.0625
169.85849857330322,-400000.0625,-11840.580078125,-6329.81982421875,-400000.0625,-18903.2109375,-400000.0625,-5046.89013671875,-400000.0625
169.94853591918945,-400000.0625,-11875.8701171875,-6357.240234375,-400000.0625,-18921.51953125,-400000.0625,-5075.4599609375,-400000.0625
169.9723150730133,-400000.0625,-11878.7802734375,-6358.52978515625,-400000.0625,-18922.619140625,-400000.0625,-5075.31005859375,-400000.0625
170.0216932296753,-400000.0625,-11857.080078125,-6340.7001953125,-400000.0625,-18910.650390625,-400000.0625,-5050.759765625,-400000.0625
170.0501024723053,-400000.0625,-11833.2900390625,-6321.18994140625,-400000.0625,-18895.439453125,-400000.0625,-5030.490234375,-400000.0625
170.07511043548584,-400000.0625,-11842.0595703125,-6326.43994140625,-400000.0625,-18896.25,-400000.0625,-5036.16015625,-400000.0625
170.13143038749695,-400000.0625,-11874.7197265625,-6353.7099609375,-400000.0625,-18923.48046875,-400000.0625,-5065.77978515625,-400000.0625
170.1640863418579,-400000.0625,-11888.1201171875,-6362.2998046875,-400000.0625,-18928.05078125,-400000.0625,-5074.8798828125,-400000.0625
170.19324278831482,-400000.0625,-11859.6103515625,-6333.77978515625,-400000.0625,-18905.640625,-400000.0625,-5047.18017578125,-400000.0625
170.2631061077118,-400000.0625,-11846.7802734375,-6324.14990234375,-400000.0625,-18899.060546875,-400000.0625,-5033.35009765625,-400000.0625
170.27940607070923,-400000.0625,-11861.6103515625,-6337.2099609375,-400000.0625,-18909.69921875,-400000.0625,-5048.56005859375,-400000.0625
170.29018092155457,-400000.0625,-11883.5498046875,-6355.330078125,-400000.0625,-18921.23046875,-400000.0625,-5070.72998046875,-400000.0625
170.31414437294006,-400000.0625,-11884.8798828125,-6355.18994140625,-400000.0625,-18916.609375,-400000.0625,-5070.4501953125,-400000.0625
170.35423278808594,-400000.0625,-11861.6103515625,-6335.5498046875,-400000.0625,-18903.9296875,-400000.0625,-5050.27978515625,-400000.0625
170.37566566467285,-400000.0625,-11848.5498046875,-6324.2001953125,-400000.0625,-18899.439453125,-400000.0625,-5034.2099609375,-400000.0625
170.41549134254456,-400000.0625,-11857.650390625,-6330.490234375,-400000.0625,-18905.44921875,-400000.0625,-5043.60009765625,-400000.0625
170.47585654258728,-400000.0625,-11883.8798828125,-6351.08984375,-400000.0625,-18917.66015625,-400000.0625,-5070.02001953125,-400000.0625
170.4961862564087,-400000.0625,-11893.3203125,-6358.580078125,-400000.0625,-18925.91015625,-400000.0625,-5079.02978515625,-400000.0625
170.51297187805176,-400000.0625,-11868.91015625,-6335.77978515625,-400000.0625,-18909.650390625,-400000.0625,-5052.27978515625,-400000.0625
170.5223536491394,-400000.0625,-11841.25,-6311.3701171875,-400000.0625,-18890.529296875,-400000.0625,-5026.52978515625,-400000.0625
170.55633974075317,-400000.0625,-11868.1904296875,-6334.31005859375,-400000.0625,-18908.4609375,-400000.0625,-5048.22998046875,-400000.0625
170.57115197181702,-400000.0625,-11897.990234375,-6361.81982421875,-400000.0625,-18926.580078125,-400000.0625,-5080.41015625,-400000.0625
170.58807945251465,-400000.0625,-11901.5703125,-6363.81982421875,-400000.0625,-18929.91015625,-400000.0625,-5084.27978515625,-400000.0625
170.60754418373108,-400000.0625,-11875.1103515625,-6338.68994140625,-400000.0625,-18903.44921875,-400000.0625,-5057.240234375,-400000.0625
170.61955451965332,-400000.0625,-11854.75,-6316.52001953125,-400000.0625,-18887.810546875,-400000.0625,-5038.5498046875,-400000.0625
170.62917256355286,-400000.0625,-11863.51953125,-6324.10009765625,-400000.0625,-18898.490234375,-400000.0625,-5042.64990234375,-400000.0625
170.6700747013092,-400000.0625,-11883.5,-6343.56005859375,-400000.0625,-18908.689453125,-400000.0625,-5067.97021484375,-400000.0625
170.68371748924255,-400000.0625,-11901.51953125,-6359.6298828125,-400000.0625,-18919.0390625,-400000.0625,-5081.509765625,-400000.0625
170.69347500801086,-400000.0625,-11883.4501953125,-6340.93017578125,-400000.0625,-18906.640625,-400000.0625,-5060.39013671875,-400000.0625
170.71977019309998,-400000.0625,-11858.8896484375,-6319.52001953125,-400000.0625,-18891.669921875,-400000.0625,-5037.39990234375,-400000.0625
170.7348940372467,-400000.0625,-11877.400390625,-6332.02001953125,-400000.0625,-18903.779296875,-400000.0625,-5052.14013671875,-400000.0625
170.78789067268372,-400000.0625,-11906.099609375,-6355.72021484375,-400000.0625,-18920.51953125,-400000.0625,-5085.7998046875,-400000.0625
170.80315256118774,-400000.0625,-11910.2998046875,-6356.10009765625,-400000.0625,-18924.099609375,-400000.0625,-5086.47021484375,-400000.0625
170.81828045845032,-400000.0625,-11883.740234375,-6333.8798828125,-400000.0625,-18906.880859375,-400000.0625,-5057.18994140625,-400000.0625
170.82747340202332,-400000.0625,-11868.4296875,-6322.3798828125,-400000.0625,-18894.580078125,-400000.0625,-5037.830078125,-400000.0625
170.85203313827515,-400000.0625,-11883.5498046875,-6334.68994140625,-400000.0625,-18909.220703125,-400000.0625,-5055.85986328125,-400000.0625
170.8920865058899,-400000.0625,-11899.8095703125,-6346.60986328125,-400000.0625,-18915.3203125,-400000.0625,-5077.22021484375,-400000.0625
170.92654967308044,-400000.0625,-11909.2001953125,-6350.990234375,-400000.0625,-18913.83984375,-400000.0625,-5078.27001953125,-400000.0625
170.95883512496948,-400000.0625,-11883.3095703125,-6326.14990234375,-400000.0625,-18902.16015625,-400000.0625,-5053.47021484375,-400000.0625
171.0268430709839,-400000.0625,-11864.1904296875,-6312.7001953125,-400000.0625,-18892.619140625,-400000.0625,-5037.740234375,-400000.0625
171.06423354148865,-400000.0625,-11895.0400390625,-6341.7001953125,-400000.0625,-18914.83984375,-400000.0625,-5062.06005859375,-400000.0625
171.15919184684753,-400000.0625,-11928.509765625,-6368.4501953125,-400000.0625,-18936.640625,-400000.0625,-5091.2900390625,-400000.0625
171.21062636375427,-400000.0625,-11923.740234375,-6363.10986328125,-400000.0625,-18926.810546875,-400000.0625,-5091.52001953125,-400000.0625
171.29407334327698,-400000.0625,-11890.650390625,-6332.490234375,-400000.0625,-18902.16015625,-400000.0625,-5055.52001953125,-400000.0625
171.32403016090393,-400000.0625,-11867.8095703125,-6305.7900390625,-400000.0625,-18882.80078125,-400000.0625,-5026.0498046875,-400000.0625
171.39335799217224,-400000.0625,-11885.98046875,-6323.2900390625,-400000.0625,-18901.30078125,-400000.0625,-5039.169921875,-400000.0625
171.43350839614868,-400000.0625,-11914.4501953125,-6355.43017578125,-400000.0625,-18929.150390625,-400000.0625,-5074.740234375,-400000.0625
171.51484298706055,-400000.0625,-11911.8203125,-6349.85009765625,-400000.0625,-18918.140625,-400000.0625,-5092.9599609375,-400000.0625
171.5492172241211,-400000.0625,-11883.830078125,-6323.43017578125,-400000.0625,-18898.580078125,-400000.0625,-5076.4599609375,-400000.0625
171.61529898643494,-400000.0625,-11874.76953125,-6313.0400390625,-400000.0625,-18888.900390625,-400000.0625,-5068.10986328125,-400000.0625
171.64424085617065,-400000.0625,-11889.0302734375,-6325.009765625,-400000.0625,-18900.30078125,-400000.0625,-5082.66015625,-400000.0625
171.66881895065308,-400000.0625,-11908.33984375,-6340.93017578125,-400000.0625,-18913.220703125,-400000.0625,-5105.06982421875,-400000.0625
171.73916101455688,-400000.0625,-11902.51953125,-6333.2998046875,-400000.0625,-18912.029296875,-400000.0625,-5103.8701171875,-400000.0625
171.76402592658997,-400000.0625,-11877.919921875,-6310.56005859375,-400000.0625,-18897.439453125,-400000.0625,-5082.60986328125,-400000.0625
171.79239797592163,-400000.0625,-11874.490234375,-6305.7900390625,-400000.0625,-18893.48046875,-400000.0625,-5071.4501953125,-400000.0625
171.85873174667358,-400000.0625,-11884.740234375,-6315.18017578125,-400000.0625,-18893.580078125,-400000.0625,-5080.27001953125,-400000.0625
171.8758053779602,-400000.0625,-11911.2998046875,-6337.1201171875,-400000.0625,-18910.740234375,-400000.0625,-5107.93017578125,-400000.0625
171.88660836219788,-400000.0625,-11926.509765625,-6348.31982421875,-400000.0625,-18921.94921875,-400000.0625,-5114.990234375,-400000.0625
171.8964500427246,-400000.0625,-11897.66015625,-6321.240234375,-400000.0625,-18900.58984375,-400000.0625,-5088.3798828125,-400000.0625
171.93039345741272,-400000.0625,-11878.2099609375,-6303.97998046875,-400000.0625,-18886.66015625,-400000.0625,-5073.02001953125,-400000.0625
171.94322896003723,-400000.0625,-11894.4697265625,-6315.56982421875,-400000.0625,-18896.73046875,-400000.0625,-5089.81005859375,-400000.0625
171.95741653442383,-400000.0625,-11918.3095703125,-6334.5,-400000.0625,-18913.130859375,-400000.0625,-5110.83984375,-400000.0625
171.97614693641663,-400000.0625,-11929.7998046875,-6349.56005859375,-400000.0625,-18924.2890625,-400000.0625,-5118.509765625,-400000.0625
171.98869013786316,-400000.0625,-11910.009765625,-6327.490234375,-400000.0625,-18912.3203125,-400000.0625,-5095.2900390625,-400000.0625
171.99986696243286,-400000.0625,-11883.1201171875,-6304.02978515625,-400000.0625,-18887.189453125,-400000.0625,-5074.169921875,-400000.0625
172.033549785614,-400000.0625,-11892.990234375,-6313.56005859375,-400000.0625,-18892.859375,-400000.0625,-5083.75,-400000.0625
172.05293560028076,-400000.0625,-11922.2197265625,-6337.60009765625,-400000.0625,-18912.75,-400000.0625,-5112.22021484375,-400000.0625
172.0696017742157,-400000.0625,-11930.0400390625,-6343.56005859375,-400000.0625,-18919.80078125,-400000.0625,-5120.18017578125,-400000.0625
172.08634686470032,-400000.0625,-11911.580078125,-6327.009765625,-400000.0625,-18904.259765625,-400000.0625,-5102.5400390625,-400000.0625
172.1010444164276,-400000.0625,-11895.4697265625,-6309.60986328125,-400000.0625,-18886.4296875,-400000.0625,-5081.7001953125,-400000.0625
172.13840532302856,-400000.0625,-11915.73046875,-6324.39013671875,-400000.0625,-18899.490234375,-400000.0625,-5095.33984375,-400000.0625
172.15859127044678,-400000.0625,-11937.7197265625,-6342.89013671875,-400000.0625,-18915.990234375,-400000.0625,-5118.22998046875,-400000.0625
172.19122314453125,-400000.0625,-11939.5302734375,-6343.89013671875,-400000.0625,-18914.69921875,-400000.0625,-5119.1298828125,-400000.0625
172.21848273277283,-400000.0625,-11918.98046875,-6321.52978515625,-400000.0625,-18901.349609375,-400000.0625,-5094.240234375,-400000.0625
172.286208152771,-400000.0625,-11895.75,-6299.58984375,-400000.0625,-18882.369140625,-400000.0625,-5074.7900390625,-400000.0625
172.305424451828,-400000.0625,-11910.6796875,-6311.990234375,-400000.0625,-18890.33984375,-400000.0625,-5090.85986328125,-400000.0625
172.32172417640686,-400000.0625,-11957.6904296875,-6353.81005859375,-400000.0625,-18928.009765625,-400000.0625,-5131.2001953125,-400000.0625
172.38811326026917,-400000.0625,-11964.990234375,-6360.25,-400000.0625,-18935.779296875,-400000.0625,-5136.35009765625,-400000.0625
172.42592406272888,-400000.0625,-11927.8896484375,-6325.91015625,-400000.0625,-18901.2109375,-400000.0625,-5100.5400390625,-400000.0625
172.4994249343872,-400000.0625,-11911.580078125,-6310.1298828125,-400000.0625,-18884.900390625,-400000.0625,-5081.02978515625,-400000.0625
172.53379249572754,-400000.0625,-11932.66015625,-6325.77001953125,-400000.0625,-18900.58984375,-400000.0625,-5097.68017578125,-400000.0625
172.61895632743835,-400000.0625,-11961.0302734375,-6346.93994140625,-400000.0625,-18917.939453125,-400000.0625,-5125.759765625,-400000.0625
172.65580654144287,-400000.0625,-11959.26953125,-6343.31982421875,-400000.0625,-18918.140625,-400000.0625,-5123.759765625,-400000.0625
172.74159502983093,-400000.0625,-11937.4296875,-6325.81982421875,-400000.0625,-18899.490234375,-400000.0625,-5103.5400390625,-400000.0625
172.76607728004456,-400000.0625,-11933.5703125,-6321.6201171875,-400000.0625,-18898.580078125,-400000.0625,-5097.52978515625,-400000.0625
172.87314295768738,-400000.0625,-11942.76953125,-6328.6298828125,-400000.0625,-18907.5,-400000.0625,-5106.64013671875,-400000.0625
172.9461431503296,-400000.0625,-11965.6103515625,-6345.31982421875,-400000.0625,-18922.380859375,-400000.0625,-5128.77001953125,-400000.0625
172.97266507148743,-400000.0625,-11964.080078125,-6343.89013671875,-400000.0625,-18916.990234375,-400000.0625,-5133.33984375,-400000.0625
173.00596141815186,-400000.0625,-11943.009765625,-6323.47998046875,-400000.0625,-18895.25,-400000.0625,-5107.02001953125,-400000.0625
173.1025733947754,-400000.0625,-11934.23046875,-6316.60986328125,-400000.0625,-18890.48046875,-400000.0625,-5094.10009765625,-400000.0625
173.15034008026123,-400000.0625,-11958.7900390625,-6337.830078125,-400000.0625,-18913.029296875,-400000.0625,-5115.7998046875,-400000.0625
173.20459127426147,-400000.0625,-11987.740234375,-6361.2900390625,-400000.0625,-18928.859375,-400000.0625,-5145.4599609375,-400000.0625
173.23025465011597,-400000.0625,-11977.009765625,-6348.7099609375,-400000.0625,-18911.359375,-400000.0625,-5134.72998046875,-400000.0625
173.2414150238037,-400000.0625,-11946.2001953125,-6322.0,-400000.0625,-18891.859375,-400000.0625,-5105.10986328125,-400000.0625
173.26423168182373,-400000.0625,-11933.6103515625,-6308.89013671875,-400000.0625,-18893.009765625,-400000.0625,-5094.85986328125,-400000.0625
173.32062482833862,-400000.0625,-11950.5400390625,-6321.9599609375,-400000.0625,-18901.400390625,-400000.0625,-5112.7900390625,-400000.0625
173.34778118133545,-400000.0625,-11985.7802734375,-6352.7099609375,-400000.0625,-18929.2890625,-400000.0625,-5149.93994140625,-400000.0625
173.37647676467896,-400000.0625,-11993.0302734375,-6357.77001953125,-400000.0625,-18925.859375,-400000.0625,-5157.419921875,-400000.0625
173.43572449684143,-400000.0625,-11958.7001953125,-6324.9599609375,-400000.0625,-18898.109375,-400000.0625,-5119.75,-400000.0625
173.4663791656494,-400000.0625,-11934.9501953125,-6304.22021484375,-400000.0625,-18888.189453125,-400000.0625,-5099.10986328125,-400000.0625
173.50684094429016,-400000.0625,-11940.9599609375,-6308.080078125,-400000.0625,-18890.810546875,-400000.0625,-5108.35986328125,-400000.0625
173.5897274017334,-400000.0625,-11962.83984375,-6328.009765625,-400000.0625,-18904.119140625,-400000.0625,-5131.14990234375,-400000.0625
173.61734795570374,-400000.0625,-11977.240234375,-6337.830078125,-400000.0625,-18908.029296875,-400000.0625,-5142.77978515625,-400000.0625
173.68376111984253,-400000.0625,-11971.08984375,-6331.43994140625,-400000.0625,-18905.119140625,-400000.0625,-5133.10009765625,-400000.0625
173.70278143882751,-400000.0625,-11944.8203125,-6305.5,-400000.0625,-18892.669921875,-400000.0625,-5105.77978515625,-400000.0625
173.73263669013977,-400000.0625,-11965.75,-6317.330078125,-400000.0625,-18896.25,-400000.0625,-5122.3798828125,-400000.0625
173.7953805923462,-400000.0625,-11998.23046875,-6344.27001953125,-400000.0625,-18920.849609375,-400000.0625,-5151.83984375,-400000.0625
173.81187176704407,-400000.0625,-11993.7001953125,-6343.93994140625,-400000.0625,-18920.279296875,-400000.0625,-5153.75,-400000.0625
173.82797741889954,-400000.0625,-11967.419921875,-6317.56982421875,-400000.0625,-18896.919921875,-400000.0625,-5129.0,-400000.0625
173.8459131717682,-400000.0625,-11951.8798828125,-6287.0498046875,-400000.0625,-18873.55078125,-400000.0625,-5097.490234375,-400000.0625
173.8882486820221,-400000.0625,-11972.6201171875,-6306.080078125,-400000.0625,-18887.08984375,-400000.0625,-5113.509765625,-400000.0625
173.90690350532532,-400000.0625,-12015.2998046875,-6335.4501953125,-400000.0625,-18912.560546875,-400000.0625,-5148.97998046875,-400000.0625
173.91854095458984,-400000.0625,-12020.4501953125,-6329.39013671875,-400000.0625,-18909.69921875,-400000.0625,-5140.93017578125,-400000.0625
173.94143390655518,-400000.0625,-11989.5498046875,-6311.85009765625,-400000.0625,-18886.279296875,-400000.0625,-5119.22998046875,-400000.0625
173.9603168964386,-400000.0625,-11980.150390625,-6309.7001953125,-400000.0625,-18875.4609375,-400000.0625,-5103.16015625,-400000.0625
174.01080203056335,-400000.0625,-11984.25,-6310.419921875,-400000.0625,-18871.119140625,-400000.0625,-5095.39013671875,-400000.0625
174.02648091316223,-400000.0625,-12016.73046875,-6349.3701171875,-400000.0625,-18887.279296875,-400000.0625,-5135.43994140625,-400000.0625
174.04519081115723,-400000.0625,-12037.7998046875,-6361.91015625,-400000.0625,-18889.330078125,-400000.0625,-5133.10009765625,-400000.0625
174.05964517593384,-400000.0625,-12009.240234375,-6349.47021484375,-400000.0625,-18864.869140625,-400000.0625,-5116.7998046875,-400000.0625
174.07662081718445,-400000.0625,-12003.4697265625,-6347.93994140625,-400000.0625,-18841.359375,-400000.0625,-5099.72998046875,-400000.0625
174.12699961662292,-400000.0625,-12038.0400390625,-6351.14013671875,-400000.0625,-18826.76953125,-400000.0625,-5104.58984375,-400000.0625
174.13956880569458,-400000.0625,-12097.1201171875,-6392.52978515625,-400000.0625,-18839.83984375,-400000.0625,-5153.85009765625,-400000.0625
174.16145372390747,-400000.0625,-12131.5498046875,-6420.08984375,-400000.0625,-18839.9296875,-400000.0625,-5179.169921875,-400000.0625
174.17501878738403,-400000.0625,-12132.599609375,-6408.1201171875,-400000.0625,-18811.0390625,-400000.0625,-5162.0,-400000.0625
174.19680404663086,-400000.0625,-12136.8896484375,-6399.81982421875,-400000.0625,-18791.529296875,-400000.0625,-5149.41015625,-400000.0625
174.26560831069946,-400000.0625,-12164.8798828125,-6420.14013671875,-400000.0625,-18789.8203125,-400000.0625,-5162.81005859375,-400000.0625
174.2869851589203,-400000.0625,-12211.3701171875,-6453.990234375,-400000.0625,-18817.619140625,-400000.0625,-5193.66015625,-400000.0625
174.30180382728577,-400000.0625,-12240.509765625,-6475.16015625,-400000.0625,-18838.5,-400000.0625,-5217.35986328125,-400000.0625
174.36000657081604,-400000.0625,-12213.08984375,-6449.64990234375,-400000.0625,-18818.759765625,-400000.0625,-5198.77001953125,-400000.0625
174.37002635002136,-400000.0625,-12178.1796875,-6419.75,-400000.0625,-18799.970703125,-400000.0625,-5172.919921875,-400000.0625
174.39118242263794,-400000.0625,-12188.25,-6428.47998046875,-400000.0625,-18816.189453125,-400000.0625,-5192.0400390625,-400000.0625
174.409991979599,-400000.0625,-12205.080078125,-6441.97998046875,-400000.0625,-18837.5,-400000.0625,-5212.39990234375,-400000.0625
174.47068738937378,-400000.0625,-12195.400390625,-6435.68017578125,-400000.0625,-18840.599609375,-400000.0625,-5211.16015625,-400000.0625
174.49254059791565,-400000.0625,-12165.98046875,-6416.75,-400000.0625,-18839.83984375,-400000.0625,-5191.85009765625,-400000.0625
174.50691556930542,-400000.0625,-12137.5595703125,-6396.81982421875,-400000.0625,-18831.44921875,-400000.0625,-5175.919921875,-400000.0625
174.5318500995636,-400000.0625,-12139.75,-6401.72998046875,-400000.0625,-18839.080078125,-400000.0625,-5188.990234375,-400000.0625
174.58994793891907,-400000.0625,-12147.3798828125,-6414.41015625,-400000.0625,-18853.08984375,-400000.0625,-5208.68017578125,-400000.0625
174.6070876121521,-400000.0625,-12135.599609375,-6404.58984375,-400000.0625,-18855.33984375,-400000.0625,-5211.1201171875,-400000.0625
174.6278669834137,-400000.0625,-12102.509765625,-6374.31005859375,-400000.0625,-18843.609375,-400000.0625,-5186.89013671875,-400000.0625
174.64328026771545,-400000.0625,-12081.5302734375,-6357.2900390625,-400000.0625,-18834.349609375,-400000.0625,-5171.490234375,-400000.0625
174.70881175994873,-400000.0625,-12101.0302734375,-6377.31982421875,-400000.0625,-18865.58984375,-400000.0625,-5195.0498046875,-400000.0625
174.73688673973083,-400000.0625,-12120.4404296875,-6393.580078125,-400000.0625,-18891.05078125,-400000.0625,-5216.5498046875,-400000.0625
174.7652416229248,-400000.0625,-12096.4501953125,-6377.7900390625,-400000.0625,-18880.0390625,-400000.0625,-5201.580078125,-400000.0625
174.83196210861206,-400000.0625,-12063.7001953125,-6350.9501953125,-400000.0625,-18864.060546875,-400000.0625,-5174.5400390625,-400000.0625
174.8495123386383,-400000.0625,-12050.33984375,-6339.68994140625,-400000.0625,-18857.390625,-400000.0625,-5166.6298828125,-400000.0625
174.86825728416443,-400000.0625,-12065.26953125,-6355.14013671875,-400000.0625,-18869.01953125,-400000.0625,-5184.22021484375,-400000.0625
174.9373013973236,-400000.0625,-12093.740234375,-6381.509765625,-400000.0625,-18895.009765625,-400000.0625,-5217.35986328125,-400000.0625
174.95522952079773,-400000.0625,-12078.48046875,-6367.72998046875,-400000.0625,-18890.810546875,-400000.0625,-5210.2099609375,-400000.0625
174.98027110099792,-400000.0625,-12044.48046875,-6334.72998046875,-400000.0625,-18867.919921875,-400000.0625,-5178.97998046875,-400000.0625
175.05857849121094,-400000.0625,-12026.599609375,-6321.14013671875,-400000.0625,-18864.919921875,-400000.0625,-5165.10009765625,-400000.0625
175.08475303649902,-400000.0625,-12042.1396484375,-6334.35009765625,-400000.0625,-18883.51953125,-400000.0625,-5184.080078125,-400000.0625
175.16457295417786,-400000.0625,-12062.0703125,-6354.240234375,-400000.0625,-18892.33984375,-400000.0625,-5209.259765625,-400000.0625
175.1848623752594,-400000.0625,-12061.0302734375,-6354.669921875,-400000.0625,-18890.189453125,-400000.0625,-5209.39990234375,-400000.0625
175.28886008262634,-400000.0625,-12043.099609375,-6340.4599609375,-400000.0625,-18886.23046875,-400000.0625,-5189.3701171875,-400000.0625
175.38817429542542,-400000.0625,-12020.0595703125,-6319.9501953125,-400000.0625,-18871.880859375,-400000.0625,-5171.490234375,-400000.0625
175.43565344810486,-400000.0625,-12031.990234375,-6330.2001953125,-400000.0625,-18884.80078125,-400000.0625,-5189.22998046875,-400000.0625
175.52182006835938,-400000.0625,-12051.5400390625,-6342.89013671875,-400000.0625,-18901.25,-400000.0625,-5208.4501953125,-400000.0625
175.54769587516785,-400000.0625,-12042.669921875,-6335.06982421875,-400000.0625,-18896.19921875,-400000.0625,-5204.6298828125,-400000.0625
175.6160271167755,-400000.0625,-12012.669921875,-6308.990234375,-400000.0625,-18867.689453125,-400000.0625,-5175.06982421875,-400000.0625
175.6371328830719,-400000.0625,-12006.240234375,-6305.080078125,-400000.0625,-18862.490234375,-400000.0625,-5168.6298828125,-400000.0625
175.65363550186157,-400000.0625,-12032.3701171875,-6327.580078125,-400000.0625,-18893.8203125,-400000.0625,-5196.52001953125,-400000.0625
175.72552132606506,-400000.0625,-12058.0703125,-6345.93994140625,-400000.0625,-18920.51953125,-400000.0625,-5222.60986328125,-400000.0625
175.75531578063965,-400000.0625,-12063.0302734375,-6352.47021484375,-400000.0625,-18927.529296875,-400000.0625,-5229.56982421875,-400000.0625
175.81340289115906,-400000.0625,-12039.330078125,-6332.64013671875,-400000.0625,-18905.119140625,-400000.0625,-5211.64013671875,-400000.0625
175.8337721824646,-400000.0625,-12016.76953125,-6311.93994140625,-400000.0625,-18886.470703125,-400000.0625,-5188.419921875,-400000.0625
175.8557324409485,-400000.0625,-12024.3603515625,-6318.18994140625,-400000.0625,-18893.390625,-400000.0625,-5193.0,-400000.0625
175.9056260585785,-400000.0625,-12040.5703125,-6329.16015625,-400000.0625,-18895.8203125,-400000.0625,-5211.4501953125,-400000.0625
175.9271101951599,-400000.0625,-12049.33984375,-6336.2099609375,-400000.0625,-18897.919921875,-400000.0625,-5222.56005859375,-400000.0625
175.9419002532959,-400000.0625,-12037.08984375,-6327.68017578125,-400000.0625,-18897.869140625,-400000.0625,-5217.509765625,-400000.0625
175.96106719970703,-400000.0625,-12017.8203125,-6307.7001953125,-400000.0625,-18883.51953125,-400000.0625,-5194.14013671875,-400000.0625
176.03019285202026,-400000.0625,-12027.7900390625,-6313.7998046875,-400000.0625,-18892.9609375,-400000.0625,-5201.240234375,-400000.0625
176.04977297782898,-400000.0625,-12050.9599609375,-6332.2998046875,-400000.0625,-18910.650390625,-400000.0625,-5228.27978515625,-400000.0625
176.0704846382141,-400000.0625,-12047.580078125,-6327.43994140625,-400000.0625,-18905.119140625,-400000.0625,-5223.47021484375,-400000.0625
176.134046792984,-400000.0625,-12015.580078125,-6298.68994140625,-400000.0625,-18882.130859375,-400000.0625,-5189.89990234375,-400000.0625
176.1510934829712,-400000.0625,-12005.7099609375,-6287.2900390625,-400000.0625,-18874.9296875,-400000.0625,-5181.35986328125,-400000.0625
176.17701983451843,-400000.0625,-12014.6796875,-6293.14990234375,-400000.0625,-18877.890625,-400000.0625,-5190.85009765625,-400000.0625
176.23374700546265,-400000.0625,-12038.66015625,-6313.08984375,-400000.0625,-18890.2890625,-400000.0625,-5217.509765625,-400000.0625
176.25862050056458,-400000.0625,-12055.6796875,-6327.43994140625,-400000.0625,-18906.98046875,-400000.0625,-5236.580078125,-400000.0625
176.27231359481812,-400000.0625,-12037.6103515625,-6312.419921875,-400000.0625,-18899.349609375,-400000.0625,-5218.5498046875,-400000.0625
176.3007001876831,-400000.0625,-12010.8095703125,-6286.72021484375,-400000.0625,-18879.4609375,-400000.0625,-5196.47998046875,-400000.0625
176.37012600898743,-400000.0625,-12019.400390625,-6289.33984375,-400000.0625,-18885.419921875,-400000.0625,-5203.490234375,-400000.0625
176.38369798660278,-400000.0625,-12045.33984375,-6310.419921875,-400000.0625,-18903.830078125,-400000.0625,-5228.9501953125,-400000.0625
176.41067147254944,-400000.0625,-12049.580078125,-6313.990234375,-400000.0625,-18903.259765625,-400000.0625,-5225.85009765625,-400000.0625
176.46974873542786,-400000.0625,-12016.25,-6286.9599609375,-400000.0625,-18877.7890625,-400000.0625,-5196.3798828125,-400000.0625
176.49391651153564,-400000.0625,-11995.650390625,-6265.02001953125,-400000.0625,-18860.009765625,-400000.0625,-5175.35009765625,-400000.0625
176.51756381988525,-400000.0625,-12019.2099609375,-6292.009765625,-400000.0625,-18885.140625,-400000.0625,-5197.3798828125,-400000.0625
176.56419777870178,-400000.0625,-12053.16015625,-6322.0498046875,-400000.0625,-18906.7890625,-400000.0625,-5230.89990234375,-400000.0625
176.58794450759888,-400000.0625,-12062.41015625,-6322.47998046875,-400000.0625,-18914.419921875,-400000.0625,-5238.72021484375,-400000.0625
176.60114216804504,-400000.0625,-12031.7998046875,-6294.43994140625,-400000.0625,-18890.240234375,-400000.0625,-5212.16015625,-400000.0625
176.6183078289032,-400000.0625,-12009.5703125,-6273.83984375,-400000.0625,-18874.4609375,-400000.0625,-5185.7001953125,-400000.0625
176.6609218120575,-400000.0625,-12021.01953125,-6287.43017578125,-400000.0625,-18882.7109375,-400000.0625,-5200.77001953125,-400000.0625
176.67533016204834,-400000.0625,-12045.8095703125,-6306.02978515625,-400000.0625,-18899.109375,-400000.0625,-5221.990234375,-400000.0625
176.69302606582642,-400000.0625,-12050.4404296875,-6306.97998046875,-400000.0625,-18902.490234375,-400000.0625,-5226.60986328125,-400000.0625
176.70564150810242,-400000.0625,-12032.5595703125,-6292.68017578125,-400000.0625,-18889.240234375,-400000.0625,-5207.490234375,-400000.0625
176.72781896591187,-400000.0625,-12019.6796875,-6280.47021484375,-400000.0625,-18884.140625,-400000.0625,-5194.47021484375,-400000.0625
176.7736451625824,-400000.0625,-12036.1796875,-6292.6298828125,-400000.0625,-18898.16015625,-400000.0625,-5208.77978515625,-400000.0625
176.79732728004456,-400000.0625,-12064.169921875,-6315.08984375,-400000.0625,-18917.66015625,-400000.0625,-5232.56982421875,-400000.0625
176.81114888191223,-400000.0625,-12058.0703125,-6309.1298828125,-400000.0625,-18910.41015625,-400000.0625,-5234.33984375,-400000.0625
176.83738136291504,-400000.0625,-12041.9501953125,-6288.14990234375,-400000.0625,-18895.490234375,-400000.0625,-5213.06982421875,-400000.0625
176.88989567756653,-400000.0625,-12016.8203125,-6267.7900390625,-400000.0625,-18875.7890625,-400000.0625,-5182.080078125,-400000.0625
176.9083993434906,-400000.0625,-12019.9697265625,-6276.080078125,-400000.0625,-18873.880859375,-400000.0625,-5186.990234375,-400000.0625
176.93477535247803,-400000.0625,-12056.01953125,-6309.509765625,-400000.0625,-18904.16015625,-400000.0625,-5212.8798828125,-400000.0625
176.95228362083435,-400000.0625,-12071.849609375,-6319.0498046875,-400000.0625,-18912.220703125,-400000.0625,-5209.06982421875,-400000.0625
176.99400448799133,-400000.0625,-12056.7802734375,-6308.89013671875,-400000.0625,-18898.30078125,-400000.0625,-5189.75,-400000.0625
177.00526785850525,-400000.0625,-12034.8896484375,-6291.10009765625,-400000.0625,-18881.419921875,-400000.0625,-5162.9501953125,-400000.0625
177.0249364376068,-400000.0625,-12041.669921875,-6292.77001953125,-400000.0625,-18885.419921875,-400000.0625,-5164.580078125,-400000.0625
177.04090976715088,-400000.0625,-12064.740234375,-6316.52001953125,-400000.0625,-18908.9296875,-400000.0625,-5194.27978515625,-400000.0625
177.06074047088623,-400000.0625,-12064.509765625,-6317.18994140625,-400000.0625,-18910.83984375,-400000.0625,-5199.10009765625,-400000.0625
177.12222599983215,-400000.0625,-12037.23046875,-6291.6298828125,-400000.0625,-18887.669921875,-400000.0625,-5171.68017578125,-400000.0625
177.14122915267944,-400000.0625,-12032.1796875,-6289.33984375,-400000.0625,-18884.7109375,-400000.0625,-5160.89990234375,-400000.0625
177.15928673744202,-400000.0625,-12047.0498046875,-6305.7001953125,-400000.0625,-18893.099609375,-400000.0625,-5177.740234375,-400000.0625
177.17601609230042,-400000.0625,-12072.0400390625,-6328.5400390625,-400000.0625,-18911.69921875,-400000.0625,-5204.490234375,-400000.0625
177.2265486717224,-400000.0625,-12061.8798828125,-6311.47021484375,-400000.0625,-18898.19921875,-400000.0625,-5191.0400390625,-400000.0625
177.24672889709473,-400000.0625,-12030.080078125,-6282.14013671875,-400000.0625,-18871.5,-400000.0625,-5159.0400390625,-400000.0625
177.26648497581482,-400000.0625,-12020.8798828125,-6274.93994140625,-400000.0625,-18871.689453125,-400000.0625,-5150.509765625,-400000.0625
177.28218507766724,-400000.0625,-12042.0498046875,-6291.2001953125,-400000.0625,-18892.76953125,-400000.0625,-5165.91015625,-400000.0625
177.33023285865784,-400000.0625,-12069.1796875,-6313.7099609375,-400000.0625,-18909.55078125,-400000.0625,-5189.85009765625,-400000.0625
177.3447961807251,-400000.0625,-12077.7099609375,-6319.14013671875,-400000.0625,-18913.369140625,-400000.0625,-5199.9599609375,-400000.0625
177.3603973388672,-400000.0625,-12050.919921875,-6296.02001953125,-400000.0625,-18893.48046875,-400000.0625,-5176.1201171875,-400000.0625
177.39043068885803,-400000.0625,-12033.650390625,-6279.47021484375,-400000.0625,-18877.69921875,-400000.0625,-5154.47021484375,-400000.0625
177.50980949401855,-400000.0625,-12056.73046875,-6300.31005859375,-400000.0625,-18890.0,-400000.0625,-5175.31005859375,-400000.0625
177.57131361961365,-400000.0625,-12081.9599609375,-6322.10009765625,-400000.0625,-18911.939453125,-400000.0625,-5203.72021484375,-400000.0625
177.5965621471405,-400000.0625,-12068.5595703125,-6306.60009765625,-400000.0625,-18905.640625,-400000.0625,-5193.6201171875,-400000.0625
177.60978817939758,-400000.0625,-12038.66015625,-6279.419921875,-400000.0625,-18879.990234375,-400000.0625,-5162.47998046875,-400000.0625
177.65465307235718,-400000.0625,-12030.3203125,-6270.93017578125,-400000.0625,-18877.69921875,-400000.0625,-5154.85009765625,-400000.0625
177.70398473739624,-400000.0625,-12048.6298828125,-6281.18994140625,-400000.0625,-18888.51953125,-400000.0625,-5168.2998046875,-400000.0625
177.72727370262146,-400000.0625,-12087.349609375,-6317.6201171875,-400000.0625,-18913.3203125,-400000.0625,-5198.669921875,-400000.0625
177.76958513259888,-400000.0625,-12094.9296875,-6321.3798828125,-400000.0625,-18912.560546875,-400000.0625,-5208.5400390625,-400000.0625
177.81373357772827,-400000.0625,-12075.759765625,-6296.10986328125,-400000.0625,-18895.33984375,-400000.0625,-5182.60009765625,-400000.0625
177.83226609230042,-400000.0625,-12052.0595703125,-6281.14013671875,-400000.0625,-18886.0,-400000.0625,-5157.08984375,-400000.0625
177.85516095161438,-400000.0625,-12058.58984375,-6292.8701171875,-400000.0625,-18884.7109375,-400000.0625,-5164.33984375,-400000.0625
177.87609267234802,-400000.0625,-12082.580078125,-6310.22998046875,-400000.0625,-18898.439453125,-400000.0625,-5178.06982421875,-400000.0625
177.93945145606995,-400000.0625,-12100.5498046875,-6321.2900390625,-400000.0625,-18900.919921875,-400000.0625,-5180.740234375,-400000.0625
177.95272731781006,-400000.0625,-12079.2900390625,-6301.5,-400000.0625,-18886.0390625,-400000.0625,-5156.9501953125,-400000.0625
177.9685516357422,-400000.0625,-12071.900390625,-6294.77978515625,-400000.0625,-18881.80078125,-400000.0625,-5152.4599609375,-400000.0625
178.00860953330994,-400000.0625,-12088.25,-6309.7998046875,-400000.0625,-18892.48046875,-400000.0625,-5165.52978515625,-400000.0625
178.07066869735718,-400000.0625,-12097.7900390625,-6319.81005859375,-400000.0625,-18903.400390625,-400000.0625,-5182.60009765625,-400000.0625
178.09865880012512,-400000.0625,-12101.26953125,-6320.91015625,-400000.0625,-18905.2109375,-400000.0625,-5179.4501953125,-400000.0625
178.1208212375641,-400000.0625,-12070.3701171875,-6290.47998046875,-400000.0625,-18879.609375,-400000.0625,-5152.60986328125,-400000.0625
178.17177486419678,-400000.0625,-12064.7900390625,-6286.43017578125,-400000.0625,-18875.890625,-400000.0625,-5148.509765625,-400000.0625
178.2069606781006,-400000.0625,-12086.6796875,-6303.83984375,-400000.0625,-18891.2890625,-400000.0625,-5165.39013671875,-400000.0625
178.2306468486786,-400000.0625,-12099.83984375,-6312.85009765625,-400000.0625,-18894.390625,-400000.0625,-5177.64013671875,-400000.0625
178.27469658851624,-400000.0625,-12100.3203125,-6310.1298828125,-400000.0625,-18889.94921875,-400000.0625,-5178.68994140625,-400000.0625
178.3038351535797,-400000.0625,-12085.5302734375,-6297.8798828125,-400000.0625,-18876.509765625,-400000.0625,-5161.10009765625,-400000.0625
178.31815338134766,-400000.0625,-12070.66015625,-6288.0498046875,-400000.0625,-18876.4609375,-400000.0625,-5150.27001953125,-400000.0625
178.3306005001068,-400000.0625,-12081.7197265625,-6296.830078125,-400000.0625,-18882.369140625,-400000.0625,-5163.14990234375,-400000.0625
178.34169507026672,-400000.0625,-12110.1396484375,-6320.0498046875,-400000.0625,-18904.55078125,-400000.0625,-5189.27978515625,-400000.0625
178.37623357772827,-400000.0625,-12118.25,-6327.25,-400000.0625,-18909.599609375,-400000.0625,-5192.85009765625,-400000.0625
178.38673949241638,-400000.0625,-12093.6396484375,-6303.7900390625,-400000.0625,-18889.240234375,-400000.0625,-5169.14990234375,-400000.0625
178.3980209827423,-400000.0625,-12077.91015625,-6286.91015625,-400000.0625,-18877.369140625,-400000.0625,-5150.22021484375,-400000.0625
178.40659260749817,-400000.0625,-12096.9296875,-6303.169921875,-400000.0625,-18889.51953125,-400000.0625,-5161.72021484375,-400000.0625
178.41582489013672,-400000.0625,-12114.669921875,-6321.18994140625,-400000.0625,-18899.630859375,-400000.0625,-5185.02978515625,-400000.0625
178.42673802375793,-400000.0625,-12118.4404296875,-6318.14013671875,-400000.0625,-18897.869140625,-400000.0625,-5188.75,-400000.0625
178.43541479110718,-400000.0625,-12099.83984375,-6301.02001953125,-400000.0625,-18886.66015625,-400000.0625,-5173.77978515625,-400000.0625
178.443776845932,-400000.0625,-12080.3798828125,-6285.3798828125,-400000.0625,-18875.359375,-400000.0625,-5159.9501953125,-400000.0625
178.47943425178528,-400000.0625,-12101.2197265625,-6299.02001953125,-400000.0625,-18884.900390625,-400000.0625,-5171.43994140625,-400000.0625
178.4911470413208,-400000.0625,-12122.73046875,-6317.81005859375,-400000.0625,-18901.109375,-400000.0625,-5190.60986328125,-400000.0625
178.5028145313263,-400000.0625,-12110.0,-6304.5498046875,-400000.0625,-18886.619140625,-400000.0625,-5180.93017578125,-400000.0625
178.5122048854828,-400000.0625,-12088.8701171875,-6284.08984375,-400000.0625,-18880.509765625,-400000.0625,-5164.580078125,-400000.0625
178.52315139770508,-400000.0625,-12084.580078125,-6282.81005859375,-400000.0625,-18882.66015625,-400000.0625,-5163.14990234375,-400000.0625
178.53209018707275,-400000.0625,-12097.6904296875,-6293.06005859375,-400000.0625,-18886.189453125,-400000.0625,-5173.2099609375,-400000.0625
178.54039216041565,-400000.0625,-12107.7099609375,-6299.5,-400000.0625,-18885.66015625,-400000.0625,-5179.1201171875,-400000.0625
178.55145955085754,-400000.0625,-12115.5302734375,-6306.02978515625,-400000.0625,-18891.859375,-400000.0625,-5182.7900390625,-400000.0625
178.58750820159912,-400000.0625,-12110.330078125,-6300.5498046875,-400000.0625,-18891.669921875,-400000.0625,-5178.39990234375,-400000.0625
178.59732794761658,-400000.0625,-12108.990234375,-6297.490234375,-400000.0625,-18895.25,-400000.0625,-5172.97021484375,-400000.0625
178.60537791252136,-400000.0625,-12123.8203125,-6302.1201171875,-400000.0625,-18899.490234375,-400000.0625,-5177.830078125,-400000.0625
178.61550378799438,-400000.0625,-12133.8896484375,-6310.89013671875,-400000.0625,-18904.970703125,-400000.0625,-5189.22998046875,-400000.0625
178.6264705657959,-400000.0625,-12126.4501953125,-6308.89013671875,-400000.0625,-18907.880859375,-400000.0625,-5189.75,-400000.0625
178.637446641922,-400000.0625,-12099.2197265625,-6289.77001953125,-400000.0625,-18884.419921875,-400000.0625,-5175.97021484375,-400000.0625
178.64956998825073,-400000.0625,-12093.400390625,-6283.240234375,-400000.0625,-18872.5,-400000.0625,-5178.169921875,-400000.0625
178.66072940826416,-400000.0625,-12106.990234375,-6287.91015625,-400000.0625,-18877.3203125,-400000.0625,-5185.41015625,-400000.0625
178.6929807662964,-400000.0625,-12124.1103515625,-6300.64013671875,-400000.0625,-18889.759765625,-400000.0625,-5206.77978515625,-400000.0625
178.702876329422,-400000.0625,-12130.2099609375,-6307.5498046875,-400000.0625,-18900.490234375,-400000.0625,-5215.35986328125,-400000.0625
178.7109410762787,-400000.0625,-12106.2802734375,-6285.9501953125,-400000.0625,-18880.939453125,-400000.0625,-5191.56982421875,-400000.0625
178.72303104400635,-400000.0625,-12092.7802734375,-6272.169921875,-400000.0625,-18873.5,-400000.0625,-5174.35009765625,-400000.0625
178.73262882232666,-400000.0625,-12117.0498046875,-6292.6298828125,-400000.0625,-18894.720703125,-400000.0625,-5190.08984375,-400000.0625
178.7414629459381,-400000.0625,-12132.4599609375,-6306.740234375,-400000.0625,-18906.0703125,-400000.0625,-5209.02001953125,-400000.0625
178.75259637832642,-400000.0625,-12135.4599609375,-6304.5,-400000.0625,-18903.779296875,-400000.0625,-5212.8798828125,-400000.0625
178.7632908821106,-400000.0625,-12121.5400390625,-6293.2998046875,-400000.0625,-18891.720703125,-400000.0625,-5196.3798828125,-400000.0625
178.7912414073944,-400000.0625,-12109.1396484375,-6281.22998046875,-400000.0625,-18878.890625,-400000.0625,-5180.31005859375,-400000.0625
178.80030012130737,-400000.0625,-12108.900390625,-6280.47021484375,-400000.0625,-18879.029296875,-400000.0625,-5181.93017578125,-400000.0625
178.80764484405518,-400000.0625,-12129.259765625,-6297.39990234375,-400000.0625,-18886.66015625,-400000.0625,-5198.91015625,-400000.0625
178.81617999076843,-400000.0625,-12142.3701171875,-6307.7900390625,-400000.0625,-18897.390625,-400000.0625,-5209.490234375,-400000.0625
178.82587432861328,-400000.0625,-12126.16015625,-6292.580078125,-400000.0625,-18889.240234375,-400000.0625,-5190.18017578125,-400000.0625
178.84859037399292,-400000.0625,-12111.4697265625,-6282.14013671875,-400000.0625,-18884.94921875,-400000.0625,-5174.8798828125,-400000.0625
178.87101435661316,-400000.0625,-12117.8203125,-6287.14990234375,-400000.0625,-18888.380859375,-400000.0625,-5178.740234375,-400000.0625
178.90922784805298,-400000.0625,-12141.4697265625,-6305.64990234375,-400000.0625,-18905.169921875,-400000.0625,-5200.81982421875,-400000.0625
178.9290430545807,-400000.0625,-12151.8603515625,-6316.52001953125,-400000.0625,-18911.509765625,-400000.0625,-5210.10986328125,-400000.0625
178.9515597820282,-400000.0625,-12131.9296875,-6298.2099609375,-400000.0625,-18890.5703125,-400000.0625,-5193.52001953125,-400000.0625
178.97376465797424,-400000.0625,-12121.009765625,-6284.14013671875,-400000.0625,-18877.3203125,-400000.0625,-5177.16015625,-400000.0625
179.01371049880981,-400000.0625,-12134.41015625,-6296.02001953125,-400000.0625,-18889.240234375,-400000.0625,-5188.080078125,-400000.0625
179.03168749809265,-400000.0625,-12147.51953125,-6305.31005859375,-400000.0625,-18897.060546875,-400000.0625,-5200.14990234375,-400000.0625
179.0476016998291,-400000.0625,-12139.1298828125,-6297.919921875,-400000.0625,-18884.470703125,-400000.0625,-5189.509765625,-400000.0625
179.06971335411072,-400000.0625,-12134.169921875,-6294.35009765625,-400000.0625,-18891.189453125,-400000.0625,-5184.509765625,-400000.0625
179.0872519016266,-400000.0625,-12130.1201171875,-6291.6298828125,-400000.0625,-18892.720703125,-400000.0625,-5181.93017578125,-400000.0625
179.13781881332397,-400000.0625,-12139.6103515625,-6295.490234375,-400000.0625,-18891.76953125,-400000.0625,-5189.27978515625,-400000.0625
179.16301083564758,-400000.0625,-12152.3896484375,-6306.509765625,-400000.0625,-18903.689453125,-400000.0625,-5210.68994140625,-400000.0625
179.17499542236328,-400000.0625,-12139.6103515625,-6292.25,-400000.0625,-18888.669921875,-400000.0625,-5201.91015625,-400000.0625
179.19120383262634,-400000.0625,-12110.1396484375,-6265.830078125,-400000.0625,-18872.9296875,-400000.0625,-5169.9599609375,-400000.0625
179.2451560497284,-400000.0625,-12118.8203125,-6274.56005859375,-400000.0625,-18876.169921875,-400000.0625,-5171.490234375,-400000.0625
179.2594699859619,-400000.0625,-12153.0498046875,-6304.93017578125,-400000.0625,-18905.779296875,-400000.0625,-5201.240234375,-400000.0625
179.26794862747192,-400000.0625,-12169.41015625,-6318.27978515625,-400000.0625,-18919.7109375,-400000.0625,-5219.41015625,-400000.0625
179.2749788761139,-400000.0625,-12160.830078125,-6307.31982421875,-400000.0625,-18908.310546875,-400000.0625,-5210.2998046875,-400000.0625
179.28342485427856,-400000.0625,-12136.650390625,-6284.56982421875,-400000.0625,-18883.279296875,-400000.0625,-5187.7001953125,-400000.0625
179.29239678382874,-400000.0625,-12119.9599609375,-6268.68994140625,-400000.0625,-18865.30078125,-400000.0625,-5170.06005859375,-400000.0625
179.31600880622864,-400000.0625,-12126.400390625,-6275.7001953125,-400000.0625,-18870.58984375,-400000.0625,-5177.06982421875,-400000.0625
179.32519006729126,-400000.0625,-12152.91015625,-6297.5400390625,-400000.0625,-18894.91015625,-400000.0625,-5198.77001953125,-400000.0625
179.33368635177612,-400000.0625,-12163.6904296875,-6307.22021484375,-400000.0625,-18907.44921875,-400000.0625,-5206.25,-400000.0625
179.34180188179016,-400000.0625,-12152.48046875,-6298.58984375,-400000.0625,-18897.8203125,-400000.0625,-5191.759765625,-400000.0625
179.35196995735168,-400000.0625,-12140.1796875,-6287.0498046875,-400000.0625,-18888.900390625,-400000.0625,-5181.4599609375,-400000.0625
179.36480116844177,-400000.0625,-12142.330078125,-6283.0498046875,-400000.0625,-18884.279296875,-400000.0625,-5185.31982421875,-400000.0625
179.37218356132507,-400000.0625,-12153.91015625,-6294.97021484375,-400000.0625,-18889.189453125,-400000.0625,-5196.91015625,-400000.0625
179.37960815429688,-400000.0625,-12155.4404296875,-6294.58984375,-400000.0625,-18892.240234375,-400000.0625,-5198.56982421875,-400000.0625
179.3893039226532,-400000.0625,-12149.4296875,-6292.2998046875,-400000.0625,-18890.720703125,-400000.0625,-5193.85009765625,-400000.0625
179.3973410129547,-400000.0625,-12152.009765625,-6295.72998046875,-400000.0625,-18892.48046875,-400000.0625,-5193.85009765625,-400000.0625
179.42151737213135,-400000.0625,-12156.25,-6296.25,-400000.0625,-18898.8203125,-400000.0625,-5196.18994140625,-400000.0625
179.43055033683777,-400000.0625,-12154.33984375,-6290.77001953125,-400000.0625,-18893.4296875,-400000.0625,-5191.89990234375,-400000.0625
179.43822526931763,-400000.0625,-12153.6298828125,-6293.580078125,-400000.0625,-18890.619140625,-400000.0625,-5193.66015625,-400000.0625
179.44702768325806,-400000.0625,-12154.150390625,-6291.9599609375,-400000.0625,-18891.2890625,-400000.0625,-5186.64990234375,-400000.0625
179.4601743221283,-400000.0625,-12157.009765625,-6297.72998046875,-400000.0625,-18900.970703125,-400000.0625,-5183.22021484375,-400000.0625
179.4679193496704,-400000.0625,-12160.1103515625,-6301.58984375,-400000.0625,-18899.19921875,-400000.0625,-5189.7998046875,-400000.0625
179.4748888015747,-400000.0625,-12168.5,-6303.83984375,-400000.0625,-18904.5,-400000.0625,-5196.669921875,-400000.0625
179.48385524749756,-400000.0625,-12172.9404296875,-6307.31982421875,-400000.0625,-18907.7890625,-400000.0625,-5197.0,-400000.0625
179.49327850341797,-400000.0625,-12151.76953125,-6290.77001953125,-400000.0625,-18884.470703125,-400000.0625,-5179.830078125,-400000.0625
179.50235271453857,-400000.0625,-12132.4599609375,-6272.7001953125,-400000.0625,-18873.599609375,-400000.0625,-5187.419921875,-400000.0625
179.53067588806152,-400000.0625,-12144.66015625,-6277.85009765625,-400000.0625,-18890.5703125,-400000.0625,-5203.2001953125,-400000.0625
179.538907289505,-400000.0625,-12157.8203125,-6287.91015625,-400000.0625,-18899.009765625,-400000.0625,-5220.31982421875,-400000.0625
179.5474190711975,-400000.0625,-12167.2197265625,-6296.35009765625,-400000.0625,-18901.109375,-400000.0625,-5218.7001953125,-400000.0625
179.55651426315308,-400000.0625,-12138.8896484375,-6271.169921875,-400000.0625,-18883.23046875,-400000.0625,-5199.10009765625,-400000.0625
179.5650236606598,-400000.0625,-12123.4404296875,-6259.77978515625,-400000.0625,-18874.029296875,-400000.0625,-5199.85986328125,-400000.0625
179.57297277450562,-400000.0625,-12134.509765625,-6266.2099609375,-400000.0625,-18881.66015625,-400000.0625,-5213.06982421875,-400000.0625
179.58145594596863,-400000.0625,-12155.2001953125,-6281.18994140625,-400000.0625,-18898.390625,-400000.0625,-5230.47998046875,-400000.0625
179.59172987937927,-400000.0625,-12164.9296875,-6290.91015625,-400000.0625,-18908.7890625,-400000.0625,-5239.580078125,-400000.0625
179.60222625732422,-400000.0625,-12144.900390625,-6272.080078125,-400000.0625,-18887.7109375,-400000.0625,-5223.990234375,-400000.0625
179.609881401062,-400000.0625,-12142.6103515625,-6268.7900390625,-400000.0625,-18878.41015625,-400000.0625,-5214.02001953125,-400000.0625
179.6410834789276,-400000.0625,-12148.4296875,-6271.35986328125,-400000.0625,-18883.759765625,-400000.0625,-5217.4599609375,-400000.0625
179.6512951850891,-400000.0625,-12157.1103515625,-6278.0400390625,-400000.0625,-18887.189453125,-400000.0625,-5226.08984375,-400000.0625
179.66250014305115,-400000.0625,-12150.240234375,-6271.5498046875,-400000.0625,-18874.740234375,-400000.0625,-5223.3701171875,-400000.0625
179.6716227531433,-400000.0625,-12141.1796875,-6265.2099609375,-400000.0625,-18869.5,-400000.0625,-5214.41015625,-400000.0625
179.68163013458252,-400000.0625,-12148.1904296875,-6268.4501953125,-400000.0625,-18883.1796875,-400000.0625,-5216.41015625,-400000.0625
179.69246745109558,-400000.0625,-12156.580078125,-6275.18017578125,-400000.0625,-18888.05078125,-400000.0625,-5221.990234375,-400000.0625
179.70196676254272,-400000.0625,-12166.7900390625,-6281.9501953125,-400000.0625,-18895.33984375,-400000.0625,-5234.2900390625,-400000.0625
179.70956158638,-400000.0625,-12176.3701171875,-6289.0498046875,-400000.0625,-18897.869140625,-400000.0625,-5243.35009765625,-400000.0625
179.72580766677856,-400000.0625,-12157.490234375,-6273.56005859375,-400000.0625,-18886.51953125,-400000.0625,-5225.7099609375,-400000.0625
179.75808358192444,-400000.0625,-12144.1396484375,-6259.8701171875,-400000.0625,-18875.69921875,-400000.0625,-5211.02001953125,-400000.0625
179.77297353744507,-400000.0625,-12160.6396484375,-6272.60009765625,-400000.0625,-18881.3203125,-400000.0625,-5227.47021484375,-400000.0625
179.79247212409973,-400000.0625,-12182.5703125,-6291.68017578125,-400000.0625,-18898.580078125,-400000.0625,-5247.16015625,-400000.0625
179.80470895767212,-400000.0625,-12173.1796875,-6283.3798828125,-400000.0625,-18893.2890625,-400000.0625,-5234.47998046875,-400000.0625
179.82231450080872,-400000.0625,-12166.2197265625,-6277.419921875,-400000.0625,-18873.650390625,-400000.0625,-5221.7998046875,-400000.0625
179.83641457557678,-400000.0625,-12157.7802734375,-6269.169921875,-400000.0625,-18872.7890625,-400000.0625,-5213.93017578125,-400000.0625
179.88166856765747,-400000.0625,-12161.830078125,-6272.75,-400000.0625,-18884.51953125,-400000.0625,-5225.9501953125,-400000.0625
179.89908599853516,-400000.0625,-12178.0400390625,-6286.240234375,-400000.0625,-18898.6796875,-400000.0625,-5243.64013671875,-400000.0625
179.9133939743042,-400000.0625,-12182.4296875,-6286.47998046875,-400000.0625,-18899.16015625,-400000.0625,-5244.8798828125,-400000.0625
179.92692232131958,-400000.0625,-12165.6396484375,-6268.35986328125,-400000.0625,-18882.900390625,-400000.0625,-5227.85009765625,-400000.0625
179.94016456604004,-400000.0625,-12169.7001953125,-6277.18017578125,-400000.0625,-18882.939453125,-400000.0625,-5229.18994140625,-400000.0625
179.99308681488037,-400000.0625,-12174.5595703125,-6279.9501953125,-400000.0625,-18879.560546875,-400000.0625,-5230.759765625,-400000.0625
180.00477719306946,-400000.0625,-12189.009765625,-6290.06005859375,-400000.0625,-18892.48046875,-400000.0625,-5246.259765625,-400000.0625
180.02290868759155,-400000.0625,-12185.240234375,-6287.3798828125,-400000.0625,-18890.720703125,-400000.0625,-5246.64013671875,-400000.0625
180.03505659103394,-400000.0625,-12175.990234375,-6276.18017578125,-400000.0625,-18882.470703125,-400000.0625,-5230.27978515625,-400000.0625
180.05347108840942,-400000.0625,-12174.1796875,-6274.83984375,-400000.0625,-18885.08984375,-400000.0625,-5224.89990234375,-400000.0625
180.10186982154846,-400000.0625,-12181.240234375,-6278.18017578125,-400000.0625,-18889.140625,-400000.0625,-5234.2900390625,-400000.0625
180.12592673301697,-400000.0625,-12186.9599609375,-6278.27978515625,-400000.0625,-18888.51953125,-400000.0625,-5234.72021484375,-400000.0625
180.1419756412506,-400000.0625,-12185.0498046875,-6275.7998046875,-400000.0625,-18886.380859375,-400000.0625,-5233.9599609375,-400000.0625
180.15242862701416,-400000.0625,-12191.1103515625,-6285.0,-400000.0625,-18887.4296875,-400000.0625,-5240.06005859375,-400000.0625
180.16485238075256,-400000.0625,-12194.2998046875,-6285.10009765625,-400000.0625,-18890.099609375,-400000.0625,-5240.10986328125,-400000.0625
180.21246027946472,-400000.0625,-12192.1103515625,-6278.85009765625,-400000.0625,-18886.4296875,-400000.0625,-5233.91015625,-400000.0625
180.22750091552734,-400000.0625,-12198.740234375,-6285.0,-400000.0625,-18892.619140625,-400000.0625,-5239.77001953125,-400000.0625
180.2384843826294,-400000.0625,-12195.2998046875,-6282.3798828125,-400000.0625,-18887.669921875,-400000.0625,-5234.14990234375,-400000.0625
180.2558891773224,-400000.0625,-12191.6298828125,-6276.990234375,-400000.0625,-18884.369140625,-400000.0625,-5231.240234375,-400000.0625
180.26812839508057,-400000.0625,-12194.2099609375,-6281.18994140625,-400000.0625,-18889.2890625,-400000.0625,-5240.25,-400000.0625
180.31365251541138,-400000.0625,-12201.6396484375,-6285.85986328125,-400000.0625,-18892.619140625,-400000.0625,-5246.16015625,-400000.0625
180.32751297950745,-400000.0625,-12198.1201171875,-6281.81005859375,-400000.0625,-18883.330078125,-400000.0625,-5243.72998046875,-400000.0625
180.34206414222717,-400000.0625,-12191.25,-6276.56005859375,-400000.0625,-18881.470703125,-400000.0625,-5235.77001953125,-400000.0625
180.36026096343994,-400000.0625,-12190.2001953125,-6273.080078125,-400000.0625,-18876.080078125,-400000.0625,-5227.7099609375,-400000.0625
180.37605953216553,-400000.0625,-12193.73046875,-6275.85009765625,-400000.0625,-18879.80078125,-400000.0625,-5224.85009765625,-400000.0625
180.42756867408752,-400000.0625,-12203.3095703125,-6281.89990234375,-400000.0625,-18890.05078125,-400000.0625,-5231.81005859375,-400000.0625
180.44094967842102,-400000.0625,-12218.48046875,-6291.490234375,-400000.0625,-18896.19921875,-400000.0625,-5248.1201171875,-400000.0625
180.4514880180359,-400000.0625,-12212.6103515625,-6284.85986328125,-400000.0625,-18887.0,-400000.0625,-5247.39990234375,-400000.0625
180.4613835811615,-400000.0625,-12207.599609375,-6280.66015625,-400000.0625,-18888.759765625,-400000.0625,-5242.68017578125,-400000.0625
180.47991609573364,-400000.0625,-12198.9296875,-6270.4599609375,-400000.0625,-18885.330078125,-400000.0625,-5234.2900390625,-400000.0625
180.53372311592102,-400000.0625,-12207.990234375,-6279.9501953125,-400000.0625,-18890.189453125,-400000.0625,-5242.06005859375,-400000.0625
180.55091881752014,-400000.0625,-12218.51953125,-6289.0498046875,-400000.0625,-18894.390625,-400000.0625,-5243.4501953125,-400000.0625
180.56412744522095,-400000.0625,-12200.2099609375,-6272.169921875,-400000.0625,-18879.75,-400000.0625,-5227.7998046875,-400000.0625
180.5778992176056,-400000.0625,-12190.2998046875,-6266.5498046875,-400000.0625,-18871.5,-400000.0625,-5218.97998046875,-400000.0625
180.59284353256226,-400000.0625,-12201.599609375,-6276.7001953125,-400000.0625,-18878.26953125,-400000.0625,-5228.0,-400000.0625
180.6494221687317,-400000.0625,-12210.900390625,-6282.330078125,-400000.0625,-18887.470703125,-400000.0625,-5240.2001953125,-400000.0625
180.66356992721558,-400000.0625,-12219.8603515625,-6286.10009765625,-400000.0625,-18885.94921875,-400000.0625,-5245.5,-400000.0625
180.67484426498413,-400000.0625,-12222.4296875,-6287.33984375,-400000.0625,-18892.76953125,-400000.0625,-5244.77978515625,-400000.0625
180.69280815124512,-400000.0625,-12211.23046875,-6277.0400390625,-400000.0625,-18883.419921875,-400000.0625,-5231.240234375,-400000.0625
180.70838069915771,-400000.0625,-12202.3095703125,-6268.259765625,-400000.0625,-18873.0703125,-400000.0625,-5223.18017578125,-400000.0625
180.77141642570496,-400000.0625,-12214.1396484375,-6275.509765625,-400000.0625,-18882.609375,-400000.0625,-5236.009765625,-400000.0625
180.7947223186493,-400000.0625,-12213.3701171875,-6276.419921875,-400000.0625,-18877.220703125,-400000.0625,-5239.8701171875,-400000.0625
180.8159465789795,-400000.0625,-12215.1904296875,-6278.89990234375,-400000.0625,-18875.740234375,-400000.0625,-5233.77001953125,-400000.0625
180.86435413360596,-400000.0625,-12212.7099609375,-6276.85009765625,-400000.0625,-18883.1796875,-400000.0625,-5232.72021484375,-400000.0625
180.8855757713318,-400000.0625,-12219.7197265625,-6279.7998046875,-400000.0625,-18891.0,-400000.0625,-5236.72021484375,-400000.0625
180.8977313041687,-400000.0625,-12220.2900390625,-6282.89990234375,-400000.0625,-18889.859375,-400000.0625,-5243.10986328125,-400000.0625
180.92303586006165,-400000.0625,-12223.580078125,-6280.759765625,-400000.0625,-18891.05078125,-400000.0625,-5244.4501953125,-400000.0625
180.9718520641327,-400000.0625,-12221.240234375,-6274.89013671875,-400000.0625,-18882.3203125,-400000.0625,-5241.58984375,-400000.0625
180.9932417869568,-400000.0625,-12203.0302734375,-6260.35009765625,-400000.0625,-18867.830078125,-400000.0625,-5225.7998046875,-400000.0625
181.00947642326355,-400000.0625,-12206.169921875,-6262.259765625,-400000.0625,-18865.58984375,-400000.0625,-5225.7998046875,-400000.0625
181.0297966003418,-400000.0625,-12217.900390625,-6274.41015625,-400000.0625,-18882.560546875,-400000.0625,-5238.06005859375,-400000.0625
181.0931568145752,-400000.0625,-12223.25,-6277.0400390625,-400000.0625,-18887.7109375,-400000.0625,-5238.77001953125,-400000.0625
181.10750675201416,-400000.0625,-12221.240234375,-6275.56005859375,-400000.0625,-18886.5703125,-400000.0625,-5237.8701171875,-400000.0625
181.12191152572632,-400000.0625,-12210.5595703125,-6265.8798828125,-400000.0625,-18875.650390625,-400000.0625,-5225.3701171875,-400000.0625
181.14055132865906,-400000.0625,-12213.1796875,-6268.1201171875,-400000.0625,-18874.5,-400000.0625,-5223.080078125,-400000.0625
181.18180322647095,-400000.0625,-12229.7802734375,-6283.56982421875,-400000.0625,-18886.900390625,-400000.0625,-5238.81982421875,-400000.0625
181.1994240283966,-400000.0625,-12241.080078125,-6292.43994140625,-400000.0625,-18903.830078125,-400000.0625,-5255.83984375,-400000.0625
181.21255254745483,-400000.0625,-12236.169921875,-6284.0498046875,-400000.0625,-18897.73046875,-400000.0625,-5248.740234375,-400000.0625
181.22553634643555,-400000.0625,-12221.91015625,-6265.4501953125,-400000.0625,-18881.609375,-400000.0625,-5228.18994140625,-400000.0625
181.24984288215637,-400000.0625,-12215.08984375,-6260.490234375,-400000.0625,-18876.509765625,-400000.0625,-5226.18017578125,-400000.0625
181.29746532440186,-400000.0625,-12227.919921875,-6270.7900390625,-400000.0625,-18880.939453125,-400000.0625,-5238.9599609375,-400000.0625
181.31322360038757,-400000.0625,-12246.4697265625,-6282.22998046875,-400000.0625,-18889.94921875,-400000.0625,-5249.06982421875,-400000.0625
181.33380556106567,-400000.0625,-12243.1796875,-6280.3798828125,-400000.0625,-18894.720703125,-400000.0625,-5244.5400390625,-400000.0625
181.34759759902954,-400000.0625,-12224.9599609375,-6270.35986328125,-400000.0625,-18877.169921875,-400000.0625,-5228.85009765625,-400000.0625
181.3603641986847,-400000.0625,-12223.3896484375,-6269.259765625,-400000.0625,-18874.83984375,-400000.0625,-5219.169921875,-400000.0625
181.41588687896729,-400000.0625,-12239.8896484375,-6280.330078125,-400000.0625,-18889.5703125,-400000.0625,-5226.56982421875,-400000.0625
181.43337559700012,-400000.0625,-12254.91015625,-6295.25,-400000.0625,-18896.30078125,-400000.0625,-5241.2001953125,-400000.0625
181.4523651599884,-400000.0625,-12254.4296875,-6293.97021484375,-400000.0625,-18891.2890625,-400000.0625,-5237.91015625,-400000.0625
181.4668834209442,-400000.0625,-12239.5498046875,-6280.56982421875,-400000.0625,-18879.369140625,-400000.0625,-5225.52001953125,-400000.0625
181.51847100257874,-400000.0625,-12240.599609375,-6282.52001953125,-400000.0625,-18889.05078125,-400000.0625,-5226.66015625,-400000.0625
181.53287816047668,-400000.0625,-12250.0400390625,-6290.2001953125,-400000.0625,-18895.099609375,-400000.0625,-5235.0498046875,-400000.0625
181.55002188682556,-400000.0625,-12255.8603515625,-6295.72998046875,-400000.0625,-18893.2890625,-400000.0625,-5241.16015625,-400000.0625
181.56380414962769,-400000.0625,-12246.6103515625,-6287.91015625,-400000.0625,-18888.5703125,-400000.0625,-5237.10009765625,-400000.0625
181.5778214931488,-400000.0625,-12235.5498046875,-6275.85009765625,-400000.0625,-18878.83984375,-400000.0625,-5221.3701171875,-400000.0625
181.62826681137085,-400000.0625,-12236.98046875,-6277.3701171875,-400000.0625,-18875.26953125,-400000.0625,-5225.7099609375,-400000.0625
181.64464592933655,-400000.0625,-12244.0400390625,-6283.330078125,-400000.0625,-18885.849609375,-400000.0625,-5230.43017578125,-400000.0625
181.66816973686218,-400000.0625,-12255.7197265625,-6289.91015625,-400000.0625,-18898.439453125,-400000.0625,-5240.009765625,-400000.0625
181.68557500839233,-400000.0625,-12258.8603515625,-6293.10986328125,-400000.0625,-18891.0,-400000.0625,-5244.06005859375,-400000.0625
181.74105739593506,-400000.0625,-12238.83984375,-6274.080078125,-400000.0625,-18873.41015625,-400000.0625,-5223.60986328125,-400000.0625
181.75623989105225,-400000.0625,-12228.349609375,-6264.35009765625,-400000.0625,-18867.490234375,-400000.0625,-5208.830078125,-400000.0625
181.77838850021362,-400000.0625,-12240.98046875,-6274.27001953125,-400000.0625,-18879.130859375,-400000.0625,-5226.22998046875,-400000.0625
181.78972816467285,-400000.0625,-12262.919921875,-6293.10986328125,-400000.0625,-18894.669921875,-400000.0625,-5245.259765625,-400000.0625
181.8488507270813,-400000.0625,-12263.25,-6293.39013671875,-400000.0625,-18896.9609375,-400000.0625,-5242.009765625,-400000.0625
181.87305355072021,-400000.0625,-12245.23046875,-6276.3701171875,-400000.0625,-18879.990234375,-400000.0625,-5221.7001953125,-400000.0625
181.88683319091797,-400000.0625,-12242.080078125,-6272.35986328125,-400000.0625,-18876.650390625,-400000.0625,-5220.7001953125,-400000.0625
181.91094613075256,-400000.0625,-12252.0498046875,-6280.22998046875,-400000.0625,-18885.189453125,-400000.0625,-5233.2900390625,-400000.0625
181.95957708358765,-400000.0625,-12260.3896484375,-6286.43017578125,-400000.0625,-18891.0,-400000.0625,-5243.64013671875,-400000.0625
181.97959184646606,-400000.0625,-12261.4404296875,-6286.85986328125,-400000.0625,-18892.390625,-400000.0625,-5238.009765625,-400000.0625
181.9993441104889,-400000.0625,-12249.1904296875,-6276.47021484375,-400000.0625,-18883.759765625,-400000.0625,-5226.89990234375,-400000.0625
182.0220866203308,-400000.0625,-12244.5595703125,-6272.27001953125,-400000.0625,-18880.890625,-400000.0625,-5223.93994140625,-400000.0625
182.07906532287598,-400000.0625,-12257.4296875,-6280.0400390625,-400000.0625,-18885.0390625,-400000.0625,-5234.0498046875,-400000.0625
182.10319590568542,-400000.0625,-12266.6396484375,-6285.18994140625,-400000.0625,-18892.19921875,-400000.0625,-5243.5400390625,-400000.0625
182.11761617660522,-400000.0625,-12251.51953125,-6270.080078125,-400000.0625,-18872.83984375,-400000.0625,-5230.56982421875,-400000.0625
182.1361119747162,-400000.0625,-12245.3701171875,-6265.1201171875,-400000.0625,-18871.400390625,-400000.0625,-5225.0400390625,-400000.0625
182.1881923675537,-400000.0625,-12252.5703125,-6272.89013671875,-400000.0625,-18881.849609375,-400000.0625,-5227.89990234375,-400000.0625
182.20880031585693,-400000.0625,-12273.0703125,-6292.2998046875,-400000.0625,-18897.8203125,-400000.0625,-5240.490234375,-400000.0625
182.22535037994385,-400000.0625,-12274.4599609375,-6293.43994140625,-400000.0625,-18898.349609375,-400000.0625,-5241.10986328125,-400000.0625
182.24317455291748,-400000.0625,-12262.2998046875,-6282.52001953125,-400000.0625,-18885.94921875,-400000.0625,-5233.72021484375,-400000.0625
182.2908022403717,-400000.0625,-12263.8203125,-6281.3798828125,-400000.0625,-18883.990234375,-400000.0625,-5230.240234375,-400000.0625
182.31586909294128,-400000.0625,-12261.919921875,-6279.18017578125,-400000.0625,-18884.990234375,-400000.0625,-5225.52001953125,-400000.0625
182.33570885658264,-400000.0625,-12260.0595703125,-6276.080078125,-400000.0625,-18885.5703125,-400000.0625,-5229.330078125,-400000.0625
182.34894108772278,-400000.0625,-12256.91015625,-6268.740234375,-400000.0625,-18875.220703125,-400000.0625,-5224.75,-400000.0625
182.40137648582458,-400000.0625,-12262.6298828125,-6273.83984375,-400000.0625,-18877.599609375,-400000.0625,-5225.419921875,-400000.0625
182.4199254512787,-400000.0625,-12268.0703125,-6279.990234375,-400000.0625,-18886.900390625,-400000.0625,-5229.18994140625,-400000.0625
182.43697714805603,-400000.0625,-12259.6298828125,-6273.18017578125,-400000.0625,-18878.220703125,-400000.0625,-5224.93994140625,-400000.0625
182.457102060318,-400000.0625,-12263.349609375,-6277.7998046875,-400000.0625,-18878.029296875,-400000.0625,-5228.85009765625,-400000.0625
182.49057126045227,-400000.0625,-12273.599609375,-6284.669921875,-400000.0625,-18887.08984375,-400000.0625,-5235.77001953125,-400000.0625
182.50967645645142,-400000.0625,-12279.080078125,-6290.2900390625,-400000.0625,-18886.279296875,-400000.0625,-5235.81982421875,-400000.0625
182.52322220802307,-400000.0625,-12270.3095703125,-6283.7099609375,-400000.0625,-18881.849609375,-400000.0625,-5227.60986328125,-400000.0625
182.54402923583984,-400000.0625,-12269.8798828125,-6281.85009765625,-400000.0625,-18882.23046875,-400000.0625,-5226.330078125,-400000.0625
182.5611550807953,-400000.0625,-12280.75,-6288.91015625,-400000.0625,-18891.48046875,-400000.0625,-5235.009765625,-400000.0625
182.60935187339783,-400000.0625,-12280.75,-6286.72021484375,-400000.0625,-18893.05078125,-400000.0625,-5238.580078125,-400000.0625
182.62087225914001,-400000.0625,-12280.75,-6284.14013671875,-400000.0625,-18887.810546875,-400000.0625,-5236.0498046875,-400000.0625
182.64193558692932,-400000.0625,-12275.4599609375,-6281.22998046875,-400000.0625,-18881.939453125,-400000.0625,-5234.2900390625,-400000.0625
182.65929675102234,-400000.0625,-12278.75,-6286.669921875,-400000.0625,-18886.51953125,-400000.0625,-5234.52978515625,-400000.0625
182.67856001853943,-400000.0625,-12285.5703125,-6292.2001953125,-400000.0625,-18890.240234375,-400000.0625,-5235.85986328125,-400000.0625
182.72418403625488,-400000.0625,-12279.8896484375,-6283.240234375,-400000.0625,-18881.939453125,-400000.0625,-5229.0400390625,-400000.0625
182.745947599411,-400000.0625,-12269.4501953125,-6276.22998046875,-400000.0625,-18873.169921875,-400000.0625,-5223.1298828125,-400000.0625
182.76015448570251,-400000.0625,-12278.419921875,-6285.759765625,-400000.0625,-18877.4609375,-400000.0625,-5232.6201171875,-400000.0625
182.78585982322693,-400000.0625,-12291.6201171875,-6298.259765625,-400000.0625,-18885.5703125,-400000.0625,-5242.2099609375,-400000.0625
182.83684158325195,-400000.0625,-12293.669921875,-6296.919921875,-400000.0625,-18892.580078125,-400000.0625,-5250.5498046875,-400000.0625
182.8619203567505,-400000.0625,-12295.6298828125,-6296.35009765625,-400000.0625,-18890.619140625,-400000.0625,-5248.39990234375,-400000.0625
182.87883973121643,-400000.0625,-12281.23046875,-6282.3798828125,-400000.0625,-18876.83984375,-400000.0625,-5236.009765625,-400000.0625
182.89793848991394,-400000.0625,-12277.650390625,-6278.47021484375,-400000.0625,-18877.939453125,-400000.0625,-5231.52001953125,-400000.0625
182.9429750442505,-400000.0625,-12289.669921875,-6290.77001953125,-400000.0625,-18887.08984375,-400000.0625,-5241.06005859375,-400000.0625
182.95932292938232,-400000.0625,-12291.0,-6290.8701171875,-400000.0625,-18887.859375,-400000.0625,-5245.5400390625,-400000.0625
182.9759488105774,-400000.0625,-12287.330078125,-6283.0498046875,-400000.0625,-18880.130859375,-400000.0625,-5237.47998046875,-400000.0625
182.99651646614075,-400000.0625,-12288.9501953125,-6286.47998046875,-400000.0625,-18878.650390625,-400000.0625,-5238.6298828125,-400000.0625
183.01093792915344,-400000.0625,-12296.9599609375,-6295.2001953125,-400000.0625,-18882.369140625,-400000.0625,-5250.740234375,-400000.0625
183.0627362728119,-400000.0625,-12302.259765625,-6297.830078125,-400000.0625,-18888.05078125,-400000.0625,-5251.06982421875,-400000.0625
183.0833511352539,-400000.0625,-12295.2998046875,-6289.91015625,-400000.0625,-18882.849609375,-400000.0625,-5242.009765625,-400000.0625
183.0949342250824,-400000.0625,-12287.4296875,-6281.14013671875,-400000.0625,-18878.41015625,-400000.0625,-5237.2001953125,-400000.0625
183.10890650749207,-400000.0625,-12299.25,-6290.72021484375,-400000.0625,-18885.0390625,-400000.0625,-5247.2099609375,-400000.0625
183.12317538261414,-400000.0625,-12301.2099609375,-6292.2998046875,-400000.0625,-18884.849609375,-400000.0625,-5246.02001953125,-400000.0625
183.1824610233307,-400000.0625,-12291.0498046875,-6281.0400390625,-400000.0625,-18877.509765625,-400000.0625,-5237.33984375,-400000.0625
183.20074844360352,-400000.0625,-12298.490234375,-6284.0498046875,-400000.0625,-18883.51953125,-400000.0625,-5243.02001953125,-400000.0625
183.2158019542694,-400000.0625,-12304.5,-6290.580078125,-400000.0625,-18889.140625,-400000.0625,-5248.02001953125,-400000.0625
183.23234605789185,-400000.0625,-12294.7197265625,-6283.240234375,-400000.0625,-18874.310546875,-400000.0625,-5241.25,-400000.0625
183.28127360343933,-400000.0625,-12295.099609375,-6279.56005859375,-400000.0625,-18869.259765625,-400000.0625,-5241.009765625,-400000.0625
183.30001020431519,-400000.0625,-12304.400390625,-6289.240234375,-400000.0625,-18878.029296875,-400000.0625,-5246.5,-400000.0625
183.31854701042175,-400000.0625,-12313.419921875,-6299.06982421875,-400000.0625,-18888.759765625,-400000.0625,-5252.080078125,-400000.0625
183.3356626033783,-400000.0625,-12314.26953125,-6299.06982421875,-400000.0625,-18891.48046875,-400000.0625,-5252.080078125,-400000.0625
183.37044095993042,-400000.0625,-12305.6904296875,-6285.6201171875,-400000.0625,-18878.80078125,-400000.0625,-5245.259765625,-400000.0625
183.38056468963623,-400000.0625,-12303.5400390625,-6282.43017578125,-400000.0625,-18874.220703125,-400000.0625,-5241.81982421875,-400000.0625
183.39330005645752,-400000.0625,-12300.4501953125,-6281.89990234375,-400000.0625,-18873.740234375,-400000.0625,-5236.2900390625,-400000.0625
183.41223621368408,-400000.0625,-12301.259765625,-6281.89990234375,-400000.0625,-18870.310546875,-400000.0625,-5237.47998046875,-400000.0625
183.42787384986877,-400000.0625,-12305.2099609375,-6286.47998046875,-400000.0625,-18869.9296875,-400000.0625,-5242.68017578125,-400000.0625
183.44442200660706,-400000.0625,-12306.6904296875,-6288.72021484375,-400000.0625,-18875.9296875,-400000.0625,-5240.2998046875,-400000.0625
183.48963165283203,-400000.0625,-12313.650390625,-6290.9599609375,-400000.0625,-18885.900390625,-400000.0625,-5244.35009765625,-400000.0625
183.51028513908386,-400000.0625,-12316.849609375,-6291.77001953125,-400000.0625,-18886.140625,-400000.0625,-5247.68994140625,-400000.0625
183.52123355865479,-400000.0625,-12318.1796875,-6292.43994140625,-400000.0625,-18882.7109375,-400000.0625,-5250.93017578125,-400000.0625
183.53942561149597,-400000.0625,-12316.3203125,-6290.81982421875,-400000.0625,-18883.279296875,-400000.0625,-5251.60009765625,-400000.0625
183.54953241348267,-400000.0625,-12300.2998046875,-6275.85009765625,-400000.0625,-18869.119140625,-400000.0625,-5236.52978515625,-400000.0625
183.5912525653839,-400000.0625,-12307.5,-6279.52001953125,-400000.0625,-18874.41015625,-400000.0625,-5239.6298828125,-400000.0625
183.61003184318542,-400000.0625,-12319.51953125,-6289.39013671875,-400000.0625,-18885.189453125,-400000.0625,-5244.10986328125,-400000.0625
183.62487864494324,-400000.0625,-12312.990234375,-6285.18994140625,-400000.0625,-18878.990234375,-400000.0625,-5242.43994140625,-400000.0625
183.6445574760437,-400000.0625,-12315.080078125,-6289.33984375,-400000.0625,-18878.560546875,-400000.0625,-5245.10986328125,-400000.0625
183.65983700752258,-400000.0625,-12315.23046875,-6289.580078125,-400000.0625,-18880.66015625,-400000.0625,-5242.10986328125,-400000.0625
183.69659757614136,-400000.0625,-12312.1298828125,-6286.0498046875,-400000.0625,-18877.369140625,-400000.0625,-5242.5400390625,-400000.0625
183.71207785606384,-400000.0625,-12312.509765625,-6286.9599609375,-400000.0625,-18881.419921875,-400000.0625,-5244.5400390625,-400000.0625
183.7396240234375,-400000.0625,-12318.23046875,-6286.91015625,-400000.0625,-18881.509765625,-400000.0625,-5245.259765625,-400000.0625
183.7498743534088,-400000.0625,-12320.4697265625,-6285.2900390625,-400000.0625,-18881.23046875,-400000.0625,-5246.5,-400000.0625
183.76661252975464,-400000.0625,-12308.169921875,-6275.7998046875,-400000.0625,-18873.310546875,-400000.0625,-5238.06005859375,-400000.0625
183.80827045440674,-400000.0625,-12310.2197265625,-6278.419921875,-400000.0625,-18873.880859375,-400000.0625,-5236.669921875,-400000.0625
183.83307433128357,-400000.0625,-12319.3798828125,-6286.56982421875,-400000.0625,-18881.849609375,-400000.0625,-5244.16015625,-400000.0625
183.85735297203064,-400000.0625,-12316.0400390625,-6283.330078125,-400000.0625,-18880.69921875,-400000.0625,-5238.490234375,-400000.0625
183.87573957443237,-400000.0625,-12317.4697265625,-6284.330078125,-400000.0625,-18880.1796875,-400000.0625,-5244.259765625,-400000.0625
183.93472623825073,-400000.0625,-12325.0498046875,-6289.2900390625,-400000.0625,-18884.7109375,-400000.0625,-5253.169921875,-400000.0625
183.95541429519653,-400000.0625,-12316.7998046875,-6279.7099609375,-400000.0625,-18880.0390625,-400000.0625,-5242.009765625,-400000.0625
183.9724977016449,-400000.0625,-12313.75,-6278.60986328125,-400000.0625,-18876.939453125,-400000.0625,-5236.2001953125,-400000.0625
183.99335932731628,-400000.0625,-12313.1796875,-6280.14013671875,-400000.0625,-18879.4609375,-400000.0625,-5236.669921875,-400000.0625
184.05292749404907,-400000.0625,-12312.3701171875,-6276.31982421875,-400000.0625,-18876.599609375,-400000.0625,-5236.009765625,-400000.0625
184.07321572303772,-400000.0625,-12313.4599609375,-6276.3701171875,-400000.0625,-18876.599609375,-400000.0625,-5234.10009765625,-400000.0625
184.09467315673828,-400000.0625,-12319.5703125,-6281.9501953125,-400000.0625,-18877.560546875,-400000.0625,-5237.6298828125,-400000.0625
184.1405324935913,-400000.0625,-12319.9501953125,-6282.43017578125,-400000.0625,-18877.509765625,-400000.0625,-5236.9599609375,-400000.0625
184.16180968284607,-400000.0625,-12321.8095703125,-6283.9501953125,-400000.0625,-18877.890625,-400000.0625,-5240.72998046875,-400000.0625
184.18362402915955,-400000.0625,-12319.3798828125,-6281.330078125,-400000.0625,-18875.69921875,-400000.0625,-5236.91015625,-400000.0625
184.19800925254822,-400000.0625,-12325.8603515625,-6287.14990234375,-400000.0625,-18880.3203125,-400000.0625,-5241.25,-400000.0625
184.24711441993713,-400000.0625,-12340.830078125,-6299.830078125,-400000.0625,-18894.390625,-400000.0625,-5253.41015625,-400000.0625
184.26489686965942,-400000.0625,-12341.41015625,-6299.10986328125,-400000.0625,-18888.51953125,-400000.0625,-5250.740234375,-400000.0625
184.28057217597961,-400000.0625,-12334.919921875,-6291.580078125,-400000.0625,-18884.7109375,-400000.0625,-5241.97021484375,-400000.0625
184.2978913784027,-400000.0625,-12326.8603515625,-6284.43017578125,-400000.0625,-18875.359375,-400000.0625,-5232.91015625,-400000.0625
184.32208132743835,-400000.0625,-12325.8095703125,-6281.66015625,-400000.0625,-18873.359375,-400000.0625,-5236.43994140625,-400000.0625
184.366037607193,-400000.0625,-12327.2001953125,-6282.66015625,-400000.0625,-18874.41015625,-400000.0625,-5239.2001953125,-400000.0625
184.38418698310852,-400000.0625,-12334.16015625,-6290.009765625,-400000.0625,-18873.41015625,-400000.0625,-5246.740234375,-400000.0625
184.40064430236816,-400000.0625,-12335.5400390625,-6289.10009765625,-400000.0625,-18876.26953125,-400000.0625,-5246.2099609375,-400000.0625
184.41287803649902,-400000.0625,-12329.0595703125,-6282.14013671875,-400000.0625,-18872.689453125,-400000.0625,-5233.81005859375,-400000.0625
184.42929458618164,-400000.0625,-12327.48046875,-6279.89990234375,-400000.0625,-18868.01953125,-400000.0625,-5232.14013671875,-400000.0625
184.4793198108673,-400000.0625,-12333.7802734375,-6287.669921875,-400000.0625,-18883.759765625,-400000.0625,-5243.72998046875,-400000.0625
184.49976325035095,-400000.0625,-12334.2998046875,-6286.669921875,-400000.0625,-18883.560546875,-400000.0625,-5242.58984375,-400000.0625
184.51754784584045,-400000.0625,-12340.01953125,-6289.85986328125,-400000.0625,-18881.900390625,-400000.0625,-5244.72998046875,-400000.0625
184.5342402458191,-400000.0625,-12339.2099609375,-6286.91015625,-400000.0625,-18880.130859375,-400000.0625,-5245.919921875,-400000.0625
184.58991980552673,-400000.0625,-12334.2998046875,-6280.7099609375,-400000.0625,-18879.69921875,-400000.0625,-5244.830078125,-400000.0625
184.60179901123047,-400000.0625,-12333.16015625,-6279.0400390625,-400000.0625,-18879.029296875,-400000.0625,-5240.97021484375,-400000.0625
184.6191804409027,-400000.0625,-12335.16015625,-6280.89990234375,-400000.0625,-18877.83984375,-400000.0625,-5238.580078125,-400000.0625
184.63035416603088,-400000.0625,-12342.7900390625,-6285.330078125,-400000.0625,-18881.470703125,-400000.0625,-5242.06005859375,-400000.0625
184.64369869232178,-400000.0625,-12342.98046875,-6286.0498046875,-400000.0625,-18878.029296875,-400000.0625,-5241.58984375,-400000.0625
184.6953136920929,-400000.0625,-12338.58984375,-6281.47021484375,-400000.0625,-18871.640625,-400000.0625,-5242.25,-400000.0625
184.71274948120117,-400000.0625,-12333.6796875,-6276.56005859375,-400000.0625,-18871.5,-400000.0625,-5237.43994140625,-400000.0625
184.74037909507751,-400000.0625,-12341.0703125,-6281.9501953125,-400000.0625,-18877.650390625,-400000.0625,-5242.6298828125,-400000.0625
184.7727870941162,-400000.0625,-12340.7900390625,-6282.6201171875,-400000.0625,-18874.890625,-400000.0625,-5242.97021484375,-400000.0625
184.90881991386414,-400000.0625,-12339.259765625,-6280.22998046875,-400000.0625,-18871.599609375,-400000.0625,-5240.68017578125,-400000.0625
184.9639310836792,-400000.0625,-12337.9697265625,-6278.60986328125,-400000.0625,-18875.69921875,-400000.0625,-5238.6298828125,-400000.0625
184.98536920547485,-400000.0625,-12341.98046875,-6282.18994140625,-400000.0625,-18881.0390625,-400000.0625,-5242.919921875,-400000.0625
185.0233817100525,-400000.0625,-12351.5595703125,-6288.10009765625,-400000.0625,-18890.48046875,-400000.0625,-5252.1201171875,-400000.0625
185.0888135433197,-400000.0625,-12356.849609375,-6290.52978515625,-400000.0625,-18887.619140625,-400000.0625,-5256.75,-400000.0625
185.10599398612976,-400000.0625,-12351.1298828125,-6283.85986328125,-400000.0625,-18883.560546875,-400000.0625,-5246.740234375,-400000.0625
185.1251916885376,-400000.0625,-12336.7802734375,-6274.02978515625,-400000.0625,-18870.7890625,-400000.0625,-5238.580078125,-400000.0625
185.1943655014038,-400000.0625,-12342.98046875,-6282.0400390625,-400000.0625,-18875.26953125,-400000.0625,-5244.10986328125,-400000.0625
185.20789861679077,-400000.0625,-12345.1201171875,-6282.7099609375,-400000.0625,-18879.849609375,-400000.0625,-5246.39990234375,-400000.0625
185.24078178405762,-400000.0625,-12354.9501953125,-6291.6298828125,-400000.0625,-18889.240234375,-400000.0625,-5253.27001953125,-400000.0625
185.2808403968811,-400000.0625,-12355.900390625,-6290.72021484375,-400000.0625,-18887.08984375,-400000.0625,-5252.5498046875,-400000.0625
185.31451511383057,-400000.0625,-12346.080078125,-6282.0400390625,-400000.0625,-18881.080078125,-400000.0625,-5239.2001953125,-400000.0625
185.33770418167114,-400000.0625,-12342.3603515625,-6277.7001953125,-400000.0625,-18875.4609375,-400000.0625,-5233.9599609375,-400000.0625
185.35384321212769,-400000.0625,-12345.26953125,-6282.6201171875,-400000.0625,-18872.01953125,-400000.0625,-5244.06005859375,-400000.0625
185.43617725372314,-400000.0625,-12352.419921875,-6287.2900390625,-400000.0625,-18883.0390625,-400000.0625,-5252.5498046875,-400000.0625
185.4619264602661,-400000.0625,-12346.7001953125,-6280.330078125,-400000.0625,-18882.7109375,-400000.0625,-5247.93017578125,-400000.0625
185.50983214378357,-400000.0625,-12350.1298828125,-6281.27978515625,-400000.0625,-18883.279296875,-400000.0625,-5247.93017578125,-400000.0625
185.53549456596375,-400000.0625,-12340.6904296875,-6273.080078125,-400000.0625,-18878.3203125,-400000.0625,-5235.43017578125,-400000.0625
185.56183528900146,-400000.0625,-12338.2099609375,-6270.97998046875,-400000.0625,-18875.3203125,-400000.0625,-5242.72998046875,-400000.0625
185.57946705818176,-400000.0625,-12346.3603515625,-6278.31982421875,-400000.0625,-18887.0,-400000.0625,-5247.77978515625,-400000.0625
185.63171935081482,-400000.0625,-12348.2197265625,-6279.3701171875,-400000.0625,-18887.7109375,-400000.0625,-5244.77978515625,-400000.0625
185.6451075077057,-400000.0625,-12350.080078125,-6281.89990234375,-400000.0625,-18882.369140625,-400000.0625,-5246.740234375,-400000.0625
185.65609121322632,-400000.0625,-12353.849609375,-6284.85986328125,-400000.0625,-18886.759765625,-400000.0625,-5249.60009765625,-400000.0625
185.66697192192078,-400000.0625,-12343.5498046875,-6275.64990234375,-400000.0625,-18874.4609375,-400000.0625,-5235.81982421875,-400000.0625
185.67432522773743,-400000.0625,-12338.3095703125,-6269.5498046875,-400000.0625,-18870.5,-400000.0625,-5238.33984375,-400000.0625
185.68530702590942,-400000.0625,-12351.7099609375,-6279.419921875,-400000.0625,-18884.140625,-400000.0625,-5246.68994140625,-400000.0625
185.72035837173462,-400000.0625,-12347.080078125,-6277.509765625,-400000.0625,-18885.419921875,-400000.0625,-5240.2001953125,-400000.0625
185.73157382011414,-400000.0625,-12348.26953125,-6281.22998046875,-400000.0625,-18891.0,-400000.0625,-5242.77978515625,-400000.0625
185.7404923439026,-400000.0625,-12354.5703125,-6283.47021484375,-400000.0625,-18884.08984375,-400000.0625,-5244.4501953125,-400000.0625
185.7517683506012,-400000.0625,-12359.240234375,-6285.669921875,-400000.0625,-18882.23046875,-400000.0625,-5245.8798828125,-400000.0625
185.76666831970215,-400000.0625,-12358.8603515625,-6284.759765625,-400000.0625,-18883.94921875,-400000.0625,-5248.58984375,-400000.0625
185.78261828422546,-400000.0625,-12347.8896484375,-6272.35986328125,-400000.0625,-18880.939453125,-400000.0625,-5237.6298828125,-400000.0625
185.79586696624756,-400000.0625,-12339.8798828125,-6265.06982421875,-400000.0625,-18869.9296875,-400000.0625,-5227.60986328125,-400000.0625
185.82109951972961,-400000.0625,-12349.1796875,-6273.3701171875,-400000.0625,-18874.890625,-400000.0625,-5242.919921875,-400000.0625
185.83035135269165,-400000.0625,-12357.08984375,-6276.85009765625,-400000.0625,-18887.859375,-400000.0625,-5245.68994140625,-400000.0625
185.83848977088928,-400000.0625,-12357.6201171875,-6280.14013671875,-400000.0625,-18888.0,-400000.0625,-5248.58984375,-400000.0625
185.85036706924438,-400000.0625,-12348.26953125,-6270.5,-400000.0625,-18874.359375,-400000.0625,-5237.81982421875,-400000.0625
185.86147665977478,-400000.0625,-12355.419921875,-6275.64990234375,-400000.0625,-18872.689453125,-400000.0625,-5244.2998046875,-400000.0625
185.87063312530518,-400000.0625,-12362.0,-6280.22998046875,-400000.0625,-18887.240234375,-400000.0625,-5251.22021484375,-400000.0625
185.88532733917236,-400000.0625,-12353.23046875,-6269.60009765625,-400000.0625,-18881.23046875,-400000.0625,-5241.39013671875,-400000.0625
185.90211009979248,-400000.0625,-12359.099609375,-6272.60009765625,-400000.0625,-18886.5703125,-400000.0625,-5244.58984375,-400000.0625
185.93106722831726,-400000.0625,-12362.0,-6278.31982421875,-400000.0625,-18886.900390625,-400000.0625,-5248.97998046875,-400000.0625
185.94032335281372,-400000.0625,-12364.6796875,-6281.7099609375,-400000.0625,-18884.470703125,-400000.0625,-5246.58984375,-400000.0625
185.95264649391174,-400000.0625,-12358.7099609375,-6275.31982421875,-400000.0625,-18883.470703125,-400000.0625,-5242.72998046875,-400000.0625
185.96468496322632,-400000.0625,-12362.91015625,-6279.7998046875,-400000.0625,-18885.419921875,-400000.0625,-5247.2099609375,-400000.0625
185.97377705574036,-400000.0625,-12363.2900390625,-6275.02978515625,-400000.0625,-18881.419921875,-400000.0625,-5243.58984375,-400000.0625
185.9840590953827,-400000.0625,-12354.419921875,-6266.4501953125,-400000.0625,-18874.83984375,-400000.0625,-5238.009765625,-400000.0625
186.0016257762909,-400000.0625,-12366.8203125,-6277.990234375,-400000.0625,-18880.4609375,-400000.0625,-5247.4501953125,-400000.0625
186.01130080223083,-400000.0625,-12370.58984375,-6281.0,-400000.0625,-18880.509765625,-400000.0625,-5244.919921875,-400000.0625
186.0433588027954,-400000.0625,-12357.4296875,-6267.830078125,-400000.0625,-18881.66015625,-400000.0625,-5235.2900390625,-400000.0625
186.0589382648468,-400000.0625,-12362.8603515625,-6270.22021484375,-400000.0625,-18884.990234375,-400000.0625,-5241.06005859375,-400000.0625
186.07027125358582,-400000.0625,-12371.919921875,-6276.93994140625,-400000.0625,-18890.33984375,-400000.0625,-5246.5,-400000.0625
186.08670687675476,-400000.0625,-12366.33984375,-6273.22021484375,-400000.0625,-18887.330078125,-400000.0625,-5241.72998046875,-400000.0625
186.10296869277954,-400000.0625,-12364.0595703125,-6271.89013671875,-400000.0625,-18881.279296875,-400000.0625,-5237.580078125,-400000.0625
186.11150121688843,-400000.0625,-12368.6796875,-6275.4599609375,-400000.0625,-18878.890625,-400000.0625,-5237.8701171875,-400000.0625
186.1519637107849,-400000.0625,-12374.5498046875,-6278.22998046875,-400000.0625,-18886.51953125,-400000.0625,-5247.31005859375,-400000.0625
186.16783952713013,-400000.0625,-12369.25,-6274.7998046875,-400000.0625,-18884.470703125,-400000.0625,-5241.2998046875,-400000.0625
186.17640113830566,-400000.0625,-12376.1201171875,-6281.419921875,-400000.0625,-18888.189453125,-400000.0625,-5245.2998046875,-400000.0625
186.1900622844696,-400000.0625,-12380.169921875,-6282.85009765625,-400000.0625,-18890.669921875,-400000.0625,-5244.8798828125,-400000.0625
186.20080971717834,-400000.0625,-12366.150390625,-6269.8798828125,-400000.0625,-18878.650390625,-400000.0625,-5237.77001953125,-400000.0625
186.2315423488617,-400000.0625,-12374.259765625,-6275.7001953125,-400000.0625,-18884.759765625,-400000.0625,-5244.06005859375,-400000.0625
186.27615094184875,-400000.0625,-12381.0302734375,-6283.240234375,-400000.0625,-18892.9609375,-400000.0625,-5245.8798828125,-400000.0625
186.29394698143005,-400000.0625,-12374.9697265625,-6278.08984375,-400000.0625,-18884.66015625,-400000.0625,-5242.6298828125,-400000.0625
186.31323504447937,-400000.0625,-12379.9296875,-6279.22998046875,-400000.0625,-18886.140625,-400000.0625,-5241.77978515625,-400000.0625
186.34263157844543,-400000.0625,-12380.3603515625,-6281.47021484375,-400000.0625,-18887.330078125,-400000.0625,-5248.39990234375,-400000.0625
186.39375805854797,-400000.0625,-12383.650390625,-6283.6201171875,-400000.0625,-18890.810546875,-400000.0625,-5253.740234375,-400000.0625
186.40848875045776,-400000.0625,-12376.169921875,-6274.7998046875,-400000.0625,-18887.859375,-400000.0625,-5242.5400390625,-400000.0625
186.42899322509766,-400000.0625,-12377.0703125,-6276.3701171875,-400000.0625,-18880.80078125,-400000.0625,-5244.919921875,-400000.0625
186.44757318496704,-400000.0625,-12385.419921875,-6282.6201171875,-400000.0625,-18881.66015625,-400000.0625,-5253.22021484375,-400000.0625
186.49887037277222,-400000.0625,-12381.0302734375,-6277.85009765625,-400000.0625,-18881.279296875,-400000.0625,-5251.89013671875,-400000.0625
186.52060055732727,-400000.0625,-12378.3095703125,-6269.7900390625,-400000.0625,-18879.1796875,-400000.0625,-5248.169921875,-400000.0625
186.54372215270996,-400000.0625,-12383.509765625,-6270.83984375,-400000.0625,-18878.509765625,-400000.0625,-5251.89013671875,-400000.0625
186.57079076766968,-400000.0625,-12381.1298828125,-6273.56005859375,-400000.0625,-18878.509765625,-400000.0625,-5254.509765625,-400000.0625
186.62296104431152,-400000.0625,-12377.6904296875,-6271.97998046875,-400000.0625,-18876.83984375,-400000.0625,-5247.93017578125,-400000.0625
186.63856887817383,-400000.0625,-12384.6103515625,-6275.419921875,-400000.0625,-18884.80078125,-400000.0625,-5250.740234375,-400000.0625
186.6585555076599,-400000.0625,-12390.419921875,-6279.18017578125,-400000.0625,-18891.91015625,-400000.0625,-5254.080078125,-400000.0625
186.6759696006775,-400000.0625,-12379.3095703125,-6271.41015625,-400000.0625,-18886.4296875,-400000.0625,-5246.93017578125,-400000.0625
186.7285463809967,-400000.0625,-12378.740234375,-6270.22021484375,-400000.0625,-18883.7109375,-400000.0625,-5246.4501953125,-400000.0625
186.73872065544128,-400000.0625,-12382.9404296875,-6273.18017578125,-400000.0625,-18881.080078125,-400000.0625,-5250.97998046875,-400000.0625
186.74870777130127,-400000.0625,-12389.6103515625,-6280.9501953125,-400000.0625,-18887.380859375,-400000.0625,-5257.64990234375,-400000.0625
186.75957775115967,-400000.0625,-12389.4697265625,-6279.419921875,-400000.0625,-18887.279296875,-400000.0625,-5254.35986328125,-400000.0625
186.77030110359192,-400000.0625,-12379.080078125,-6270.35986328125,-400000.0625,-18880.990234375,-400000.0625,-5247.39990234375,-400000.0625
186.78061652183533,-400000.0625,-12376.740234375,-6270.02978515625,-400000.0625,-18876.509765625,-400000.0625,-5243.16015625,-400000.0625
186.81009650230408,-400000.0625,-12391.5703125,-6280.9501953125,-400000.0625,-18885.51953125,-400000.0625,-5244.64013671875,-400000.0625
186.8198685646057,-400000.0625,-12398.6298828125,-6284.08984375,-400000.0625,-18894.48046875,-400000.0625,-5255.31982421875,-400000.0625
186.82880234718323,-400000.0625,-12393.0,-6277.75,-400000.0625,-18887.810546875,-400000.0625,-5252.31005859375,-400000.0625
186.83726811408997,-400000.0625,-12384.3203125,-6271.27001953125,-400000.0625,-18871.359375,-400000.0625,-5248.740234375,-400000.0625
186.84495949745178,-400000.0625,-12382.599609375,-6270.93017578125,-400000.0625,-18878.1796875,-400000.0625,-5245.58984375,-400000.0625
186.85532546043396,-400000.0625,-12384.1298828125,-6275.75,-400000.0625,-18888.140625,-400000.0625,-5247.64013671875,-400000.0625
186.86417603492737,-400000.0625,-12391.2802734375,-6279.330078125,-400000.0625,-18888.2890625,-400000.0625,-5250.64990234375,-400000.0625
186.87233066558838,-400000.0625,-12397.150390625,-6279.66015625,-400000.0625,-18888.810546875,-400000.0625,-5252.080078125,-400000.0625
186.88088631629944,-400000.0625,-12395.240234375,-6281.52001953125,-400000.0625,-18893.720703125,-400000.0625,-5254.7001953125,-400000.0625
186.90912199020386,-400000.0625,-12385.5595703125,-6273.93994140625,-400000.0625,-18879.369140625,-400000.0625,-5249.41015625,-400000.0625
186.91910099983215,-400000.0625,-12386.1298828125,-6271.89013671875,-400000.0625,-18881.130859375,-400000.0625,-5246.8798828125,-400000.0625
186.92789435386658,-400000.0625,-12390.4697265625,-6272.83984375,-400000.0625,-18882.470703125,-400000.0625,-5250.5498046875,-400000.0625
186.93620085716248,-400000.0625,-12396.6201171875,-6276.0400390625,-400000.0625,-18885.419921875,-400000.0625,-5249.1201171875,-400000.0625
186.943781375885,-400000.0625,-12396.33984375,-6279.56005859375,-400000.0625,-18890.189453125,-400000.0625,-5246.64013671875,-400000.0625
186.95364379882812,-400000.0625,-12392.4296875,-6279.89990234375,-400000.0625,-18891.669921875,-400000.0625,-5257.080078125,-400000.0625
186.96355819702148,-400000.0625,-12386.419921875,-6273.31982421875,-400000.0625,-18882.470703125,-400000.0625,-5263.66015625,-400000.0625
186.97131991386414,-400000.0625,-12392.240234375,-6272.27001953125,-400000.0625,-18882.80078125,-400000.0625,-5264.89990234375,-400000.0625
186.97998213768005,-400000.0625,-12395.48046875,-6271.22021484375,-400000.0625,-18881.080078125,-400000.0625,-5266.18994140625,-400000.0625
186.99334454536438,-400000.0625,-12385.7001953125,-6265.06982421875,-400000.0625,-18876.169921875,-400000.0625,-5261.0400390625,-400000.0625
187.02248191833496,-400000.0625,-12380.5498046875,-6263.5,-400000.0625,-18876.939453125,-400000.0625,-5258.27001953125,-400000.0625
187.03211283683777,-400000.0625,-12386.1298828125,-6267.31005859375,-400000.0625,-18881.66015625,-400000.0625,-5262.22998046875,-400000.0625
187.0406997203827,-400000.0625,-12390.23046875,-6270.02978515625,-400000.0625,-18885.7109375,-400000.0625,-5261.52001953125,-400000.0625
187.05076360702515,-400000.0625,-12387.849609375,-6266.68994140625,-400000.0625,-18881.080078125,-400000.0625,-5257.85009765625,-400000.0625
187.06174397468567,-400000.0625,-12382.080078125,-6259.58984375,-400000.0625,-18876.509765625,-400000.0625,-5253.83984375,-400000.0625
187.0708110332489,-400000.0625,-12381.509765625,-6259.6298828125,-400000.0625,-18873.98046875,-400000.0625,-5253.169921875,-400000.0625
187.08233833312988,-400000.0625,-12395.1904296875,-6277.31982421875,-400000.0625,-18888.08984375,-400000.0625,-5269.2900390625,-400000.0625
187.10313153266907,-400000.0625,-12401.150390625,-6281.759765625,-400000.0625,-18892.580078125,-400000.0625,-5272.52978515625,-400000.0625
187.13242936134338,-400000.0625,-12395.5302734375,-6272.83984375,-400000.0625,-18883.0390625,-400000.0625,-5263.66015625,-400000.0625
187.14152789115906,-400000.0625,-12391.51953125,-6267.02001953125,-400000.0625,-18879.69921875,-400000.0625,-5261.9501953125,-400000.0625
187.15315794944763,-400000.0625,-12387.900390625,-6265.77978515625,-400000.0625,-18881.3203125,-400000.0625,-5256.7998046875,-400000.0625
187.16413116455078,-400000.0625,-12384.1796875,-6263.8798828125,-400000.0625,-18870.01953125,-400000.0625,-5253.41015625,-400000.0625
187.17243432998657,-400000.0625,-12395.0,-6272.56005859375,-400000.0625,-18882.560546875,-400000.0625,-5263.89990234375,-400000.0625
187.1822988986969,-400000.0625,-12385.8896484375,-6264.97021484375,-400000.0625,-18884.51953125,-400000.0625,-5259.0400390625,-400000.0625
