time,ch1,ch2,ch3,ch4,ch5,ch6,ch7,ch8
156.19848489761353,-400000.0625,-255.8699951171875,588.4600219726562,-400000.0625,-5422.5498046875,-400000.0625,1522.9200439453125,-400000.0625
156.2300910949707,-400000.0625,-337.739990234375,509.2099914550781,-400000.0625,-5485.68017578125,-400000.0625,1445.0999755859375,-400000.0625
156.24625992774963,-400000.0625,-358.67999267578125,491.57000732421875,-400000.0625,-5500.1298828125,-400000.0625,1426.8900146484375,-400000.0625
156.26525568962097,-400000.0625,-290.010009765625,557.1400146484375,-400000.0625,-5446.52978515625,-400000.0625,1486.43994140625,-400000.0625
156.28052043914795,-400000.0625,-230.25999450683594,613.6900024414062,-400000.0625,-5397.83984375,-400000.0625,1541.3299560546875,-400000.0625
156.30291199684143,-400000.0625,-261.7799987792969,583.0800170898438,-400000.0625,-5424.02001953125,-400000.0625,1517.1099853515625,-400000.0625
156.32684636116028,-400000.0625,-338.2699890136719,508.8800048828125,-400000.0625,-5487.8701171875,-400000.0625,1438.9000244140625,-400000.0625
156.34241461753845,-400000.0625,-355.42999267578125,490.8999938964844,-400000.0625,-5498.509765625,-400000.0625,1421.260009765625,-400000.0625
156.3547968864441,-400000.0625,-290.44000244140625,553.989990234375,-400000.0625,-5447.9599609375,-400000.0625,1488.3499755859375,-400000.0625
156.36883401870728,-400000.0625,-229.22000122070312,611.1599731445312,-400000.0625,-5401.0400390625,-400000.0625,1547.3800048828125,-400000.0625
156.38152742385864,-400000.0625,-259.0199890136719,580.02001953125,-400000.0625,-5425.22021484375,-400000.0625,1513.530029296875,-400000.0625
156.4035325050354,-400000.0625,-336.07000732421875,507.739990234375,-400000.0625,-5484.9599609375,-400000.0625,1437.3800048828125,-400000.0625
156.43775367736816,-400000.0625,-353.3399963378906,488.80999755859375,-400000.0625,-5498.60009765625,-400000.0625,1420.3599853515625,-400000.0625
156.44915533065796,-400000.0625,-294.29998779296875,549.27001953125,-400000.0625,-5443.0498046875,-400000.0625,1483.6300048828125,-400000.0625
156.46468353271484,-400000.0625,-232.88999938964844,607.2000122070312,-400000.0625,-5403.56982421875,-400000.0625,1538.6600341796875,-400000.0625
156.47816038131714,-400000.0625,-260.7799987792969,578.5900268554688,-400000.0625,-5431.93994140625,-400000.0625,1509.6199951171875,-400000.0625
156.49326157569885,-400000.0625,-340.17999267578125,502.44000244140625,-400000.0625,-5491.8798828125,-400000.0625,1437.18994140625,-400000.0625
156.50944876670837,-400000.0625,-356.25,485.94000244140625,-400000.0625,-5503.7001953125,-400000.0625,1422.449951171875,-400000.0625
156.5295445919037,-400000.0625,-289.67999267578125,550.1699829101562,-400000.0625,-5447.9599609375,-400000.0625,1482.530029296875,-400000.0625
156.55064058303833,-400000.0625,-231.83999633789062,606.5800170898438,-400000.0625,-5403.330078125,-400000.0625,1542.280029296875,-400000.0625
156.5631561279297,-400000.0625,-262.30999755859375,574.3499755859375,-400000.0625,-5432.75,-400000.0625,1514.3900146484375,-400000.0625
156.57620978355408,-400000.0625,-338.1300048828125,500.82000732421875,-400000.0625,-5488.43994140625,-400000.0625,1433.3199462890625,-400000.0625
156.59087944030762,-400000.0625,-355.9599914550781,483.3699951171875,-400000.0625,-5498.02978515625,-400000.0625,1415.780029296875,-400000.0625
156.60334014892578,-400000.0625,-292.3999938964844,548.3599853515625,-400000.0625,-5445.10009765625,-400000.0625,1484.010009765625,-400000.0625
156.61849451065063,-400000.0625,-233.32000732421875,603.25,-400000.0625,-5404.08984375,-400000.0625,1538.4200439453125,-400000.0625
156.64611983299255,-400000.0625,-261.9700012207031,574.8300170898438,-400000.0625,-5429.5498046875,-400000.0625,1506.0400390625,-400000.0625
156.6606502532959,-400000.0625,-340.17999267578125,500.7300109863281,-400000.0625,-5488.97021484375,-400000.0625,1432.0400390625,-400000.0625
156.6724865436554,-400000.0625,-358.20001220703125,484.510009765625,-400000.0625,-5503.0400390625,-400000.0625,1415.6300048828125,-400000.0625
156.68590831756592,-400000.0625,-290.8699951171875,549.6500244140625,-400000.0625,-5455.02001953125,-400000.0625,1480.1500244140625,-400000.0625
156.70907878875732,-400000.0625,-232.7899932861328,607.6300048828125,-400000.0625,-5406.0498046875,-400000.0625,1537.1300048828125,-400000.0625
156.72879266738892,-400000.0625,-260.45001220703125,577.0700073242188,-400000.0625,-5429.080078125,-400000.0625,1510.18994140625,-400000.0625
156.75954723358154,-400000.0625,-335.92999267578125,503.7300109863281,-400000.0625,-5490.35009765625,-400000.0625,1433.0400390625,-400000.0625
156.77238965034485,-400000.0625,-352.57000732421875,489.8500061035156,-400000.0625,-5497.7900390625,-400000.0625,1416.969970703125,-400000.0625
156.78731417655945,-400000.0625,-289.20001220703125,551.3699951171875,-400000.0625,-5444.72021484375,-400000.0625,1481.5799560546875,-400000.0625
156.79900193214417,-400000.0625,-233.64999389648438,606.6799926757812,-400000.0625,-5405.27978515625,-400000.0625,1536.0799560546875,-400000.0625
156.81229615211487,-400000.0625,-260.45001220703125,577.5,-400000.0625,-5433.4599609375,-400000.0625,1507.5699462890625,-400000.0625
156.8253607749939,-400000.0625,-336.1199951171875,504.7300109863281,-400000.0625,-5489.919921875,-400000.0625,1434.469970703125,-400000.0625
156.83563494682312,-400000.0625,-355.7699890136719,487.4700012207031,-400000.0625,-5498.7001953125,-400000.0625,1417.8299560546875,-400000.0625
156.86158514022827,-400000.0625,-289.25,549.9400024414062,-400000.0625,-5448.43994140625,-400000.0625,1479.239990234375,-400000.0625
156.87709379196167,-400000.0625,-233.4600067138672,605.489990234375,-400000.0625,-5406.47998046875,-400000.0625,1534.989990234375,-400000.0625
156.89129281044006,-400000.0625,-260.5899963378906,578.0700073242188,-400000.0625,-5430.02978515625,-400000.0625,1506.1400146484375,-400000.0625
156.90137672424316,-400000.0625,-333.30999755859375,506.7799987792969,-400000.0625,-5485.72998046875,-400000.0625,1434.0899658203125,-400000.0625
156.91469359397888,-400000.0625,-351.3800048828125,488.0899963378906,-400000.0625,-5497.41015625,-400000.0625,1420.1199951171875,-400000.0625
156.9270739555359,-400000.0625,-286.010009765625,551.9400024414062,-400000.0625,-5451.97021484375,-400000.0625,1479.2900390625,-400000.0625
156.9362781047821,-400000.0625,-230.5,606.489990234375,-400000.0625,-5409.240234375,-400000.0625,1535.1300048828125,-400000.0625
156.96320223808289,-400000.0625,-266.739990234375,574.6400146484375,-400000.0625,-5433.509765625,-400000.0625,1505.4200439453125,-400000.0625
156.98060655593872,-400000.0625,-345.8999938964844,497.2900085449219,-400000.0625,-5491.10986328125,-400000.0625,1429.4599609375,-400000.0625
156.99497056007385,-400000.0625,-359.8699951171875,482.17999267578125,-400000.0625,-5506.27978515625,-400000.0625,1411.1500244140625,-400000.0625
157.01152443885803,-400000.0625,-295.8299865722656,543.8800048828125,-400000.0625,-5457.97021484375,-400000.0625,1476.81005859375,-400000.0625
157.02562713623047,-400000.0625,-235.75,600.3400268554688,-400000.0625,-5411.9599609375,-400000.0625,1533.0799560546875,-400000.0625
157.0362024307251,-400000.0625,-263.1199951171875,571.6300048828125,-400000.0625,-5436.75,-400000.0625,1504.6600341796875,-400000.0625
157.04901838302612,-400000.0625,-341.75,496.2900085449219,-400000.0625,-5493.06982421875,-400000.0625,1434.3299560546875,-400000.0625
157.0766246318817,-400000.0625,-362.67999267578125,481.2699890136719,-400000.0625,-5503.89013671875,-400000.0625,1416.6400146484375,-400000.0625
157.0890758037567,-400000.0625,-293.1099853515625,543.7899780273438,-400000.0625,-5460.22021484375,-400000.0625,1480.530029296875,-400000.0625
157.09965872764587,-400000.0625,-235.17999267578125,600.1500244140625,-400000.0625,-5413.72021484375,-400000.0625,1536.0799560546875,-400000.0625
157.11922335624695,-400000.0625,-264.7900085449219,572.5900268554688,-400000.0625,-5432.27001953125,-400000.0625,1507.949951171875,-400000.0625
157.13178610801697,-400000.0625,-340.75,500.3900146484375,-400000.0625,-5498.4599609375,-400000.0625,1431.0799560546875,-400000.0625
157.14430928230286,-400000.0625,-362.05999755859375,482.2300109863281,-400000.0625,-5514.669921875,-400000.0625,1414.9200439453125,-400000.0625
157.15479445457458,-400000.0625,-297.2099914550781,542.4000244140625,-400000.0625,-5461.740234375,-400000.0625,1475.81005859375,-400000.0625
157.1832857131958,-400000.0625,-237.99000549316406,598.6199951171875,-400000.0625,-5413.72021484375,-400000.0625,1534.219970703125,-400000.0625
157.19499731063843,-400000.0625,-267.0799865722656,568.2899780273438,-400000.0625,-5438.419921875,-400000.0625,1506.3299560546875,-400000.0625
157.21405959129333,-400000.0625,-347.4700012207031,493.7200012207031,-400000.0625,-5500.7001953125,-400000.0625,1434.760009765625,-400000.0625
157.22835278511047,-400000.0625,-363.6400146484375,477.8399963378906,-400000.0625,-5514.47998046875,-400000.0625,1415.43994140625,-400000.0625
157.24237418174744,-400000.0625,-299.2200012207031,542.5499877929688,-400000.0625,-5459.06982421875,-400000.0625,1479.3399658203125,-400000.0625
157.25869965553284,-400000.0625,-242.08999633789062,596.8099975585938,-400000.0625,-5413.580078125,-400000.0625,1534.27001953125,-400000.0625
157.28816723823547,-400000.0625,-271.0299987792969,566.8200073242188,-400000.0625,-5441.9501953125,-400000.0625,1503.6600341796875,-400000.0625
157.29856991767883,-400000.0625,-345.4200134277344,493.3399963378906,-400000.0625,-5500.27001953125,-400000.0625,1426.6500244140625,-400000.0625
157.31310939788818,-400000.0625,-363.1600036621094,477.6000061035156,-400000.0625,-5510.43017578125,-400000.0625,1411.6300048828125,-400000.0625
157.32837414741516,-400000.0625,-299.8399963378906,541.4000244140625,-400000.0625,-5460.06982421875,-400000.0625,1473.3299560546875,-400000.0625
157.33973813056946,-400000.0625,-240.99000549316406,597.760009765625,-400000.0625,-5411.47998046875,-400000.0625,1526.1700439453125,-400000.0625
157.36280941963196,-400000.0625,-272.2300109863281,567.25,-400000.0625,-5434.85009765625,-400000.0625,1496.510009765625,-400000.0625
157.38494110107422,-400000.0625,-351.760009765625,491.760009765625,-400000.0625,-5502.02978515625,-400000.0625,1421.5,-400000.0625
157.3958556652069,-400000.0625,-367.5899963378906,476.2200012207031,-400000.0625,-5514.56982421875,-400000.0625,1405.3800048828125,-400000.0625
157.40630865097046,-400000.0625,-301.5,542.2100219726562,-400000.0625,-5458.97998046875,-400000.0625,1468.800048828125,-400000.0625
157.41900634765625,-400000.0625,-238.47000122070312,599.1900024414062,-400000.0625,-5408.91015625,-400000.0625,1521.8699951171875,-400000.0625
157.4306197166443,-400000.0625,-271.0799865722656,566.3900146484375,-400000.0625,-5437.08984375,-400000.0625,1492.8299560546875,-400000.0625
157.44121050834656,-400000.0625,-352.4800109863281,490.80999755859375,-400000.0625,-5504.27978515625,-400000.0625,1419.1199951171875,-400000.0625
157.45442509651184,-400000.0625,-367.5,476.54998779296875,-400000.0625,-5514.0498046875,-400000.0625,1404.0899658203125,-400000.0625
157.46354031562805,-400000.0625,-300.260009765625,541.1099853515625,-400000.0625,-5459.259765625,-400000.0625,1467.6099853515625,-400000.0625
157.48459315299988,-400000.0625,-241.0399932861328,599.3400268554688,-400000.0625,-5412.81982421875,-400000.0625,1522.02001953125,-400000.0625
157.4940106868744,-400000.0625,-271.32000732421875,567.6300048828125,-400000.0625,-5437.60986328125,-400000.0625,1492.0699462890625,-400000.0625
157.50470447540283,-400000.0625,-349.3299865722656,492.8599853515625,-400000.0625,-5499.35986328125,-400000.0625,1417.5400390625,-400000.0625
157.5195665359497,-400000.0625,-364.1099853515625,480.4599914550781,-400000.0625,-5507.08984375,-400000.0625,1404.2900390625,-400000.0625
157.53045201301575,-400000.0625,-297.0199890136719,544.8800048828125,-400000.0625,-5455.4501953125,-400000.0625,1466.469970703125,-400000.0625
157.54222416877747,-400000.0625,-239.4199981689453,598.9600219726562,-400000.0625,-5408.0498046875,-400000.0625,1524.5400390625,-400000.0625
157.56078028678894,-400000.0625,-273.0799865722656,564.239990234375,-400000.0625,-5436.7099609375,-400000.0625,1494.4599609375,-400000.0625
157.572527885437,-400000.0625,-350.5199890136719,489.6199951171875,-400000.0625,-5498.31005859375,-400000.0625,1418.72998046875,-400000.0625
157.59306073188782,-400000.0625,-363.25,477.2699890136719,-400000.0625,-5507.52001953125,-400000.0625,1403.280029296875,-400000.0625
157.60197925567627,-400000.0625,-298.54998779296875,541.02001953125,-400000.0625,-5456.97021484375,-400000.0625,1468.8499755859375,-400000.0625
157.61631679534912,-400000.0625,-239.52000427246094,596.3300170898438,-400000.0625,-5409.0,-400000.0625,1521.8299560546875,-400000.0625
157.6274116039276,-400000.0625,-269.94000244140625,565.6199951171875,-400000.0625,-5437.7998046875,-400000.0625,1489.5899658203125,-400000.0625
157.63820266723633,-400000.0625,-347.19000244140625,491.5199890136719,-400000.0625,-5502.18017578125,-400000.0625,1414.6800537109375,-400000.0625
157.6517198085785,-400000.0625,-364.489990234375,477.2200012207031,-400000.0625,-5510.3798828125,-400000.0625,1402.0,-400000.0625
157.67354655265808,-400000.0625,-300.4599914550781,540.6900024414062,-400000.0625,-5460.169921875,-400000.0625,1465.75,-400000.0625
157.69784283638,-400000.0625,-241.3300018310547,596.0900268554688,-400000.0625,-5413.25,-400000.0625,1524.02001953125,-400000.0625
157.71686363220215,-400000.0625,-271.6099853515625,566.8599853515625,-400000.0625,-5436.66015625,-400000.0625,1491.9300537109375,-400000.0625
157.72761702537537,-400000.0625,-349.8599853515625,489.7099914550781,-400000.0625,-5505.08984375,-400000.0625,1416.4000244140625,-400000.0625
157.7378532886505,-400000.0625,-360.9200134277344,477.2200012207031,-400000.0625,-5513.14013671875,-400000.0625,1400.0899658203125,-400000.0625
157.75145435333252,-400000.0625,-290.1099853515625,545.3099975585938,-400000.0625,-5450.77001953125,-400000.0625,1467.3699951171875,-400000.0625
157.7622697353363,-400000.0625,-239.22999572753906,596.4299926757812,-400000.0625,-5415.490234375,-400000.0625,1522.6400146484375,-400000.0625
157.77250623703003,-400000.0625,-277.2300109863281,560.8599853515625,-400000.0625,-5445.43017578125,-400000.0625,1489.2099609375,-400000.0625
157.78610849380493,-400000.0625,-350.0899963378906,488.6600036621094,-400000.0625,-5500.7900390625,-400000.0625,1417.449951171875,-400000.0625
157.80416226387024,-400000.0625,-363.1099853515625,477.4100036621094,-400000.0625,-5508.60986328125,-400000.0625,1403.239990234375,-400000.0625
157.8240556716919,-400000.0625,-296.45001220703125,543.260009765625,-400000.0625,-5455.06982421875,-400000.0625,1465.3199462890625,-400000.0625
157.83308029174805,-400000.0625,-238.17999267578125,598.47998046875,-400000.0625,-5410.47998046875,-400000.0625,1520.1099853515625,-400000.0625
157.8435800075531,-400000.0625,-271.3699951171875,564.77001953125,-400000.0625,-5437.85009765625,-400000.0625,1490.31005859375,-400000.0625
157.8581564426422,-400000.0625,-351.760009765625,490.239990234375,-400000.0625,-5501.7001953125,-400000.0625,1417.449951171875,-400000.0625
157.8668930530548,-400000.0625,-368.54998779296875,474.54998779296875,-400000.0625,-5512.72021484375,-400000.0625,1400.8499755859375,-400000.0625
157.87841892242432,-400000.0625,-305.2200012207031,534.6799926757812,-400000.0625,-5458.740234375,-400000.0625,1465.75,-400000.0625
157.89251947402954,-400000.0625,-250.33999633789062,587.1799926757812,-400000.0625,-5420.39990234375,-400000.0625,1516.8699951171875,-400000.0625
157.91846299171448,-400000.0625,-279.239990234375,558.6599731445312,-400000.0625,-5447.2001953125,-400000.0625,1481.9100341796875,-400000.0625
157.9288125038147,-400000.0625,-356.1499938964844,485.0899963378906,-400000.0625,-5503.60986328125,-400000.0625,1411.0999755859375,-400000.0625
157.93836522102356,-400000.0625,-368.260009765625,473.30999755859375,-400000.0625,-5509.47021484375,-400000.0625,1395.4200439453125,-400000.0625
157.94915056228638,-400000.0625,-298.92999267578125,539.1099853515625,-400000.0625,-5457.2099609375,-400000.0625,1457.6400146484375,-400000.0625
157.95863342285156,-400000.0625,-242.4199981689453,594.0,-400000.0625,-5413.68017578125,-400000.0625,1513.3900146484375,-400000.0625
157.96699595451355,-400000.0625,-275.2799987792969,562.47998046875,-400000.0625,-5444.0,-400000.0625,1480.47998046875,-400000.0625
157.98728251457214,-400000.0625,-352.760009765625,490.239990234375,-400000.0625,-5504.080078125,-400000.0625,1409.199951171875,-400000.0625
157.99694538116455,-400000.0625,-370.9800109863281,473.2099914550781,-400000.0625,-5511.18994140625,-400000.0625,1392.3199462890625,-400000.0625
158.0211796760559,-400000.0625,-302.9800109863281,536.969970703125,-400000.0625,-5455.58984375,-400000.0625,1455.2099609375,-400000.0625
158.0302255153656,-400000.0625,-245.9499969482422,591.4199829101562,-400000.0625,-5408.3798828125,-400000.0625,1510.2900390625,-400000.0625
158.03933811187744,-400000.0625,-278.7099914550781,559.3800048828125,-400000.0625,-5441.3798828125,-400000.0625,1477.6700439453125,-400000.0625
158.0575442314148,-400000.0625,-358.6300048828125,480.75,-400000.0625,-5511.759765625,-400000.0625,1401.4200439453125,-400000.0625
158.0670609474182,-400000.0625,-372.2699890136719,471.260009765625,-400000.0625,-5520.68017578125,-400000.0625,1391.7900390625,-400000.0625
158.08574676513672,-400000.0625,-303.4599914550781,536.72998046875,-400000.0625,-5461.60009765625,-400000.0625,1455.969970703125,-400000.0625
158.09665060043335,-400000.0625,-248.2899932861328,590.1300048828125,-400000.0625,-5417.16015625,-400000.0625,1510.4300537109375,-400000.0625
158.1087236404419,-400000.0625,-280.7099914550781,557.6099853515625,-400000.0625,-5445.10009765625,-400000.0625,1479.239990234375,-400000.0625
158.1407504081726,-400000.0625,-359.1499938964844,481.0299987792969,-400000.0625,-5506.9501953125,-400000.0625,1401.6199951171875,-400000.0625
158.16624879837036,-400000.0625,-374.1300048828125,470.3500061035156,-400000.0625,-5516.81982421875,-400000.0625,1389.219970703125,-400000.0625
158.1986448764801,-400000.0625,-305.32000732421875,535.6300048828125,-400000.0625,-5461.60009765625,-400000.0625,1457.97998046875,-400000.0625
158.21440601348877,-400000.0625,-249.6699981689453,587.6500244140625,-400000.0625,-5417.58984375,-400000.0625,1510.949951171875,-400000.0625
158.2479555606842,-400000.0625,-284.1499938964844,555.9400024414062,-400000.0625,-5448.81982421875,-400000.0625,1477.77001953125,-400000.0625
158.26947164535522,-400000.0625,-359.5799865722656,482.75,-400000.0625,-5505.990234375,-400000.0625,1402.280029296875,-400000.0625
158.28423643112183,-400000.0625,-371.8900146484375,471.1600036621094,-400000.0625,-5513.0,-400000.0625,1390.739990234375,-400000.0625
158.3165156841278,-400000.0625,-301.1700134277344,538.489990234375,-400000.0625,-5455.68994140625,-400000.0625,1453.68994140625,-400000.0625
158.35736989974976,-400000.0625,-247.52999877929688,591.5599975585938,-400000.0625,-5413.2900390625,-400000.0625,1510.6700439453125,-400000.0625
158.37359309196472,-400000.0625,-281.3800048828125,557.3300170898438,-400000.0625,-5443.0,-400000.0625,1478.9599609375,-400000.0625
158.40249633789062,-400000.0625,-357.7200012207031,483.2300109863281,-400000.0625,-5505.18017578125,-400000.0625,1403.469970703125,-400000.0625
158.41703867912292,-400000.0625,-370.1199951171875,471.8299865722656,-400000.0625,-5513.0498046875,-400000.0625,1388.68994140625,-400000.0625
158.44620275497437,-400000.0625,-296.739990234375,539.72998046875,-400000.0625,-5454.35009765625,-400000.0625,1456.97998046875,-400000.0625
158.46034216880798,-400000.0625,-244.47000122070312,592.0399780273438,-400000.0625,-5418.919921875,-400000.0625,1513.6700439453125,-400000.0625
158.47713112831116,-400000.0625,-281.3800048828125,556.4199829101562,-400000.0625,-5449.81982421875,-400000.0625,1479.0999755859375,-400000.0625
158.48768973350525,-400000.0625,-354.0,484.94000244140625,-400000.0625,-5502.1298828125,-400000.0625,1403.4300537109375,-400000.0625
158.5017659664154,-400000.0625,-369.07000732421875,467.2099914550781,-400000.0625,-5512.0,-400000.0625,1385.739990234375,-400000.0625
158.51323795318604,-400000.0625,-305.2200012207031,532.0999755859375,-400000.0625,-5459.68994140625,-400000.0625,1452.4000244140625,-400000.0625
158.52528285980225,-400000.0625,-247.6199951171875,587.7999877929688,-400000.0625,-5415.10986328125,-400000.0625,1507.5699462890625,-400000.0625
158.56283116340637,-400000.0625,-283.3800048828125,554.989990234375,-400000.0625,-5443.81005859375,-400000.0625,1474.81005859375,-400000.0625
158.57832551002502,-400000.0625,-363.05999755859375,479.510009765625,-400000.0625,-5506.990234375,-400000.0625,1401.7099609375,-400000.0625
158.59032273292542,-400000.0625,-372.8399963378906,466.25,-400000.0625,-5516.2900390625,-400000.0625,1388.68994140625,-400000.0625
158.6104793548584,-400000.0625,-302.7900085449219,532.9600219726562,-400000.0625,-5458.740234375,-400000.0625,1455.260009765625,-400000.0625
158.62199020385742,-400000.0625,-252.5800018310547,584.97998046875,-400000.0625,-5417.77978515625,-400000.0625,1504.800048828125,-400000.0625
158.6356544494629,-400000.0625,-283.6199951171875,553.1300048828125,-400000.0625,-5451.68017578125,-400000.0625,1473.4300537109375,-400000.0625
158.660062789917,-400000.0625,-362.25,478.0299987792969,-400000.0625,-5511.240234375,-400000.0625,1404.0,-400000.0625
158.6716752052307,-400000.0625,-374.0299987792969,466.3500061035156,-400000.0625,-5513.3798828125,-400000.0625,1387.6400146484375,-400000.0625
158.6841983795166,-400000.0625,-304.32000732421875,533.9600219726562,-400000.0625,-5459.02001953125,-400000.0625,1452.4000244140625,-400000.0625
158.69625854492188,-400000.0625,-246.72000122070312,588.9400024414062,-400000.0625,-5416.43994140625,-400000.0625,1507.52001953125,-400000.0625
158.70853519439697,-400000.0625,-283.9599914550781,552.8499755859375,-400000.0625,-5442.85986328125,-400000.0625,1472.6600341796875,-400000.0625
158.71723985671997,-400000.0625,-361.1600036621094,479.6000061035156,-400000.0625,-5501.7001953125,-400000.0625,1397.6600341796875,-400000.0625
158.7290768623352,-400000.0625,-368.8800048828125,469.05999755859375,-400000.0625,-5509.81005859375,-400000.0625,1385.1199951171875,-400000.0625
158.74232506752014,-400000.0625,-299.45001220703125,534.2000122070312,-400000.0625,-5459.39990234375,-400000.0625,1452.5899658203125,-400000.0625
158.76229119300842,-400000.0625,-250.0500030517578,582.5,-400000.0625,-5420.2998046875,-400000.0625,1506.81005859375,-400000.0625
158.77437925338745,-400000.0625,-284.9100036621094,550.219970703125,-400000.0625,-5443.3798828125,-400000.0625,1471.7099609375,-400000.0625
158.78587770462036,-400000.0625,-363.2099914550781,476.1700134277344,-400000.0625,-5504.47021484375,-400000.0625,1399.9000244140625,-400000.0625
158.80260014533997,-400000.0625,-374.2200012207031,466.8699951171875,-400000.0625,-5512.81005859375,-400000.0625,1387.7900390625,-400000.0625
158.81835174560547,-400000.0625,-300.7900085449219,536.969970703125,-400000.0625,-5460.68994140625,-400000.0625,1453.68994140625,-400000.0625
158.84430599212646,-400000.0625,-246.86000061035156,587.1300048828125,-400000.0625,-5419.64013671875,-400000.0625,1507.7099609375,-400000.0625
158.86995124816895,-400000.0625,-277.95001220703125,554.6099853515625,-400000.0625,-5437.419921875,-400000.0625,1475.81005859375,-400000.0625
158.8801727294922,-400000.0625,-353.42999267578125,482.2300109863281,-400000.0625,-5498.83984375,-400000.0625,1402.3800048828125,-400000.0625
158.89492416381836,-400000.0625,-371.6499938964844,465.010009765625,-400000.0625,-5517.2900390625,-400000.0625,1389.7900390625,-400000.0625
158.90787768363953,-400000.0625,-302.510009765625,531.1500244140625,-400000.0625,-5466.080078125,-400000.0625,1456.4000244140625,-400000.0625
158.91675758361816,-400000.0625,-245.42999267578125,586.219970703125,-400000.0625,-5421.02001953125,-400000.0625,1506.280029296875,-400000.0625
158.93037962913513,-400000.0625,-280.6700134277344,550.7000122070312,-400000.0625,-5445.0498046875,-400000.0625,1471.1400146484375,-400000.0625
158.94215178489685,-400000.0625,-355.7699890136719,478.7900085449219,-400000.0625,-5502.990234375,-400000.0625,1399.0899658203125,-400000.0625
158.95093178749084,-400000.0625,-365.69000244140625,474.30999755859375,-400000.0625,-5508.18994140625,-400000.0625,1392.4599609375,-400000.0625
158.9718291759491,-400000.0625,-294.9700012207031,541.02001953125,-400000.0625,-5451.68017578125,-400000.0625,1458.68994140625,-400000.0625
158.9824733734131,-400000.0625,-240.27999877929688,591.3300170898438,-400000.0625,-5407.85986328125,-400000.0625,1510.719970703125,-400000.0625
159.00316262245178,-400000.0625,-277.0400085449219,554.5599975585938,-400000.0625,-5443.72021484375,-400000.0625,1475.050048828125,-400000.0625
159.0295193195343,-400000.0625,-356.7200012207031,476.6000061035156,-400000.0625,-5507.18017578125,-400000.0625,1395.27001953125,-400000.0625
159.0508017539978,-400000.0625,-370.1199951171875,464.8699951171875,-400000.0625,-5511.85986328125,-400000.0625,1383.449951171875,-400000.0625
159.0729100704193,-400000.0625,-303.54998779296875,530.6699829101562,-400000.0625,-5455.77978515625,-400000.0625,1451.300048828125,-400000.0625
159.10221409797668,-400000.0625,-246.13999938964844,583.4600219726562,-400000.0625,-5416.5400390625,-400000.0625,1504.469970703125,-400000.0625
159.11582493782043,-400000.0625,-279.80999755859375,549.75,-400000.0625,-5447.91015625,-400000.0625,1473.3800048828125,-400000.0625
159.13543438911438,-400000.0625,-356.7200012207031,475.3599853515625,-400000.0625,-5511.0,-400000.0625,1399.4200439453125,-400000.0625
159.14525032043457,-400000.0625,-367.3599853515625,465.7699890136719,-400000.0625,-5516.14990234375,-400000.0625,1385.1199951171875,-400000.0625
159.15547919273376,-400000.0625,-301.2200012207031,529.3400268554688,-400000.0625,-5457.830078125,-400000.0625,1453.5400390625,-400000.0625
159.16947960853577,-400000.0625,-246.10000610351562,582.3099975585938,-400000.0625,-5420.77978515625,-400000.0625,1509.8599853515625,-400000.0625
159.18069171905518,-400000.0625,-280.760009765625,549.4099731445312,-400000.0625,-5449.2001953125,-400000.0625,1473.0899658203125,-400000.0625
159.21514225006104,-400000.0625,-356.5299987792969,478.0299987792969,-400000.0625,-5507.22998046875,-400000.0625,1397.800048828125,-400000.0625
159.23044443130493,-400000.0625,-370.3599853515625,466.5400085449219,-400000.0625,-5516.33984375,-400000.0625,1388.4100341796875,-400000.0625
159.24778294563293,-400000.0625,-303.8900146484375,529.0,-400000.0625,-5464.27001953125,-400000.0625,1453.72998046875,-400000.0625
159.27169108390808,-400000.0625,-250.91000366210938,580.9299926757812,-400000.0625,-5421.2099609375,-400000.0625,1504.760009765625,-400000.0625
159.28116035461426,-400000.0625,-282.1000061035156,546.5,-400000.0625,-5447.77001953125,-400000.0625,1473.469970703125,-400000.0625
159.309828042984,-400000.0625,-359.8699951171875,473.260009765625,-400000.0625,-5506.419921875,-400000.0625,1400.9000244140625,-400000.0625
159.32890343666077,-400000.0625,-368.92999267578125,465.20001220703125,-400000.0625,-5512.56982421875,-400000.0625,1389.219970703125,-400000.0625
159.34089136123657,-400000.0625,-300.1700134277344,529.77001953125,-400000.0625,-5465.02978515625,-400000.0625,1452.8299560546875,-400000.0625
159.35089421272278,-400000.0625,-248.14999389648438,580.8800048828125,-400000.0625,-5424.68994140625,-400000.0625,1504.9000244140625,-400000.0625
159.37133121490479,-400000.0625,-284.80999755859375,544.02001953125,-400000.0625,-5455.2099609375,-400000.0625,1470.52001953125,-400000.0625
159.38288974761963,-400000.0625,-358.010009765625,474.3599853515625,-400000.0625,-5510.56982421875,-400000.0625,1399.989990234375,-400000.0625
159.41164112091064,-400000.0625,-366.3500061035156,465.489990234375,-400000.0625,-5515.669921875,-400000.0625,1390.8399658203125,-400000.0625
159.42021679878235,-400000.0625,-300.92999267578125,530.77001953125,-400000.0625,-5463.7900390625,-400000.0625,1460.4100341796875,-400000.0625
159.43871521949768,-400000.0625,-246.2899932861328,584.4099731445312,-400000.0625,-5418.10986328125,-400000.0625,1510.0999755859375,-400000.0625
159.44810009002686,-400000.0625,-276.3699951171875,552.6500244140625,-400000.0625,-5443.52978515625,-400000.0625,1473.4300537109375,-400000.0625
159.46312975883484,-400000.0625,-354.2900085449219,477.8900146484375,-400000.0625,-5506.56005859375,-400000.0625,1401.3800048828125,-400000.0625
159.47526669502258,-400000.0625,-364.1099853515625,469.1099853515625,-400000.0625,-5519.490234375,-400000.0625,1394.800048828125,-400000.0625
159.48400807380676,-400000.0625,-299.30999755859375,532.010009765625,-400000.0625,-5467.02978515625,-400000.0625,1457.5,-400000.0625
159.5061023235321,-400000.0625,-247.0,579.5,-400000.0625,-5420.5400390625,-400000.0625,1507.6600341796875,-400000.0625
159.51574063301086,-400000.0625,-280.0,547.0800170898438,-400000.0625,-5446.52978515625,-400000.0625,1470.949951171875,-400000.0625
159.52965807914734,-400000.0625,-356.5299987792969,475.92999267578125,-400000.0625,-5507.08984375,-400000.0625,1396.6099853515625,-400000.0625
159.54173612594604,-400000.0625,-366.1600036621094,468.5400085449219,-400000.0625,-5511.08984375,-400000.0625,1386.260009765625,-400000.0625
159.5503830909729,-400000.0625,-298.0199890136719,533.77001953125,-400000.0625,-5459.1201171875,-400000.0625,1454.260009765625,-400000.0625
159.56217503547668,-400000.0625,-245.08999633789062,586.4099731445312,-400000.0625,-5419.2998046875,-400000.0625,1504.3699951171875,-400000.0625
159.5783395767212,-400000.0625,-279.760009765625,552.5599975585938,-400000.0625,-5444.81005859375,-400000.0625,1467.75,-400000.0625
159.58881735801697,-400000.0625,-357.2900085449219,478.7900085449219,-400000.0625,-5503.1298828125,-400000.0625,1398.22998046875,-400000.0625
159.6119933128357,-400000.0625,-363.6400146484375,472.3500061035156,-400000.0625,-5514.2900390625,-400000.0625,1387.8299560546875,-400000.0625
159.622074842453,-400000.0625,-296.30999755859375,534.9600219726562,-400000.0625,-5463.22021484375,-400000.0625,1456.8800048828125,-400000.0625
159.63741660118103,-400000.0625,-242.52000427246094,585.510009765625,-400000.0625,-5421.39990234375,-400000.0625,1508.3800048828125,-400000.0625
159.6474266052246,-400000.0625,-278.80999755859375,550.5599975585938,-400000.0625,-5448.06005859375,-400000.0625,1471.1400146484375,-400000.0625
159.6609537601471,-400000.0625,-355.1000061035156,478.4100036621094,-400000.0625,-5506.22998046875,-400000.0625,1398.75,-400000.0625
159.6717882156372,-400000.0625,-366.30999755859375,468.6400146484375,-400000.0625,-5514.47998046875,-400000.0625,1390.510009765625,-400000.0625
159.68091750144958,-400000.0625,-296.8299865722656,537.010009765625,-400000.0625,-5455.830078125,-400000.0625,1455.6400146484375,-400000.0625
159.6914632320404,-400000.0625,-244.47000122070312,585.510009765625,-400000.0625,-5413.490234375,-400000.0625,1506.9000244140625,-400000.0625
159.71435403823853,-400000.0625,-279.6199951171875,550.7899780273438,-400000.0625,-5449.25,-400000.0625,1470.7099609375,-400000.0625
159.73026037216187,-400000.0625,-356.4800109863281,476.1700134277344,-400000.0625,-5515.2900390625,-400000.0625,1396.3699951171875,-400000.0625
159.74679017066956,-400000.0625,-366.9700012207031,465.05999755859375,-400000.0625,-5524.10986328125,-400000.0625,1390.6500244140625,-400000.0625
159.758141040802,-400000.0625,-297.3599853515625,531.2899780273438,-400000.0625,-5463.169921875,-400000.0625,1456.0699462890625,-400000.0625
159.77307891845703,-400000.0625,-238.94000244140625,584.7899780273438,-400000.0625,-5417.919921875,-400000.0625,1507.469970703125,-400000.0625
159.78162837028503,-400000.0625,-277.3299865722656,547.4600219726562,-400000.0625,-5447.10009765625,-400000.0625,1470.949951171875,-400000.0625
159.7903482913971,-400000.0625,-355.7699890136719,475.0299987792969,-400000.0625,-5507.0400390625,-400000.0625,1398.949951171875,-400000.0625
159.8049283027649,-400000.0625,-364.489990234375,466.489990234375,-400000.0625,-5513.14013671875,-400000.0625,1389.8900146484375,-400000.0625
159.82385683059692,-400000.0625,-294.5400085449219,532.8200073242188,-400000.0625,-5454.64013671875,-400000.0625,1455.2099609375,-400000.0625
159.84106373786926,-400000.0625,-243.19000244140625,585.8900146484375,-400000.0625,-5412.52978515625,-400000.0625,1510.760009765625,-400000.0625
159.84967875480652,-400000.0625,-280.6199951171875,547.3599853515625,-400000.0625,-5450.33984375,-400000.0625,1471.1400146484375,-400000.0625
159.8676199913025,-400000.0625,-355.010009765625,474.69000244140625,-400000.0625,-5507.89990234375,-400000.0625,1395.6500244140625,-400000.0625
159.87759733200073,-400000.0625,-368.3599853515625,463.8699951171875,-400000.0625,-5512.0498046875,-400000.0625,1387.0699462890625,-400000.0625
159.8865487575531,-400000.0625,-297.3599853515625,531.8200073242188,-400000.0625,-5460.64013671875,-400000.0625,1453.2099609375,-400000.0625
159.8993878364563,-400000.0625,-246.2899932861328,581.5,-400000.0625,-5421.5,-400000.0625,1502.0400390625,-400000.0625
159.90932846069336,-400000.0625,-280.760009765625,546.3599853515625,-400000.0625,-5448.2001953125,-400000.0625,1465.1800537109375,-400000.0625
159.93739080429077,-400000.0625,-354.0,475.92999267578125,-400000.0625,-5502.89013671875,-400000.0625,1394.219970703125,-400000.0625
159.94750714302063,-400000.0625,-366.1600036621094,464.9200134277344,-400000.0625,-5507.759765625,-400000.0625,1385.02001953125,-400000.0625
159.95932006835938,-400000.0625,-298.3599853515625,532.4400024414062,-400000.0625,-5452.81982421875,-400000.0625,1454.0699462890625,-400000.0625
159.97088623046875,-400000.0625,-249.42999267578125,578.8300170898438,-400000.0625,-5422.35009765625,-400000.0625,1503.280029296875,-400000.0625
159.98061609268188,-400000.0625,-286.6300048828125,540.2999877929688,-400000.0625,-5453.68017578125,-400000.0625,1465.1300048828125,-400000.0625
159.98995995521545,-400000.0625,-361.29998779296875,471.45001220703125,-400000.0625,-5511.9501953125,-400000.0625,1392.0799560546875,-400000.0625
160.00282216072083,-400000.0625,-370.07000732421875,465.3500061035156,-400000.0625,-5516.10009765625,-400000.0625,1384.8800048828125,-400000.0625
160.01227068901062,-400000.0625,-299.45001220703125,531.0499877929688,-400000.0625,-5460.93017578125,-400000.0625,1454.02001953125,-400000.0625
160.03753066062927,-400000.0625,-245.13999938964844,582.27001953125,-400000.0625,-5416.68017578125,-400000.0625,1505.760009765625,-400000.0625
160.04683113098145,-400000.0625,-283.19000244140625,545.1699829101562,-400000.0625,-5447.14990234375,-400000.0625,1467.4200439453125,-400000.0625
160.06043934822083,-400000.0625,-360.5400085449219,470.5899963378906,-400000.0625,-5507.89990234375,-400000.0625,1395.6099853515625,-400000.0625
160.0728144645691,-400000.0625,-372.4100036621094,461.239990234375,-400000.0625,-5520.2001953125,-400000.0625,1388.739990234375,-400000.0625
160.08212661743164,-400000.0625,-300.4100036621094,533.1500244140625,-400000.0625,-5465.22021484375,-400000.0625,1454.9300537109375,-400000.0625
160.09260511398315,-400000.0625,-248.77000427246094,583.8400268554688,-400000.0625,-5421.97021484375,-400000.0625,1505.52001953125,-400000.0625
160.104633808136,-400000.0625,-288.25,546.260009765625,-400000.0625,-5455.35009765625,-400000.0625,1468.989990234375,-400000.0625
160.11499547958374,-400000.0625,-361.9700012207031,472.1199951171875,-400000.0625,-5512.85986328125,-400000.0625,1392.1700439453125,-400000.0625
160.1345705986023,-400000.0625,-368.739990234375,465.3500061035156,-400000.0625,-5516.0498046875,-400000.0625,1384.1600341796875,-400000.0625
160.14450764656067,-400000.0625,-298.3599853515625,534.25,-400000.0625,-5454.72998046875,-400000.0625,1455.5,-400000.0625
160.15366291999817,-400000.0625,-248.2899932861328,580.260009765625,-400000.0625,-5418.77978515625,-400000.0625,1504.0899658203125,-400000.0625
160.16567587852478,-400000.0625,-286.82000732421875,539.72998046875,-400000.0625,-5456.5400390625,-400000.0625,1461.550048828125,-400000.0625
160.1753499507904,-400000.0625,-364.1099853515625,468.0199890136719,-400000.0625,-5515.77001953125,-400000.0625,1389.550048828125,-400000.0625
160.18415808677673,-400000.0625,-372.1199951171875,461.6300048828125,-400000.0625,-5520.2001953125,-400000.0625,1383.68994140625,-400000.0625
160.20085310935974,-400000.0625,-303.4599914550781,532.0999755859375,-400000.0625,-5459.5,-400000.0625,1451.489990234375,-400000.0625
160.20965123176575,-400000.0625,-248.86000061035156,583.1199951171875,-400000.0625,-5417.2998046875,-400000.0625,1500.510009765625,-400000.0625
160.21985340118408,-400000.0625,-283.1000061035156,547.219970703125,-400000.0625,-5452.6298828125,-400000.0625,1465.030029296875,-400000.0625
160.2458701133728,-400000.0625,-360.44000244140625,472.2099914550781,-400000.0625,-5515.47998046875,-400000.0625,1391.739990234375,-400000.0625
160.25528645515442,-400000.0625,-369.0199890136719,464.3900146484375,-400000.0625,-5518.8701171875,-400000.0625,1383.1099853515625,-400000.0625
160.26670908927917,-400000.0625,-300.92999267578125,531.0999755859375,-400000.0625,-5462.83984375,-400000.0625,1453.300048828125,-400000.0625
160.27966237068176,-400000.0625,-253.82000732421875,578.260009765625,-400000.0625,-5424.64013671875,-400000.0625,1500.3699951171875,-400000.0625
160.29015016555786,-400000.0625,-288.29998779296875,542.5900268554688,-400000.0625,-5456.35009765625,-400000.0625,1460.739990234375,-400000.0625
160.30047416687012,-400000.0625,-363.9200134277344,467.7799987792969,-400000.0625,-5512.3798828125,-400000.0625,1388.219970703125,-400000.0625
160.31025648117065,-400000.0625,-372.6000061035156,462.7200012207031,-400000.0625,-5518.14990234375,-400000.0625,1384.780029296875,-400000.0625
160.31820273399353,-400000.0625,-301.6499938964844,533.0599975585938,-400000.0625,-5464.64990234375,-400000.0625,1453.2099609375,-400000.0625
160.33046579360962,-400000.0625,-248.14999389648438,581.3099975585938,-400000.0625,-5422.68994140625,-400000.0625,1504.22998046875,-400000.0625
160.3482484817505,-400000.0625,-288.5299987792969,541.1599731445312,-400000.0625,-5452.72998046875,-400000.0625,1468.9000244140625,-400000.0625
160.35859203338623,-400000.0625,-361.44000244140625,472.8299865722656,-400000.0625,-5505.08984375,-400000.0625,1393.989990234375,-400000.0625
160.36951279640198,-400000.0625,-372.0299987792969,466.25,-400000.0625,-5519.490234375,-400000.0625,1387.68994140625,-400000.0625
160.3797628879547,-400000.0625,-301.4100036621094,534.2999877929688,-400000.0625,-5469.18017578125,-400000.0625,1456.4000244140625,-400000.0625
160.3903250694275,-400000.0625,-245.13999938964844,586.030029296875,-400000.0625,-5423.02001953125,-400000.0625,1506.81005859375,-400000.0625
160.39990210533142,-400000.0625,-285.7200012207031,549.8400268554688,-400000.0625,-5448.6298828125,-400000.0625,1469.1800537109375,-400000.0625
160.408207654953,-400000.0625,-356.7699890136719,476.6000061035156,-400000.0625,-5511.47998046875,-400000.0625,1394.800048828125,-400000.0625
160.41695261001587,-400000.0625,-364.1099853515625,466.7799987792969,-400000.0625,-5519.580078125,-400000.0625,1387.02001953125,-400000.0625
160.43173813819885,-400000.0625,-295.30999755859375,538.2999877929688,-400000.0625,-5458.58984375,-400000.0625,1454.0699462890625,-400000.0625
160.44714975357056,-400000.0625,-246.6199951171875,584.8900146484375,-400000.0625,-5414.8701171875,-400000.0625,1506.8499755859375,-400000.0625
160.45538878440857,-400000.0625,-290.489990234375,544.2100219726562,-400000.0625,-5453.16015625,-400000.0625,1464.030029296875,-400000.0625
160.46779417991638,-400000.0625,-363.3999938964844,469.2099914550781,-400000.0625,-5520.77001953125,-400000.0625,1389.4599609375,-400000.0625
160.47613525390625,-400000.0625,-371.54998779296875,459.42999267578125,-400000.0625,-5528.259765625,-400000.0625,1383.9200439453125,-400000.0625
160.48400115966797,-400000.0625,-298.3599853515625,530.47998046875,-400000.0625,-5467.7001953125,-400000.0625,1457.3599853515625,-400000.0625
160.4927682876587,-400000.0625,-248.24000549316406,580.4099731445312,-400000.0625,-5421.64013671875,-400000.0625,1505.22998046875,-400000.0625
160.50493097305298,-400000.0625,-286.1499938964844,543.5499877929688,-400000.0625,-5453.35009765625,-400000.0625,1466.93994140625,-400000.0625
160.51325798034668,-400000.0625,-362.1099853515625,469.3500061035156,-400000.0625,-5515.39013671875,-400000.0625,1394.219970703125,-400000.0625
160.5217182636261,-400000.0625,-372.2200012207031,461.7200012207031,-400000.0625,-5518.77001953125,-400000.0625,1387.260009765625,-400000.0625
160.53729248046875,-400000.0625,-302.0299987792969,529.239990234375,-400000.0625,-5463.7001953125,-400000.0625,1452.4000244140625,-400000.0625
160.55275297164917,-400000.0625,-249.1999969482422,581.7899780273438,-400000.0625,-5426.31005859375,-400000.0625,1502.800048828125,-400000.0625
160.56521368026733,-400000.0625,-288.29998779296875,542.9299926757812,-400000.0625,-5458.8798828125,-400000.0625,1464.1300048828125,-400000.0625
160.57458353042603,-400000.0625,-363.3500061035156,470.7799987792969,-400000.0625,-5515.85986328125,-400000.0625,1391.3199462890625,-400000.0625
160.58319425582886,-400000.0625,-369.92999267578125,463.3399963378906,-400000.0625,-5522.39013671875,-400000.0625,1386.739990234375,-400000.0625
160.59450817108154,-400000.0625,-295.8800048828125,533.77001953125,-400000.0625,-5463.5498046875,-400000.0625,1456.31005859375,-400000.0625
160.60585570335388,-400000.0625,-250.6300048828125,577.6400146484375,-400000.0625,-5425.83984375,-400000.0625,1503.22998046875,-400000.0625
160.61502885818481,-400000.0625,-292.44000244140625,537.0599975585938,-400000.0625,-5458.68994140625,-400000.0625,1462.56005859375,-400000.0625
160.62794256210327,-400000.0625,-361.44000244140625,470.07000732421875,-400000.0625,-5512.330078125,-400000.0625,1389.4599609375,-400000.0625
160.6383650302887,-400000.0625,-364.9200134277344,466.6300048828125,-400000.0625,-5513.669921875,-400000.0625,1385.5899658203125,-400000.0625
160.6549563407898,-400000.0625,-296.739990234375,535.3900146484375,-400000.0625,-5463.60009765625,-400000.0625,1454.6400146484375,-400000.0625
160.6641721725464,-400000.0625,-244.0500030517578,583.739990234375,-400000.0625,-5423.169921875,-400000.0625,1500.4200439453125,-400000.0625
160.67247772216797,-400000.0625,-279.95001220703125,549.1300048828125,-400000.0625,-5454.16015625,-400000.0625,1461.27001953125,-400000.0625
160.68049550056458,-400000.0625,-357.010009765625,476.9800109863281,-400000.0625,-5514.91015625,-400000.0625,1390.3599853515625,-400000.0625
160.6889991760254,-400000.0625,-361.489990234375,471.1600036621094,-400000.0625,-5516.669921875,-400000.0625,1389.8900146484375,-400000.0625
160.70070028305054,-400000.0625,-291.010009765625,541.260009765625,-400000.0625,-5460.35986328125,-400000.0625,1457.5,-400000.0625
160.70896935462952,-400000.0625,-239.75,588.8499755859375,-400000.0625,-5418.58984375,-400000.0625,1503.800048828125,-400000.0625
160.71684002876282,-400000.0625,-284.9100036621094,544.9299926757812,-400000.0625,-5459.740234375,-400000.0625,1465.3199462890625,-400000.0625
160.73164749145508,-400000.0625,-356.2900085449219,476.7900085449219,-400000.0625,-5514.240234375,-400000.0625,1391.4100341796875,-400000.0625
160.74111986160278,-400000.0625,-361.6300048828125,470.69000244140625,-400000.0625,-5514.52978515625,-400000.0625,1386.3599853515625,-400000.0625
160.75820636749268,-400000.0625,-294.0199890136719,537.6799926757812,-400000.0625,-5462.7900390625,-400000.0625,1454.6400146484375,-400000.0625
160.76935744285583,-400000.0625,-241.47000122070312,588.7000122070312,-400000.0625,-5420.259765625,-400000.0625,1504.1400146484375,-400000.0625
160.77882146835327,-400000.0625,-281.1000061035156,552.4600219726562,-400000.0625,-5448.8701171875,-400000.0625,1461.699951171875,-400000.0625
160.7873911857605,-400000.0625,-357.20001220703125,479.0299987792969,-400000.0625,-5507.3701171875,-400000.0625,1390.219970703125,-400000.0625
160.79967284202576,-400000.0625,-360.5799865722656,472.5899963378906,-400000.0625,-5513.47998046875,-400000.0625,1386.449951171875,-400000.0625
160.8081932067871,-400000.0625,-290.489990234375,541.6400146484375,-400000.0625,-5462.35986328125,-400000.0625,1457.260009765625,-400000.0625
160.8156819343567,-400000.0625,-239.3699951171875,590.469970703125,-400000.0625,-5417.97021484375,-400000.0625,1504.6099853515625,-400000.0625
160.8287844657898,-400000.0625,-281.239990234375,548.3599853515625,-400000.0625,-5451.43994140625,-400000.0625,1459.68994140625,-400000.0625
160.84066343307495,-400000.0625,-357.82000732421875,476.1199951171875,-400000.0625,-5510.0400390625,-400000.0625,1392.510009765625,-400000.0625
160.848450422287,-400000.0625,-364.7799987792969,472.07000732421875,-400000.0625,-5516.0498046875,-400000.0625,1387.260009765625,-400000.0625
160.8683478832245,-400000.0625,-293.8299865722656,540.6900024414062,-400000.0625,-5461.02978515625,-400000.0625,1453.8800048828125,-400000.0625
160.8773820400238,-400000.0625,-243.13999938964844,587.7000122070312,-400000.0625,-5420.16015625,-400000.0625,1501.989990234375,-400000.0625
160.88539052009583,-400000.0625,-281.6700134277344,548.9400024414062,-400000.0625,-5450.5400390625,-400000.0625,1467.510009765625,-400000.0625
160.89707350730896,-400000.0625,-354.4800109863281,478.6000061035156,-400000.0625,-5515.2900390625,-400000.0625,1393.0799560546875,-400000.0625
160.90700888633728,-400000.0625,-361.010009765625,474.6400146484375,-400000.0625,-5521.77001953125,-400000.0625,1389.030029296875,-400000.0625
160.9156289100647,-400000.0625,-291.3999938964844,541.8300170898438,-400000.0625,-5464.35986328125,-400000.0625,1456.4000244140625,-400000.0625
160.92622113227844,-400000.0625,-243.13999938964844,589.6599731445312,-400000.0625,-5423.68994140625,-400000.0625,1501.8900146484375,-400000.0625
160.93925523757935,-400000.0625,-282.7200012207031,550.8400268554688,-400000.0625,-5454.16015625,-400000.0625,1462.510009765625,-400000.0625
160.94883966445923,-400000.0625,-360.1600036621094,475.3599853515625,-400000.0625,-5510.759765625,-400000.0625,1390.5999755859375,-400000.0625
160.9674928188324,-400000.0625,-364.3500061035156,470.1099853515625,-400000.0625,-5513.47998046875,-400000.0625,1385.8800048828125,-400000.0625
160.97572994232178,-400000.0625,-294.260009765625,539.6799926757812,-400000.0625,-5462.68994140625,-400000.0625,1455.550048828125,-400000.0625
160.98315811157227,-400000.0625,-247.91000366210938,583.97998046875,-400000.0625,-5431.3701171875,-400000.0625,1503.1300048828125,-400000.0625
160.99100923538208,-400000.0625,-290.44000244140625,541.3499755859375,-400000.0625,-5460.35986328125,-400000.0625,1461.3199462890625,-400000.0625
161.00179958343506,-400000.0625,-363.1099853515625,472.260009765625,-400000.0625,-5519.52978515625,-400000.0625,1387.739990234375,-400000.0625
161.01116275787354,-400000.0625,-370.69000244140625,464.1099853515625,-400000.0625,-5525.4501953125,-400000.0625,1385.5,-400000.0625
161.01850128173828,-400000.0625,-298.9800109863281,531.0999755859375,-400000.0625,-5467.4599609375,-400000.0625,1451.300048828125,-400000.0625
161.0333001613617,-400000.0625,-249.47999572753906,579.4000244140625,-400000.0625,-5426.169921875,-400000.0625,1497.5999755859375,-400000.0625
161.0436191558838,-400000.0625,-293.9200134277344,534.489990234375,-400000.0625,-5459.02001953125,-400000.0625,1457.260009765625,-400000.0625
161.05217099189758,-400000.0625,-370.54998779296875,462.3399963378906,-400000.0625,-5517.2001953125,-400000.0625,1378.6800537109375,-400000.0625
161.07226943969727,-400000.0625,-373.7900085449219,461.5799865722656,-400000.0625,-5514.33984375,-400000.0625,1375.25,-400000.0625
161.080420255661,-400000.0625,-306.2200012207031,525.3300170898438,-400000.0625,-5466.41015625,-400000.0625,1448.199951171875,-400000.0625
161.09003925323486,-400000.0625,-258.260009765625,569.1500244140625,-400000.0625,-5435.52001953125,-400000.0625,1492.2099609375,-400000.0625
161.10646152496338,-400000.0625,-298.8299865722656,533.3900146484375,-400000.0625,-5466.3701171875,-400000.0625,1451.780029296875,-400000.0625
161.11445689201355,-400000.0625,-371.54998779296875,464.25,-400000.0625,-5520.5400390625,-400000.0625,1380.8299560546875,-400000.0625
161.12828874588013,-400000.0625,-373.2200012207031,462.67999267578125,-400000.0625,-5525.72998046875,-400000.0625,1376.530029296875,-400000.0625
161.14061045646667,-400000.0625,-303.510009765625,530.6699829101562,-400000.0625,-5467.509765625,-400000.0625,1448.6800537109375,-400000.0625
161.1485996246338,-400000.0625,-254.77000427246094,581.5999755859375,-400000.0625,-5424.2099609375,-400000.0625,1497.0799560546875,-400000.0625
161.16239190101624,-400000.0625,-291.5400085449219,541.8300170898438,-400000.0625,-5454.02001953125,-400000.0625,1455.5,-400000.0625
161.18276619911194,-400000.0625,-368.8299865722656,468.25,-400000.0625,-5515.9599609375,-400000.0625,1384.780029296875,-400000.0625
161.19191002845764,-400000.0625,-371.2699890136719,468.2099914550781,-400000.0625,-5522.35009765625,-400000.0625,1385.1600341796875,-400000.0625
161.20161938667297,-400000.0625,-295.45001220703125,539.5900268554688,-400000.0625,-5459.740234375,-400000.0625,1454.5,-400000.0625
161.21006679534912,-400000.0625,-249.42999267578125,580.739990234375,-400000.0625,-5423.830078125,-400000.0625,1503.4200439453125,-400000.0625
161.2262785434723,-400000.0625,-324.9200134277344,498.489990234375,-400000.0625,-5491.72998046875,-400000.0625,1417.780029296875,-400000.0625
161.22633981704712,-400000.0625,-380.3299865722656,445.75,-400000.0625,-5541.1298828125,-400000.0625,1363.3699951171875,-400000.0625
161.22635221481323,-400000.0625,-345.75,483.0400085449219,-400000.0625,-5511.240234375,-400000.0625,1398.0400390625,-400000.0625
161.22636699676514,-400000.0625,-268.6499938964844,554.510009765625,-400000.0625,-5447.39013671875,-400000.0625,1471.949951171875,-400000.0625
161.22637748718262,-400000.0625,-256.3500061035156,565.8200073242188,-400000.0625,-5439.56982421875,-400000.0625,1487.02001953125,-400000.0625
161.22638821601868,-400000.0625,-323.05999755859375,501.6300048828125,-400000.0625,-5492.93017578125,-400000.0625,1422.0699462890625,-400000.0625
161.226398229599,-400000.0625,-383.0,443.6499938964844,-400000.0625,-5542.990234375,-400000.0625,1363.75,-400000.0625
161.2264096736908,-400000.0625,-352.9100036621094,475.92999267578125,-400000.0625,-5515.18994140625,-400000.0625,1394.219970703125,-400000.0625
161.22642016410828,-400000.0625,-273.70001220703125,555.3200073242188,-400000.0625,-5453.97021484375,-400000.0625,1471.52001953125,-400000.0625
161.22643160820007,-400000.0625,-260.5400085449219,566.3400268554688,-400000.0625,-5441.85986328125,-400000.0625,1486.3499755859375,-400000.0625
161.22725915908813,-400000.0625,-331.8299865722656,496.1000061035156,-400000.0625,-5499.22021484375,-400000.0625,1417.449951171875,-400000.0625
161.22730016708374,-400000.0625,-420.760009765625,416.17999267578125,-400000.0625,-5540.0400390625,-400000.0625,1328.8499755859375,-400000.0625
161.22731733322144,-400000.0625,-374.0299987792969,464.5799865722656,-400000.0625,-5500.64990234375,-400000.0625,1374.5799560546875,-400000.0625
161.2273325920105,-400000.0625,-300.3599853515625,538.5399780273438,-400000.0625,-5436.3701171875,-400000.0625,1448.6800537109375,-400000.0625
161.22734689712524,-400000.0625,-300.8399963378906,535.3499755859375,-400000.0625,-5444.3798828125,-400000.0625,1448.300048828125,-400000.0625
161.2273609638214,-400000.0625,-374.3599853515625,459.7200012207031,-400000.0625,-5512.240234375,-400000.0625,1370.8599853515625,-400000.0625
161.22737526893616,-400000.0625,-420.42999267578125,419.5199890136719,-400000.0625,-5542.7998046875,-400000.0625,1326.699951171875,-400000.0625
161.2273895740509,-400000.0625,-373.75,461.9599914550781,-400000.0625,-5502.56005859375,-400000.0625,1373.9599609375,-400000.0625
161.2274031639099,-400000.0625,-302.510009765625,532.0499877929688,-400000.0625,-5443.43017578125,-400000.0625,1443.0,-400000.0625
161.22741723060608,-400000.0625,-308.55999755859375,528.0999755859375,-400000.0625,-5447.009765625,-400000.0625,1437.6199951171875,-400000.0625
161.22743105888367,-400000.0625,-381.17999267578125,455.80999755859375,-400000.0625,-5509.89990234375,-400000.0625,1366.760009765625,-400000.0625
161.2274467945099,-400000.0625,-424.7200012207031,412.2699890136719,-400000.0625,-5541.85009765625,-400000.0625,1327.75,-400000.0625
161.2274615764618,-400000.0625,-378.3699951171875,458.1499938964844,-400000.0625,-5497.68994140625,-400000.0625,1368.9000244140625,-400000.0625
161.22747683525085,-400000.0625,-306.17999267578125,529.0499877929688,-400000.0625,-5437.759765625,-400000.0625,1438.5699462890625,-400000.0625
161.22749137878418,-400000.0625,-312.19000244140625,523.0399780273438,-400000.0625,-5452.10986328125,-400000.0625,1437.0899658203125,-400000.0625
161.22750639915466,-400000.0625,-385.4800109863281,452.760009765625,-400000.0625,-5513.85986328125,-400000.0625,1361.27001953125,-400000.0625
161.2275207042694,-400000.0625,-428.6300048828125,409.2699890136719,-400000.0625,-5545.47021484375,-400000.0625,1317.6400146484375,-400000.0625
161.22753524780273,-400000.0625,-385.6199951171875,453.1400146484375,-400000.0625,-5505.89990234375,-400000.0625,1365.1400146484375,-400000.0625
161.22754979133606,-400000.0625,-311.57000732421875,524.9500122070312,-400000.0625,-5445.47998046875,-400000.0625,1437.1400146484375,-400000.0625
161.22756481170654,-400000.0625,-311.57000732421875,524.5700073242188,-400000.0625,-5443.6201171875,-400000.0625,1433.3199462890625,-400000.0625
161.22757983207703,-400000.0625,-386.9100036621094,453.2799987792969,-400000.0625,-5503.419921875,-400000.0625,1363.989990234375,-400000.0625
161.22759532928467,-400000.0625,-431.82000732421875,408.8900146484375,-400000.0625,-5539.990234375,-400000.0625,1319.68994140625,-400000.0625
161.22761058807373,-400000.0625,-384.760009765625,456.42999267578125,-400000.0625,-5502.27001953125,-400000.0625,1368.050048828125,-400000.0625
161.22762751579285,-400000.0625,-311.8999938964844,525.280029296875,-400000.0625,-5450.5400390625,-400000.0625,1438.469970703125,-400000.0625
161.22764348983765,-400000.0625,-311.7099914550781,523.8099975585938,-400000.0625,-5453.39990234375,-400000.0625,1434.760009765625,-400000.0625
161.2276599407196,-400000.0625,-389.42999267578125,449.79998779296875,-400000.0625,-5512.669921875,-400000.0625,1359.4200439453125,-400000.0625
161.22767663002014,-400000.0625,-436.5,405.9800109863281,-400000.0625,-5545.3798828125,-400000.0625,1316.02001953125,-400000.0625
161.22769284248352,-400000.0625,-387.04998779296875,455.57000732421875,-400000.0625,-5502.93994140625,-400000.0625,1364.22998046875,-400000.0625
161.22771096229553,-400000.0625,-315.7099914550781,522.3300170898438,-400000.0625,-5445.0,-400000.0625,1438.6199951171875,-400000.0625
161.22772812843323,-400000.0625,-316.9100036621094,518.989990234375,-400000.0625,-5445.240234375,-400000.0625,1432.4200439453125,-400000.0625
161.2277443408966,-400000.0625,-391.9100036621094,447.17999267578125,-400000.0625,-5502.18017578125,-400000.0625,1359.4200439453125,-400000.0625
161.22776079177856,-400000.0625,-434.67999267578125,403.8800048828125,-400000.0625,-5542.08984375,-400000.0625,1317.8399658203125,-400000.0625
161.22781682014465,-400000.0625,-384.760009765625,452.3299865722656,-400000.0625,-5512.14013671875,-400000.0625,1364.6099853515625,-400000.0625
161.22783708572388,-400000.0625,-314.3299865722656,521.8499755859375,-400000.0625,-5455.8798828125,-400000.0625,1436.8499755859375,-400000.0625
161.22784423828125,-400000.0625,-317.239990234375,519.4199829101562,-400000.0625,-5453.5400390625,-400000.0625,1433.469970703125,-400000.0625
161.2278504371643,-400000.0625,-394.9200134277344,445.0299987792969,-400000.0625,-5509.330078125,-400000.0625,1355.030029296875,-400000.0625
161.22785663604736,-400000.0625,-441.739990234375,401.69000244140625,-400000.0625,-5547.3798828125,-400000.0625,1311.4000244140625,-400000.0625
161.22786235809326,-400000.0625,-394.29998779296875,447.6499938964844,-400000.0625,-5506.08984375,-400000.0625,1361.469970703125,-400000.0625
161.2278687953949,-400000.0625,-321.7699890136719,516.989990234375,-400000.0625,-5448.8701171875,-400000.0625,1433.93994140625,-400000.0625
161.2278754711151,-400000.0625,-327.3999938964844,513.0800170898438,-400000.0625,-5451.68017578125,-400000.0625,1432.469970703125,-400000.0625
161.227881193161,-400000.0625,-402.92999267578125,439.3599853515625,-400000.0625,-5513.85986328125,-400000.0625,1357.27001953125,-400000.0625
161.22789001464844,-400000.0625,-444.3599853515625,396.5899963378906,-400000.0625,-5553.2900390625,-400000.0625,1316.2099609375,-400000.0625
161.22789573669434,-400000.0625,-394.6300048828125,447.70001220703125,-400000.0625,-5509.3798828125,-400000.0625,1364.469970703125,-400000.0625
161.2279019355774,-400000.0625,-322.5299987792969,519.6599731445312,-400000.0625,-5451.009765625,-400000.0625,1434.280029296875,-400000.0625
161.2279088497162,-400000.0625,-325.9700012207031,513.1199951171875,-400000.0625,-5454.830078125,-400000.0625,1428.219970703125,-400000.0625
161.2279155254364,-400000.0625,-402.0199890136719,441.1199951171875,-400000.0625,-5513.9501953125,-400000.0625,1354.6500244140625,-400000.0625
161.22792172431946,-400000.0625,-441.1700134277344,402.6400146484375,-400000.0625,-5544.419921875,-400000.0625,1315.4000244140625,-400000.0625
161.22792840003967,-400000.0625,-395.010009765625,449.8500061035156,-400000.0625,-5507.3701171875,-400000.0625,1363.0899658203125,-400000.0625
161.22793436050415,-400000.0625,-325.010009765625,520.4199829101562,-400000.0625,-5447.669921875,-400000.0625,1432.1300048828125,-400000.0625
161.22794032096863,-400000.0625,-326.489990234375,516.5599975585938,-400000.0625,-5446.2900390625,-400000.0625,1426.6500244140625,-400000.0625
161.22794604301453,-400000.0625,-401.45001220703125,441.8399963378906,-400000.0625,-5510.43017578125,-400000.0625,1355.0799560546875,-400000.0625
161.227952003479,-400000.0625,-446.989990234375,400.07000732421875,-400000.0625,-5549.52978515625,-400000.0625,1310.9200439453125,-400000.0625
161.2279577255249,-400000.0625,-394.05999755859375,450.1300048828125,-400000.0625,-5508.52001953125,-400000.0625,1354.7900390625,-400000.0625
161.2279634475708,-400000.0625,-324.05999755859375,514.4099731445312,-400000.0625,-5447.0498046875,-400000.0625,1428.989990234375,-400000.0625
161.22796940803528,-400000.0625,-328.7300109863281,510.3599853515625,-400000.0625,-5451.580078125,-400000.0625,1427.7900390625,-400000.0625
161.2279748916626,-400000.0625,-406.4100036621094,441.7900085449219,-400000.0625,-5511.759765625,-400000.0625,1353.260009765625,-400000.0625
161.22798085212708,-400000.0625,-447.1300048828125,400.8299865722656,-400000.0625,-5541.56005859375,-400000.0625,1310.969970703125,-400000.0625
161.22798657417297,-400000.0625,-398.6400146484375,449.2799987792969,-400000.0625,-5498.27001953125,-400000.0625,1359.1800537109375,-400000.0625
161.2279920578003,-400000.0625,-328.3999938964844,518.4199829101562,-400000.0625,-5450.2001953125,-400000.0625,1429.219970703125,-400000.0625
161.2279977798462,-400000.0625,-333.54998779296875,513.9400024414062,-400000.0625,-5459.97998046875,-400000.0625,1420.6400146484375,-400000.0625
161.22800374031067,-400000.0625,-404.2099914550781,440.9800109863281,-400000.0625,-5511.6201171875,-400000.0625,1350.31005859375,-400000.0625
161.22800946235657,-400000.0625,-447.1300048828125,398.3999938964844,-400000.0625,-5540.18017578125,-400000.0625,1311.6800537109375,-400000.0625
161.22801518440247,-400000.0625,-397.44000244140625,447.94000244140625,-400000.0625,-5501.3701171875,-400000.0625,1357.93994140625,-400000.0625
161.22802114486694,-400000.0625,-326.67999267578125,515.989990234375,-400000.0625,-5448.14990234375,-400000.0625,1425.9300537109375,-400000.0625
161.22802662849426,-400000.0625,-329.07000732421875,513.219970703125,-400000.0625,-5451.490234375,-400000.0625,1423.4100341796875,-400000.0625
161.22803235054016,-400000.0625,-400.5899963378906,441.9800109863281,-400000.0625,-5508.08984375,-400000.0625,1351.02001953125,-400000.0625
161.22803807258606,-400000.0625,-448.0400085449219,397.3999938964844,-400000.0625,-5542.7099609375,-400000.0625,1311.6400146484375,-400000.0625
161.22804403305054,-400000.0625,-401.07000732421875,446.2699890136719,-400000.0625,-5509.419921875,-400000.0625,1358.219970703125,-400000.0625
161.22804999351501,-400000.0625,-322.6300048828125,521.469970703125,-400000.0625,-5450.33984375,-400000.0625,1429.8900146484375,-400000.0625
161.22805643081665,-400000.0625,-330.1099853515625,516.6099853515625,-400000.0625,-5453.5400390625,-400000.0625,1426.27001953125,-400000.0625
161.22806215286255,-400000.0625,-406.9800109863281,442.2200012207031,-400000.0625,-5506.3701171875,-400000.0625,1354.5999755859375,-400000.0625
161.22806787490845,-400000.0625,-445.6000061035156,404.5,-400000.0625,-5535.97998046875,-400000.0625,1315.550048828125,-400000.0625
161.22807478904724,-400000.0625,-397.5899963378906,449.6099853515625,-400000.0625,-5500.7900390625,-400000.0625,1361.989990234375,-400000.0625
161.22808122634888,-400000.0625,-328.1099853515625,515.27001953125,-400000.0625,-5447.39013671875,-400000.0625,1431.8499755859375,-400000.0625
161.2280876636505,-400000.0625,-331.69000244140625,512.7899780273438,-400000.0625,-5453.2099609375,-400000.0625,1423.6500244140625,-400000.0625
161.228093624115,-400000.0625,-410.4100036621094,438.8299865722656,-400000.0625,-5514.91015625,-400000.0625,1347.8299560546875,-400000.0625
161.22810006141663,-400000.0625,-449.94000244140625,399.6400146484375,-400000.0625,-5545.9501953125,-400000.0625,1308.1600341796875,-400000.0625
161.22810673713684,-400000.0625,-395.7300109863281,450.6600036621094,-400000.0625,-5503.27001953125,-400000.0625,1357.3199462890625,-400000.0625
161.22811317443848,-400000.0625,-327.1600036621094,519.7000122070312,-400000.0625,-5447.9599609375,-400000.0625,1428.8900146484375,-400000.0625
161.22811913490295,-400000.0625,-335.5,511.07000732421875,-400000.0625,-5448.06005859375,-400000.0625,1427.0799560546875,-400000.0625
161.228125333786,-400000.0625,-409.1300048828125,439.45001220703125,-400000.0625,-5505.75,-400000.0625,1354.3599853515625,-400000.0625
161.22813153266907,-400000.0625,-449.1300048828125,402.8800048828125,-400000.0625,-5539.60986328125,-400000.0625,1314.9300537109375,-400000.0625
161.22813868522644,-400000.0625,-401.8800048828125,446.1300048828125,-400000.0625,-5502.419921875,-400000.0625,1358.8900146484375,-400000.0625
161.22814536094666,-400000.0625,-329.3500061035156,513.8400268554688,-400000.0625,-5449.8701171875,-400000.0625,1423.8800048828125,-400000.0625
161.22815203666687,-400000.0625,-333.9800109863281,508.2099914550781,-400000.0625,-5456.259765625,-400000.0625,1417.489990234375,-400000.0625
161.22815823554993,-400000.0625,-410.4100036621094,434.1099853515625,-400000.0625,-5513.43017578125,-400000.0625,1345.1099853515625,-400000.0625
161.2281641960144,-400000.0625,-448.32000732421875,398.7799987792969,-400000.0625,-5540.93994140625,-400000.0625,1308.780029296875,-400000.0625
161.22817492485046,-400000.0625,-402.92999267578125,443.510009765625,-400000.0625,-5504.47021484375,-400000.0625,1357.510009765625,-400000.0625
161.228182554245,-400000.0625,-329.1600036621094,515.0800170898438,-400000.0625,-5447.33984375,-400000.0625,1426.739990234375,-400000.0625
161.22818875312805,-400000.0625,-335.6499938964844,510.0299987792969,-400000.0625,-5448.39013671875,-400000.0625,1421.1700439453125,-400000.0625
161.22819566726685,-400000.0625,-413.55999755859375,433.5899963378906,-400000.0625,-5504.89013671875,-400000.0625,1344.3499755859375,-400000.0625
161.2282018661499,-400000.0625,-455.57000732421875,391.7699890136719,-400000.0625,-5540.08984375,-400000.0625,1303.0999755859375,-400000.0625
161.22820901870728,-400000.0625,-402.8800048828125,442.92999267578125,-400000.0625,-5507.85009765625,-400000.0625,1352.449951171875,-400000.0625
161.22821640968323,-400000.0625,-327.29998779296875,515.219970703125,-400000.0625,-5451.68017578125,-400000.0625,1421.8800048828125,-400000.0625
161.2282223701477,-400000.0625,-336.6499938964844,505.69000244140625,-400000.0625,-5456.259765625,-400000.0625,1418.260009765625,-400000.0625
161.22822856903076,-400000.0625,-415.2799987792969,432.44000244140625,-400000.0625,-5515.10009765625,-400000.0625,1347.72998046875,-400000.0625
161.22823572158813,-400000.0625,-452.3800048828125,396.5899963378906,-400000.0625,-5543.9501953125,-400000.0625,1307.43994140625,-400000.0625
161.2282440662384,-400000.0625,-402.7799987792969,442.8900146484375,-400000.0625,-5502.89013671875,-400000.0625,1356.510009765625,-400000.0625
161.22825026512146,-400000.0625,-333.1199951171875,511.1700134277344,-400000.0625,-5446.9599609375,-400000.0625,1427.699951171875,-400000.0625
161.22825717926025,-400000.0625,-341.32000732421875,504.8800048828125,-400000.0625,-5452.81982421875,-400000.0625,1418.8299560546875,-400000.0625
161.2282633781433,-400000.0625,-415.8999938964844,431.7300109863281,-400000.0625,-5519.43994140625,-400000.0625,1341.8699951171875,-400000.0625
161.22827005386353,-400000.0625,-454.2799987792969,392.1499938964844,-400000.0625,-5551.77001953125,-400000.0625,1303.9599609375,-400000.0625
161.22827672958374,-400000.0625,-401.1199951171875,442.4100036621094,-400000.0625,-5505.18017578125,-400000.0625,1357.75,-400000.0625
161.22828435897827,-400000.0625,-329.29998779296875,512.7899780273438,-400000.0625,-5449.8701171875,-400000.0625,1426.4100341796875,-400000.0625
161.2282910346985,-400000.0625,-340.2200012207031,502.29998779296875,-400000.0625,-5458.35986328125,-400000.0625,1416.5899658203125,-400000.0625
161.2282989025116,-400000.0625,-417.6099853515625,426.3399963378906,-400000.0625,-5516.6298828125,-400000.0625,1343.1600341796875,-400000.0625
161.2283058166504,-400000.0625,-457.95001220703125,387.3800048828125,-400000.0625,-5544.9501953125,-400000.0625,1307.25,-400000.0625
161.22831320762634,-400000.0625,-407.2699890136719,436.7799987792969,-400000.0625,-5501.83984375,-400000.0625,1356.3599853515625,-400000.0625
161.2283217906952,-400000.0625,-335.45001220703125,507.2099914550781,-400000.0625,-5445.10009765625,-400000.0625,1426.8399658203125,-400000.0625
161.22833108901978,-400000.0625,-345.4200134277344,496.20001220703125,-400000.0625,-5464.5498046875,-400000.0625,1417.72998046875,-400000.0625
161.2283399105072,-400000.0625,-420.5199890136719,422.04998779296875,-400000.0625,-5522.919921875,-400000.0625,1343.9200439453125,-400000.0625
161.2283477783203,-400000.0625,-457.239990234375,387.6199951171875,-400000.0625,-5546.759765625,-400000.0625,1307.06005859375,-400000.0625
161.22835493087769,-400000.0625,-404.45001220703125,438.9800109863281,-400000.0625,-5506.7099609375,-400000.0625,1356.3599853515625,-400000.0625
161.22836208343506,-400000.0625,-331.7799987792969,508.7900085449219,-400000.0625,-5452.10986328125,-400000.0625,1428.030029296875,-400000.0625
161.22836899757385,-400000.0625,-343.510009765625,500.3900146484375,-400000.0625,-5456.77978515625,-400000.0625,1420.0699462890625,-400000.0625
161.22837686538696,-400000.0625,-420.760009765625,425.010009765625,-400000.0625,-5513.72021484375,-400000.0625,1343.6300048828125,-400000.0625
161.22838687896729,-400000.0625,-457.2900085449219,389.1499938964844,-400000.0625,-5539.1298828125,-400000.0625,1308.72998046875,-400000.0625
161.22839546203613,-400000.0625,-409.0799865722656,437.0199890136719,-400000.0625,-5508.47021484375,-400000.0625,1358.5999755859375,-400000.0625
161.22840356826782,-400000.0625,-336.0299987792969,504.9700012207031,-400000.0625,-5455.68994140625,-400000.0625,1424.739990234375,-400000.0625
161.2284119129181,-400000.0625,-345.1300048828125,494.04998779296875,-400000.0625,-5463.169921875,-400000.0625,1414.9200439453125,-400000.0625
161.22841954231262,-400000.0625,-419.8599853515625,423.0,-400000.0625,-5520.6298828125,-400000.0625,1343.1099853515625,-400000.0625
161.2284276485443,-400000.0625,-456.8599853515625,385.95001220703125,-400000.0625,-5543.52001953125,-400000.0625,1306.9200439453125,-400000.0625
161.22843527793884,-400000.0625,-406.8900146484375,438.8299865722656,-400000.0625,-5503.75,-400000.0625,1356.0799560546875,-400000.0625
161.22844243049622,-400000.0625,-334.69000244140625,506.2099914550781,-400000.0625,-5452.10986328125,-400000.0625,1422.7900390625,-400000.0625
161.22845005989075,-400000.0625,-345.989990234375,494.6700134277344,-400000.0625,-5460.31005859375,-400000.0625,1413.1500244140625,-400000.0625
161.22845840454102,-400000.0625,-425.5299987792969,420.42999267578125,-400000.0625,-5513.85986328125,-400000.0625,1342.25,-400000.0625
161.22846603393555,-400000.0625,-463.5299987792969,384.3299865722656,-400000.0625,-5549.18994140625,-400000.0625,1304.3399658203125,-400000.0625
161.22847414016724,-400000.0625,-413.0799865722656,432.9700012207031,-400000.0625,-5513.6201171875,-400000.0625,1352.5999755859375,-400000.0625
161.2284815311432,-400000.0625,-343.6600036621094,500.5799865722656,-400000.0625,-5457.97021484375,-400000.0625,1420.449951171875,-400000.0625
161.22848916053772,-400000.0625,-351.42999267578125,490.3800048828125,-400000.0625,-5460.4501953125,-400000.0625,1408.1500244140625,-400000.0625
161.2284972667694,-400000.0625,-429.25,415.5199890136719,-400000.0625,-5512.81005859375,-400000.0625,1334.719970703125,-400000.0625
161.22850441932678,-400000.0625,-465.010009765625,380.6600036621094,-400000.0625,-5545.56982421875,-400000.0625,1300.239990234375,-400000.0625
161.2285122871399,-400000.0625,-414.0899963378906,430.8699951171875,-400000.0625,-5510.85986328125,-400000.0625,1352.550048828125,-400000.0625
161.22851991653442,-400000.0625,-344.0400085449219,498.2900085449219,-400000.0625,-5455.830078125,-400000.0625,1420.31005859375,-400000.0625
161.2285270690918,-400000.0625,-351.04998779296875,489.0899963378906,-400000.0625,-5458.259765625,-400000.0625,1408.1500244140625,-400000.0625
161.22853446006775,-400000.0625,-428.010009765625,414.0400085449219,-400000.0625,-5521.490234375,-400000.0625,1333.760009765625,-400000.0625
161.2285418510437,-400000.0625,-469.489990234375,378.2300109863281,-400000.0625,-5556.81982421875,-400000.0625,1298.47998046875,-400000.0625
161.22854948043823,-400000.0625,-415.1300048828125,428.1000061035156,-400000.0625,-5512.91015625,-400000.0625,1351.550048828125,-400000.0625
161.22855854034424,-400000.0625,-344.8500061035156,492.9100036621094,-400000.0625,-5455.64013671875,-400000.0625,1418.449951171875,-400000.0625
161.22856664657593,-400000.0625,-356.9599914550781,482.75,-400000.0625,-5462.1201171875,-400000.0625,1409.050048828125,-400000.0625
161.22857427597046,-400000.0625,-430.7699890136719,411.0799865722656,-400000.0625,-5521.8701171875,-400000.0625,1333.8599853515625,-400000.0625
161.228581905365,-400000.0625,-469.9700012207031,375.6000061035156,-400000.0625,-5551.39013671875,-400000.0625,1296.18994140625,-400000.0625
161.22858929634094,-400000.0625,-418.0,426.20001220703125,-400000.0625,-5506.60986328125,-400000.0625,1347.780029296875,-400000.0625
161.22859621047974,-400000.0625,-345.17999267578125,496.3399963378906,-400000.0625,-5447.14990234375,-400000.0625,1417.300048828125,-400000.0625
161.22860455513,-400000.0625,-357.7200012207031,485.6099853515625,-400000.0625,-5461.97998046875,-400000.0625,1408.2900390625,-400000.0625
161.2286126613617,-400000.0625,-430.6300048828125,411.4599914550781,-400000.0625,-5530.169921875,-400000.0625,1333.9000244140625,-400000.0625
161.22862124443054,-400000.0625,-465.20001220703125,379.94000244140625,-400000.0625,-5551.669921875,-400000.0625,1302.3399658203125,-400000.0625
161.22862887382507,-400000.0625,-414.4200134277344,431.82000732421875,-400000.0625,-5508.47021484375,-400000.0625,1353.260009765625,-400000.0625
161.22863698005676,-400000.0625,-341.2699890136719,500.25,-400000.0625,-5448.009765625,-400000.0625,1421.31005859375,-400000.0625
161.22864508628845,-400000.0625,-354.2900085449219,486.5199890136719,-400000.0625,-5456.8798828125,-400000.0625,1409.8599853515625,-400000.0625
161.22865200042725,-400000.0625,-435.8800048828125,408.0799865722656,-400000.0625,-5524.2998046875,-400000.0625,1334.3800048828125,-400000.0625
161.22865867614746,-400000.0625,-465.82000732421875,374.94000244140625,-400000.0625,-5550.10009765625,-400000.0625,1299.719970703125,-400000.0625
161.2286674976349,-400000.0625,-413.94000244140625,427.05999755859375,-400000.0625,-5504.7001953125,-400000.0625,1353.6500244140625,-400000.0625
161.22867512702942,-400000.0625,-344.8999938964844,496.7200012207031,-400000.0625,-5460.97998046875,-400000.0625,1420.3599853515625,-400000.0625
161.22868251800537,-400000.0625,-357.25,485.5199890136719,-400000.0625,-5468.080078125,-400000.0625,1409.010009765625,-400000.0625
161.2286901473999,-400000.0625,-431.7300109863281,412.3699951171875,-400000.0625,-5523.2099609375,-400000.0625,1336.47998046875,-400000.0625
161.2286970615387,-400000.0625,-470.260009765625,376.3699951171875,-400000.0625,-5549.9599609375,-400000.0625,1306.9599609375,-400000.0625
161.22870421409607,-400000.0625,-421.6199951171875,423.6199951171875,-400000.0625,-5513.6201171875,-400000.0625,1355.1700439453125,-400000.0625
161.22871088981628,-400000.0625,-347.2300109863281,492.239990234375,-400000.0625,-5458.97998046875,-400000.0625,1418.8800048828125,-400000.0625
161.2287175655365,-400000.0625,-359.010009765625,482.2300109863281,-400000.0625,-5466.18017578125,-400000.0625,1406.47998046875,-400000.0625
161.2287242412567,-400000.0625,-433.3999938964844,410.3699951171875,-400000.0625,-5526.97021484375,-400000.0625,1334.6700439453125,-400000.0625
161.22873377799988,-400000.0625,-465.7300109863281,378.6099853515625,-400000.0625,-5552.33984375,-400000.0625,1302.6199951171875,-400000.0625
161.2287404537201,-400000.0625,-413.75,429.20001220703125,-400000.0625,-5512.56982421875,-400000.0625,1355.31005859375,-400000.0625
161.22874689102173,-400000.0625,-344.55999755859375,497.4800109863281,-400000.0625,-5458.2099609375,-400000.0625,1419.4000244140625,-400000.0625
161.2287528514862,-400000.0625,-354.1499938964844,484.4200134277344,-400000.0625,-5469.27978515625,-400000.0625,1408.8199462890625,-400000.0625
161.228759765625,-400000.0625,-433.05999755859375,409.0799865722656,-400000.0625,-5529.5,-400000.0625,1337.47998046875,-400000.0625
161.2287666797638,-400000.0625,-469.7799987792969,375.32000732421875,-400000.0625,-5554.68017578125,-400000.0625,1301.18994140625,-400000.0625
161.22877311706543,-400000.0625,-416.55999755859375,428.8699951171875,-400000.0625,-5512.18994140625,-400000.0625,1354.1700439453125,-400000.0625
161.22877979278564,-400000.0625,-349.0400085449219,494.0,-400000.0625,-5459.39990234375,-400000.0625,1422.68994140625,-400000.0625
161.22878646850586,-400000.0625,-357.9599914550781,483.510009765625,-400000.0625,-5464.97998046875,-400000.0625,1411.43994140625,-400000.0625
161.22879314422607,-400000.0625,-429.5799865722656,415.2799987792969,-400000.0625,-5524.35009765625,-400000.0625,1336.1500244140625,-400000.0625
161.2287995815277,-400000.0625,-470.0199890136719,377.3699951171875,-400000.0625,-5558.43994140625,-400000.0625,1301.0999755859375,-400000.0625
161.22880601882935,-400000.0625,-413.8900146484375,431.5899963378906,-400000.0625,-5510.0400390625,-400000.0625,1355.0799560546875,-400000.0625
161.22881269454956,-400000.0625,-340.0299987792969,502.5899963378906,-400000.0625,-5455.8798828125,-400000.0625,1421.97998046875,-400000.0625
161.22881841659546,-400000.0625,-357.20001220703125,487.0400085449219,-400000.0625,-5473.81005859375,-400000.0625,1413.1099853515625,-400000.0625
161.22882461547852,-400000.0625,-432.29998779296875,412.8900146484375,-400000.0625,-5532.93017578125,-400000.0625,1336.9100341796875,-400000.0625
161.2288315296173,-400000.0625,-465.5799865722656,380.79998779296875,-400000.0625,-5550.47998046875,-400000.0625,1301.2900390625,-400000.0625
161.22883796691895,-400000.0625,-415.2300109863281,431.1099853515625,-400000.0625,-5507.66015625,-400000.0625,1353.1700439453125,-400000.0625
161.22884440422058,-400000.0625,-344.2799987792969,498.67999267578125,-400000.0625,-5449.33984375,-400000.0625,1423.739990234375,-400000.0625
161.22885036468506,-400000.0625,-354.0,485.2300109863281,-400000.0625,-5465.31982421875,-400000.0625,1411.9599609375,-400000.0625
161.2288568019867,-400000.0625,-430.5799865722656,411.94000244140625,-400000.0625,-5529.31005859375,-400000.0625,1336.8599853515625,-400000.0625
161.2288637161255,-400000.0625,-466.8699951171875,378.32000732421875,-400000.0625,-5553.8701171875,-400000.0625,1303.010009765625,-400000.0625
161.22887086868286,-400000.0625,-410.8900146484375,430.5400085449219,-400000.0625,-5509.08984375,-400000.0625,1355.550048828125,-400000.0625
161.22887778282166,-400000.0625,-344.6600036621094,499.29998779296875,-400000.0625,-5451.72998046875,-400000.0625,1420.9300537109375,-400000.0625
161.2288839817047,-400000.0625,-357.20001220703125,485.7099914550781,-400000.0625,-5464.60009765625,-400000.0625,1409.5799560546875,-400000.0625
161.22889018058777,-400000.0625,-433.3999938964844,411.4599914550781,-400000.0625,-5529.97998046875,-400000.0625,1335.5699462890625,-400000.0625
161.2288966178894,-400000.0625,-466.82000732421875,379.989990234375,-400000.0625,-5559.64013671875,-400000.0625,1300.1400146484375,-400000.0625
161.2289035320282,-400000.0625,-411.75,433.3500061035156,-400000.0625,-5504.22998046875,-400000.0625,1351.8299560546875,-400000.0625
161.22890996932983,-400000.0625,-345.79998779296875,496.5799865722656,-400000.0625,-5447.43994140625,-400000.0625,1416.43994140625,-400000.0625
161.22891569137573,-400000.0625,-360.7799987792969,484.2799987792969,-400000.0625,-5466.56005859375,-400000.0625,1402.9000244140625,-400000.0625
161.22892236709595,-400000.0625,-434.45001220703125,409.8900146484375,-400000.0625,-5526.06982421875,-400000.0625,1332.18994140625,-400000.0625
161.22892928123474,-400000.0625,-467.9200134277344,375.55999755859375,-400000.0625,-5550.43017578125,-400000.0625,1295.8499755859375,-400000.0625
161.2289354801178,-400000.0625,-415.17999267578125,426.7200012207031,-400000.0625,-5511.0,-400000.0625,1346.780029296875,-400000.0625
161.22894144058228,-400000.0625,-346.4200134277344,494.6700134277344,-400000.0625,-5456.10986328125,-400000.0625,1417.8299560546875,-400000.0625
161.22894763946533,-400000.0625,-358.6300048828125,481.4100036621094,-400000.0625,-5466.75,-400000.0625,1401.8499755859375,-400000.0625
161.22895407676697,-400000.0625,-435.69000244140625,404.30999755859375,-400000.0625,-5528.64013671875,-400000.0625,1326.3699951171875,-400000.0625
161.22896027565002,-400000.0625,-467.6300048828125,373.4599914550781,-400000.0625,-5548.0498046875,-400000.0625,1295.52001953125,-400000.0625
161.22896647453308,-400000.0625,-412.1300048828125,430.25,-400000.0625,-5501.89013671875,-400000.0625,1347.4000244140625,-400000.0625
161.22897267341614,-400000.0625,-345.17999267578125,495.3399963378906,-400000.0625,-5456.5,-400000.0625,1412.530029296875,-400000.0625
161.2289788722992,-400000.0625,-360.29998779296875,482.510009765625,-400000.0625,-5471.56005859375,-400000.0625,1401.3800048828125,-400000.0625
161.22898507118225,-400000.0625,-438.0199890136719,409.9800109863281,-400000.0625,-5528.64013671875,-400000.0625,1324.3199462890625,-400000.0625
161.2289912700653,-400000.0625,-467.82000732421875,378.6600036621094,-400000.0625,-5550.33984375,-400000.0625,1292.1300048828125,-400000.0625
161.22899746894836,-400000.0625,-413.989990234375,427.7699890136719,-400000.0625,-5511.7099609375,-400000.0625,1347.260009765625,-400000.0625
161.22900319099426,-400000.0625,-347.6600036621094,494.239990234375,-400000.0625,-5461.169921875,-400000.0625,1411.6300048828125,-400000.0625
161.22900986671448,-400000.0625,-360.44000244140625,483.79998779296875,-400000.0625,-5466.75,-400000.0625,1399.4200439453125,-400000.0625
161.22901678085327,-400000.0625,-436.8800048828125,409.2699890136719,-400000.0625,-5522.77978515625,-400000.0625,1324.3699951171875,-400000.0625
161.2290234565735,-400000.0625,-469.2099914550781,377.1300048828125,-400000.0625,-5553.06005859375,-400000.0625,1294.3299560546875,-400000.0625
161.22902965545654,-400000.0625,-411.75,431.010009765625,-400000.0625,-5509.419921875,-400000.0625,1350.2099609375,-400000.0625
161.22903633117676,-400000.0625,-346.1400146484375,495.5299987792969,-400000.0625,-5455.830078125,-400000.0625,1417.3499755859375,-400000.0625
161.22904253005981,-400000.0625,-366.07000732421875,475.1700134277344,-400000.0625,-5468.66015625,-400000.0625,1400.6099853515625,-400000.0625
161.22904920578003,-400000.0625,-440.69000244140625,399.9700012207031,-400000.0625,-5528.64013671875,-400000.0625,1327.75,-400000.0625
161.2290551662445,-400000.0625,-471.6400146484375,370.1700134277344,-400000.0625,-5555.9599609375,-400000.0625,1292.8499755859375,-400000.0625
161.22906255722046,-400000.0625,-415.6600036621094,424.9100036621094,-400000.0625,-5509.419921875,-400000.0625,1346.969970703125,-400000.0625
161.22906827926636,-400000.0625,-348.95001220703125,490.04998779296875,-400000.0625,-5461.35986328125,-400000.0625,1412.5799560546875,-400000.0625
161.2290744781494,-400000.0625,-364.1600036621094,473.3999938964844,-400000.0625,-5476.81005859375,-400000.0625,1401.9000244140625,-400000.0625
161.22908115386963,-400000.0625,-439.2099914550781,400.0199890136719,-400000.0625,-5533.89013671875,-400000.0625,1327.7099609375,-400000.0625
161.22908687591553,-400000.0625,-469.0199890136719,370.8399963378906,-400000.0625,-5556.580078125,-400000.0625,1296.469970703125,-400000.0625
161.22909283638,-400000.0625,-416.6099853515625,422.2900085449219,-400000.0625,-5516.85986328125,-400000.0625,1351.6400146484375,-400000.0625
161.22909903526306,-400000.0625,-348.7099914550781,489.6199951171875,-400000.0625,-5461.169921875,-400000.0625,1416.6400146484375,-400000.0625
161.2291054725647,-400000.0625,-361.7799987792969,476.2699890136719,-400000.0625,-5472.22998046875,-400000.0625,1399.3699951171875,-400000.0625
161.22911167144775,-400000.0625,-439.45001220703125,398.7799987792969,-400000.0625,-5532.02978515625,-400000.0625,1324.3199462890625,-400000.0625
161.22911763191223,-400000.0625,-474.2099914550781,366.6400146484375,-400000.0625,-5556.35009765625,-400000.0625,1295.18994140625,-400000.0625
161.2291238307953,-400000.0625,-418.95001220703125,422.6700134277344,-400000.0625,-5518.39013671875,-400000.0625,1348.449951171875,-400000.0625
161.22913002967834,-400000.0625,-346.2300109863281,493.1499938964844,-400000.0625,-5458.8798828125,-400000.0625,1415.780029296875,-400000.0625
161.22913646697998,-400000.0625,-363.3999938964844,478.94000244140625,-400000.0625,-5462.35986328125,-400000.0625,1402.5699462890625,-400000.0625
161.22914266586304,-400000.0625,-442.4599914550781,403.2099914550781,-400000.0625,-5528.740234375,-400000.0625,1323.8900146484375,-400000.0625
161.22914838790894,-400000.0625,-469.9700012207031,375.4100036621094,-400000.0625,-5559.830078125,-400000.0625,1294.9000244140625,-400000.0625
161.2291543483734,-400000.0625,-415.75,429.1099853515625,-400000.0625,-5515.10009765625,-400000.0625,1349.5899658203125,-400000.0625
161.2291603088379,-400000.0625,-348.5199890136719,493.7200012207031,-400000.0625,-5453.58984375,-400000.0625,1413.010009765625,-400000.0625
161.22916865348816,-400000.0625,-363.2099914550781,478.9800109863281,-400000.0625,-5464.64990234375,-400000.0625,1394.8399658203125,-400000.0625
161.22917461395264,-400000.0625,-441.1199951171875,403.30999755859375,-400000.0625,-5534.02978515625,-400000.0625,1320.4100341796875,-400000.0625
161.22918057441711,-400000.0625,-473.9800109863281,372.6000061035156,-400000.0625,-5556.97021484375,-400000.0625,1288.989990234375,-400000.0625
161.229186296463,-400000.0625,-417.3299865722656,427.2900085449219,-400000.0625,-5509.08984375,-400000.0625,1346.780029296875,-400000.0625
161.22919607162476,-400000.0625,-350.6199951171875,491.0899963378906,-400000.0625,-5457.06982421875,-400000.0625,1411.8199462890625,-400000.0625
161.22920203208923,-400000.0625,-368.54998779296875,475.45001220703125,-400000.0625,-5469.080078125,-400000.0625,1395.1300048828125,-400000.0625
161.22920846939087,-400000.0625,-443.4100036621094,401.5899963378906,-400000.0625,-5527.31005859375,-400000.0625,1319.6500244140625,-400000.0625
161.22921419143677,-400000.0625,-478.1700134277344,366.1600036621094,-400000.0625,-5555.43994140625,-400000.0625,1289.75,-400000.0625
161.2292206287384,-400000.0625,-424.2900085449219,419.0899963378906,-400000.0625,-5512.330078125,-400000.0625,1345.780029296875,-400000.0625
161.22922682762146,-400000.0625,-357.3399963378906,482.4599914550781,-400000.0625,-5463.169921875,-400000.0625,1411.1500244140625,-400000.0625
161.22923302650452,-400000.0625,-369.7900085449219,468.44000244140625,-400000.0625,-5474.14013671875,-400000.0625,1395.1300048828125,-400000.0625
161.22923851013184,-400000.0625,-448.0400085449219,392.010009765625,-400000.0625,-5533.97998046875,-400000.0625,1319.030029296875,-400000.0625
161.22924399375916,-400000.0625,-475.9800109863281,364.7799987792969,-400000.0625,-5555.9599609375,-400000.0625,1287.3699951171875,-400000.0625
161.22924995422363,-400000.0625,-418.6199951171875,419.6600036621094,-400000.0625,-5511.18994140625,-400000.0625,1344.25,-400000.0625
161.22925543785095,-400000.0625,-355.239990234375,482.8500061035156,-400000.0625,-5462.22021484375,-400000.0625,1410.2900390625,-400000.0625
161.22926115989685,-400000.0625,-377.94000244140625,464.44000244140625,-400000.0625,-5476.6201171875,-400000.0625,1392.3199462890625,-400000.0625
161.2292673587799,-400000.0625,-450.94000244140625,392.9100036621094,-400000.0625,-5536.83984375,-400000.0625,1313.1600341796875,-400000.0625
161.22927284240723,-400000.0625,-478.1199951171875,366.260009765625,-400000.0625,-5558.58984375,-400000.0625,1286.1300048828125,-400000.0625
161.22927856445312,-400000.0625,-423.04998779296875,420.6700134277344,-400000.0625,-5509.56982421875,-400000.0625,1346.25,-400000.0625
161.22928404808044,-400000.0625,-352.760009765625,490.04998779296875,-400000.0625,-5460.60009765625,-400000.0625,1407.9599609375,-400000.0625
161.22928977012634,-400000.0625,-365.1600036621094,476.2699890136719,-400000.0625,-5474.08984375,-400000.0625,1389.1700439453125,-400000.0625
161.22929549217224,-400000.0625,-444.94000244140625,396.29998779296875,-400000.0625,-5533.7001953125,-400000.0625,1318.1700439453125,-400000.0625
161.22930097579956,-400000.0625,-483.1300048828125,363.29998779296875,-400000.0625,-5558.919921875,-400000.0625,1290.8900146484375,-400000.0625
161.22930669784546,-400000.0625,-418.760009765625,424.6700134277344,-400000.0625,-5508.9501953125,-400000.0625,1344.300048828125,-400000.0625
161.22931241989136,-400000.0625,-351.9100036621094,488.8999938964844,-400000.0625,-5454.16015625,-400000.0625,1412.8199462890625,-400000.0625
161.22931790351868,-400000.0625,-372.510009765625,468.6400146484375,-400000.0625,-5474.81005859375,-400000.0625,1390.739990234375,-400000.0625
161.22932362556458,-400000.0625,-446.6499938964844,396.1600036621094,-400000.0625,-5538.75,-400000.0625,1314.8299560546875,-400000.0625
161.2293291091919,-400000.0625,-477.9800109863281,367.30999755859375,-400000.0625,-5558.5400390625,-400000.0625,1290.4599609375,-400000.0625
161.2293348312378,-400000.0625,-420.6199951171875,424.3399963378906,-400000.0625,-5508.14013671875,-400000.0625,1343.969970703125,-400000.0625
161.2293405532837,-400000.0625,-353.3800048828125,491.1400146484375,-400000.0625,-5454.64013671875,-400000.0625,1415.010009765625,-400000.0625
161.229346036911,-400000.0625,-369.8299865722656,470.69000244140625,-400000.0625,-5475.08984375,-400000.0625,1398.6099853515625,-400000.0625
161.2293517589569,-400000.0625,-446.79998779296875,393.20001220703125,-400000.0625,-5540.66015625,-400000.0625,1321.030029296875,-400000.0625
161.22935724258423,-400000.0625,-475.6000061035156,366.6400146484375,-400000.0625,-5555.81982421875,-400000.0625,1291.0400390625,-400000.0625
161.22936296463013,-400000.0625,-418.0,425.3900146484375,-400000.0625,-5506.52001953125,-400000.0625,1347.3499755859375,-400000.0625
161.2293689250946,-400000.0625,-353.7699890136719,483.94000244140625,-400000.0625,-5455.8798828125,-400000.0625,1406.9100341796875,-400000.0625
161.22937417030334,-400000.0625,-373.4599914550781,465.5400085449219,-400000.0625,-5477.0498046875,-400000.0625,1388.550048828125,-400000.0625
161.22937989234924,-400000.0625,-449.989990234375,395.010009765625,-400000.0625,-5537.080078125,-400000.0625,1314.68994140625,-400000.0625
161.22938561439514,-400000.0625,-476.7900085449219,368.8800048828125,-400000.0625,-5551.47998046875,-400000.0625,1289.030029296875,-400000.0625
161.22939133644104,-400000.0625,-417.57000732421875,425.7200012207031,-400000.0625,-5502.080078125,-400000.0625,1343.9200439453125,-400000.0625
161.22939729690552,-400000.0625,-354.9100036621094,487.5199890136719,-400000.0625,-5458.4501953125,-400000.0625,1407.8599853515625,-400000.0625
161.22940301895142,-400000.0625,-377.4599914550781,467.6300048828125,-400000.0625,-5480.580078125,-400000.0625,1393.4100341796875,-400000.0625
161.22940874099731,-400000.0625,-451.1400146484375,393.1000061035156,-400000.0625,-5538.419921875,-400000.0625,1315.550048828125,-400000.0625
161.2294144630432,-400000.0625,-477.8900146484375,368.1700134277344,-400000.0625,-5551.240234375,-400000.0625,1290.989990234375,-400000.0625
161.2294201850891,-400000.0625,-419.6199951171875,427.7200012207031,-400000.0625,-5507.3701171875,-400000.0625,1347.5899658203125,-400000.0625
161.229425907135,-400000.0625,-354.6700134277344,487.3800048828125,-400000.0625,-5465.56005859375,-400000.0625,1407.8599853515625,-400000.0625
161.2294318675995,-400000.0625,-374.8900146484375,467.82000732421875,-400000.0625,-5478.10009765625,-400000.0625,1388.739990234375,-400000.0625
161.22943711280823,-400000.0625,-448.8900146484375,395.010009765625,-400000.0625,-5533.93017578125,-400000.0625,1311.449951171875,-400000.0625
161.2294430732727,-400000.0625,-475.8399963378906,368.07000732421875,-400000.0625,-5554.39013671875,-400000.0625,1285.27001953125,-400000.0625
161.2294487953186,-400000.0625,-418.95001220703125,425.3900146484375,-400000.0625,-5508.47021484375,-400000.0625,1341.9599609375,-400000.0625
161.22945427894592,-400000.0625,-354.1499938964844,488.57000732421875,-400000.0625,-5455.10986328125,-400000.0625,1407.719970703125,-400000.0625
161.2294602394104,-400000.0625,-370.1700134277344,467.5400085449219,-400000.0625,-5471.18017578125,-400000.0625,1391.550048828125,-400000.0625
161.22946572303772,-400000.0625,-447.989990234375,390.82000732421875,-400000.0625,-5534.89013671875,-400000.0625,1318.219970703125,-400000.0625
161.22947144508362,-400000.0625,-478.6000061035156,364.45001220703125,-400000.0625,-5556.2001953125,-400000.0625,1288.3699951171875,-400000.0625
161.22947764396667,-400000.0625,-417.4200134277344,424.8599853515625,-400000.0625,-5516.52978515625,-400000.0625,1343.3900146484375,-400000.0625
161.2294840812683,-400000.0625,-350.8999938964844,487.8500061035156,-400000.0625,-5464.1298828125,-400000.0625,1411.8699951171875,-400000.0625
161.22949028015137,-400000.0625,-368.7900085449219,469.3999938964844,-400000.0625,-5478.47998046875,-400000.0625,1394.219970703125,-400000.0625
161.22949647903442,-400000.0625,-448.0799865722656,391.8599853515625,-400000.0625,-5539.419921875,-400000.0625,1317.6400146484375,-400000.0625
161.22950220108032,-400000.0625,-477.8900146484375,362.8699951171875,-400000.0625,-5560.5400390625,-400000.0625,1290.3699951171875,-400000.0625
161.2295081615448,-400000.0625,-418.3800048828125,421.6700134277344,-400000.0625,-5512.0498046875,-400000.0625,1346.02001953125,-400000.0625
161.22951412200928,-400000.0625,-349.3299865722656,488.0400085449219,-400000.0625,-5453.43994140625,-400000.0625,1410.199951171875,-400000.0625
161.22951984405518,-400000.0625,-372.1199951171875,467.3500061035156,-400000.0625,-5469.22998046875,-400000.0625,1391.8399658203125,-400000.0625
161.2295262813568,-400000.0625,-445.32000732421875,393.6300048828125,-400000.0625,-5534.4599609375,-400000.0625,1315.6400146484375,-400000.0625
161.2295320034027,-400000.0625,-473.92999267578125,366.3500061035156,-400000.0625,-5563.2099609375,-400000.0625,1291.1800537109375,-400000.0625
161.22953748703003,-400000.0625,-418.5199890136719,422.6700134277344,-400000.0625,-5518.9599609375,-400000.0625,1346.969970703125,-400000.0625
161.2295434474945,-400000.0625,-354.7200012207031,481.55999755859375,-400000.0625,-5465.509765625,-400000.0625,1409.47998046875,-400000.0625
161.22954940795898,-400000.0625,-373.0299987792969,467.3500061035156,-400000.0625,-5477.759765625,-400000.0625,1391.219970703125,-400000.0625
161.2295548915863,-400000.0625,-451.79998779296875,392.9100036621094,-400000.0625,-5539.509765625,-400000.0625,1318.5,-400000.0625
161.2295606136322,-400000.0625,-476.7900085449219,365.6400146484375,-400000.0625,-5557.58984375,-400000.0625,1291.22998046875,-400000.0625
161.2295663356781,-400000.0625,-415.95001220703125,427.20001220703125,-400000.0625,-5506.85009765625,-400000.0625,1349.969970703125,-400000.0625
161.22957181930542,-400000.0625,-350.760009765625,489.4700012207031,-400000.0625,-5462.5498046875,-400000.0625,1410.3900146484375,-400000.0625
161.2295777797699,-400000.0625,-372.70001220703125,466.5400085449219,-400000.0625,-5482.39013671875,-400000.0625,1390.7900390625,-400000.0625
161.22958326339722,-400000.0625,-453.6199951171875,390.7699890136719,-400000.0625,-5542.759765625,-400000.0625,1315.4000244140625,-400000.0625
161.22958874702454,-400000.0625,-479.6499938964844,365.07000732421875,-400000.0625,-5557.97021484375,-400000.0625,1290.1300048828125,-400000.0625
161.22959446907043,-400000.0625,-416.1400146484375,425.6199951171875,-400000.0625,-5513.9501953125,-400000.0625,1346.1600341796875,-400000.0625
161.22959995269775,-400000.0625,-351.8599853515625,486.989990234375,-400000.0625,-5466.1298828125,-400000.0625,1408.530029296875,-400000.0625
161.22960543632507,-400000.0625,-374.2200012207031,464.20001220703125,-400000.0625,-5484.490234375,-400000.0625,1388.1199951171875,-400000.0625
161.22961115837097,-400000.0625,-450.6600036621094,387.8599853515625,-400000.0625,-5543.22998046875,-400000.0625,1313.5899658203125,-400000.0625
161.2296164035797,-400000.0625,-480.70001220703125,359.5799865722656,-400000.0625,-5565.5,-400000.0625,1285.699951171875,-400000.0625
161.2296221256256,-400000.0625,-426.8599853515625,413.55999755859375,-400000.0625,-5526.97021484375,-400000.0625,1344.5899658203125,-400000.0625
161.22962760925293,-400000.0625,-359.5799865722656,478.8900146484375,-400000.0625,-5470.66015625,-400000.0625,1406.47998046875,-400000.0625
161.2296335697174,-400000.0625,-379.4200134277344,459.3399963378906,-400000.0625,-5485.009765625,-400000.0625,1385.1600341796875,-400000.0625
161.22963905334473,-400000.0625,-456.0,385.0,-400000.0625,-5547.0,-400000.0625,1311.1099853515625,-400000.0625
161.22964453697205,-400000.0625,-479.7900085449219,359.7699890136719,-400000.0625,-5568.93017578125,-400000.0625,1284.739990234375,-400000.0625
161.22965025901794,-400000.0625,-425.20001220703125,417.57000732421875,-400000.0625,-5523.2998046875,-400000.0625,1343.6300048828125,-400000.0625
161.22965788841248,-400000.0625,-361.05999755859375,480.32000732421875,-400000.0625,-5473.22998046875,-400000.0625,1405.3299560546875,-400000.0625
161.22966361045837,-400000.0625,-380.2300109863281,460.5299987792969,-400000.0625,-5487.35009765625,-400000.0625,1384.1199951171875,-400000.0625
161.2296690940857,-400000.0625,-453.4200134277344,385.42999267578125,-400000.0625,-5551.52978515625,-400000.0625,1311.06005859375,-400000.0625
161.2296748161316,-400000.0625,-479.70001220703125,359.3399963378906,-400000.0625,-5571.1298828125,-400000.0625,1285.97998046875,-400000.0625
161.2296805381775,-400000.0625,-418.0,421.4800109863281,-400000.0625,-5517.43994140625,-400000.0625,1342.5799560546875,-400000.0625
161.2296860218048,-400000.0625,-352.3800048828125,484.8999938964844,-400000.0625,-5463.02978515625,-400000.0625,1403.81005859375,-400000.0625
161.2296917438507,-400000.0625,-375.4599914550781,461.8599853515625,-400000.0625,-5486.8701171875,-400000.0625,1379.6800537109375,-400000.0625
161.22969698905945,-400000.0625,-457.7200012207031,383.8999938964844,-400000.0625,-5551.91015625,-400000.0625,1304.3900146484375,-400000.0625
161.22970294952393,-400000.0625,-482.510009765625,360.1600036621094,-400000.0625,-5569.080078125,-400000.0625,1281.550048828125,-400000.0625
161.22970843315125,-400000.0625,-422.3299865722656,416.760009765625,-400000.0625,-5523.77978515625,-400000.0625,1338.5799560546875,-400000.0625
161.22971415519714,-400000.0625,-359.010009765625,478.32000732421875,-400000.0625,-5476.27978515625,-400000.0625,1399.8499755859375,-400000.0625
161.22971987724304,-400000.0625,-377.8900146484375,460.1000061035156,-400000.0625,-5490.2099609375,-400000.0625,1380.489990234375,-400000.0625
161.22972559928894,-400000.0625,-455.8999938964844,384.1400146484375,-400000.0625,-5545.81005859375,-400000.0625,1303.719970703125,-400000.0625
161.22973108291626,-400000.0625,-483.0400085449219,360.7799987792969,-400000.0625,-5570.35986328125,-400000.0625,1276.5400390625,-400000.0625
161.22973680496216,-400000.0625,-420.8999938964844,418.6600036621094,-400000.0625,-5524.2099609375,-400000.0625,1337.9100341796875,-400000.0625
161.22974228858948,-400000.0625,-355.9100036621094,480.3699951171875,-400000.0625,-5470.56005859375,-400000.0625,1400.52001953125,-400000.0625
161.22974801063538,-400000.0625,-379.1300048828125,458.9100036621094,-400000.0625,-5487.68017578125,-400000.0625,1378.72998046875,-400000.0625
161.2297534942627,-400000.0625,-459.7699890136719,380.95001220703125,-400000.0625,-5550.39013671875,-400000.0625,1304.8699951171875,-400000.0625
161.22976875305176,-400000.0625,-482.4200134277344,358.3399963378906,-400000.0625,-5574.7998046875,-400000.0625,1280.5899658203125,-400000.0625
161.22977471351624,-400000.0625,-419.80999755859375,416.4200134277344,-400000.0625,-5526.10986328125,-400000.0625,1342.489990234375,-400000.0625
161.22978138923645,-400000.0625,-358.20001220703125,476.6499938964844,-400000.0625,-5474.18994140625,-400000.0625,1405.18994140625,-400000.0625
161.22978830337524,-400000.0625,-380.1300048828125,457.1400146484375,-400000.0625,-5489.35009765625,-400000.0625,1381.8299560546875,-400000.0625
161.22979402542114,-400000.0625,-458.3399963378906,379.7099914550781,-400000.0625,-5549.6201171875,-400000.0625,1303.6300048828125,-400000.0625
161.22980046272278,-400000.0625,-484.6099853515625,355.9100036621094,-400000.0625,-5567.5498046875,-400000.0625,1282.5,-400000.0625
161.22980642318726,-400000.0625,-423.3800048828125,417.760009765625,-400000.0625,-5524.72998046875,-400000.0625,1340.199951171875,-400000.0625
161.22981357574463,-400000.0625,-356.82000732421875,480.94000244140625,-400000.0625,-5469.89990234375,-400000.0625,1404.2900390625,-400000.0625
161.22981929779053,-400000.0625,-380.1300048828125,456.3800048828125,-400000.0625,-5489.06005859375,-400000.0625,1383.02001953125,-400000.0625
161.22982501983643,-400000.0625,-458.80999755859375,382.57000732421875,-400000.0625,-5557.16015625,-400000.0625,1304.3900146484375,-400000.0625
161.2298309803009,-400000.0625,-479.6499938964844,358.3399963378906,-400000.0625,-5574.75,-400000.0625,1280.68994140625,-400000.0625
161.22983694076538,-400000.0625,-418.0400085449219,417.4200134277344,-400000.0625,-5528.77978515625,-400000.0625,1338.0999755859375,-400000.0625
161.2298424243927,-400000.0625,-356.8599853515625,477.6000061035156,-400000.0625,-5474.18994140625,-400000.0625,1399.3699951171875,-400000.0625
161.22984838485718,-400000.0625,-381.8500061035156,453.0,-400000.0625,-5494.93017578125,-400000.0625,1375.5799560546875,-400000.0625
161.22985410690308,-400000.0625,-459.239990234375,377.3699951171875,-400000.0625,-5557.009765625,-400000.0625,1302.0,-400000.0625
161.22985982894897,-400000.0625,-484.3699951171875,352.6700134277344,-400000.0625,-5571.7998046875,-400000.0625,1281.1700439453125,-400000.0625
161.22986578941345,-400000.0625,-421.2900085449219,410.94000244140625,-400000.0625,-5529.5,-400000.0625,1340.0999755859375,-400000.0625
161.2298710346222,-400000.0625,-357.3900146484375,475.0299987792969,-400000.0625,-5479.9599609375,-400000.0625,1402.0,-400000.0625
161.2298767566681,-400000.0625,-384.5199890136719,448.510009765625,-400000.0625,-5497.93017578125,-400000.0625,1376.77001953125,-400000.0625
161.229882478714,-400000.0625,-460.7200012207031,372.7900085449219,-400000.0625,-5557.97021484375,-400000.0625,1300.239990234375,-400000.0625
161.22988843917847,-400000.0625,-483.79998779296875,351.42999267578125,-400000.0625,-5577.60986328125,-400000.0625,1278.260009765625,-400000.0625
161.22989439964294,-400000.0625,-422.2900085449219,411.989990234375,-400000.0625,-5526.68994140625,-400000.0625,1338.9100341796875,-400000.0625
161.22990012168884,-400000.0625,-361.25,473.260009765625,-400000.0625,-5480.14990234375,-400000.0625,1399.56005859375,-400000.0625
161.22990608215332,-400000.0625,-384.95001220703125,449.7099914550781,-400000.0625,-5501.509765625,-400000.0625,1376.3399658203125,-400000.0625
161.22991156578064,-400000.0625,-456.7099914550781,378.1300048828125,-400000.0625,-5556.6298828125,-400000.0625,1298.949951171875,-400000.0625
161.22991728782654,-400000.0625,-476.2200012207031,359.1499938964844,-400000.0625,-5570.60009765625,-400000.0625,1279.780029296875,-400000.0625
161.22992277145386,-400000.0625,-417.3299865722656,421.04998779296875,-400000.0625,-5520.2001953125,-400000.0625,1342.9599609375,-400000.0625
161.22992873191833,-400000.0625,-354.0,481.0799865722656,-400000.0625,-5474.18994140625,-400000.0625,1402.0899658203125,-400000.0625
161.2299349308014,-400000.0625,-377.2300109863281,456.0899963378906,-400000.0625,-5498.740234375,-400000.0625,1377.010009765625,-400000.0625
161.2299404144287,-400000.0625,-457.3800048828125,378.32000732421875,-400000.0625,-5558.68017578125,-400000.0625,1301.2900390625,-400000.0625
161.2299461364746,-400000.0625,-483.17999267578125,356.20001220703125,-400000.0625,-5575.56005859375,-400000.0625,1276.8699951171875,-400000.0625
161.2299520969391,-400000.0625,-413.70001220703125,421.42999267578125,-400000.0625,-5521.5400390625,-400000.0625,1343.06005859375,-400000.0625
161.2299575805664,-400000.0625,-350.8599853515625,481.4100036621094,-400000.0625,-5473.66015625,-400000.0625,1405.2900390625,-400000.0625
161.22996354103088,-400000.0625,-378.0400085449219,454.6199951171875,-400000.0625,-5497.7900390625,-400000.0625,1378.9200439453125,-400000.0625
161.22996973991394,-400000.0625,-452.8500061035156,379.75,-400000.0625,-5557.8701171875,-400000.0625,1300.1400146484375,-400000.0625
161.22997522354126,-400000.0625,-476.7900085449219,356.8599853515625,-400000.0625,-5577.7099609375,-400000.0625,1283.260009765625,-400000.0625
161.22998094558716,-400000.0625,-413.989990234375,417.2799987792969,-400000.0625,-5527.64013671875,-400000.0625,1348.6400146484375,-400000.0625
161.22998690605164,-400000.0625,-349.57000732421875,477.2699890136719,-400000.0625,-5477.14013671875,-400000.0625,1407.4300537109375,-400000.0625
161.22999215126038,-400000.0625,-378.989990234375,452.4200134277344,-400000.0625,-5496.7900390625,-400000.0625,1381.489990234375,-400000.0625
161.22999811172485,-400000.0625,-459.6700134277344,374.4599914550781,-400000.0625,-5561.2099609375,-400000.0625,1301.9599609375,-400000.0625
161.23000359535217,-400000.0625,-482.8500061035156,350.760009765625,-400000.0625,-5577.759765625,-400000.0625,1280.739990234375,-400000.0625
161.2300090789795,-400000.0625,-419.95001220703125,412.1300048828125,-400000.0625,-5525.58984375,-400000.0625,1342.300048828125,-400000.0625
161.2300148010254,-400000.0625,-354.0,473.7900085449219,-400000.0625,-5477.47998046875,-400000.0625,1400.469970703125,-400000.0625
161.23002076148987,-400000.0625,-376.510009765625,450.1300048828125,-400000.0625,-5500.41015625,-400000.0625,1382.489990234375,-400000.0625
161.2300262451172,-400000.0625,-455.57000732421875,374.0799865722656,-400000.0625,-5563.31005859375,-400000.0625,1304.6700439453125,-400000.0625
161.23003220558167,-400000.0625,-477.2699890136719,351.6700134277344,-400000.0625,-5582.43017578125,-400000.0625,1281.2099609375,-400000.0625
161.23003768920898,-400000.0625,-415.95001220703125,412.6099853515625,-400000.0625,-5531.97998046875,-400000.0625,1342.9200439453125,-400000.0625
161.23004341125488,-400000.0625,-356.1499938964844,473.2099914550781,-400000.0625,-5479.669921875,-400000.0625,1402.6600341796875,-400000.0625
161.23004913330078,-400000.0625,-382.3299865722656,447.2699890136719,-400000.0625,-5496.83984375,-400000.0625,1378.1099853515625,-400000.0625
161.23005485534668,-400000.0625,-461.3900146484375,370.69000244140625,-400000.0625,-5559.5400390625,-400000.0625,1306.43994140625,-400000.0625
161.23006081581116,-400000.0625,-480.0299987792969,351.57000732421875,-400000.0625,-5579.47021484375,-400000.0625,1285.699951171875,-400000.0625
161.23006677627563,-400000.0625,-411.4599914550781,418.57000732421875,-400000.0625,-5525.2998046875,-400000.0625,1346.02001953125,-400000.0625
161.23007369041443,-400000.0625,-350.4800109863281,475.9800109863281,-400000.0625,-5475.85986328125,-400000.0625,1405.47998046875,-400000.0625
161.2300796508789,-400000.0625,-377.0400085449219,449.94000244140625,-400000.0625,-5498.7001953125,-400000.0625,1377.8199462890625,-400000.0625
161.23008584976196,-400000.0625,-451.2799987792969,378.79998779296875,-400000.0625,-5560.259765625,-400000.0625,1303.77001953125,-400000.0625
161.23009204864502,-400000.0625,-480.75,353.2900085449219,-400000.0625,-5579.0400390625,-400000.0625,1283.9300537109375,-400000.0625
161.2300980091095,-400000.0625,-418.3800048828125,414.32000732421875,-400000.0625,-5526.2099609375,-400000.0625,1340.5799560546875,-400000.0625
161.23010444641113,-400000.0625,-352.2900085449219,475.45001220703125,-400000.0625,-5475.240234375,-400000.0625,1399.469970703125,-400000.0625
161.23011016845703,-400000.0625,-378.94000244140625,449.2300109863281,-400000.0625,-5494.31005859375,-400000.0625,1375.1500244140625,-400000.0625
161.23011589050293,-400000.0625,-454.95001220703125,376.0799865722656,-400000.0625,-5557.490234375,-400000.0625,1297.1400146484375,-400000.0625
161.2301218509674,-400000.0625,-476.07000732421875,356.8599853515625,-400000.0625,-5578.7998046875,-400000.0625,1276.6800537109375,-400000.0625
161.23012709617615,-400000.0625,-416.1400146484375,415.3699951171875,-400000.0625,-5528.4501953125,-400000.0625,1339.010009765625,-400000.0625
161.2301332950592,-400000.0625,-357.1000061035156,473.54998779296875,-400000.0625,-5477.759765625,-400000.0625,1399.3299560546875,-400000.0625
161.23013925552368,-400000.0625,-381.8500061035156,448.32000732421875,-400000.0625,-5498.7900390625,-400000.0625,1378.25,-400000.0625
161.23014497756958,-400000.0625,-456.3800048828125,374.2699890136719,-400000.0625,-5564.259765625,-400000.0625,1300.1400146484375,-400000.0625
161.23015141487122,-400000.0625,-475.0299987792969,358.1499938964844,-400000.0625,-5580.08984375,-400000.0625,1277.1099853515625,-400000.0625
161.2301585674286,-400000.0625,-410.70001220703125,422.04998779296875,-400000.0625,-5524.02001953125,-400000.0625,1342.1099853515625,-400000.0625
161.23016691207886,-400000.0625,-353.5299987792969,476.69000244140625,-400000.0625,-5479.52978515625,-400000.0625,1400.1800537109375,-400000.0625
161.23017287254333,-400000.0625,-382.19000244140625,449.2300109863281,-400000.0625,-5502.89013671875,-400000.0625,1375.47998046875,-400000.0625
161.2301788330078,-400000.0625,-453.5199890136719,378.1300048828125,-400000.0625,-5564.259765625,-400000.0625,1302.2900390625,-400000.0625
161.2301881313324,-400000.0625,-479.0299987792969,355.010009765625,-400000.0625,-5580.27978515625,-400000.0625,1281.739990234375,-400000.0625
161.2301938533783,-400000.0625,-413.2699890136719,420.1400146484375,-400000.0625,-5531.83984375,-400000.0625,1338.9599609375,-400000.0625
161.23020005226135,-400000.0625,-350.5199890136719,481.55999755859375,-400000.0625,-5482.580078125,-400000.0625,1399.800048828125,-400000.0625
161.2302062511444,-400000.0625,-378.70001220703125,453.80999755859375,-400000.0625,-5504.509765625,-400000.0625,1378.5799560546875,-400000.0625
161.2302122116089,-400000.0625,-455.2799987792969,377.989990234375,-400000.0625,-5566.5498046875,-400000.0625,1304.6700439453125,-400000.0625
161.23021793365479,-400000.0625,-472.1600036621094,360.5400085449219,-400000.0625,-5577.27978515625,-400000.0625,1285.97998046875,-400000.0625
161.23022413253784,-400000.0625,-403.8299865722656,423.3399963378906,-400000.0625,-5520.6298828125,-400000.0625,1348.9200439453125,-400000.0625
161.23023009300232,-400000.0625,-344.2300109863281,480.94000244140625,-400000.0625,-5479.77001953125,-400000.0625,1407.2900390625,-400000.0625
161.23023653030396,-400000.0625,-373.1700134277344,454.7099914550781,-400000.0625,-5500.83984375,-400000.0625,1379.5400390625,-400000.0625
161.23024225234985,-400000.0625,-453.760009765625,376.510009765625,-400000.0625,-5563.93017578125,-400000.0625,1302.4300537109375,-400000.0625
161.2302484512329,-400000.0625,-470.07000732421875,358.29998779296875,-400000.0625,-5578.7099609375,-400000.0625,1283.739990234375,-400000.0625
161.2302544116974,-400000.0625,-405.6000061035156,420.2799987792969,-400000.0625,-5526.02001953125,-400000.0625,1348.2099609375,-400000.0625
161.23026037216187,-400000.0625,-344.8999938964844,479.8900146484375,-400000.0625,-5476.52001953125,-400000.0625,1406.18994140625,-400000.0625
161.23026585578918,-400000.0625,-371.30999755859375,453.8500061035156,-400000.0625,-5493.259765625,-400000.0625,1380.4000244140625,-400000.0625
161.23027205467224,-400000.0625,-451.989990234375,375.4599914550781,-400000.0625,-5563.35986328125,-400000.0625,1303.6300048828125,-400000.0625
161.23027992248535,-400000.0625,-471.3999938964844,355.5299987792969,-400000.0625,-5580.27978515625,-400000.0625,1284.4100341796875,-400000.0625
161.23028826713562,-400000.0625,-401.5899963378906,420.2799987792969,-400000.0625,-5525.64013671875,-400000.0625,1345.2099609375,-400000.0625
161.2302963733673,-400000.0625,-344.0899963378906,478.4100036621094,-400000.0625,-5478.9501953125,-400000.0625,1405.6700439453125,-400000.0625
161.230304479599,-400000.0625,-373.3599853515625,451.17999267578125,-400000.0625,-5498.4599609375,-400000.0625,1380.43994140625,-400000.0625
161.23031330108643,-400000.0625,-447.32000732421875,378.6600036621094,-400000.0625,-5557.39013671875,-400000.0625,1305.6300048828125,-400000.0625
161.2303216457367,-400000.0625,-467.8699951171875,357.7699890136719,-400000.0625,-5579.3798828125,-400000.0625,1285.8900146484375,-400000.0625
161.2303307056427,-400000.0625,-402.739990234375,418.95001220703125,-400000.0625,-5528.58984375,-400000.0625,1348.449951171875,-400000.0625
161.23034024238586,-400000.0625,-343.989990234375,475.2200012207031,-400000.0625,-5477.81005859375,-400000.0625,1408.3399658203125,-400000.0625
161.23034930229187,-400000.0625,-372.8399963378906,447.4599914550781,-400000.0625,-5498.7001953125,-400000.0625,1380.780029296875,-400000.0625
161.23035883903503,-400000.0625,-452.3800048828125,372.6499938964844,-400000.0625,-5565.31005859375,-400000.0625,1301.77001953125,-400000.0625
161.23036742210388,-400000.0625,-468.29998779296875,358.489990234375,-400000.0625,-5583.18994140625,-400000.0625,1283.219970703125,-400000.0625
161.2303762435913,-400000.0625,-402.45001220703125,422.6700134277344,-400000.0625,-5526.35009765625,-400000.0625,1346.06005859375,-400000.0625
161.23038482666016,-400000.0625,-345.75,476.1700134277344,-400000.0625,-5480.47998046875,-400000.0625,1404.050048828125,-400000.0625
161.230393409729,-400000.0625,-372.54998779296875,449.79998779296875,-400000.0625,-5502.1298828125,-400000.0625,1378.3499755859375,-400000.0625
161.23040223121643,-400000.0625,-448.17999267578125,377.0400085449219,-400000.0625,-5559.64013671875,-400000.0625,1302.1500244140625,-400000.0625
161.23041105270386,-400000.0625,-465.9200134277344,361.25,-400000.0625,-5574.47021484375,-400000.0625,1283.1199951171875,-400000.0625
161.23042058944702,-400000.0625,-399.07000732421875,426.8599853515625,-400000.0625,-5524.35009765625,-400000.0625,1346.25,-400000.0625
161.2304286956787,-400000.0625,-343.6600036621094,482.1300048828125,-400000.0625,-5477.669921875,-400000.0625,1406.1500244140625,-400000.0625
161.2304379940033,-400000.0625,-371.4599914550781,453.8500061035156,-400000.0625,-5506.22998046875,-400000.0625,1379.06005859375,-400000.0625
161.23044657707214,-400000.0625,-447.70001220703125,377.79998779296875,-400000.0625,-5567.02978515625,-400000.0625,1305.25,-400000.0625
161.23045587539673,-400000.0625,-465.5400085449219,360.7799987792969,-400000.0625,-5578.3798828125,-400000.0625,1284.5,-400000.0625
161.230464220047,-400000.0625,-402.92999267578125,421.4800109863281,-400000.0625,-5524.16015625,-400000.0625,1346.8699951171875,-400000.0625
161.23047375679016,-400000.0625,-342.0400085449219,477.7900085449219,-400000.0625,-5476.52001953125,-400000.0625,1403.239990234375,-400000.0625
161.2304825782776,-400000.0625,-371.30999755859375,449.55999755859375,-400000.0625,-5501.7001953125,-400000.0625,1376.9200439453125,-400000.0625
161.23049116134644,-400000.0625,-451.760009765625,372.92999267578125,-400000.0625,-5560.919921875,-400000.0625,1306.3399658203125,-400000.0625
161.2305006980896,-400000.0625,-470.3500061035156,353.04998779296875,-400000.0625,-5575.85009765625,-400000.0625,1287.3199462890625,-400000.0625
161.2305088043213,-400000.0625,-406.4599914550781,413.70001220703125,-400000.0625,-5529.169921875,-400000.0625,1348.300048828125,-400000.0625
161.2305178642273,-400000.0625,-349.2799987792969,469.6400146484375,-400000.0625,-5485.009765625,-400000.0625,1403.6700439453125,-400000.0625
161.23052668571472,-400000.0625,-376.3699951171875,443.2699890136719,-400000.0625,-5503.1298828125,-400000.0625,1373.8199462890625,-400000.0625
161.2305347919464,-400000.0625,-452.6099853515625,370.6499938964844,-400000.0625,-5559.490234375,-400000.0625,1300.47998046875,-400000.0625
161.23054361343384,-400000.0625,-471.07000732421875,354.19000244140625,-400000.0625,-5575.93994140625,-400000.0625,1284.3599853515625,-400000.0625
161.23055219650269,-400000.0625,-405.260009765625,416.3299865722656,-400000.0625,-5521.580078125,-400000.0625,1346.4000244140625,-400000.0625
161.23056077957153,-400000.0625,-350.0,469.1099853515625,-400000.0625,-5476.0498046875,-400000.0625,1404.5699462890625,-400000.0625
161.23057007789612,-400000.0625,-380.6600036621094,441.1700134277344,-400000.0625,-5502.18017578125,-400000.0625,1373.5799560546875,-400000.0625
161.2305784225464,-400000.0625,-455.19000244140625,366.45001220703125,-400000.0625,-5567.5,-400000.0625,1297.9000244140625,-400000.0625
161.2305872440338,-400000.0625,-473.5,348.1400146484375,-400000.0625,-5580.7099609375,-400000.0625,1281.68994140625,-400000.0625
161.23059582710266,-400000.0625,-411.79998779296875,410.4100036621094,-400000.0625,-5527.93017578125,-400000.0625,1343.8699951171875,-400000.0625
161.23060488700867,-400000.0625,-353.2900085449219,464.7699890136719,-400000.0625,-5482.39013671875,-400000.0625,1399.3299560546875,-400000.0625
161.23061347007751,-400000.0625,-381.6099853515625,437.07000732421875,-400000.0625,-5506.85009765625,-400000.0625,1368.5699462890625,-400000.0625
161.2306215763092,-400000.0625,-456.19000244140625,364.69000244140625,-400000.0625,-5568.41015625,-400000.0625,1295.8499755859375,-400000.0625
161.23063015937805,-400000.0625,-474.1199951171875,346.8500061035156,-400000.0625,-5579.330078125,-400000.0625,1282.6400146484375,-400000.0625
161.23063945770264,-400000.0625,-408.9800109863281,412.2699890136719,-400000.0625,-5524.39990234375,-400000.0625,1344.5899658203125,-400000.0625
161.23064804077148,-400000.0625,-350.239990234375,467.44000244140625,-400000.0625,-5470.990234375,-400000.0625,1397.510009765625,-400000.0625
161.23065757751465,-400000.0625,-382.4200134277344,436.260009765625,-400000.0625,-5499.7001953125,-400000.0625,1368.949951171875,-400000.0625
161.23066639900208,-400000.0625,-458.5299987792969,363.7799987792969,-400000.0625,-5563.02001953125,-400000.0625,1296.18994140625,-400000.0625
161.23067498207092,-400000.0625,-472.1600036621094,348.6199951171875,-400000.0625,-5583.240234375,-400000.0625,1280.550048828125,-400000.0625
161.23068404197693,-400000.0625,-410.3699951171875,411.989990234375,-400000.0625,-5534.4599609375,-400000.0625,1342.8199462890625,-400000.0625
161.23069286346436,-400000.0625,-354.6199951171875,467.7300109863281,-400000.0625,-5488.35009765625,-400000.0625,1400.5699462890625,-400000.0625
161.23070168495178,-400000.0625,-384.3299865722656,437.260009765625,-400000.0625,-5508.3798828125,-400000.0625,1370.0,-400000.0625
161.2307105064392,-400000.0625,-458.6199951171875,365.2099914550781,-400000.0625,-5559.4501953125,-400000.0625,1294.1800537109375,-400000.0625
161.23071885108948,-400000.0625,-471.5400085449219,350.1400146484375,-400000.0625,-5572.4599609375,-400000.0625,1279.4000244140625,-400000.0625
161.23072719573975,-400000.0625,-408.0799865722656,409.8399963378906,-400000.0625,-5532.31005859375,-400000.0625,1344.1099853515625,-400000.0625
161.23073649406433,-400000.0625,-351.04998779296875,464.3900146484375,-400000.0625,-5488.490234375,-400000.0625,1396.56005859375,-400000.0625
161.23074507713318,-400000.0625,-379.0899963378906,432.7300109863281,-400000.0625,-5510.85986328125,-400000.0625,1369.2900390625,-400000.0625
161.23075437545776,-400000.0625,-459.2900085449219,358.05999755859375,-400000.0625,-5566.169921875,-400000.0625,1295.81005859375,-400000.0625
161.2307629585266,-400000.0625,-473.30999755859375,345.79998779296875,-400000.0625,-5578.419921875,-400000.0625,1280.3599853515625,-400000.0625
161.23077178001404,-400000.0625,-407.7900085449219,409.94000244140625,-400000.0625,-5527.31005859375,-400000.0625,1346.4000244140625,-400000.0625
161.23078036308289,-400000.0625,-353.8599853515625,463.6300048828125,-400000.0625,-5485.06005859375,-400000.0625,1401.469970703125,-400000.0625
161.2307894229889,-400000.0625,-381.8500061035156,435.9700012207031,-400000.0625,-5508.759765625,-400000.0625,1370.050048828125,-400000.0625
161.230797290802,-400000.0625,-458.9100036621094,361.29998779296875,-400000.0625,-5562.68994140625,-400000.0625,1294.760009765625,-400000.0625
161.2308053970337,-400000.0625,-479.70001220703125,341.0799865722656,-400000.0625,-5579.89990234375,-400000.0625,1276.9200439453125,-400000.0625
161.23081469535828,-400000.0625,-408.3599853515625,410.1300048828125,-400000.0625,-5534.89013671875,-400000.0625,1340.8699951171875,-400000.0625
161.23082375526428,-400000.0625,-352.0,463.3900146484375,-400000.0625,-5488.2099609375,-400000.0625,1395.1300048828125,-400000.0625
161.2308325767517,-400000.0625,-388.80999755859375,429.20001220703125,-400000.0625,-5510.9501953125,-400000.0625,1364.9000244140625,-400000.0625
161.23084115982056,-400000.0625,-462.010009765625,358.3900146484375,-400000.0625,-5566.1201171875,-400000.0625,1288.75,-400000.0625
161.2308497428894,-400000.0625,-473.739990234375,346.1400146484375,-400000.0625,-5575.419921875,-400000.0625,1275.489990234375,-400000.0625
161.2308588027954,-400000.0625,-409.8900146484375,408.70001220703125,-400000.0625,-5521.5400390625,-400000.0625,1341.3399658203125,-400000.0625
161.23086714744568,-400000.0625,-354.7200012207031,464.3399963378906,-400000.0625,-5477.47998046875,-400000.0625,1398.6099853515625,-400000.0625
161.2308759689331,-400000.0625,-386.760009765625,431.20001220703125,-400000.0625,-5512.6201171875,-400000.0625,1363.52001953125,-400000.0625
161.23088455200195,-400000.0625,-463.010009765625,356.3900146484375,-400000.0625,-5576.66015625,-400000.0625,1288.1300048828125,-400000.0625
