time,ch1,ch2,ch3,ch4,ch5,ch6,ch7,ch8
0.03363394737243652,758.4600219726562,5560.919921875,16141.3203125,-400000.0625,-400000.0625,-400000.0625,-400000.0625,-400000.0625
0.03374338150024414,763.7000122070312,5561.16015625,16140.0302734375,-400000.0625,-400000.0625,-400000.0625,-400000.0625,-400000.0625
0.03375649452209473,770.8599853515625,5571.080078125,16144.75,-400000.0625,-400000.0625,-400000.0625,-400000.0625,-400000.0625
0.033765554428100586,774.9099731445312,5574.1298828125,16144.7099609375,-400000.0625,-400000.0625,-400000.0625,-400000.0625,-400000.0625
0.03380775451660156,770.8599853515625,5567.35986328125,16141.7998046875,-400000.0625,-400000.0625,-400000.0625,-400000.0625,-400000.0625
0.033815622329711914,769.4199829101562,5566.5,16140.75,-400000.0625,-400000.0625,-400000.0625,-400000.0625,-400000.0625
0.03381991386413574,764.75,5560.8798828125,16137.3203125,-400000.0625,-400000.0625,-400000.0625,-400000.0625,-400000.0625
0.033823251724243164,766.6599731445312,5564.31005859375,16140.080078125,-400000.0625,-400000.0625,-400000.0625,-400000.0625,-400000.0625
0.03382682800292969,770.239990234375,5565.60009765625,16139.41015625,-400000.0625,-400000.0625,-400000.0625,-400000.0625,-400000.0625
0.03383183479309082,773.5700073242188,5570.60009765625,16141.080078125,-400000.0625,-400000.0625,-400000.0625,-400000.0625,-400000.0625
0.03383469581604004,774.77001953125,5579.0400390625,16145.759765625,-400000.0625,-400000.0625,-400000.0625,-400000.0625,-400000.0625
0.03383803367614746,767.52001953125,5571.1298828125,16140.509765625,-400000.0625,-400000.0625,-400000.0625,-400000.0625,-400000.0625
0.03384137153625488,769.8499755859375,5567.1201171875,16140.6103515625,-400000.0625,-400000.0625,-400000.0625,-400000.0625,-400000.0625
0.0338444709777832,763.3699951171875,5558.10986328125,16138.75,-400000.0625,-400000.0625,-400000.0625,-400000.0625,-400000.0625
0.033847808837890625,764.7999877929688,5544.14013671875,16139.080078125,-400000.0625,-400000.0625,-400000.0625,-400000.0625,-400000.0625
0.03385734558105469,767.3300170898438,5557.97021484375,16139.3701171875,-400000.0625,-400000.0625,-400000.0625,-400000.0625,-400000.0625
0.09369778633117676,764.22998046875,5563.02001953125,16136.1201171875,-400000.0625,-400000.0625,-400000.0625,-400000.0625,-400000.0625
0.09380030632019043,759.8900146484375,5538.990234375,16126.5400390625,-400000.0625,-400000.0625,-400000.0625,-400000.0625,-400000.0625
0.09380531311035156,758.5999755859375,5524.830078125,16119.8603515625,-400000.0625,-400000.0625,-400000.0625,-400000.0625,-400000.0625
0.09380912780761719,759.5999755859375,5526.2099609375,16115.759765625,-400000.0625,-400000.0625,-400000.0625,-400000.0625,-400000.0625
0.09381270408630371,746.0599975585938,5510.240234375,16107.6103515625,-400000.0625,-400000.0625,-400000.0625,-400000.0625,-400000.0625
0.09381771087646484,738.5700073242188,5492.68994140625,16097.400390625,-400000.0625,-400000.0625,-400000.0625,-400000.0625,-400000.0625
0.09382128715515137,735.3300170898438,5488.39990234375,16093.58984375,-400000.0625,-400000.0625,-400000.0625,-400000.0625,-400000.0625
0.09382462501525879,738.0,5488.35009765625,16095.830078125,-400000.0625,-400000.0625,-400000.0625,-400000.0625,-400000.0625
0.09382796287536621,748.8699951171875,5493.64013671875,16104.3701171875,-400000.0625,-400000.0625,-400000.0625,-400000.0625,-400000.0625
0.09383273124694824,749.2999877929688,5495.4501953125,16103.4599609375,-400000.0625,-400000.0625,-400000.0625,-400000.0625,-400000.0625
0.09383606910705566,741.0499877929688,5488.10986328125,16094.01953125,-400000.0625,-400000.0625,-400000.0625,-400000.0625,-400000.0625
0.09383964538574219,738.760009765625,5489.490234375,16094.1103515625,-400000.0625,-400000.0625,-400000.0625,-400000.0625,-400000.0625
0.09384322166442871,747.4400024414062,5500.97998046875,16102.599609375,-400000.0625,-400000.0625,-400000.0625,-400000.0625,-400000.0625
0.0938563346862793,756.8800048828125,5515.77001953125,16108.3203125,-400000.0625,-400000.0625,-400000.0625,-400000.0625,-400000.0625
0.09385991096496582,752.780029296875,5510.759765625,16104.7998046875,-400000.0625,-400000.0625,-400000.0625,-400000.0625,-400000.0625
0.09386324882507324,749.02001953125,5495.41015625,16095.01953125,-400000.0625,-400000.0625,-400000.0625,-400000.0625,-400000.0625
0.16212797164916992,746.1099853515625,5489.5400390625,16086.6298828125,-400000.0625,-400000.0625,-400000.0625,-400000.0625,-400000.0625
0.16643095016479492,751.5900268554688,5498.22021484375,16091.73046875,-400000.0625,-400000.0625,-400000.0625,-400000.0625,-400000.0625
0.16647028923034668,763.3200073242188,5517.52978515625,16106.75,-400000.0625,-400000.0625,-400000.0625,-400000.0625,-400000.0625
0.16647624969482422,764.7000122070312,5519.919921875,16106.9404296875,-400000.0625,-400000.0625,-400000.0625,-400000.0625,-400000.0625
0.16648030281066895,750.489990234375,5498.64990234375,16088.6796875,-400000.0625,-400000.0625,-400000.0625,-400000.0625,-400000.0625
0.16648411750793457,745.489990234375,5490.5400390625,16082.7197265625,-400000.0625,-400000.0625,-400000.0625,-400000.0625,-400000.0625
0.1664879322052002,762.7000122070312,5507.52001953125,16097.259765625,-400000.0625,-400000.0625,-400000.0625,-400000.0625,-400000.0625
0.16649150848388672,778.010009765625,5530.5,16116.1904296875,-400000.0625,-400000.0625,-400000.0625,-400000.0625,-400000.0625
0.16649532318115234,774.5700073242188,5530.740234375,16114.1904296875,-400000.0625,-400000.0625,-400000.0625,-400000.0625,-400000.0625
0.16649913787841797,754.4500122070312,5506.330078125,16091.9697265625,-400000.0625,-400000.0625,-400000.0625,-400000.0625,-400000.0625
0.1665055751800537,746.77001953125,5491.4501953125,16079.9501953125,-400000.0625,-400000.0625,-400000.0625,-400000.0625,-400000.0625
0.16650938987731934,760.5999755859375,5505.3701171875,16096.259765625,-400000.0625,-400000.0625,-400000.0625,-400000.0625,-400000.0625
0.16651344299316406,776.47998046875,5532.4599609375,16114.4296875,-400000.0625,-400000.0625,-400000.0625,-400000.0625,-400000.0625
0.16651701927185059,778.530029296875,5534.1298828125,16109.3701171875,-400000.0625,-400000.0625,-400000.0625,-400000.0625,-400000.0625
0.1665205955505371,762.3699951171875,5508.60986328125,16090.1103515625,-400000.0625,-400000.0625,-400000.0625,-400000.0625,-400000.0625
0.16652417182922363,750.9199829101562,5487.6298828125,16076.1904296875,-400000.0625,-400000.0625,-400000.0625,-400000.0625,-400000.0625
0.2586193084716797,761.7000122070312,5504.60986328125,16091.5400390625,-400000.0625,-400000.0625,-400000.0625,-400000.0625,-400000.0625
0.25872206687927246,779.8200073242188,5529.5498046875,16108.4697265625,-400000.0625,-400000.0625,-400000.0625,-400000.0625,-400000.0625
0.2587277889251709,781.489990234375,5528.64013671875,16104.3701171875,-400000.0625,-400000.0625,-400000.0625,-400000.0625,-400000.0625
0.2587318420410156,761.7999877929688,5506.85009765625,16086.6298828125,-400000.0625,-400000.0625,-400000.0625,-400000.0625,-400000.0625
0.25873589515686035,752.02001953125,5496.1201171875,16078.9501953125,-400000.0625,-400000.0625,-400000.0625,-400000.0625,-400000.0625
0.2587401866912842,766.8499755859375,5511.14013671875,16091.8701171875,-400000.0625,-400000.0625,-400000.0625,-400000.0625,-400000.0625
0.25874829292297363,784.1099853515625,5534.35986328125,16108.08984375,-400000.0625,-400000.0625,-400000.0625,-400000.0625,-400000.0625
0.25875258445739746,781.77001953125,5528.8798828125,16103.41015625,-400000.0625,-400000.0625,-400000.0625,-400000.0625,-400000.0625
0.2587563991546631,764.27001953125,5508.18994140625,16085.76953125,-400000.0625,-400000.0625,-400000.0625,-400000.0625,-400000.0625
0.25876355171203613,761.7000122070312,5503.509765625,16082.1904296875,-400000.0625,-400000.0625,-400000.0625,-400000.0625,-400000.0625
0.25876760482788086,777.2000122070312,5514.3798828125,16090.2001953125,-400000.0625,-400000.0625,-400000.0625,-400000.0625,-400000.0625
0.2587714195251465,785.4000244140625,5536.990234375,16101.509765625,-400000.0625,-400000.0625,-400000.0625,-400000.0625,-400000.0625
0.2587754726409912,775.9099731445312,5539.22998046875,16094.0703125,-400000.0625,-400000.0625,-400000.0625,-400000.0625,-400000.0625
0.25877904891967773,759.739990234375,5514.0498046875,16074.7998046875,-400000.0625,-400000.0625,-400000.0625,-400000.0625,-400000.0625
0.25878286361694336,764.7000122070312,5508.330078125,16079.1396484375,-400000.0625,-400000.0625,-400000.0625,-400000.0625,-400000.0625
0.2587864398956299,781.2000122070312,5548.47998046875,16108.6103515625,-400000.0625,-400000.0625,-400000.0625,-400000.0625,-400000.0625
0.29139161109924316,792.5,5587.72021484375,16132.5498046875,-400000.0625,-400000.0625,-400000.0625,-400000.0625,-400000.0625
0.3097343444824219,793.6500244140625,5597.5400390625,16133.5,-400000.0625,-400000.0625,-400000.0625,-400000.0625,-400000.0625
0.31491851806640625,785.8300170898438,5598.8798828125,16127.7802734375,-400000.0625,-400000.0625,-400000.0625,-400000.0625,-400000.0625
0.3193221092224121,782.3900146484375,5612.89990234375,16135.2197265625,-400000.0625,-400000.0625,-400000.0625,-400000.0625,-400000.0625
0.31932973861694336,793.219970703125,5633.8798828125,16154.150390625,-400000.0625,-400000.0625,-400000.0625,-400000.0625,-400000.0625
0.3193345069885254,804.9500122070312,5656.669921875,16169.98046875,-400000.0625,-400000.0625,-400000.0625,-400000.0625,-400000.0625
0.3193385601043701,804.1400146484375,5661.6298828125,16168.7900390625,-400000.0625,-400000.0625,-400000.0625,-400000.0625,-400000.0625
0.31934213638305664,796.030029296875,5651.759765625,16157.580078125,-400000.0625,-400000.0625,-400000.0625,-400000.0625,-400000.0625
0.31934595108032227,789.260009765625,5649.14013671875,16154.009765625,-400000.0625,-400000.0625,-400000.0625,-400000.0625,-400000.0625
0.3193497657775879,789.97998046875,5648.759765625,16159.2998046875,-400000.0625,-400000.0625,-400000.0625,-400000.0625,-400000.0625
0.3193533420562744,798.6500244140625,5661.77001953125,16172.1201171875,-400000.0625,-400000.0625,-400000.0625,-400000.0625,-400000.0625
0.31935715675354004,805.239990234375,5665.4501953125,16171.8896484375,-400000.0625,-400000.0625,-400000.0625,-400000.0625,-400000.0625
0.3193631172180176,791.5,5647.14013671875,16158.9599609375,-400000.0625,-400000.0625,-400000.0625,-400000.0625,-400000.0625
0.3193683624267578,783.969970703125,5638.27001953125,16153.0,-400000.0625,-400000.0625,-400000.0625,-400000.0625,-400000.0625
0.31937217712402344,790.3099975585938,5643.75,16160.0595703125,-400000.0625,-400000.0625,-400000.0625,-400000.0625,-400000.0625
0.31937599182128906,797.6500244140625,5656.52978515625,16173.5595703125,-400000.0625,-400000.0625,-400000.0625,-400000.0625,-400000.0625
0.3561065196990967,789.0700073242188,5654.6201171875,16168.41015625,-400000.0625,-400000.0625,-400000.0625,-400000.0625,-400000.0625
0.365201473236084,773.0,5634.1201171875,16152.9599609375,-400000.0625,-400000.0625,-400000.0625,-400000.0625,-400000.0625
0.3719029426574707,770.239990234375,5626.97021484375,16150.759765625,-400000.0625,-400000.0625,-400000.0625,-400000.0625,-400000.0625
0.3774294853210449,780.72998046875,5637.97998046875,16161.6298828125,-400000.0625,-400000.0625,-400000.0625,-400000.0625,-400000.0625
0.38207578659057617,789.6900024414062,5646.85009765625,16171.169921875,-400000.0625,-400000.0625,-400000.0625,-400000.0625,-400000.0625
0.3820841312408447,786.4000244140625,5645.31982421875,16167.0703125,-400000.0625,-400000.0625,-400000.0625,-400000.0625,-400000.0625
0.38208961486816406,779.3400268554688,5628.490234375,16155.2001953125,-400000.0625,-400000.0625,-400000.0625,-400000.0625,-400000.0625
0.382094144821167,776.6699829101562,5627.06005859375,16153.7197265625,-400000.0625,-400000.0625,-400000.0625,-400000.0625,-400000.0625
0.3820984363555908,781.8200073242188,5636.83984375,16163.400390625,-400000.0625,-400000.0625,-400000.0625,-400000.0625,-400000.0625
0.38210248947143555,792.8800048828125,5646.75,16172.0302734375,-400000.0625,-400000.0625,-400000.0625,-400000.0625,-400000.0625
0.3821070194244385,791.1699829101562,5645.509765625,16167.6396484375,-400000.0625,-400000.0625,-400000.0625,-400000.0625,-400000.0625
0.3821113109588623,778.3400268554688,5632.68994140625,16159.8203125,-400000.0625,-400000.0625,-400000.0625,-400000.0625,-400000.0625
0.38211560249328613,772.9099731445312,5622.52978515625,16156.009765625,-400000.0625,-400000.0625,-400000.0625,-400000.0625,-400000.0625
0.38212108612060547,780.2999877929688,5629.97021484375,16161.0595703125,-400000.0625,-400000.0625,-400000.0625,-400000.0625,-400000.0625
0.3821251392364502,790.0700073242188,5641.64990234375,16168.5498046875,-400000.0625,-400000.0625,-400000.0625,-400000.0625,-400000.0625
0.3821291923522949,789.9299926757812,5645.0400390625,16171.8896484375,-400000.0625,-400000.0625,-400000.0625,-400000.0625,-400000.0625
0.41806507110595703,779.2000122070312,5631.5,16163.01953125,-400000.0625,-400000.0625,-400000.0625,-400000.0625,-400000.0625
0.4318246841430664,776.47998046875,5627.43994140625,16159.5400390625,-400000.0625,-400000.0625,-400000.0625,-400000.0625,-400000.0625
0.43755125999450684,783.3499755859375,5638.7001953125,16167.740234375,-400000.0625,-400000.0625,-400000.0625,-400000.0625,-400000.0625
0.4439828395843506,786.5399780273438,5643.7998046875,16172.8896484375,-400000.0625,-400000.0625,-400000.0625,-400000.0625,-400000.0625
0.4496450424194336,783.6300048828125,5636.41015625,16168.1201171875,-400000.0625,-400000.0625,-400000.0625,-400000.0625,-400000.0625
0.4549243450164795,771.8099975585938,5622.669921875,16153.2900390625,-400000.0625,-400000.0625,-400000.0625,-400000.0625,-400000.0625
0.46119260787963867,773.8099975585938,5625.25,16157.6796875,-400000.0625,-400000.0625,-400000.0625,-400000.0625,-400000.0625
0.4676475524902344,784.1099853515625,5634.97998046875,16170.7900390625,-400000.0625,-400000.0625,-400000.0625,-400000.0625,-400000.0625
0.4728710651397705,787.0700073242188,5637.83984375,16170.5498046875,-400000.0625,-400000.0625,-400000.0625,-400000.0625,-400000.0625
0.4835190773010254,784.9199829101562,5640.1298828125,16169.1201171875,-400000.0625,-400000.0625,-400000.0625,-400000.0625,-400000.0625
0.48904895782470703,770.0399780273438,5625.68017578125,16158.76953125,-400000.0625,-400000.0625,-400000.0625,-400000.0625,-400000.0625
0.49625253677368164,764.4199829101562,5614.52001953125,16152.9599609375,-400000.0625,-400000.0625,-400000.0625,-400000.0625,-400000.0625
0.5104405879974365,774.2899780273438,5624.33984375,16162.16015625,-400000.0625,-400000.0625,-400000.0625,-400000.0625,-400000.0625
0.5178358554840088,782.010009765625,5639.83984375,16172.9404296875,-400000.0625,-400000.0625,-400000.0625,-400000.0625,-400000.0625
0.5240800380706787,778.1500244140625,5632.06982421875,16166.1201171875,-400000.0625,-400000.0625,-400000.0625,-400000.0625,-400000.0625
0.5355281829833984,770.239990234375,5620.18994140625,16157.0595703125,-400000.0625,-400000.0625,-400000.0625,-400000.0625,-400000.0625
0.5405139923095703,765.4199829101562,5615.0,16155.3896484375,-400000.0625,-400000.0625,-400000.0625,-400000.0625,-400000.0625
0.5405271053314209,768.7999877929688,5623.72021484375,16163.1103515625,-400000.0625,-400000.0625,-400000.0625,-400000.0625,-400000.0625
0.5405340194702148,775.4299926757812,5631.5,16169.0703125,-400000.0625,-400000.0625,-400000.0625,-400000.0625,-400000.0625
0.547508955001831,773.9500122070312,5630.02001953125,16169.2197265625,-400000.0625,-400000.0625,-400000.0625,-400000.0625,-400000.0625
0.5523688793182373,768.7999877929688,5616.240234375,16157.33984375,-400000.0625,-400000.0625,-400000.0625,-400000.0625,-400000.0625
0.5523777008056641,769.22998046875,5608.93994140625,16151.7197265625,-400000.0625,-400000.0625,-400000.0625,-400000.0625,-400000.0625
0.5523827075958252,772.4299926757812,5618.9501953125,16155.009765625,-400000.0625,-400000.0625,-400000.0625,-400000.0625,-400000.0625
0.5523874759674072,773.8599853515625,5624.9599609375,16158.73046875,-400000.0625,-400000.0625,-400000.0625,-400000.0625,-400000.0625
0.552391767501831,770.280029296875,5612.89990234375,16149.4296875,-400000.0625,-400000.0625,-400000.0625,-400000.0625,-400000.0625
0.552396297454834,764.7999877929688,5612.22998046875,16153.0498046875,-400000.0625,-400000.0625,-400000.0625,-400000.0625,-400000.0625
0.5524005889892578,762.510009765625,5621.2900390625,16162.6396484375,-400000.0625,-400000.0625,-400000.0625,-400000.0625,-400000.0625
0.5524051189422607,765.280029296875,5630.39990234375,16171.1201171875,-400000.0625,-400000.0625,-400000.0625,-400000.0625,-400000.0625
0.5524091720581055,762.3699951171875,5649.330078125,16187.150390625,-400000.0625,-400000.0625,-400000.0625,-400000.0625,-400000.0625
0.5524153709411621,754.7899780273438,5662.8701171875,16199.4501953125,-400000.0625,-400000.0625,-400000.0625,-400000.0625,-400000.0625
0.5524210929870605,741.0499877929688,5663.58984375,16204.259765625,-400000.0625,-400000.0625,-400000.0625,-400000.0625,-400000.0625
0.5524260997772217,731.6599731445312,5666.64013671875,16213.7998046875,-400000.0625,-400000.0625,-400000.0625,-400000.0625,-400000.0625
0.5524301528930664,729.1300048828125,5672.93017578125,16226.7197265625,-400000.0625,-400000.0625,-400000.0625,-400000.0625,-400000.0625
0.5524358749389648,725.1300048828125,5694.06005859375,16245.990234375,-400000.0625,-400000.0625,-400000.0625,-400000.0625,-400000.0625
0.5524413585662842,716.1099853515625,5693.47998046875,16246.26953125,-400000.0625,-400000.0625,-400000.0625,-400000.0625,-400000.0625
0.5524461269378662,707.2899780273438,5678.31982421875,16242.26953125,-400000.0625,-400000.0625,-400000.0625,-400000.0625,-400000.0625
0.5524506568908691,703.2899780273438,5680.75,16249.1796875,-400000.0625,-400000.0625,-400000.0625,-400000.0625,-400000.0625
0.5524551868438721,706.8200073242188,5689.3798828125,16261.25,-400000.0625,-400000.0625,-400000.0625,-400000.0625,-400000.0625
0.5524592399597168,712.780029296875,5694.9599609375,16265.8701171875,-400000.0625,-400000.0625,-400000.0625,-400000.0625,-400000.0625
0.5524637699127197,713.489990234375,5691.85986328125,16262.0595703125,-400000.0625,-400000.0625,-400000.0625,-400000.0625,-400000.0625
0.5524678230285645,697.7999877929688,5676.31982421875,16249.900390625,-400000.0625,-400000.0625,-400000.0625,-400000.0625,-400000.0625
0.5524718761444092,695.0399780273438,5669.2099609375,16245.1796875,-400000.0625,-400000.0625,-400000.0625,-400000.0625,-400000.0625
0.5524759292602539,702.719970703125,5675.93994140625,16256.3798828125,-400000.0625,-400000.0625,-400000.0625,-400000.0625,-400000.0625
0.552480936050415,710.2000122070312,5686.08984375,16261.91015625,-400000.0625,-400000.0625,-400000.0625,-400000.0625,-400000.0625
0.5524852275848389,708.0999755859375,5676.64990234375,16250.759765625,-400000.0625,-400000.0625,-400000.0625,-400000.0625,-400000.0625
0.5524895191192627,700.5700073242188,5665.919921875,16244.169921875,-400000.0625,-400000.0625,-400000.0625,-400000.0625,-400000.0625
0.5524935722351074,703.2899780273438,5666.64013671875,16247.4697265625,-400000.0625,-400000.0625,-400000.0625,-400000.0625,-400000.0625
0.5524976253509521,711.72998046875,5673.5498046875,16253.1904296875,-400000.0625,-400000.0625,-400000.0625,-400000.0625,-400000.0625
0.6122570037841797,720.7899780273438,5683.7099609375,16257.9599609375,-400000.0625,-400000.0625,-400000.0625,-400000.0625,-400000.0625
0.6182558536529541,717.3099975585938,5676.990234375,16254.7099609375,-400000.0625,-400000.0625,-400000.0625,-400000.0625,-400000.0625
0.6232776641845703,711.3900146484375,5666.68994140625,16248.7998046875,-400000.0625,-400000.0625,-400000.0625,-400000.0625,-400000.0625
0.629997730255127,705.6699829101562,5660.43994140625,16244.0302734375,-400000.0625,-400000.0625,-400000.0625,-400000.0625,-400000.0625
0.6393091678619385,712.1099853515625,5671.5498046875,16251.759765625,-400000.0625,-400000.0625,-400000.0625,-400000.0625,-400000.0625
0.6446025371551514,719.6900024414062,5677.75,16258.0498046875,-400000.0625,-400000.0625,-400000.0625,-400000.0625,-400000.0625
0.6495156288146973,716.5399780273438,5673.169921875,16252.419921875,-400000.0625,-400000.0625,-400000.0625,-400000.0625,-400000.0625
0.649524450302124,709.2000122070312,5662.72998046875,16243.41015625,-400000.0625,-400000.0625,-400000.0625,-400000.0625,-400000.0625
0.649529218673706,710.5399780273438,5660.10986328125,16246.26953125,-400000.0625,-400000.0625,-400000.0625,-400000.0625,-400000.0625
0.649538516998291,712.3499755859375,5667.35009765625,16251.08984375,-400000.0625,-400000.0625,-400000.0625,-400000.0625,-400000.0625
0.6495425701141357,722.1699829101562,5679.75,16259.669921875,-400000.0625,-400000.0625,-400000.0625,-400000.0625,-400000.0625
0.6495463848114014,716.5399780273438,5672.7900390625,16255.5703125,-400000.0625,-400000.0625,-400000.0625,-400000.0625,-400000.0625
0.649550199508667,706.239990234375,5658.6298828125,16243.0302734375,-400000.0625,-400000.0625,-400000.0625,-400000.0625,-400000.0625
0.6495542526245117,714.969970703125,5659.10009765625,16243.650390625,-400000.0625,-400000.0625,-400000.0625,-400000.0625,-400000.0625
0.6495583057403564,718.5,5668.4501953125,16251.759765625,-400000.0625,-400000.0625,-400000.0625,-400000.0625,-400000.0625
0.6495621204376221,720.260009765625,5674.02978515625,16254.900390625,-400000.0625,-400000.0625,-400000.0625,-400000.0625,-400000.0625
0.6671731472015381,719.260009765625,5668.35009765625,16248.2802734375,-400000.0625,-400000.0625,-400000.0625,-400000.0625,-400000.0625
0.672431230545044,706.9600219726562,5654.759765625,16236.2099609375,-400000.0625,-400000.0625,-400000.0625,-400000.0625,-400000.0625
0.6779763698577881,701.6199951171875,5645.56005859375,16232.16015625,-400000.0625,-400000.0625,-400000.0625,-400000.0625,-400000.0625
0.6828618049621582,709.0999755859375,5656.43017578125,16243.3603515625,-400000.0625,-400000.0625,-400000.0625,-400000.0625,-400000.0625
0.6828718185424805,722.5,5672.169921875,16251.6103515625,-400000.0625,-400000.0625,-400000.0625,-400000.0625,-400000.0625
0.6828773021697998,722.6900024414062,5672.259765625,16248.849609375,-400000.0625,-400000.0625,-400000.0625,-400000.0625,-400000.0625
0.6828818321228027,716.72998046875,5652.3798828125,16234.349609375,-400000.0625,-400000.0625,-400000.0625,-400000.0625,-400000.0625
0.6828887462615967,710.2999877929688,5643.419921875,16228.2998046875,-400000.0625,-400000.0625,-400000.0625,-400000.0625,-400000.0625
0.6828932762145996,715.4500122070312,5656.52978515625,16241.2197265625,-400000.0625,-400000.0625,-400000.0625,-400000.0625,-400000.0625
0.6828978061676025,726.1300048828125,5664.25,16245.650390625,-400000.0625,-400000.0625,-400000.0625,-400000.0625,-400000.0625
0.6829020977020264,718.8800048828125,5651.3798828125,16237.7900390625,-400000.0625,-400000.0625,-400000.0625,-400000.0625,-400000.0625
0.6829061508178711,703.0,5626.72998046875,16220.759765625,-400000.0625,-400000.0625,-400000.0625,-400000.0625,-400000.0625
0.6829104423522949,695.9000244140625,5632.77978515625,16226.48046875,-400000.0625,-400000.0625,-400000.0625,-400000.0625,-400000.0625
0.6829178333282471,701.47998046875,5665.919921875,16254.1396484375,-400000.0625,-400000.0625,-400000.0625,-400000.0625,-400000.0625
0.68292236328125,703.760009765625,5691.2001953125,16275.4599609375,-400000.0625,-400000.0625,-400000.0625,-400000.0625,-400000.0625
0.6829266548156738,690.8400268554688,5688.3798828125,16279.990234375,-400000.0625,-400000.0625,-400000.0625,-400000.0625,-400000.0625
0.7334330081939697,674.2000122070312,5678.22998046875,16283.7001953125,-400000.0625,-400000.0625,-400000.0625,-400000.0625,-400000.0625
0.7437500953674316,658.1799926757812,5682.330078125,16294.6201171875,-400000.0625,-400000.0625,-400000.0625,-400000.0625,-400000.0625
0.748178243637085,655.1699829101562,5705.39990234375,16321.1796875,-400000.0625,-400000.0625,-400000.0625,-400000.0625,-400000.0625
0.7481868267059326,657.989990234375,5727.91015625,16348.7001953125,-400000.0625,-400000.0625,-400000.0625,-400000.0625,-400000.0625
0.7481951713562012,645.1099853515625,5732.43994140625,16357.9501953125,-400000.0625,-400000.0625,-400000.0625,-400000.0625,-400000.0625
0.748199462890625,624.0800170898438,5707.5498046875,16350.2197265625,-400000.0625,-400000.0625,-400000.0625,-400000.0625,-400000.0625
0.7482051849365234,612.0700073242188,5689.81005859375,16347.5498046875,-400000.0625,-400000.0625,-400000.0625,-400000.0625,-400000.0625
0.7482092380523682,615.1699829101562,5700.2998046875,16362.1396484375,-400000.0625,-400000.0625,-400000.0625,-400000.0625,-400000.0625
0.7482130527496338,627.9500122070312,5724.56982421875,16384.130859375,-400000.0625,-400000.0625,-400000.0625,-400000.0625,-400000.0625
0.7482168674468994,623.1300048828125,5717.27978515625,16373.830078125,-400000.0625,-400000.0625,-400000.0625,-400000.0625,-400000.0625
0.748220682144165,606.3900146484375,5698.009765625,16355.900390625,-400000.0625,-400000.0625,-400000.0625,-400000.0625,-400000.0625
0.7482244968414307,610.2100219726562,5690.77001953125,16353.1796875,-400000.0625,-400000.0625,-400000.0625,-400000.0625,-400000.0625
0.7482280731201172,618.8400268554688,5701.5400390625,16364.0,-400000.0625,-400000.0625,-400000.0625,-400000.0625,-400000.0625
0.7482318878173828,628.3300170898438,5713.7998046875,16372.490234375,-400000.0625,-400000.0625,-400000.0625,-400000.0625,-400000.0625
0.7482359409332275,627.3699951171875,5711.7001953125,16369.6796875,-400000.0625,-400000.0625,-400000.0625,-400000.0625,-400000.0625
0.7482397556304932,618.7000122070312,5696.81982421875,16359.51953125,-400000.0625,-400000.0625,-400000.0625,-400000.0625,-400000.0625
0.8086822032928467,614.7899780273438,5686.669921875,16352.849609375,-400000.0625,-400000.0625,-400000.0625,-400000.0625,-400000.0625
0.8152787685394287,619.0800170898438,5696.81982421875,16360.8095703125,-400000.0625,-400000.0625,-400000.0625,-400000.0625,-400000.0625
0.8196101188659668,628.280029296875,5710.27001953125,16369.4404296875,-400000.0625,-400000.0625,-400000.0625,-400000.0625,-400000.0625
0.8196189403533936,628.1900024414062,5709.41015625,16366.8701171875,-400000.0625,-400000.0625,-400000.0625,-400000.0625,-400000.0625
0.8196237087249756,616.8800048828125,5690.77001953125,16350.650390625,-400000.0625,-400000.0625,-400000.0625,-400000.0625,-400000.0625
0.8196282386779785,612.6400146484375,5682.330078125,16346.26953125,-400000.0625,-400000.0625,-400000.0625,-400000.0625,-400000.0625
0.8196322917938232,629.0,5698.6298828125,16359.759765625,-400000.0625,-400000.0625,-400000.0625,-400000.0625,-400000.0625
0.8196361064910889,638.5800170898438,5707.64990234375,16365.33984375,-400000.0625,-400000.0625,-400000.0625,-400000.0625,-400000.0625
0.8196401596069336,627.4199829101562,5701.77978515625,16359.240234375,-400000.0625,-400000.0625,-400000.0625,-400000.0625,-400000.0625
0.8196451663970947,618.5999755859375,5684.7099609375,16344.3603515625,-400000.0625,-400000.0625,-400000.0625,-400000.0625,-400000.0625
0.8196494579315186,617.5,5680.22998046875,16344.1201171875,-400000.0625,-400000.0625,-400000.0625,-400000.0625,-400000.0625
0.8196535110473633,625.9400024414062,5686.52001953125,16350.990234375,-400000.0625,-400000.0625,-400000.0625,-400000.0625,-400000.0625
0.8196573257446289,636.9600219726562,5699.2099609375,16360.330078125,-400000.0625,-400000.0625,-400000.0625,-400000.0625,-400000.0625
0.8196611404418945,639.2000122070312,5698.2998046875,16360.900390625,-400000.0625,-400000.0625,-400000.0625,-400000.0625,-400000.0625
0.8196649551391602,633.760009765625,5687.759765625,16352.3203125,-400000.0625,-400000.0625,-400000.0625,-400000.0625,-400000.0625
0.8196690082550049,628.1400146484375,5679.419921875,16346.6904296875,-400000.0625,-400000.0625,-400000.0625,-400000.0625,-400000.0625
0.8618555068969727,627.1400146484375,5685.759765625,16350.9404296875,-400000.0625,-400000.0625,-400000.0625,-400000.0625,-400000.0625
0.8741874694824219,634.0999755859375,5694.39013671875,16357.08984375,-400000.0625,-400000.0625,-400000.0625,-400000.0625,-400000.0625
0.8794820308685303,633.530029296875,5692.85986328125,16352.66015625,-400000.0625,-400000.0625,-400000.0625,-400000.0625,-400000.0625
0.8844943046569824,625.0900268554688,5682.759765625,16343.3095703125,-400000.0625,-400000.0625,-400000.0625,-400000.0625,-400000.0625
0.8907077312469482,624.3200073242188,5680.3701171875,16345.3095703125,-400000.0625,-400000.0625,-400000.0625,-400000.0625,-400000.0625
0.8970768451690674,634.0999755859375,5691.240234375,16356.2802734375,-400000.0625,-400000.0625,-400000.0625,-400000.0625,-400000.0625
0.9081757068634033,639.2999877929688,5702.06982421875,16362.5302734375,-400000.0625,-400000.0625,-400000.0625,-400000.0625,-400000.0625
0.9160356521606445,628.0900268554688,5695.14990234375,16355.1796875,-400000.0625,-400000.0625,-400000.0625,-400000.0625,-400000.0625
0.9225308895111084,622.3200073242188,5681.7998046875,16346.599609375,-400000.0625,-400000.0625,-400000.0625,-400000.0625,-400000.0625
0.930384635925293,627.6099853515625,5679.080078125,16346.0302734375,-400000.0625,-400000.0625,-400000.0625,-400000.0625,-400000.0625
0.9372043609619141,634.0499877929688,5690.0,16353.3701171875,-400000.0625,-400000.0625,-400000.0625,-400000.0625,-400000.0625
0.9433033466339111,640.9199829101562,5698.5400390625,16360.240234375,-400000.0625,-400000.0625,-400000.0625,-400000.0625,-400000.0625
0.9492075443267822,634.719970703125,5692.85986328125,16354.9404296875,-400000.0625,-400000.0625,-400000.0625,-400000.0625,-400000.0625
0.9548914432525635,624.6599731445312,5680.56005859375,16346.5,-400000.0625,-400000.0625,-400000.0625,-400000.0625,-400000.0625
0.9611983299255371,623.8900146484375,5678.93994140625,16346.0302734375,-400000.0625,-400000.0625,-400000.0625,-400000.0625,-400000.0625
0.9673047065734863,632.9500122070312,5691.10009765625,16359.1396484375,-400000.0625,-400000.0625,-400000.0625,-400000.0625,-400000.0625
0.9800159931182861,639.77001953125,5699.77978515625,16363.76953125,-400000.0625,-400000.0625,-400000.0625,-400000.0625,-400000.0625
0.9861371517181396,640.5800170898438,5694.52978515625,16357.66015625,-400000.0625,-400000.0625,-400000.0625,-400000.0625,-400000.0625
0.9922404289245605,632.52001953125,5684.56982421875,16350.990234375,-400000.0625,-400000.0625,-400000.0625,-400000.0625,-400000.0625
0.9985411167144775,629.52001953125,5683.89990234375,16348.8896484375,-400000.0625,-400000.0625,-400000.0625,-400000.0625,-400000.0625
1.010298728942871,631.1400146484375,5686.18994140625,16351.5595703125,-400000.0625,-400000.0625,-400000.0625,-400000.0625,-400000.0625
1.0164637565612793,629.0,5695.33984375,16356.51953125,-400000.0625,-400000.0625,-400000.0625,-400000.0625,-400000.0625
1.0226969718933105,630.1900024414062,5692.669921875,16354.990234375,-400000.0625,-400000.0625,-400000.0625,-400000.0625,-400000.0625
1.0289499759674072,628.0900268554688,5683.47021484375,16346.5,-400000.0625,-400000.0625,-400000.0625,-400000.0625,-400000.0625
1.0332629680633545,624.6099853515625,5683.7998046875,16347.83984375,-400000.0625,-400000.0625,-400000.0625,-400000.0625,-400000.0625
1.0332715511322021,631.7100219726562,5692.10009765625,16352.26953125,-400000.0625,-400000.0625,-400000.0625,-400000.0625,-400000.0625
1.0332763195037842,635.8099975585938,5700.919921875,16355.3701171875,-400000.0625,-400000.0625,-400000.0625,-400000.0625,-400000.0625
1.033285140991211,633.8599853515625,5691.10009765625,16348.41015625,-400000.0625,-400000.0625,-400000.0625,-400000.0625,-400000.0625
1.0332891941070557,624.9400024414062,5682.18017578125,16342.3095703125,-400000.0625,-400000.0625,-400000.0625,-400000.0625,-400000.0625
1.0332939624786377,625.6099853515625,5685.89990234375,16348.650390625,-400000.0625,-400000.0625,-400000.0625,-400000.0625,-400000.0625
1.0332989692687988,630.8099975585938,5685.14013671875,16347.5498046875,-400000.0625,-400000.0625,-400000.0625,-400000.0625,-400000.0625
1.0333030223846436,632.9099731445312,5690.47998046875,16350.5595703125,-400000.0625,-400000.0625,-400000.0625,-400000.0625,-400000.0625
1.0333073139190674,633.760009765625,5690.240234375,16350.4599609375,-400000.0625,-400000.0625,-400000.0625,-400000.0625,-400000.0625
1.033311128616333,619.3200073242188,5676.31982421875,16343.8798828125,-400000.0625,-400000.0625,-400000.0625,-400000.0625,-400000.0625
1.033315658569336,634.1500244140625,5667.39990234375,16337.830078125,-400000.0625,-400000.0625,-400000.0625,-400000.0625,-400000.0625
1.0333197116851807,655.7899780273438,5672.740234375,16328.48046875,-400000.0625,-400000.0625,-400000.0625,-400000.0625,-400000.0625
1.0333456993103027,655.8400268554688,5672.5,16313.75,-400000.0625,-400000.0625,-400000.0625,-400000.0625,-400000.0625
1.033372163772583,657.7000122070312,5657.85986328125,16296.76953125,-400000.0625,-400000.0625,-400000.0625,-400000.0625,-400000.0625
1.0333881378173828,670.3400268554688,5649.18994140625,16276.98046875,-400000.0625,-400000.0625,-400000.0625,-400000.0625,-400000.0625
1.033407211303711,680.6400146484375,5649.66015625,16257.5703125,-400000.0625,-400000.0625,-400000.0625,-400000.0625,-400000.0625
1.0334203243255615,699.9000244140625,5644.7001953125,16244.1298828125,-400000.0625,-400000.0625,-400000.0625,-400000.0625,-400000.0625
1.0334258079528809,714.1099853515625,5638.89013671875,16224.669921875,-400000.0625,-400000.0625,-400000.0625,-400000.0625,-400000.0625
1.0334513187408447,723.3599853515625,5632.68994140625,16205.169921875,-400000.0625,-400000.0625,-400000.0625,-400000.0625,-400000.0625
1.0334579944610596,731.989990234375,5619.43017578125,16187.5703125,-400000.0625,-400000.0625,-400000.0625,-400000.0625,-400000.0625
1.0334627628326416,739.6199951171875,5623.25,16185.9501953125,-400000.0625,-400000.0625,-400000.0625,-400000.0625,-400000.0625
1.0334670543670654,748.010009765625,5628.5400390625,16187.3798828125,-400000.0625,-400000.0625,-400000.0625,-400000.0625,-400000.0625
1.0334711074829102,752.4000244140625,5628.25,16181.7998046875,-400000.0625,-400000.0625,-400000.0625,-400000.0625,-400000.0625
1.0334749221801758,736.52001953125,5621.47998046875,16173.2197265625,-400000.0625,-400000.0625,-400000.0625,-400000.0625,-400000.0625
1.0573079586029053,729.7000122070312,5609.89013671875,16164.16015625,-400000.0625,-400000.0625,-400000.0625,-400000.0625,-400000.0625
1.0636498928070068,729.3699951171875,5614.47021484375,16167.3095703125,-400000.0625,-400000.0625,-400000.0625,-400000.0625,-400000.0625
1.06858229637146,743.2899780273438,5629.490234375,16178.4697265625,-400000.0625,-400000.0625,-400000.0625,-400000.0625,-400000.0625
1.073578119277954,747.3499755859375,5637.22021484375,16183.4296875,-400000.0625,-400000.0625,-400000.0625,-400000.0625,-400000.0625
1.0790042877197266,742.239990234375,5628.6298828125,16178.4697265625,-400000.0625,-400000.0625,-400000.0625,-400000.0625,-400000.0625
1.0835349559783936,729.8499755859375,5621.43017578125,16171.8896484375,-400000.0625,-400000.0625,-400000.0625,-400000.0625,-400000.0625
1.0835444927215576,726.8900146484375,5625.68017578125,16175.1298828125,-400000.0625,-400000.0625,-400000.0625,-400000.0625,-400000.0625
1.0835492610931396,727.9400024414062,5632.06982421875,16180.419921875,-400000.0625,-400000.0625,-400000.0625,-400000.0625,-400000.0625
1.0835533142089844,735.9000244140625,5637.93017578125,16184.0,-400000.0625,-400000.0625,-400000.0625,-400000.0625,-400000.0625
1.08355712890625,738.9099731445312,5633.02001953125,16179.7099609375,-400000.0625,-400000.0625,-400000.0625,-400000.0625,-400000.0625
1.0835647583007812,740.6199951171875,5631.06982421875,16178.419921875,-400000.0625,-400000.0625,-400000.0625,-400000.0625,-400000.0625
1.083568811416626,740.6699829101562,5635.2099609375,16184.0,-400000.0625,-400000.0625,-400000.0625,-400000.0625,-400000.0625
1.0835740566253662,748.6300048828125,5638.31005859375,16188.150390625,-400000.0625,-400000.0625,-400000.0625,-400000.0625,-400000.0625
1.0835793018341064,746.6799926757812,5643.31982421875,16191.3896484375,-400000.0625,-400000.0625,-400000.0625,-400000.0625,-400000.0625
1.083583116531372,743.8200073242188,5642.18017578125,16190.240234375,-400000.0625,-400000.0625,-400000.0625,-400000.0625,-400000.0625
1.0835871696472168,743.4400024414062,5640.41015625,16188.3896484375,-400000.0625,-400000.0625,-400000.0625,-400000.0625,-400000.0625
1.1182794570922852,751.4000244140625,5643.85009765625,16192.099609375,-400000.0625,-400000.0625,-400000.0625,-400000.0625,-400000.0625
1.1241545677185059,743.8699951171875,5639.31982421875,16184.759765625,-400000.0625,-400000.0625,-400000.0625,-400000.0625,-400000.0625
1.1289498805999756,741.719970703125,5643.31982421875,16188.1904296875,-400000.0625,-400000.0625,-400000.0625,-400000.0625,-400000.0625
1.1289587020874023,742.239990234375,5642.22021484375,16189.3896484375,-400000.0625,-400000.0625,-400000.0625,-400000.0625,-400000.0625
1.1289632320404053,741.8200073242188,5632.97021484375,16182.3798828125,-400000.0625,-400000.0625,-400000.0625,-400000.0625,-400000.0625
1.12896728515625,746.6300048828125,5642.7998046875,16191.6796875,-400000.0625,-400000.0625,-400000.0625,-400000.0625,-400000.0625
1.1289713382720947,748.8699951171875,5652.85986328125,16199.2998046875,-400000.0625,-400000.0625,-400000.0625,-400000.0625,-400000.0625
1.1289753913879395,754.2100219726562,5659.009765625,16204.650390625,-400000.0625,-400000.0625,-400000.0625,-400000.0625,-400000.0625
1.1289851665496826,744.9600219726562,5654.10009765625,16200.259765625,-400000.0625,-400000.0625,-400000.0625,-400000.0625,-400000.0625
1.1289889812469482,741.9099731445312,5644.89013671875,16195.2998046875,-400000.0625,-400000.0625,-400000.0625,-400000.0625,-400000.0625
1.1289927959442139,743.6300048828125,5651.7099609375,16200.58984375,-400000.0625,-400000.0625,-400000.0625,-400000.0625,-400000.0625
1.1289968490600586,739.8599853515625,5656.91015625,16206.5498046875,-400000.0625,-400000.0625,-400000.0625,-400000.0625,-400000.0625
1.1290006637573242,747.72998046875,5656.669921875,16204.9296875,-400000.0625,-400000.0625,-400000.0625,-400000.0625,-400000.0625
1.129004716873169,746.969970703125,5654.759765625,16202.8798828125,-400000.0625,-400000.0625,-400000.0625,-400000.0625,-400000.0625
1.12900972366333,742.5800170898438,5653.0498046875,16201.9697265625,-400000.0625,-400000.0625,-400000.0625,-400000.0625,-400000.0625
1.1290135383605957,742.010009765625,5650.7099609375,16201.3603515625,-400000.0625,-400000.0625,-400000.0625,-400000.0625,-400000.0625
1.1788537502288818,744.25,5655.9599609375,16206.1201171875,-400000.0625,-400000.0625,-400000.0625,-400000.0625,-400000.0625
1.1890265941619873,748.4000244140625,5657.6298828125,16208.4599609375,-400000.0625,-400000.0625,-400000.0625,-400000.0625,-400000.0625
1.1934762001037598,745.3400268554688,5647.85009765625,16200.9697265625,-400000.0625,-400000.0625,-400000.0625,-400000.0625,-400000.0625
1.1934864521026611,740.5800170898438,5643.85009765625,16197.01953125,-400000.0625,-400000.0625,-400000.0625,-400000.0625,-400000.0625
1.193490982055664,743.9600219726562,5644.75,16197.4404296875,-400000.0625,-400000.0625,-400000.0625,-400000.0625,-400000.0625
1.1934950351715088,747.4400024414062,5654.9599609375,16202.259765625,-400000.0625,-400000.0625,-400000.0625,-400000.0625,-400000.0625
1.1935079097747803,750.2999877929688,5654.3798828125,16204.6904296875,-400000.0625,-400000.0625,-400000.0625,-400000.0625,-400000.0625
1.193511724472046,747.5900268554688,5643.080078125,16198.5400390625,-400000.0625,-400000.0625,-400000.0625,-400000.0625,-400000.0625
1.1935157775878906,741.9600219726562,5639.27001953125,16197.16015625,-400000.0625,-400000.0625,-400000.0625,-400000.0625,-400000.0625
1.1935195922851562,743.9600219726562,5641.41015625,16196.919921875,-400000.0625,-400000.0625,-400000.0625,-400000.0625,-400000.0625
1.1935231685638428,749.489990234375,5652.56982421875,16203.599609375,-400000.0625,-400000.0625,-400000.0625,-400000.0625,-400000.0625
1.1935272216796875,753.2100219726562,5651.89990234375,16204.169921875,-400000.0625,-400000.0625,-400000.0625,-400000.0625,-400000.0625
1.1935310363769531,744.530029296875,5641.990234375,16197.25,-400000.0625,-400000.0625,-400000.0625,-400000.0625,-400000.0625
1.1935348510742188,737.1900024414062,5632.5400390625,16189.9599609375,-400000.0625,-400000.0625,-400000.0625,-400000.0625,-400000.0625
1.1935386657714844,736.1400146484375,5632.16015625,16192.3896484375,-400000.0625,-400000.0625,-400000.0625,-400000.0625,-400000.0625
1.19354248046875,735.52001953125,5638.5498046875,16200.2099609375,-400000.0625,-400000.0625,-400000.0625,-400000.0625,-400000.0625
1.2486803531646729,736.1900024414062,5636.1201171875,16198.6796875,-400000.0625,-400000.0625,-400000.0625,-400000.0625,-400000.0625
1.253737211227417,746.25,5621.0498046875,16186.669921875,-400000.0625,-400000.0625,-400000.0625,-400000.0625,-400000.0625
1.2580771446228027,751.8800048828125,5615.0,16170.4599609375,-400000.0625,-400000.0625,-400000.0625,-400000.0625,-400000.0625
1.258084774017334,761.5999755859375,5621.10009765625,16163.5400390625,-400000.0625,-400000.0625,-400000.0625,-400000.0625,-400000.0625
1.258094310760498,776.0,5618.56982421875,16156.9599609375,-400000.0625,-400000.0625,-400000.0625,-400000.0625,-400000.0625
1.2581000328063965,784.4000244140625,5611.85009765625,16143.08984375,-400000.0625,-400000.0625,-400000.0625,-400000.0625,-400000.0625
1.2581040859222412,788.5,5605.509765625,16123.25,-400000.0625,-400000.0625,-400000.0625,-400000.0625,-400000.0625
1.258108139038086,793.4600219726562,5592.10986328125,16102.98046875,-400000.0625,-400000.0625,-400000.0625,-400000.0625,-400000.0625
1.2581117153167725,800.6599731445312,5579.6201171875,16087.76953125,-400000.0625,-400000.0625,-400000.0625,-400000.0625,-400000.0625
1.258115530014038,816.2999877929688,5576.22998046875,16078.66015625,-400000.0625,-400000.0625,-400000.0625,-400000.0625,-400000.0625
1.2581195831298828,828.9299926757812,5572.3701171875,16071.3701171875,-400000.0625,-400000.0625,-400000.0625,-400000.0625,-400000.0625
1.2581233978271484,825.6900024414062,5570.169921875,16063.8798828125,-400000.0625,-400000.0625,-400000.0625,-400000.0625,-400000.0625
1.258126974105835,826.6400146484375,5562.97021484375,16059.9697265625,-400000.0625,-400000.0625,-400000.0625,-400000.0625,-400000.0625
1.2581307888031006,829.1199951171875,5561.919921875,16061.16015625,-400000.0625,-400000.0625,-400000.0625,-400000.0625,-400000.0625
1.2581346035003662,837.22998046875,5572.83984375,16067.2197265625,-400000.0625,-400000.0625,-400000.0625,-400000.0625,-400000.0625
1.2581384181976318,839.7100219726562,5579.22998046875,16069.7998046875,-400000.0625,-400000.0625,-400000.0625,-400000.0625,-400000.0625
1.3472926616668701,839.760009765625,5575.08984375,16062.830078125,-400000.0625,-400000.0625,-400000.0625,-400000.0625,-400000.0625
1.3587424755096436,832.4600219726562,5564.1201171875,16053.919921875,-400000.0625,-400000.0625,-400000.0625,-400000.0625,-400000.0625
1.3635566234588623,832.5599975585938,5558.68017578125,16051.9599609375,-400000.0625,-400000.0625,-400000.0625,-400000.0625,-400000.0625
1.3635666370391846,835.510009765625,5569.64990234375,16060.8798828125,-400000.0625,-400000.0625,-400000.0625,-400000.0625,-400000.0625
1.3635718822479248,842.0499877929688,5580.27978515625,16068.26953125,-400000.0625,-400000.0625,-400000.0625,-400000.0625,-400000.0625
1.3635764122009277,841.0,5582.3798828125,16068.98046875,-400000.0625,-400000.0625,-400000.0625,-400000.0625,-400000.0625
1.3635828495025635,825.5,5562.1201171875,16054.0595703125,-400000.0625,-400000.0625,-400000.0625,-400000.0625,-400000.0625
1.3635869026184082,820.969970703125,5552.33984375,16048.2900390625,-400000.0625,-400000.0625,-400000.0625,-400000.0625,-400000.0625
1.3635907173156738,830.75,5563.4501953125,16056.5400390625,-400000.0625,-400000.0625,-400000.0625,-400000.0625,-400000.0625
1.3635945320129395,836.3200073242188,5572.75,16063.41015625,-400000.0625,-400000.0625,-400000.0625,-400000.0625,-400000.0625
1.363598346710205,829.5999755859375,5562.64013671875,16056.5400390625,-400000.0625,-400000.0625,-400000.0625,-400000.0625,-400000.0625
1.3636021614074707,819.25,5549.240234375,16047.1904296875,-400000.0625,-400000.0625,-400000.0625,-400000.0625,-400000.0625
1.3636064529418945,821.780029296875,5546.9501953125,16049.580078125,-400000.0625,-400000.0625,-400000.0625,-400000.0625,-400000.0625
1.3636105060577393,833.8900146484375,5562.830078125,16061.3095703125,-400000.0625,-400000.0625,-400000.0625,-400000.0625,-400000.0625
1.3636143207550049,839.1900024414062,5572.60986328125,16068.98046875,-400000.0625,-400000.0625,-400000.0625,-400000.0625,-400000.0625
1.3636181354522705,836.22998046875,5567.93017578125,16065.169921875,-400000.0625,-400000.0625,-400000.0625,-400000.0625,-400000.0625
1.375227928161621,823.0700073242188,5552.47998046875,16051.0595703125,-400000.0625,-400000.0625,-400000.0625,-400000.0625,-400000.0625
1.3808050155639648,823.969970703125,5546.330078125,16051.009765625,-400000.0625,-400000.0625,-400000.0625,-400000.0625,-400000.0625
1.385401964187622,833.1300048828125,5554.39013671875,16057.7802734375,-400000.0625,-400000.0625,-400000.0625,-400000.0625,-400000.0625
1.3854117393493652,836.3200073242188,5566.740234375,16061.740234375,-400000.0625,-400000.0625,-400000.0625,-400000.0625,-400000.0625
1.3854162693023682,834.510009765625,5560.919921875,16055.490234375,-400000.0625,-400000.0625,-400000.0625,-400000.0625,-400000.0625
1.385420322418213,825.2100219726562,5546.0,16045.669921875,-400000.0625,-400000.0625,-400000.0625,-400000.0625,-400000.0625
1.3854243755340576,822.969970703125,5546.330078125,16048.7197265625,-400000.0625,-400000.0625,-400000.0625,-400000.0625,-400000.0625
1.3854281902313232,836.0900268554688,5557.39013671875,16059.0703125,-400000.0625,-400000.0625,-400000.0625,-400000.0625,-400000.0625
1.385432243347168,840.1900024414062,5567.68994140625,16066.3603515625,-400000.0625,-400000.0625,-400000.0625,-400000.0625,-400000.0625
1.3854360580444336,835.9000244140625,5562.39990234375,16061.6396484375,-400000.0625,-400000.0625,-400000.0625,-400000.0625,-400000.0625
1.3854401111602783,828.1699829101562,5549.0,16051.6298828125,-400000.0625,-400000.0625,-400000.0625,-400000.0625,-400000.0625
1.3854436874389648,831.8400268554688,5555.14990234375,16056.5400390625,-400000.0625,-400000.0625,-400000.0625,-400000.0625,-400000.0625
1.3854477405548096,841.0900268554688,5565.97998046875,16066.0302734375,-400000.0625,-400000.0625,-400000.0625,-400000.0625,-400000.0625
1.3854517936706543,840.9500122070312,5571.7998046875,16068.2197265625,-400000.0625,-400000.0625,-400000.0625,-400000.0625,-400000.0625
1.3854560852050781,834.0399780273438,5563.64013671875,16062.5498046875,-400000.0625,-400000.0625,-400000.0625,-400000.0625,-400000.0625
1.385467767715454,825.9299926757812,5549.14990234375,16054.5400390625,-400000.0625,-400000.0625,-400000.0625,-400000.0625,-400000.0625
1.4349184036254883,824.3599853515625,5550.39013671875,16057.8701171875,-400000.0625,-400000.0625,-400000.0625,-400000.0625,-400000.0625
1.4402647018432617,839.9000244140625,5563.8798828125,16068.83984375,-400000.0625,-400000.0625,-400000.0625,-400000.0625,-400000.0625
1.4454500675201416,847.9099731445312,5570.1298828125,16070.3701171875,-400000.0625,-400000.0625,-400000.0625,-400000.0625,-400000.0625
1.4497895240783691,839.6099853515625,5562.830078125,16066.83984375,-400000.0625,-400000.0625,-400000.0625,-400000.0625,-400000.0625
1.456963300704956,831.5999755859375,5549.10009765625,16056.01953125,-400000.0625,-400000.0625,-400000.0625,-400000.0625,-400000.0625
1.4621949195861816,840.22998046875,5556.77001953125,16062.259765625,-400000.0625,-400000.0625,-400000.0625,-400000.0625,-400000.0625
1.468045711517334,843.0999755859375,5566.41015625,16069.3701171875,-400000.0625,-400000.0625,-400000.0625,-400000.0625,-400000.0625
1.4725773334503174,838.7100219726562,5568.41015625,16069.599609375,-400000.0625,-400000.0625,-400000.0625,-400000.0625,-400000.0625
1.4725863933563232,832.1799926757812,5564.259765625,16066.41015625,-400000.0625,-400000.0625,-400000.0625,-400000.0625,-400000.0625
1.4725911617279053,825.0700073242188,5551.91015625,16059.3095703125,-400000.0625,-400000.0625,-400000.0625,-400000.0625,-400000.0625
1.472594976425171,825.8800048828125,5556.06005859375,16063.5498046875,-400000.0625,-400000.0625,-400000.0625,-400000.0625,-400000.0625
1.4725990295410156,828.6500244140625,5560.2099609375,16069.4599609375,-400000.0625,-400000.0625,-400000.0625,-400000.0625,-400000.0625
1.4726073741912842,838.5700073242188,5557.97021484375,16069.83984375,-400000.0625,-400000.0625,-400000.0625,-400000.0625,-400000.0625
1.4726111888885498,836.280029296875,5569.1201171875,16077.330078125,-400000.0625,-400000.0625,-400000.0625,-400000.0625,-400000.0625
1.4726152420043945,814.719970703125,5576.0400390625,16079.240234375,-400000.0625,-400000.0625,-400000.0625,-400000.0625,-400000.0625
1.472618818283081,807.7100219726562,5577.56005859375,16082.3798828125,-400000.0625,-400000.0625,-400000.0625,-400000.0625,-400000.0625
1.5122931003570557,802.7999877929688,5590.33984375,16098.5498046875,-400000.0625,-400000.0625,-400000.0625,-400000.0625,-400000.0625
1.5188603401184082,803.4199829101562,5605.35986328125,16114.1396484375,-400000.0625,-400000.0625,-400000.0625,-400000.0625,-400000.0625
1.5235838890075684,793.4600219726562,5603.60009765625,16115.4296875,-400000.0625,-400000.0625,-400000.0625,-400000.0625,-400000.0625
1.5235931873321533,780.489990234375,5597.58984375,16118.76953125,-400000.0625,-400000.0625,-400000.0625,-400000.0625,-400000.0625
1.5235979557037354,778.6300048828125,5605.080078125,16127.349609375,-400000.0625,-400000.0625,-400000.0625,-400000.0625,-400000.0625
1.5236022472381592,779.6799926757812,5613.0400390625,16135.83984375,-400000.0625,-400000.0625,-400000.0625,-400000.0625,-400000.0625
1.523606300354004,782.8699951171875,5620.91015625,16142.419921875,-400000.0625,-400000.0625,-400000.0625,-400000.0625,-400000.0625
1.5236103534698486,778.1500244140625,5615.7099609375,16136.3603515625,-400000.0625,-400000.0625,-400000.0625,-400000.0625,-400000.0625
1.5236146450042725,772.1400146484375,5602.41015625,16124.76953125,-400000.0625,-400000.0625,-400000.0625,-400000.0625,-400000.0625
1.5236189365386963,777.2899780273438,5606.31982421875,16130.6396484375,-400000.0625,-400000.0625,-400000.0625,-400000.0625,-400000.0625
1.5236287117004395,779.0599975585938,5618.6201171875,16142.849609375,-400000.0625,-400000.0625,-400000.0625,-400000.0625,-400000.0625
1.5236330032348633,779.3900146484375,5619.56982421875,16143.0400390625,-400000.0625,-400000.0625,-400000.0625,-400000.0625,-400000.0625
1.523636817932129,774.3800048828125,5606.02978515625,16133.0703125,-400000.0625,-400000.0625,-400000.0625,-400000.0625,-400000.0625
1.5236411094665527,762.27001953125,5592.43994140625,16125.25,-400000.0625,-400000.0625,-400000.0625,-400000.0625,-400000.0625
1.5236449241638184,760.5999755859375,5592.77978515625,16125.6298828125,-400000.0625,-400000.0625,-400000.0625,-400000.0625,-400000.0625
1.523648977279663,769.52001953125,5602.169921875,16132.6396484375,-400000.0625,-400000.0625,-400000.0625,-400000.0625,-400000.0625
1.5687720775604248,776.9600219726562,5609.85009765625,16138.2197265625,-400000.0625,-400000.0625,-400000.0625,-400000.0625,-400000.0625
1.5791759490966797,772.1400146484375,5603.5,16130.5,-400000.0625,-400000.0625,-400000.0625,-400000.0625,-400000.0625
1.5838854312896729,764.6599731445312,5594.2998046875,16121.580078125,-400000.0625,-400000.0625,-400000.0625,-400000.0625,-400000.0625
1.583895206451416,765.7100219726562,5596.5400390625,16128.259765625,-400000.0625,-400000.0625,-400000.0625,-400000.0625,-400000.0625
1.583899974822998,776.3900146484375,5605.56005859375,16136.7900390625,-400000.0625,-400000.0625,-400000.0625,-400000.0625,-400000.0625
1.5839040279388428,777.3900146484375,5605.169921875,16135.1201171875,-400000.0625,-400000.0625,-400000.0625,-400000.0625,-400000.0625
1.5839083194732666,771.9000244140625,5593.919921875,16126.7802734375,-400000.0625,-400000.0625,-400000.0625,-400000.0625,-400000.0625
1.5839123725891113,767.280029296875,5588.91015625,16122.9599609375,-400000.0625,-400000.0625,-400000.0625,-400000.0625,-400000.0625
1.583927869796753,774.0999755859375,5595.490234375,16130.3095703125,-400000.0625,-400000.0625,-400000.0625,-400000.0625,-400000.0625
1.5839319229125977,781.2999877929688,5602.8798828125,16136.080078125,-400000.0625,-400000.0625,-400000.0625,-400000.0625,-400000.0625
1.5839357376098633,779.2000122070312,5604.31982421875,16135.83984375,-400000.0625,-400000.0625,-400000.0625,-400000.0625,-400000.0625
1.583939552307129,768.7999877929688,5595.58984375,16127.7802734375,-400000.0625,-400000.0625,-400000.0625,-400000.0625,-400000.0625
1.5839436054229736,764.75,5588.009765625,16124.25,-400000.0625,-400000.0625,-400000.0625,-400000.0625,-400000.0625
1.5839476585388184,772.3800048828125,5597.16015625,16132.1201171875,-400000.0625,-400000.0625,-400000.0625,-400000.0625,-400000.0625
1.583951473236084,778.3900146484375,5604.5498046875,16136.2197265625,-400000.0625,-400000.0625,-400000.0625,-400000.0625,-400000.0625
1.5839552879333496,774.0499877929688,5599.5498046875,16132.0703125,-400000.0625,-400000.0625,-400000.0625,-400000.0625,-400000.0625
1.6283788681030273,770.7100219726562,5591.77001953125,16123.580078125,-400000.0625,-400000.0625,-400000.0625,-400000.0625,-400000.0625
1.633549451828003,771.1900024414062,5590.8701171875,16122.6796875,-400000.0625,-400000.0625,-400000.0625,-400000.0625,-400000.0625
1.638317584991455,778.8200073242188,5594.2998046875,16128.2099609375,-400000.0625,-400000.0625,-400000.0625,-400000.0625,-400000.0625
1.63832688331604,776.47998046875,5593.25,16123.6796875,-400000.0625,-400000.0625,-400000.0625,-400000.0625,-400000.0625
1.6383311748504639,779.77001953125,5594.830078125,16125.919921875,-400000.0625,-400000.0625,-400000.0625,-400000.0625,-400000.0625
1.6383354663848877,774.1900024414062,5590.68017578125,16124.8701171875,-400000.0625,-400000.0625,-400000.0625,-400000.0625,-400000.0625
1.638347864151001,774.1900024414062,5589.14990234375,16123.580078125,-400000.0625,-400000.0625,-400000.0625,-400000.0625,-400000.0625
1.6383516788482666,781.5800170898438,5597.06982421875,16129.349609375,-400000.0625,-400000.0625,-400000.0625,-400000.0625,-400000.0625
1.6383557319641113,787.2100219726562,5604.169921875,16134.2197265625,-400000.0625,-400000.0625,-400000.0625,-400000.0625,-400000.0625
1.6383593082427979,786.260009765625,5600.2099609375,16130.349609375,-400000.0625,-400000.0625,-400000.0625,-400000.0625,-400000.0625
1.6383631229400635,778.5800170898438,5593.58984375,16125.7802734375,-400000.0625,-400000.0625,-400000.0625,-400000.0625,-400000.0625
1.638366937637329,779.2999877929688,5588.33984375,16118.240234375,-400000.0625,-400000.0625,-400000.0625,-400000.0625,-400000.0625
1.6383709907531738,785.0599975585938,5588.33984375,16123.4404296875,-400000.0625,-400000.0625,-400000.0625,-400000.0625,-400000.0625
1.6383748054504395,785.969970703125,5591.919921875,16127.6796875,-400000.0625,-400000.0625,-400000.0625,-400000.0625,-400000.0625
1.6383790969848633,784.8699951171875,5592.8701171875,16127.0595703125,-400000.0625,-400000.0625,-400000.0625,-400000.0625,-400000.0625
1.6383826732635498,784.3499755859375,5589.8701171875,16124.5400390625,-400000.0625,-400000.0625,-400000.0625,-400000.0625,-400000.0625
1.746222972869873,777.5800170898438,5584.2900390625,16119.0498046875,-400000.0625,-400000.0625,-400000.0625,-400000.0625,-400000.0625
1.7554574012756348,773.9099731445312,5585.10009765625,16120.33984375,-400000.0625,-400000.0625,-400000.0625,-400000.0625,-400000.0625
1.7601115703582764,780.530029296875,5590.6298828125,16127.490234375,-400000.0625,-400000.0625,-400000.0625,-400000.0625,-400000.0625
1.7601206302642822,795.8900146484375,5596.2998046875,16126.2099609375,-400000.0625,-400000.0625,-400000.0625,-400000.0625,-400000.0625
1.7601253986358643,800.8499755859375,5593.68017578125,16115.8603515625,-400000.0625,-400000.0625,-400000.0625,-400000.0625,-400000.0625
1.7601299285888672,798.22998046875,5573.419921875,16097.400390625,-400000.0625,-400000.0625,-400000.0625,-400000.0625,-400000.0625
1.7601337432861328,798.030029296875,5569.7900390625,16097.4501953125,-400000.0625,-400000.0625,-400000.0625,-400000.0625,-400000.0625
1.7601377964019775,809.239990234375,5579.85009765625,16102.75,-400000.0625,-400000.0625,-400000.0625,-400000.0625,-400000.0625
1.760141372680664,813.9099731445312,5585.0,16101.4599609375,-400000.0625,-400000.0625,-400000.0625,-400000.0625,-400000.0625
1.7601454257965088,807.9500122070312,5574.419921875,16092.490234375,-400000.0625,-400000.0625,-400000.0625,-400000.0625,-400000.0625
1.7601490020751953,805.4299926757812,5567.740234375,16087.150390625,-400000.0625,-400000.0625,-400000.0625,-400000.0625,-400000.0625
1.76015305519104,809.719970703125,5576.56005859375,16092.919921875,-400000.0625,-400000.0625,-400000.0625,-400000.0625,-400000.0625
1.7601566314697266,813.6300048828125,5578.08984375,16093.2099609375,-400000.0625,-400000.0625,-400000.0625,-400000.0625,-400000.0625
1.7601606845855713,811.239990234375,5583.0,16093.8798828125,-400000.0625,-400000.0625,-400000.0625,-400000.0625,-400000.0625
1.7601799964904785,805.3800048828125,5575.93994140625,16089.349609375,-400000.0625,-400000.0625,-400000.0625,-400000.0625,-400000.0625
1.7601842880249023,801.22998046875,5568.93017578125,16081.6201171875,-400000.0625,-400000.0625,-400000.0625,-400000.0625,-400000.0625
1.7601885795593262,801.9400024414062,5571.75,16082.4296875,-400000.0625,-400000.0625,-400000.0625,-400000.0625,-400000.0625
1.7601921558380127,802.3699951171875,5573.75,16087.009765625,-400000.0625,-400000.0625,-400000.0625,-400000.0625,-400000.0625
1.7601969242095947,810.3800048828125,5580.52001953125,16092.8701171875,-400000.0625,-400000.0625,-400000.0625,-400000.0625,-400000.0625
1.7602014541625977,804.6199951171875,5573.89013671875,16086.4404296875,-400000.0625,-400000.0625,-400000.0625,-400000.0625,-400000.0625
1.7602052688598633,796.989990234375,5565.7900390625,16080.6201171875,-400000.0625,-400000.0625,-400000.0625,-400000.0625,-400000.0625
1.7602088451385498,804.8099975585938,5571.83984375,16087.6796875,-400000.0625,-400000.0625,-400000.0625,-400000.0625,-400000.0625
1.7602128982543945,807.9500122070312,5570.89013671875,16086.5302734375,-400000.0625,-400000.0625,-400000.0625,-400000.0625,-400000.0625
1.7602167129516602,806.0,5572.22021484375,16088.76953125,-400000.0625,-400000.0625,-400000.0625,-400000.0625,-400000.0625
1.7602205276489258,805.1900024414062,5566.5,16083.9599609375,-400000.0625,-400000.0625,-400000.0625,-400000.0625,-400000.0625
1.7602241039276123,804.0399780273438,5562.02001953125,16080.099609375,-400000.0625,-400000.0625,-400000.0625,-400000.0625,-400000.0625
1.7602276802062988,800.5599975585938,5560.919921875,16081.3798828125,-400000.0625,-400000.0625,-400000.0625,-400000.0625,-400000.0625
1.7602314949035645,809.6199951171875,5564.02001953125,16083.580078125,-400000.0625,-400000.0625,-400000.0625,-400000.0625,-400000.0625
1.76023530960083,812.239990234375,5571.83984375,16089.919921875,-400000.0625,-400000.0625,-400000.0625,-400000.0625,-400000.0625
1.7602388858795166,809.239990234375,5569.27001953125,16086.7197265625,-400000.0625,-400000.0625,-400000.0625,-400000.0625,-400000.0625
1.7602424621582031,807.6699829101562,5561.5400390625,16083.76953125,-400000.0625,-400000.0625,-400000.0625,-400000.0625,-400000.0625
1.7602462768554688,812.5800170898438,5564.58984375,16091.009765625,-400000.0625,-400000.0625,-400000.0625,-400000.0625,-400000.0625
1.8213059902191162,811.8599853515625,5567.93017578125,16094.259765625,-400000.0625,-400000.0625,-400000.0625,-400000.0625,-400000.0625
1.8282077312469482,814.25,5571.7998046875,16095.9296875,-400000.0625,-400000.0625,-400000.0625,-400000.0625,-400000.0625
1.8331325054168701,814.1500244140625,5570.93994140625,16093.58984375,-400000.0625,-400000.0625,-400000.0625,-400000.0625,-400000.0625
1.8331427574157715,807.1900024414062,5559.8701171875,16086.8701171875,-400000.0625,-400000.0625,-400000.0625,-400000.0625,-400000.0625
1.8331477642059326,815.4400024414062,5564.740234375,16089.9697265625,-400000.0625,-400000.0625,-400000.0625,-400000.0625,-400000.0625
1.8331522941589355,818.4000244140625,5566.4501953125,16090.8203125,-400000.0625,-400000.0625,-400000.0625,-400000.0625,-400000.0625
1.8331565856933594,818.4000244140625,5568.35986328125,16090.6796875,-400000.0625,-400000.0625,-400000.0625,-400000.0625,-400000.0625
1.833160400390625,816.3499755859375,5562.1201171875,16085.48046875,-400000.0625,-400000.0625,-400000.0625,-400000.0625,-400000.0625
1.8331644535064697,813.25,5554.490234375,16079.240234375,-400000.0625,-400000.0625,-400000.0625,-400000.0625,-400000.0625
1.8331773281097412,813.2899780273438,5557.58984375,16083.240234375,-400000.0625,-400000.0625,-400000.0625,-400000.0625,-400000.0625
1.8331818580627441,816.3900146484375,5562.31005859375,16088.5400390625,-400000.0625,-400000.0625,-400000.0625,-400000.0625,-400000.0625
1.8331859111785889,821.5900268554688,5560.58984375,16086.5302734375,-400000.0625,-400000.0625,-400000.0625,-400000.0625,-400000.0625
1.8331897258758545,826.5,5559.77978515625,16084.91015625,-400000.0625,-400000.0625,-400000.0625,-400000.0625,-400000.0625
1.8331935405731201,819.0599975585938,5551.43017578125,16082.48046875,-400000.0625,-400000.0625,-400000.0625,-400000.0625,-400000.0625
1.833200454711914,813.6300048828125,5546.6201171875,16082.240234375,-400000.0625,-400000.0625,-400000.0625,-400000.0625,-400000.0625
1.8332045078277588,817.489990234375,5554.25,16088.3896484375,-400000.0625,-400000.0625,-400000.0625,-400000.0625,-400000.0625
1.8874304294586182,817.2999877929688,5557.009765625,16089.490234375,-400000.0625,-400000.0625,-400000.0625,-400000.0625,-400000.0625
1.8979544639587402,812.530029296875,5552.43994140625,16084.580078125,-400000.0625,-400000.0625,-400000.0625,-400000.0625,-400000.0625
1.9095344543457031,808.0999755859375,5550.0498046875,16081.240234375,-400000.0625,-400000.0625,-400000.0625,-400000.0625,-400000.0625
1.9148938655853271,812.3400268554688,5552.14990234375,16081.759765625,-400000.0625,-400000.0625,-400000.0625,-400000.0625,-400000.0625
1.9195761680603027,809.8099975585938,5557.39013671875,16087.2001953125,-400000.0625,-400000.0625,-400000.0625,-400000.0625,-400000.0625
1.9195845127105713,803.7100219726562,5553.9599609375,16084.2001953125,-400000.0625,-400000.0625,-400000.0625,-400000.0625,-400000.0625
1.9195895195007324,804.4199829101562,5550.10009765625,16079.8095703125,-400000.0625,-400000.0625,-400000.0625,-400000.0625,-400000.0625
1.9195935726165771,803.280029296875,5545.18994140625,16076.9501953125,-400000.0625,-400000.0625,-400000.0625,-400000.0625,-400000.0625
1.9195973873138428,805.1900024414062,5546.43017578125,16082.4296875,-400000.0625,-400000.0625,-400000.0625,-400000.0625,-400000.0625
1.9196016788482666,810.4299926757812,5554.580078125,16089.490234375,-400000.0625,-400000.0625,-400000.0625,-400000.0625,-400000.0625
1.9196057319641113,811.77001953125,5556.2998046875,16089.2998046875,-400000.0625,-400000.0625,-400000.0625,-400000.0625,-400000.0625
1.919609546661377,807.3800048828125,5549.47998046875,16083.8095703125,-400000.0625,-400000.0625,-400000.0625,-400000.0625,-400000.0625
1.9196133613586426,805.4299926757812,5546.7099609375,16081.8095703125,-400000.0625,-400000.0625,-400000.0625,-400000.0625,-400000.0625
1.9196271896362305,810.530029296875,5550.669921875,16084.8603515625,-400000.0625,-400000.0625,-400000.0625,-400000.0625,-400000.0625
1.9196312427520752,810.3400268554688,5552.669921875,16088.3896484375,-400000.0625,-400000.0625,-400000.0625,-400000.0625,-400000.0625
1.91963529586792,809.1900024414062,5548.10009765625,16086.9599609375,-400000.0625,-400000.0625,-400000.0625,-400000.0625,-400000.0625
1.9649367332458496,806.8099975585938,5540.56005859375,16082.0,-400000.0625,-400000.0625,-400000.0625,-400000.0625,-400000.0625
1.9705677032470703,805.239990234375,5537.75,16080.2900390625,-400000.0625,-400000.0625,-400000.0625,-400000.0625,-400000.0625
1.9760377407073975,804.9500122070312,5544.7099609375,16084.3896484375,-400000.0625,-400000.0625,-400000.0625,-400000.0625,-400000.0625
1.9808752536773682,810.9099731445312,5551.580078125,16088.2001953125,-400000.0625,-400000.0625,-400000.0625,-400000.0625,-400000.0625
1.980884313583374,822.5,5558.5400390625,16092.58984375,-400000.0625,-400000.0625,-400000.0625,-400000.0625,-400000.0625
1.980889081954956,815.4400024414062,5547.47998046875,16087.099609375,-400000.0625,-400000.0625,-400000.0625,-400000.0625,-400000.0625
1.9808928966522217,802.52001953125,5535.31982421875,16079.08984375,-400000.0625,-400000.0625,-400000.0625,-400000.0625,-400000.0625
1.9808967113494873,804.0,5537.89013671875,16083.669921875,-400000.0625,-400000.0625,-400000.0625,-400000.0625,-400000.0625
1.9809012413024902,803.0399780273438,5542.7099609375,16088.919921875,-400000.0625,-400000.0625,-400000.0625,-400000.0625,-400000.0625
1.9809050559997559,806.6199951171875,5547.43017578125,16092.400390625,-400000.0625,-400000.0625,-400000.0625,-400000.0625,-400000.0625
1.980919361114502,801.4199829101562,5537.93994140625,16088.2998046875,-400000.0625,-400000.0625,-400000.0625,-400000.0625,-400000.0625
1.9809253215789795,793.7000122070312,5525.77978515625,16080.8603515625,-400000.0625,-400000.0625,-400000.0625,-400000.0625,-400000.0625
1.9809291362762451,793.5499877929688,5535.31982421875,16084.5302734375,-400000.0625,-400000.0625,-400000.0625,-400000.0625,-400000.0625
1.9809331893920898,789.4500122070312,5551.77001953125,16099.650390625,-400000.0625,-400000.0625,-400000.0625,-400000.0625,-400000.0625
1.9809372425079346,790.3599853515625,5559.8701171875,16105.75,-400000.0625,-400000.0625,-400000.0625,-400000.0625,-400000.0625
1.980940818786621,787.3099975585938,5562.5,16106.75,-400000.0625,-400000.0625,-400000.0625,-400000.0625,-400000.0625
2.01757550239563,785.8800048828125,5558.68017578125,16106.8896484375,-400000.0625,-400000.0625,-400000.0625,-400000.0625,-400000.0625
2.029066801071167,782.0599975585938,5560.259765625,16112.330078125,-400000.0625,-400000.0625,-400000.0625,-400000.0625,-400000.0625
2.034111499786377,771.0,5558.68017578125,16113.2802734375,-400000.0625,-400000.0625,-400000.0625,-400000.0625,-400000.0625
2.0389809608459473,769.5700073242188,5554.8701171875,16113.4697265625,-400000.0625,-400000.0625,-400000.0625,-400000.0625,-400000.0625
2.0389902591705322,769.0900268554688,5556.39013671875,16115.0498046875,-400000.0625,-400000.0625,-400000.0625,-400000.0625,-400000.0625
2.038994789123535,762.8900146484375,5550.85986328125,16110.08984375,-400000.0625,-400000.0625,-400000.0625,-400000.0625,-400000.0625
2.03899884223938,761.7000122070312,5550.52978515625,16109.849609375,-400000.0625,-400000.0625,-400000.0625,-400000.0625,-400000.0625
2.0390026569366455,767.22998046875,5556.25,16115.48046875,-400000.0625,-400000.0625,-400000.0625,-400000.0625,-400000.0625
2.039010763168335,769.1900024414062,5564.169921875,16120.8203125,-400000.0625,-400000.0625,-400000.0625,-400000.0625,-400000.0625
2.039015054702759,762.8400268554688,5550.52978515625,16110.08984375,-400000.0625,-400000.0625,-400000.0625,-400000.0625,-400000.0625
2.0390186309814453,757.8900146484375,5539.56005859375,16102.509765625,-400000.0625,-400000.0625,-400000.0625,-400000.0625,-400000.0625
2.039022445678711,764.5599975585938,5544.56982421875,16108.900390625,-400000.0625,-400000.0625,-400000.0625,-400000.0625,-400000.0625
2.0390260219573975,773.6199951171875,5550.81005859375,16113.0,-400000.0625,-400000.0625,-400000.0625,-400000.0625,-400000.0625
2.039029836654663,774.9600219726562,5561.39990234375,16121.9599609375,-400000.0625,-400000.0625,-400000.0625,-400000.0625,-400000.0625
2.0390334129333496,767.7999877929688,5556.81982421875,16115.8095703125,-400000.0625,-400000.0625,-400000.0625,-400000.0625,-400000.0625
2.0390372276306152,765.8499755859375,5545.56982421875,16107.419921875,-400000.0625,-400000.0625,-400000.0625,-400000.0625,-400000.0625
2.0825717449188232,768.3300170898438,5548.2900390625,16110.66015625,-400000.0625,-400000.0625,-400000.0625,-400000.0625,-400000.0625
2.088172674179077,770.760009765625,5554.33984375,16114.6201171875,-400000.0625,-400000.0625,-400000.0625,-400000.0625,-400000.0625
2.093282461166382,774.47998046875,5560.35009765625,16118.0,-400000.0625,-400000.0625,-400000.0625,-400000.0625,-400000.0625
2.0979301929473877,773.0,5561.5400390625,16117.6201171875,-400000.0625,-400000.0625,-400000.0625,-400000.0625,-400000.0625
2.0979390144348145,766.3699951171875,5550.0,16108.9404296875,-400000.0625,-400000.0625,-400000.0625,-400000.0625,-400000.0625
2.0979435443878174,762.1799926757812,5548.0,16106.5595703125,-400000.0625,-400000.0625,-400000.0625,-400000.0625,-400000.0625
2.0979559421539307,767.9000244140625,5555.8701171875,16114.759765625,-400000.0625,-400000.0625,-400000.0625,-400000.0625,-400000.0625
2.0979599952697754,771.239990234375,5558.43994140625,16116.91015625,-400000.0625,-400000.0625,-400000.0625,-400000.0625,-400000.0625
2.097963809967041,768.5700073242188,5550.240234375,16112.759765625,-400000.0625,-400000.0625,-400000.0625,-400000.0625,-400000.0625
2.0979690551757812,761.6500244140625,5542.9501953125,16108.23046875,-400000.0625,-400000.0625,-400000.0625,-400000.0625,-400000.0625
2.0979726314544678,763.7000122070312,5549.6201171875,16113.4697265625,-400000.0625,-400000.0625,-400000.0625,-400000.0625,-400000.0625
2.0979764461517334,770.3800048828125,5557.81982421875,16117.9599609375,-400000.0625,-400000.0625,-400000.0625,-400000.0625,-400000.0625
2.09798002243042,772.9099731445312,5555.490234375,16116.1396484375,-400000.0625,-400000.0625,-400000.0625,-400000.0625,-400000.0625
2.0979835987091064,763.3699951171875,5547.9501953125,16108.900390625,-400000.0625,-400000.0625,-400000.0625,-400000.0625,-400000.0625
2.097987174987793,764.27001953125,5543.0400390625,16108.5595703125,-400000.0625,-400000.0625,-400000.0625,-400000.0625,-400000.0625
2.0979909896850586,765.0900268554688,5544.330078125,16112.1396484375,-400000.0625,-400000.0625,-400000.0625,-400000.0625,-400000.0625
2.1385724544525146,763.6099853515625,5542.60986328125,16112.0400390625,-400000.0625,-400000.0625,-400000.0625,-400000.0625,-400000.0625
2.1510133743286133,772.4299926757812,5543.60986328125,16115.330078125,-400000.0625,-400000.0625,-400000.0625,-400000.0625,-400000.0625
2.156445026397705,763.3699951171875,5528.64013671875,16114.9501953125,-400000.0625,-400000.0625,-400000.0625,-400000.0625,-400000.0625
2.1612327098846436,764.27001953125,5512.0498046875,16115.9501953125,-400000.0625,-400000.0625,-400000.0625,-400000.0625,-400000.0625
2.1612424850463867,774.0999755859375,5508.47021484375,16124.919921875,-400000.0625,-400000.0625,-400000.0625,-400000.0625,-400000.0625
2.1612470149993896,775.3400268554688,5508.08984375,16130.6396484375,-400000.0625,-400000.0625,-400000.0625,-400000.0625,-400000.0625
2.1612510681152344,771.239990234375,5516.43017578125,16111.51953125,-400000.0625,-400000.0625,-400000.0625,-400000.0625,-400000.0625
2.1612548828125,759.4600219726562,5499.7900390625,16090.58984375,-400000.0625,-400000.0625,-400000.0625,-400000.0625,-400000.0625
2.161259174346924,744.8699951171875,5462.5498046875,16089.1103515625,-400000.0625,-400000.0625,-400000.0625,-400000.0625,-400000.0625
2.1612632274627686,769.760009765625,5430.990234375,16100.0703125,-400000.0625,-400000.0625,-400000.0625,-400000.0625,-400000.0625
2.161266803741455,793.5,5434.93994140625,16093.8798828125,-400000.0625,-400000.0625,-400000.0625,-400000.0625,-400000.0625
2.1612706184387207,800.469970703125,5436.9501953125,16063.3603515625,-400000.0625,-400000.0625,-400000.0625,-400000.0625,-400000.0625
2.1612744331359863,795.030029296875,5368.66015625,16032.3203125,-400000.0625,-400000.0625,-400000.0625,-400000.0625,-400000.0625
2.16127872467041,796.9400024414062,5322.7001953125,16018.33984375,-400000.0625,-400000.0625,-400000.0625,-400000.0625,-400000.0625
2.161288022994995,809.3800048828125,5268.72021484375,16001.9404296875,-400000.0625,-400000.0625,-400000.0625,-400000.0625,-400000.0625
2.161292314529419,819.1099853515625,5242.72998046875,16009.0498046875,-400000.0625,-400000.0625,-400000.0625,-400000.0625,-400000.0625
2.21435809135437,811.9600219726562,5231.18994140625,16005.3701171875,-400000.0625,-400000.0625,-400000.0625,-400000.0625,-400000.0625
2.220097303390503,798.989990234375,5202.68017578125,15980.669921875,-400000.0625,-400000.0625,-400000.0625,-400000.0625,-400000.0625
2.2257792949676514,796.27001953125,5168.14990234375,15964.650390625,-400000.0625,-400000.0625,-400000.0625,-400000.0625,-400000.0625
2.230907678604126,816.77001953125,5144.64013671875,15967.3203125,-400000.0625,-400000.0625,-400000.0625,-400000.0625,-400000.0625
2.236039638519287,836.0900268554688,5142.2099609375,15978.9599609375,-400000.0625,-400000.0625,-400000.0625,-400000.0625,-400000.0625
2.2408530712127686,847.2899780273438,5134.25,15980.5302734375,-400000.0625,-400000.0625,-400000.0625,-400000.0625,-400000.0625
2.2469482421875,856.2999877929688,5125.3798828125,15978.0498046875,-400000.0625,-400000.0625,-400000.0625,-400000.0625,-400000.0625
2.2532143592834473,853.4400024414062,5114.4599609375,15977.2900390625,-400000.0625,-400000.0625,-400000.0625,-400000.0625,-400000.0625
2.260565996170044,844.8099975585938,5112.31005859375,15977.0498046875,-400000.0625,-400000.0625,-400000.0625,-400000.0625,-400000.0625
2.2670180797576904,833.7000122070312,5129.2900390625,15988.830078125,-400000.0625,-400000.0625,-400000.0625,-400000.0625,-400000.0625
2.2720978260040283,825.4500122070312,5144.68994140625,15997.3203125,-400000.0625,-400000.0625,-400000.0625,-400000.0625,-400000.0625
2.27825665473938,799.7000122070312,5159.240234375,15999.41015625,-400000.0625,-400000.0625,-400000.0625,-400000.0625,-400000.0625
2.2837657928466797,777.3900146484375,5171.97021484375,16003.990234375,-400000.0625,-400000.0625,-400000.0625,-400000.0625,-400000.0625
2.288963556289673,765.510009765625,5195.81005859375,16018.76953125,-400000.0625,-400000.0625,-400000.0625,-400000.0625,-400000.0625
2.29453444480896,759.510009765625,5228.9501953125,16037.2802734375,-400000.0625,-400000.0625,-400000.0625,-400000.0625,-400000.0625
2.2996160984039307,750.5900268554688,5251.5,16044.9501953125,-400000.0625,-400000.0625,-400000.0625,-400000.0625,-400000.0625
2.3091325759887695,732.0399780273438,5259.7998046875,16039.330078125,-400000.0625,-400000.0625,-400000.0625,-400000.0625,-400000.0625
2.3138716220855713,718.02001953125,5268.3798828125,16037.419921875,-400000.0625,-400000.0625,-400000.0625,-400000.0625,-400000.0625
2.3138811588287354,713.4000244140625,5295.93994140625,16048.5302734375,-400000.0625,-400000.0625,-400000.0625,-400000.0625,-400000.0625
2.3138856887817383,715.2999877929688,5323.64990234375,16062.400390625,-400000.0625,-400000.0625,-400000.0625,-400000.0625,-400000.0625
2.313889503479004,718.4500122070312,5344.68017578125,16074.66015625,-400000.0625,-400000.0625,-400000.0625,-400000.0625,-400000.0625
2.3138935565948486,713.4400024414062,5354.830078125,16073.3701171875,-400000.0625,-400000.0625,-400000.0625,-400000.0625,-400000.0625
2.3138976097106934,716.260009765625,5372.669921875,16077.2802734375,-400000.0625,-400000.0625,-400000.0625,-400000.0625,-400000.0625
2.313901424407959,725.7000122070312,5394.509765625,16092.6396484375,-400000.0625,-400000.0625,-400000.0625,-400000.0625,-400000.0625
2.3139052391052246,727.5599975585938,5408.18994140625,16101.599609375,-400000.0625,-400000.0625,-400000.0625,-400000.0625,-400000.0625
2.3139090538024902,722.3099975585938,5424.06982421875,16110.23046875,-400000.0625,-400000.0625,-400000.0625,-400000.0625,-400000.0625
2.3139126300811768,717.6900024414062,5436.990234375,16113.759765625,-400000.0625,-400000.0625,-400000.0625,-400000.0625,-400000.0625
2.3139164447784424,718.4000244140625,5444.72021484375,16117.48046875,-400000.0625,-400000.0625,-400000.0625,-400000.0625,-400000.0625
2.313920259475708,720.7899780273438,5453.490234375,16122.33984375,-400000.0625,-400000.0625,-400000.0625,-400000.0625,-400000.0625
2.3139240741729736,718.8800048828125,5466.83984375,16125.25,-400000.0625,-400000.0625,-400000.0625,-400000.0625,-400000.0625
2.31392765045166,722.3599853515625,5478.2900390625,16132.6396484375,-400000.0625,-400000.0625,-400000.0625,-400000.0625,-400000.0625
2.313939332962036,725.7899780273438,5487.490234375,16135.599609375,-400000.0625,-400000.0625,-400000.0625,-400000.0625,-400000.0625
2.339524745941162,728.0399780273438,5492.4501953125,16135.8896484375,-400000.0625,-400000.0625,-400000.0625,-400000.0625,-400000.0625
2.344709634780884,731.469970703125,5504.419921875,16145.6103515625,-400000.0625,-400000.0625,-400000.0625,-400000.0625,-400000.0625
2.353961706161499,736.8599853515625,5520.14990234375,16153.240234375,-400000.0625,-400000.0625,-400000.0625,-400000.0625,-400000.0625
2.358922243118286,738.530029296875,5530.8798828125,16157.8701171875,-400000.0625,-400000.0625,-400000.0625,-400000.0625,-400000.0625
2.358931541442871,739.9099731445312,5529.60009765625,16154.2001953125,-400000.0625,-400000.0625,-400000.0625,-400000.0625,-400000.0625
2.3589367866516113,737.3300170898438,5530.02001953125,16154.5302734375,-400000.0625,-400000.0625,-400000.0625,-400000.0625,-400000.0625
2.3589413166046143,734.3300170898438,5540.66015625,16160.25,-400000.0625,-400000.0625,-400000.0625,-400000.0625,-400000.0625
2.358945608139038,738.4299926757812,5550.72021484375,16166.4501953125,-400000.0625,-400000.0625,-400000.0625,-400000.0625,-400000.0625
2.358949899673462,739.719970703125,5555.5400390625,16166.58984375,-400000.0625,-400000.0625,-400000.0625,-400000.0625,-400000.0625
2.3589541912078857,731.7100219726562,5552.2900390625,16161.400390625,-400000.0625,-400000.0625,-400000.0625,-400000.0625,-400000.0625
2.3589584827423096,727.6099853515625,5547.47998046875,16156.0595703125,-400000.0625,-400000.0625,-400000.0625,-400000.0625,-400000.0625
2.3589627742767334,729.27001953125,5548.3798828125,16159.76953125,-400000.0625,-400000.0625,-400000.0625,-400000.0625,-400000.0625
2.358966827392578,735.6199951171875,5560.02001953125,16167.01953125,-400000.0625,-400000.0625,-400000.0625,-400000.0625,-400000.0625
2.358977794647217,741.6199951171875,5571.83984375,16170.3095703125,-400000.0625,-400000.0625,-400000.0625,-400000.0625,-400000.0625
2.3640494346618652,736.4299926757812,5566.06982421875,16165.5,-400000.0625,-400000.0625,-400000.0625,-400000.0625,-400000.0625
2.368894100189209,731.280029296875,5557.72998046875,16165.0703125,-400000.0625,-400000.0625,-400000.0625,-400000.0625,-400000.0625
2.441601037979126,738.239990234375,5556.77001953125,16169.259765625,-400000.0625,-400000.0625,-400000.0625,-400000.0625,-400000.0625
2.4474844932556152,741.77001953125,5557.5400390625,16177.080078125,-400000.0625,-400000.0625,-400000.0625,-400000.0625,-400000.0625
2.458707332611084,747.8699951171875,5567.02978515625,16180.6103515625,-400000.0625,-400000.0625,-400000.0625,-400000.0625,-400000.0625
2.4644455909729004,747.6300048828125,5555.25,16183.0400390625,-400000.0625,-400000.0625,-400000.0625,-400000.0625,-400000.0625
2.469186782836914,749.5399780273438,5532.5498046875,16183.9501953125,-400000.0625,-400000.0625,-400000.0625,-400000.0625,-400000.0625
2.469195604324341,751.0700073242188,5543.56982421875,16177.9404296875,-400000.0625,-400000.0625,-400000.0625,-400000.0625,-400000.0625
2.4691998958587646,754.1699829101562,5511.81005859375,16171.8896484375,-400000.0625,-400000.0625,-400000.0625,-400000.0625,-400000.0625
2.4692039489746094,773.0,5490.830078125,16172.9404296875,-400000.0625,-400000.0625,-400000.0625,-400000.0625,-400000.0625
2.469208240509033,773.5700073242188,5470.18017578125,16153.5302734375,-400000.0625,-400000.0625,-400000.0625,-400000.0625,-400000.0625
2.469212293624878,802.0900268554688,5433.22998046875,16135.599609375,-400000.0625,-400000.0625,-400000.0625,-400000.0625,-400000.0625
2.469222068786621,824.6900024414062,5396.02978515625,16105.1796875,-400000.0625,-400000.0625,-400000.0625,-400000.0625,-400000.0625
2.4692256450653076,842.4299926757812,5342.33984375,16083.4296875,-400000.0625,-400000.0625,-400000.0625,-400000.0625,-400000.0625
2.4692294597625732,858.8300170898438,5278.2998046875,16067.5498046875,-400000.0625,-400000.0625,-400000.0625,-400000.0625,-400000.0625
2.469233512878418,875.8499755859375,5226.52001953125,16048.48046875,-400000.0625,-400000.0625,-400000.0625,-400000.0625,-400000.0625
2.46923828125,899.5999755859375,5192.419921875,16026.98046875,-400000.0625,-400000.0625,-400000.0625,-400000.0625,-400000.0625
2.4692418575286865,923.9199829101562,5163.3798828125,16012.8603515625,-400000.0625,-400000.0625,-400000.0625,-400000.0625,-400000.0625
2.469245672225952,943.4199829101562,5130.669921875,16010.8603515625,-400000.0625,-400000.0625,-400000.0625,-400000.0625,-400000.0625
2.4692511558532715,956.25,5127.6201171875,16006.66015625,-400000.0625,-400000.0625,-400000.0625,-400000.0625,-400000.0625
2.469254970550537,972.75,5116.509765625,16007.849609375,-400000.0625,-400000.0625,-400000.0625,-400000.0625,-400000.0625
2.4692585468292236,968.5,5103.4501953125,16002.9404296875,-400000.0625,-400000.0625,-400000.0625,-400000.0625,-400000.0625
2.4692633152008057,971.7899780273438,5112.35986328125,16014.5302734375,-400000.0625,-400000.0625,-400000.0625,-400000.0625,-400000.0625
2.469266891479492,968.27001953125,5131.91015625,16031.509765625,-400000.0625,-400000.0625,-400000.0625,-400000.0625,-400000.0625
2.469270944595337,957.9199829101562,5140.31005859375,16036.9404296875,-400000.0625,-400000.0625,-400000.0625,-400000.0625,-400000.0625
2.4692747592926025,939.4600219726562,5160.6201171875,16048.6201171875,-400000.0625,-400000.0625,-400000.0625,-400000.0625,-400000.0625
2.469278335571289,908.5700073242188,5171.490234375,16052.7197265625,-400000.0625,-400000.0625,-400000.0625,-400000.0625,-400000.0625
2.469282627105713,877.9000244140625,5184.7900390625,16061.1201171875,-400000.0625,-400000.0625,-400000.0625,-400000.0625,-400000.0625
2.4692864418029785,858.02001953125,5220.75,16082.150390625,-400000.0625,-400000.0625,-400000.0625,-400000.0625,-400000.0625
2.469290256500244,838.22998046875,5250.7900390625,16093.349609375,-400000.0625,-400000.0625,-400000.0625,-400000.0625,-400000.0625
2.4692940711975098,814.77001953125,5275.81982421875,16105.6103515625,-400000.0625,-400000.0625,-400000.0625,-400000.0625,-400000.0625
2.4692978858947754,802.5599975585938,5302.330078125,16120.580078125,-400000.0625,-400000.0625,-400000.0625,-400000.0625,-400000.0625
2.469301462173462,788.02001953125,5335.9501953125,16138.1298828125,-400000.0625,-400000.0625,-400000.0625,-400000.0625,-400000.0625
2.4693050384521484,776.5800170898438,5363.75,16150.3798828125,-400000.0625,-400000.0625,-400000.0625,-400000.0625,-400000.0625
2.5225813388824463,773.3300170898438,5387.35009765625,16161.349609375,-400000.0625,-400000.0625,-400000.0625,-400000.0625,-400000.0625
2.528683662414551,763.4600219726562,5406.27978515625,16170.6904296875,-400000.0625,-400000.0625,-400000.0625,-400000.0625,-400000.0625
2.5330371856689453,754.5499877929688,5419.830078125,16173.3203125,-400000.0625,-400000.0625,-400000.0625,-400000.0625,-400000.0625
2.533046007156372,754.02001953125,5437.990234375,16183.1396484375,-400000.0625,-400000.0625,-400000.0625,-400000.0625,-400000.0625
2.533050775527954,755.8800048828125,5460.97998046875,16195.25,-400000.0625,-400000.0625,-400000.0625,-400000.0625,-400000.0625
2.533055067062378,758.6500244140625,5477.56982421875,16202.400390625,-400000.0625,-400000.0625,-400000.0625,-400000.0625,-400000.0625
2.5330591201782227,749.969970703125,5482.52978515625,16197.9697265625,-400000.0625,-400000.0625,-400000.0625,-400000.0625,-400000.0625
2.533071279525757,741.4299926757812,5490.490234375,16200.01953125,-400000.0625,-400000.0625,-400000.0625,-400000.0625,-400000.0625
2.5330753326416016,745.0599975585938,5502.27001953125,16205.83984375,-400000.0625,-400000.0625,-400000.0625,-400000.0625,-400000.0625
2.533079147338867,746.2999877929688,5516.6298828125,16214.419921875,-400000.0625,-400000.0625,-400000.0625,-400000.0625,-400000.0625
2.533082962036133,746.6799926757812,5526.8798828125,16220.2900390625,-400000.0625,-400000.0625,-400000.0625,-400000.0625,-400000.0625
2.5330867767333984,745.2999877929688,5532.31005859375,16221.5302734375,-400000.0625,-400000.0625,-400000.0625,-400000.0625,-400000.0625
2.533090591430664,747.1599731445312,5536.509765625,16221.4296875,-400000.0625,-400000.0625,-400000.0625,-400000.0625,-400000.0625
2.5330944061279297,755.5999755859375,5551.9599609375,16233.01953125,-400000.0625,-400000.0625,-400000.0625,-400000.0625,-400000.0625
2.533097982406616,757.7899780273438,5567.740234375,16239.5,-400000.0625,-400000.0625,-400000.0625,-400000.0625,-400000.0625
2.5331063270568848,749.2100219726562,5567.5,16235.259765625,-400000.0625,-400000.0625,-400000.0625,-400000.0625,-400000.0625
2.58754301071167,744.719970703125,5560.35009765625,16230.009765625,-400000.0625,-400000.0625,-400000.0625,-400000.0625,-400000.0625
2.5970029830932617,742.8599853515625,5561.72998046875,16228.3896484375,-400000.0625,-400000.0625,-400000.0625,-400000.0625,-400000.0625
2.6056361198425293,742.2000122070312,5573.22998046875,16237.740234375,-400000.0625,-400000.0625,-400000.0625,-400000.0625,-400000.0625
2.610106945037842,742.5800170898438,5579.56982421875,16243.8896484375,-400000.0625,-400000.0625,-400000.0625,-400000.0625,-400000.0625
2.6101152896881104,744.3900146484375,5589.14990234375,16246.509765625,-400000.0625,-400000.0625,-400000.0625,-400000.0625,-400000.0625
2.610119581222534,741.530029296875,5585.0498046875,16242.080078125,-400000.0625,-400000.0625,-400000.0625,-400000.0625,-400000.0625
2.6101233959198,738.1900024414062,5580.81005859375,16239.740234375,-400000.0625,-400000.0625,-400000.0625,-400000.0625,-400000.0625
2.6101272106170654,740.9099731445312,5589.2001953125,16243.98046875,-400000.0625,-400000.0625,-400000.0625,-400000.0625,-400000.0625
2.610130786895752,746.6799926757812,5595.72998046875,16246.509765625,-400000.0625,-400000.0625,-400000.0625,-400000.0625,-400000.0625
2.6101343631744385,743.0599975585938,5596.58984375,16246.26953125,-400000.0625,-400000.0625,-400000.0625,-400000.0625,-400000.0625
2.610137701034546,743.6799926757812,5596.58984375,16246.3203125,-400000.0625,-400000.0625,-400000.0625,-400000.0625,-400000.0625
2.6101412773132324,740.9099731445312,5592.25,16242.650390625,-400000.0625,-400000.0625,-400000.0625,-400000.0625,-400000.0625
2.610144853591919,741.1500244140625,5593.10986328125,16244.7001953125,-400000.0625,-400000.0625,-400000.0625,-400000.0625,-400000.0625
2.6101481914520264,746.010009765625,5601.5498046875,16251.849609375,-400000.0625,-400000.0625,-400000.0625,-400000.0625,-400000.0625
2.610151767730713,744.719970703125,5603.97998046875,16252.1396484375,-400000.0625,-400000.0625,-400000.0625,-400000.0625,-400000.0625
2.6101555824279785,738.6699829101562,5602.8798828125,16251.1796875,-400000.0625,-400000.0625,-400000.0625,-400000.0625,-400000.0625
2.6623477935791016,740.0,5598.64013671875,16250.7998046875,-400000.0625,-400000.0625,-400000.0625,-400000.0625,-400000.0625
2.6672170162200928,741.6699829101562,5602.64990234375,16253.1396484375,-400000.0625,-400000.0625,-400000.0625,-400000.0625,-400000.0625
2.6672275066375732,740.9600219726562,5605.75,16252.330078125,-400000.0625,-400000.0625,-400000.0625,-400000.0625,-400000.0625
2.667232036590576,741.9600219726562,5609.0400390625,16253.2802734375,-400000.0625,-400000.0625,-400000.0625,-400000.0625,-400000.0625
2.6672356128692627,737.0,5606.3701171875,16249.5595703125,-400000.0625,-400000.0625,-400000.0625,-400000.0625,-400000.0625
2.6672399044036865,733.6599731445312,5598.259765625,16243.650390625,-400000.0625,-400000.0625,-400000.0625,-400000.0625,-400000.0625
2.667243480682373,739.6199951171875,5606.60009765625,16250.900390625,-400000.0625,-400000.0625,-400000.0625,-400000.0625,-400000.0625
2.6672470569610596,743.4400024414062,5615.759765625,16256.7197265625,-400000.0625,-400000.0625,-400000.0625,-400000.0625,-400000.0625
2.667250633239746,742.0499877929688,5619.72021484375,16255.91015625,-400000.0625,-400000.0625,-400000.0625,-400000.0625,-400000.0625
2.6672539710998535,739.9099731445312,5612.759765625,16249.4697265625,-400000.0625,-400000.0625,-400000.0625,-400000.0625,-400000.0625
2.6672580242156982,735.0,5607.7998046875,16246.26953125,-400000.0625,-400000.0625,-400000.0625,-400000.0625,-400000.0625
2.6672616004943848,736.4299926757812,5609.47021484375,16246.849609375,-400000.0625,-400000.0625,-400000.0625,-400000.0625,-400000.0625
2.6672658920288086,735.8099975585938,5614.66015625,16251.23046875,-400000.0625,-400000.0625,-400000.0625,-400000.0625,-400000.0625
2.667268991470337,737.4299926757812,5620.77001953125,16254.240234375,-400000.0625,-400000.0625,-400000.0625,-400000.0625,-400000.0625
2.6672728061676025,736.6199951171875,5622.43994140625,16252.66015625,-400000.0625,-400000.0625,-400000.0625,-400000.0625,-400000.0625
2.667275905609131,731.7100219726562,5616.7099609375,16251.23046875,-400000.0625,-400000.0625,-400000.0625,-400000.0625,-400000.0625
2.726172924041748,738.4299926757812,5616.85986328125,16255.8095703125,-400000.0625,-400000.0625,-400000.0625,-400000.0625,-400000.0625
2.7357983589172363,739.239990234375,5622.009765625,16258.0498046875,-400000.0625,-400000.0625,-400000.0625,-400000.0625,-400000.0625
2.7405197620391846,741.4299926757812,5621.9599609375,16256.6201171875,-400000.0625,-400000.0625,-400000.0625,-400000.0625,-400000.0625
2.740530014038086,740.8599853515625,5620.18994140625,16253.66015625,-400000.0625,-400000.0625,-400000.0625,-400000.0625,-400000.0625
2.740534782409668,736.8599853515625,5614.7099609375,16250.5595703125,-400000.0625,-400000.0625,-400000.0625,-400000.0625,-400000.0625
2.74053955078125,736.52001953125,5616.85986328125,16255.6201171875,-400000.0625,-400000.0625,-400000.0625,-400000.0625,-400000.0625
2.740544080734253,732.1799926757812,5617.2900390625,16253.4296875,-400000.0625,-400000.0625,-400000.0625,-400000.0625,-400000.0625
2.7405500411987305,731.52001953125,5611.75,16246.3701171875,-400000.0625,-400000.0625,-400000.0625,-400000.0625,-400000.0625
2.740557909011841,728.5599975585938,5611.419921875,16248.900390625,-400000.0625,-400000.0625,-400000.0625,-400000.0625,-400000.0625
2.7405624389648438,728.3200073242188,5613.7099609375,16251.08984375,-400000.0625,-400000.0625,-400000.0625,-400000.0625,-400000.0625
2.7405667304992676,732.22998046875,5617.81005859375,16252.5703125,-400000.0625,-400000.0625,-400000.0625,-400000.0625,-400000.0625
2.7405707836151123,732.989990234375,5621.14990234375,16256.4296875,-400000.0625,-400000.0625,-400000.0625,-400000.0625,-400000.0625
2.740574836730957,733.760009765625,5619.2900390625,16253.6201171875,-400000.0625,-400000.0625,-400000.0625,-400000.0625,-400000.0625
2.7405786514282227,729.8900146484375,5616.330078125,16251.51953125,-400000.0625,-400000.0625,-400000.0625,-400000.0625,-400000.0625
2.7405827045440674,724.5999755859375,5611.47021484375,16248.2802734375,-400000.0625,-400000.0625,-400000.0625,-400000.0625,-400000.0625
2.740593433380127,720.97998046875,5615.0400390625,16251.6103515625,-400000.0625,-400000.0625,-400000.0625,-400000.0625,-400000.0625
2.8162825107574463,720.8300170898438,5619.56982421875,16253.3798828125,-400000.0625,-400000.0625,-400000.0625,-400000.0625,-400000.0625
2.820575475692749,723.3099975585938,5618.72021484375,16250.2802734375,-400000.0625,-400000.0625,-400000.0625,-400000.0625,-400000.0625
2.820584297180176,718.1599731445312,5614.0,16247.7998046875,-400000.0625,-400000.0625,-400000.0625,-400000.0625,-400000.0625
2.8205883502960205,716.8300170898438,5610.89990234375,16245.650390625,-400000.0625,-400000.0625,-400000.0625,-400000.0625,-400000.0625
2.820591926574707,717.2100219726562,5613.419921875,16249.23046875,-400000.0625,-400000.0625,-400000.0625,-400000.0625,-400000.0625
2.8205955028533936,717.3099975585938,5619.56982421875,16253.900390625,-400000.0625,-400000.0625,-400000.0625,-400000.0625,-400000.0625
2.820598840713501,714.969970703125,5620.91015625,16253.8095703125,-400000.0625,-400000.0625,-400000.0625,-400000.0625,-400000.0625
2.8206021785736084,711.1599731445312,5611.60986328125,16248.419921875,-400000.0625,-400000.0625,-400000.0625,-400000.0625,-400000.0625
2.8206052780151367,712.1099853515625,5612.9501953125,16246.990234375,-400000.0625,-400000.0625,-400000.0625,-400000.0625,-400000.0625
2.820608615875244,707.2000122070312,5614.81005859375,16248.7998046875,-400000.0625,-400000.0625,-400000.0625,-400000.0625,-400000.0625
2.8206117153167725,706.6300048828125,5615.9501953125,16252.5703125,-400000.0625,-400000.0625,-400000.0625,-400000.0625,-400000.0625
2.820614814758301,716.1099853515625,5617.56982421875,16251.759765625,-400000.0625,-400000.0625,-400000.0625,-400000.0625,-400000.0625
2.82061767578125,720.8800048828125,5616.18994140625,16246.7998046875,-400000.0625,-400000.0625,-400000.0625,-400000.0625,-400000.0625
2.820625066757202,717.6900024414062,5605.75,16234.5400390625,-400000.0625,-400000.0625,-400000.0625,-400000.0625,-400000.0625
2.8206279277801514,715.2100219726562,5610.7998046875,16232.8701171875,-400000.0625,-400000.0625,-400000.0625,-400000.0625,-400000.0625
2.820631265640259,715.260009765625,5616.14013671875,16235.73046875,-400000.0625,-400000.0625,-400000.0625,-400000.0625,-400000.0625
2.847562789916992,722.739990234375,5611.31982421875,16230.16015625,-400000.0625,-400000.0625,-400000.0625,-400000.0625,-400000.0625
2.8569698333740234,723.7899780273438,5612.3701171875,16226.2001953125,-400000.0625,-400000.0625,-400000.0625,-400000.0625,-400000.0625
2.8621039390563965,717.6900024414062,5604.83984375,16220.9501953125,-400000.0625,-400000.0625,-400000.0625,-400000.0625,-400000.0625
2.867867946624756,716.8800048828125,5610.56005859375,16225.009765625,-400000.0625,-400000.0625,-400000.0625,-400000.0625,-400000.0625
2.872654676437378,724.3200073242188,5619.52978515625,16231.8203125,-400000.0625,-400000.0625,-400000.0625,-400000.0625,-400000.0625
2.8726675510406494,731.9500122070312,5625.6298828125,16234.4501953125,-400000.0625,-400000.0625,-400000.0625,-400000.0625,-400000.0625
2.8726720809936523,729.3699951171875,5627.58984375,16234.1103515625,-400000.0625,-400000.0625,-400000.0625,-400000.0625,-400000.0625
2.872676134109497,721.6900024414062,5618.10009765625,16225.76953125,-400000.0625,-400000.0625,-400000.0625,-400000.0625,-400000.0625
2.872680187225342,727.27001953125,5611.85009765625,16224.0498046875,-400000.0625,-400000.0625,-400000.0625,-400000.0625,-400000.0625
2.8726842403411865,724.4600219726562,5613.9501953125,16227.91015625,-400000.0625,-400000.0625,-400000.0625,-400000.0625,-400000.0625
2.8726885318756104,724.739990234375,5614.759765625,16226.5302734375,-400000.0625,-400000.0625,-400000.0625,-400000.0625,-400000.0625
2.8726978302001953,722.9299926757812,5610.18017578125,16219.8095703125,-400000.0625,-400000.0625,-400000.0625,-400000.0625,-400000.0625
2.872702121734619,718.0700073242188,5608.7001953125,16218.2802734375,-400000.0625,-400000.0625,-400000.0625,-400000.0625,-400000.0625
2.872706413269043,725.27001953125,5614.18994140625,16225.3896484375,-400000.0625,-400000.0625,-400000.0625,-400000.0625,-400000.0625
2.8727102279663086,727.8400268554688,5616.0,16227.3896484375,-400000.0625,-400000.0625,-400000.0625,-400000.0625,-400000.0625
2.872714042663574,725.9400024414062,5612.08984375,16223.150390625,-400000.0625,-400000.0625,-400000.0625,-400000.0625,-400000.0625
2.909860372543335,717.3099975585938,5606.93994140625,16219.759765625,-400000.0625,-400000.0625,-400000.0625,-400000.0625,-400000.0625
2.9151365756988525,713.6300048828125,5602.68994140625,16219.5703125,-400000.0625,-400000.0625,-400000.0625,-400000.0625,-400000.0625
2.9199092388153076,724.1699829101562,5611.47021484375,16227.5302734375,-400000.0625,-400000.0625,-400000.0625,-400000.0625,-400000.0625
2.91991925239563,727.4199829101562,5622.91015625,16233.349609375,-400000.0625,-400000.0625,-400000.0625,-400000.0625,-400000.0625
2.919924020767212,727.510009765625,5621.0498046875,16228.4404296875,-400000.0625,-400000.0625,-400000.0625,-400000.0625,-400000.0625
2.919928550720215,718.0700073242188,5611.18017578125,16222.3798828125,-400000.0625,-400000.0625,-400000.0625,-400000.0625,-400000.0625
2.919933319091797,717.9299926757812,5608.75,16223.240234375,-400000.0625,-400000.0625,-400000.0625,-400000.0625,-400000.0625
2.9199373722076416,723.27001953125,5614.419921875,16226.150390625,-400000.0625,-400000.0625,-400000.0625,-400000.0625,-400000.0625
2.9199414253234863,724.6500244140625,5618.0498046875,16230.6298828125,-400000.0625,-400000.0625,-400000.0625,-400000.0625,-400000.0625
2.919955015182495,726.6500244140625,5617.81005859375,16227.91015625,-400000.0625,-400000.0625,-400000.0625,-400000.0625,-400000.0625
2.919959545135498,719.4500122070312,5608.3701171875,16219.330078125,-400000.0625,-400000.0625,-400000.0625,-400000.0625,-400000.0625
2.9199635982513428,715.3499755859375,5607.7998046875,16218.08984375,-400000.0625,-400000.0625,-400000.0625,-400000.0625,-400000.0625
2.9199678897857666,723.510009765625,5615.47021484375,16225.76953125,-400000.0625,-400000.0625,-400000.0625,-400000.0625,-400000.0625
2.9199721813201904,728.510009765625,5620.0498046875,16230.0595703125,-400000.0625,-400000.0625,-400000.0625,-400000.0625,-400000.0625
2.9199767112731934,726.27001953125,5626.14990234375,16234.5400390625,-400000.0625,-400000.0625,-400000.0625,-400000.0625,-400000.0625
2.919980764389038,726.1300048828125,5622.0498046875,16233.259765625,-400000.0625,-400000.0625,-400000.0625,-400000.0625,-400000.0625
2.975841999053955,719.4500122070312,5619.33984375,16232.349609375,-400000.0625,-400000.0625,-400000.0625,-400000.0625,-400000.0625
2.9854319095611572,715.9199829101562,5619.91015625,16231.8701171875,-400000.0625,-400000.0625,-400000.0625,-400000.0625,-400000.0625
2.9900100231170654,717.3499755859375,5619.52978515625,16229.8203125,-400000.0625,-400000.0625,-400000.0625,-400000.0625,-400000.0625
2.9900176525115967,717.780029296875,5620.10009765625,16229.5400390625,-400000.0625,-400000.0625,-400000.0625,-400000.0625,-400000.0625
2.9900221824645996,716.4500122070312,5615.89990234375,16224.8603515625,-400000.0625,-400000.0625,-400000.0625,-400000.0625,-400000.0625
2.9900267124176025,713.6300048828125,5609.66015625,16220.4296875,-400000.0625,-400000.0625,-400000.0625,-400000.0625,-400000.0625
2.9900310039520264,712.5900268554688,5612.27978515625,16224.76953125,-400000.0625,-400000.0625,-400000.0625,-400000.0625,-400000.0625
2.990034818649292,711.969970703125,5614.89990234375,16226.48046875,-400000.0625,-400000.0625,-400000.0625,-400000.0625,-400000.0625
2.990046262741089,713.25,5617.759765625,16229.1103515625,-400000.0625,-400000.0625,-400000.0625,-400000.0625,-400000.0625
2.9900505542755127,713.969970703125,5616.43017578125,16227.4404296875,-400000.0625,-400000.0625,-400000.0625,-400000.0625,-400000.0625
2.990056037902832,711.3900146484375,5616.0,16229.76953125,-400000.0625,-400000.0625,-400000.0625,-400000.0625,-400000.0625
2.990060329437256,707.0499877929688,5617.14013671875,16229.8203125,-400000.0625,-400000.0625,-400000.0625,-400000.0625,-400000.0625
2.9900646209716797,710.9199829101562,5620.3798828125,16231.8203125,-400000.0625,-400000.0625,-400000.0625,-400000.0625,-400000.0625
2.9900691509246826,714.6799926757812,5620.43017578125,16231.1103515625,-400000.0625,-400000.0625,-400000.0625,-400000.0625,-400000.0625
2.9900729656219482,713.4400024414062,5613.27978515625,16226.099609375,-400000.0625,-400000.0625,-400000.0625,-400000.0625,-400000.0625
2.990077018737793,708.2899780273438,5611.85009765625,16225.2001953125,-400000.0625,-400000.0625,-400000.0625,-400000.0625,-400000.0625
3.0425331592559814,708.6300048828125,5620.0498046875,16231.1103515625,-400000.0625,-400000.0625,-400000.0625,-400000.0625,-400000.0625
3.047637462615967,709.8200073242188,5620.10009765625,16230.3896484375,-400000.0625,-400000.0625,-400000.0625,-400000.0625,-400000.0625
3.0521798133850098,709.6799926757812,5619.43017578125,16228.580078125,-400000.0625,-400000.0625,-400000.0625,-400000.0625,-400000.0625
3.0521883964538574,710.0599975585938,5612.85009765625,16222.8603515625,-400000.0625,-400000.0625,-400000.0625,-400000.0625,-400000.0625
3.0521926879882812,707.6699829101562,5607.41015625,16218.9501953125,-400000.0625,-400000.0625,-400000.0625,-400000.0625,-400000.0625
3.0521962642669678,714.5399780273438,5614.419921875,16227.150390625,-400000.0625,-400000.0625,-400000.0625,-400000.0625,-400000.0625
3.052199602127075,712.9199829101562,5608.3701171875,16225.76953125,-400000.0625,-400000.0625,-400000.0625,-400000.0625,-400000.0625
3.0522027015686035,707.010009765625,5611.27978515625,16229.1103515625,-400000.0625,-400000.0625,-400000.0625,-400000.0625,-400000.0625
3.052206039428711,699.4199829101562,5623.2900390625,16235.5,-400000.0625,-400000.0625,-400000.0625,-400000.0625,-400000.0625
3.052211284637451,693.8900146484375,5625.68017578125,16243.2197265625,-400000.0625,-400000.0625,-400000.0625,-400000.0625,-400000.0625
3.0522143840789795,690.0800170898438,5628.5400390625,16249.419921875,-400000.0625,-400000.0625,-400000.0625,-400000.0625,-400000.0625
3.052217721939087,691.030029296875,5641.1298828125,16262.7197265625,-400000.0625,-400000.0625,-400000.0625,-400000.0625,-400000.0625
3.0522210597991943,685.260009765625,5644.22998046875,16269.919921875,-400000.0625,-400000.0625,-400000.0625,-400000.0625,-400000.0625
3.0522243976593018,676.2999877929688,5635.169921875,16270.7802734375,-400000.0625,-400000.0625,-400000.0625,-400000.0625,-400000.0625
3.052227735519409,673.47998046875,5632.06982421875,16272.8798828125,-400000.0625,-400000.0625,-400000.0625,-400000.0625,-400000.0625
3.0522313117980957,677.1599731445312,5641.89013671875,16282.1298828125,-400000.0625,-400000.0625,-400000.0625,-400000.0625,-400000.0625
3.1096346378326416,675.010009765625,5650.18994140625,16288.23046875,-400000.0625,-400000.0625,-400000.0625,-400000.0625,-400000.0625
3.1204850673675537,675.3400268554688,5648.7998046875,16283.1298828125,-400000.0625,-400000.0625,-400000.0625,-400000.0625,-400000.0625
3.125028610229492,672.3900146484375,5642.18017578125,16278.41015625,-400000.0625,-400000.0625,-400000.0625,-400000.0625,-400000.0625
3.1250386238098145,668.0,5637.93017578125,16276.7001953125,-400000.0625,-400000.0625,-400000.0625,-400000.0625,-400000.0625
3.125044107437134,676.5800170898438,5642.22021484375,16280.4599609375,-400000.0625,-400000.0625,-400000.0625,-400000.0625,-400000.0625
3.1250483989715576,679.6400146484375,5647.7998046875,16283.66015625,-400000.0625,-400000.0625,-400000.0625,-400000.0625,-400000.0625
3.1250526905059814,685.6400146484375,5650.08984375,16284.0400390625,-400000.0625,-400000.0625,-400000.0625,-400000.0625,-400000.0625
3.1250569820404053,684.4000244140625,5648.22998046875,16279.7900390625,-400000.0625,-400000.0625,-400000.0625,-400000.0625,-400000.0625
3.125061511993408,684.4000244140625,5640.169921875,16273.6904296875,-400000.0625,-400000.0625,-400000.0625,-400000.0625,-400000.0625
3.125065565109253,689.7000122070312,5646.0400390625,16279.83984375,-400000.0625,-400000.0625,-400000.0625,-400000.0625,-400000.0625
3.1250696182250977,687.1199951171875,5649.66015625,16286.849609375,-400000.0625,-400000.0625,-400000.0625,-400000.0625,-400000.0625
3.1250739097595215,693.5599975585938,5654.240234375,16288.4296875,-400000.0625,-400000.0625,-400000.0625,-400000.0625,-400000.0625
3.1250784397125244,689.7899780273438,5642.89013671875,16277.7001953125,-400000.0625,-400000.0625,-400000.0625,-400000.0625,-400000.0625
3.125082492828369,687.5,5638.080078125,16275.740234375,-400000.0625,-400000.0625,-400000.0625,-400000.0625,-400000.0625
3.125086545944214,693.9400024414062,5642.02978515625,16278.7900390625,-400000.0625,-400000.0625,-400000.0625,-400000.0625,-400000.0625
3.1250908374786377,688.739990234375,5639.93994140625,16274.98046875,-400000.0625,-400000.0625,-400000.0625,-400000.0625,-400000.0625
3.1838719844818115,687.5999755859375,5641.1298828125,16277.2197265625,-400000.0625,-400000.0625,-400000.0625,-400000.0625,-400000.0625
3.18879771232605,685.3599853515625,5641.509765625,16278.080078125,-400000.0625,-400000.0625,-400000.0625,-400000.0625,-400000.0625
3.188804864883423,680.5900268554688,5638.5,16276.98046875,-400000.0625,-400000.0625,-400000.0625,-400000.0625,-400000.0625
3.188809394836426,681.5,5642.22021484375,16281.8896484375,-400000.0625,-400000.0625,-400000.0625,-400000.0625,-400000.0625
3.1888129711151123,682.8800048828125,5643.509765625,16282.3203125,-400000.0625,-400000.0625,-400000.0625,-400000.0625,-400000.0625
3.1888163089752197,681.1099853515625,5649.0,16285.7998046875,-400000.0625,-400000.0625,-400000.0625,-400000.0625,-400000.0625
3.1888198852539062,678.25,5648.7998046875,16285.330078125,-400000.0625,-400000.0625,-400000.0625,-400000.0625,-400000.0625
3.1888234615325928,679.489990234375,5645.89990234375,16284.1298828125,-400000.0625,-400000.0625,-400000.0625,-400000.0625,-400000.0625
3.1888267993927,676.2999877929688,5651.89990234375,16287.1904296875,-400000.0625,-400000.0625,-400000.0625,-400000.0625,-400000.0625
3.1888298988342285,674.530029296875,5650.27978515625,16283.4697265625,-400000.0625,-400000.0625,-400000.0625,-400000.0625,-400000.0625
3.188833236694336,677.25,5649.27978515625,16280.6103515625,-400000.0625,-400000.0625,-400000.0625,-400000.0625,-400000.0625
3.1888365745544434,677.010009765625,5645.89990234375,16279.8896484375,-400000.0625,-400000.0625,-400000.0625,-400000.0625,-400000.0625
3.188842535018921,679.6799926757812,5645.89990234375,16281.6103515625,-400000.0625,-400000.0625,-400000.0625,-400000.0625,-400000.0625
3.1888461112976074,688.5999755859375,5656.91015625,16290.5703125,-400000.0625,-400000.0625,-400000.0625,-400000.0625,-400000.0625
3.188850164413452,685.1199951171875,5652.330078125,16288.9501953125,-400000.0625,-400000.0625,-400000.0625,-400000.0625,-400000.0625
3.1888535022735596,672.2899780273438,5632.77978515625,16277.98046875,-400000.0625,-400000.0625,-400000.0625,-400000.0625,-400000.0625
3.2312092781066895,668.3400268554688,5638.31005859375,16284.0400390625,-400000.0625,-400000.0625,-400000.0625,-400000.0625,-400000.0625
3.2417376041412354,665.6199951171875,5658.52978515625,16297.9599609375,-400000.0625,-400000.0625,-400000.0625,-400000.0625,-400000.0625
3.247394561767578,666.9500122070312,5672.31005859375,16312.650390625,-400000.0625,-400000.0625,-400000.0625,-400000.0625,-400000.0625
3.252967119216919,668.1900024414062,5678.85009765625,16321.849609375,-400000.0625,-400000.0625,-400000.0625,-400000.0625,-400000.0625
3.258460283279419,661.469970703125,5685.47021484375,16327.0498046875,-400000.0625,-400000.0625,-400000.0625,-400000.0625,-400000.0625
3.2642862796783447,649.3099975585938,5677.22021484375,16323.51953125,-400000.0625,-400000.0625,-400000.0625,-400000.0625,-400000.0625
3.269404411315918,641.72998046875,5666.58984375,16326.1396484375,-400000.0625,-400000.0625,-400000.0625,-400000.0625,-400000.0625
3.2755744457244873,647.02001953125,5674.509765625,16340.9296875,-400000.0625,-400000.0625,-400000.0625,-400000.0625,-400000.0625
3.280587911605835,648.5900268554688,5683.0400390625,16346.1201171875,-400000.0625,-400000.0625,-400000.0625,-400000.0625,-400000.0625
3.2858996391296387,645.6900024414062,5682.52001953125,16345.5498046875,-400000.0625,-400000.0625,-400000.0625,-400000.0625,-400000.0625
3.29050350189209,645.5900268554688,5683.330078125,16346.1201171875,-400000.0625,-400000.0625,-400000.0625,-400000.0625,-400000.0625
3.2905120849609375,645.8300170898438,5682.14013671875,16343.8798828125,-400000.0625,-400000.0625,-400000.0625,-400000.0625,-400000.0625
3.2905168533325195,650.9299926757812,5686.27978515625,16346.83984375,-400000.0625,-400000.0625,-400000.0625,-400000.0625,-400000.0625
3.2905209064483643,652.4600219726562,5690.9599609375,16350.3203125,-400000.0625,-400000.0625,-400000.0625,-400000.0625,-400000.0625
3.29052472114563,650.4099731445312,5690.10009765625,16348.98046875,-400000.0625,-400000.0625,-400000.0625,-400000.0625,-400000.0625
3.2905290126800537,645.5399780273438,5683.08984375,16343.0703125,-400000.0625,-400000.0625,-400000.0625,-400000.0625,-400000.0625
3.3087539672851562,646.0700073242188,5682.990234375,16344.7900390625,-400000.0625,-400000.0625,-400000.0625,-400000.0625,-400000.0625
3.3138833045959473,648.739990234375,5686.47021484375,16348.4599609375,-400000.0625,-400000.0625,-400000.0625,-400000.0625,-400000.0625
3.3190758228302,647.260009765625,5690.81005859375,16350.0302734375,-400000.0625,-400000.0625,-400000.0625,-400000.0625,-400000.0625
3.323904514312744,647.260009765625,5690.33984375,16347.9296875,-400000.0625,-400000.0625,-400000.0625,-400000.0625,-400000.0625
3.323913335800171,640.6799926757812,5685.0400390625,16345.740234375,-400000.0625,-400000.0625,-400000.0625,-400000.0625,-400000.0625
3.3239176273345947,631.1400146484375,5675.02978515625,16338.16015625,-400000.0625,-400000.0625,-400000.0625,-400000.0625,-400000.0625
3.3239216804504395,629.1900024414062,5682.52001953125,16345.3603515625,-400000.0625,-400000.0625,-400000.0625,-400000.0625,-400000.0625
3.323925495147705,634.1500244140625,5692.52978515625,16351.0302734375,-400000.0625,-400000.0625,-400000.0625,-400000.0625,-400000.0625
3.32392954826355,637.1500244140625,5688.85986328125,16345.6904296875,-400000.0625,-400000.0625,-400000.0625,-400000.0625,-400000.0625
3.3239338397979736,635.4299926757812,5685.7099609375,16344.9296875,-400000.0625,-400000.0625,-400000.0625,-400000.0625,-400000.0625
3.3239376544952393,631.3300170898438,5683.419921875,16346.0302734375,-400000.0625,-400000.0625,-400000.0625,-400000.0625,-400000.0625
3.323941469192505,636.77001953125,5687.759765625,16350.7001953125,-400000.0625,-400000.0625,-400000.0625,-400000.0625,-400000.0625
3.3239524364471436,633.8599853515625,5688.330078125,16349.650390625,-400000.0625,-400000.0625,-400000.0625,-400000.0625,-400000.0625
3.323956251144409,634.4299926757812,5689.33984375,16348.8896484375,-400000.0625,-400000.0625,-400000.0625,-400000.0625,-400000.0625
3.323960065841675,636.239990234375,5691.0,16351.1298828125,-400000.0625,-400000.0625,-400000.0625,-400000.0625,-400000.0625
3.3239645957946777,637.3400268554688,5687.9501953125,16348.83984375,-400000.0625,-400000.0625,-400000.0625,-400000.0625,-400000.0625
3.360762357711792,639.9600219726562,5688.3798828125,16350.75,-400000.0625,-400000.0625,-400000.0625,-400000.0625,-400000.0625
3.3717198371887207,639.6799926757812,5690.33984375,16349.9404296875,-400000.0625,-400000.0625,-400000.0625,-400000.0625,-400000.0625
3.3774988651275635,636.1500244140625,5689.33984375,16349.169921875,-400000.0625,-400000.0625,-400000.0625,-400000.0625,-400000.0625
3.3824567794799805,629.7100219726562,5686.08984375,16346.98046875,-400000.0625,-400000.0625,-400000.0625,-400000.0625,-400000.0625
3.3824665546417236,626.5599975585938,5676.31982421875,16342.4501953125,-400000.0625,-400000.0625,-400000.0625,-400000.0625,-400000.0625
3.382471799850464,629.7100219726562,5686.0498046875,16351.6103515625,-400000.0625,-400000.0625,-400000.0625,-400000.0625,-400000.0625
3.3824760913848877,637.4400024414062,5693.25,16357.6103515625,-400000.0625,-400000.0625,-400000.0625,-400000.0625,-400000.0625
3.3824803829193115,640.6799926757812,5691.43017578125,16352.849609375,-400000.0625,-400000.0625,-400000.0625,-400000.0625,-400000.0625
3.3824844360351562,631.0,5684.89990234375,16347.26953125,-400000.0625,-400000.0625,-400000.0625,-400000.0625,-400000.0625
3.38248872756958,631.280029296875,5684.52001953125,16348.8896484375,-400000.0625,-400000.0625,-400000.0625,-400000.0625,-400000.0625
3.382500648498535,637.719970703125,5691.669921875,16357.6103515625,-400000.0625,-400000.0625,-400000.0625,-400000.0625,-400000.0625
3.38250470161438,637.1500244140625,5689.43017578125,16354.1796875,-400000.0625,-400000.0625,-400000.0625,-400000.0625,-400000.0625
3.3881137371063232,638.4400024414062,5688.330078125,16352.5595703125,-400000.0625,-400000.0625,-400000.0625,-400000.0625,-400000.0625
3.393136978149414,635.6699829101562,5681.7998046875,16347.7001953125,-400000.0625,-400000.0625,-400000.0625,-400000.0625,-400000.0625
3.398890256881714,631.760009765625,5683.85009765625,16349.26953125,-400000.0625,-400000.0625,-400000.0625,-400000.0625,-400000.0625
3.4100358486175537,635.4299926757812,5685.9501953125,16350.080078125,-400000.0625,-400000.0625,-400000.0625,-400000.0625,-400000.0625
3.4198408126831055,638.2899780273438,5687.52001953125,16353.419921875,-400000.0625,-400000.0625,-400000.0625,-400000.0625,-400000.0625
3.427126169204712,645.8300170898438,5689.52978515625,16353.4697265625,-400000.0625,-400000.0625,-400000.0625,-400000.0625,-400000.0625
3.4320502281188965,642.489990234375,5680.7001953125,16346.5,-400000.0625,-400000.0625,-400000.0625,-400000.0625,-400000.0625
3.432058334350586,635.9099731445312,5673.5,16340.1103515625,-400000.0625,-400000.0625,-400000.0625,-400000.0625,-400000.0625
3.432063102722168,639.489990234375,5681.31982421875,16346.650390625,-400000.0625,-400000.0625,-400000.0625,-400000.0625,-400000.0625
3.4320669174194336,648.0700073242188,5681.52001953125,16348.8896484375,-400000.0625,-400000.0625,-400000.0625,-400000.0625,-400000.0625
3.432070732116699,642.010009765625,5675.509765625,16343.7900390625,-400000.0625,-400000.0625,-400000.0625,-400000.0625,-400000.0625
3.432074546813965,633.530029296875,5660.490234375,16338.01953125,-400000.0625,-400000.0625,-400000.0625,-400000.0625,-400000.0625
3.4320781230926514,637.47998046875,5657.52978515625,16336.0595703125,-400000.0625,-400000.0625,-400000.0625,-400000.0625,-400000.0625
3.432089328765869,660.7999877929688,5665.39990234375,16329.3896484375,-400000.0625,-400000.0625,-400000.0625,-400000.0625,-400000.0625
3.4320931434631348,666.1900024414062,5668.02001953125,16320.2802734375,-400000.0625,-400000.0625,-400000.0625,-400000.0625,-400000.0625
3.4320967197418213,667.6199951171875,5663.009765625,16308.400390625,-400000.0625,-400000.0625,-400000.0625,-400000.0625,-400000.0625
3.432100772857666,670.2899780273438,5646.75,16287.51953125,-400000.0625,-400000.0625,-400000.0625,-400000.0625,-400000.0625
3.4321272373199463,675.1500244140625,5637.83984375,16272.830078125,-400000.0625,-400000.0625,-400000.0625,-400000.0625,-400000.0625
3.4321324825286865,689.7899780273438,5645.93994140625,16272.400390625,-400000.0625,-400000.0625,-400000.0625,-400000.0625,-400000.0625
3.4375791549682617,697.469970703125,5656.39013671875,16274.83984375,-400000.0625,-400000.0625,-400000.0625,-400000.0625,-400000.0625
3.4847054481506348,692.75,5648.759765625,16262.76953125,-400000.0625,-400000.0625,-400000.0625,-400000.0625,-400000.0625
3.49639630317688,688.739990234375,5637.4599609375,16252.7099609375,-400000.0625,-400000.0625,-400000.0625,-400000.0625,-400000.0625
3.5074832439422607,691.219970703125,5637.64990234375,16255.51953125,-400000.0625,-400000.0625,-400000.0625,-400000.0625,-400000.0625
3.512604236602783,698.280029296875,5645.419921875,16261.6298828125,-400000.0625,-400000.0625,-400000.0625,-400000.0625,-400000.0625
3.51728892326355,700.0399780273438,5644.60986328125,16260.91015625,-400000.0625,-400000.0625,-400000.0625,-400000.0625,-400000.0625
3.5172982215881348,701.280029296875,5642.22021484375,16256.2900390625,-400000.0625,-400000.0625,-400000.0625,-400000.0625,-400000.0625
3.5173027515411377,694.6599731445312,5639.4599609375,16251.3798828125,-400000.0625,-400000.0625,-400000.0625,-400000.0625,-400000.0625
3.5173070430755615,697.7999877929688,5639.22021484375,16254.0498046875,-400000.0625,-400000.0625,-400000.0625,-400000.0625,-400000.0625
3.517310857772827,701.52001953125,5644.3701171875,16261.0595703125,-400000.0625,-400000.0625,-400000.0625,-400000.0625,-400000.0625
3.517314910888672,700.52001953125,5646.18017578125,16262.580078125,-400000.0625,-400000.0625,-400000.0625,-400000.0625,-400000.0625
3.5173184871673584,700.280029296875,5641.169921875,16257.6201171875,-400000.0625,-400000.0625,-400000.0625,-400000.0625,-400000.0625
3.517322063446045,692.030029296875,5632.830078125,16251.419921875,-400000.0625,-400000.0625,-400000.0625,-400000.0625,-400000.0625
3.5173256397247314,687.5,5630.5400390625,16249.6103515625,-400000.0625,-400000.0625,-400000.0625,-400000.0625,-400000.0625
3.517329454421997,696.469970703125,5641.080078125,16255.0,-400000.0625,-400000.0625,-400000.0625,-400000.0625,-400000.0625
3.5173332691192627,696.989990234375,5644.60986328125,16258.5302734375,-400000.0625,-400000.0625,-400000.0625,-400000.0625,-400000.0625
3.5173370838165283,696.52001953125,5642.7001953125,16255.0,-400000.0625,-400000.0625,-400000.0625,-400000.0625,-400000.0625
3.5591821670532227,691.8400268554688,5638.31005859375,16251.1396484375,-400000.0625,-400000.0625,-400000.0625,-400000.0625,-400000.0625
3.5641541481018066,690.8400268554688,5636.22021484375,16254.3798828125,-400000.0625,-400000.0625,-400000.0625,-400000.0625,-400000.0625
3.5641634464263916,693.6099853515625,5638.5498046875,16255.51953125,-400000.0625,-400000.0625,-400000.0625,-400000.0625,-400000.0625
3.5641677379608154,690.4600219726562,5642.02978515625,16259.0498046875,-400000.0625,-400000.0625,-400000.0625,-400000.0625,-400000.0625
3.564171552658081,686.9299926757812,5637.1201171875,16255.4296875,-400000.0625,-400000.0625,-400000.0625,-400000.0625,-400000.0625
3.5641748905181885,673.9600219726562,5624.68017578125,16245.4599609375,-400000.0625,-400000.0625,-400000.0625,-400000.0625,-400000.0625
3.564178705215454,670.5800170898438,5621.2001953125,16246.0302734375,-400000.0625,-400000.0625,-400000.0625,-400000.0625,-400000.0625
3.5641822814941406,674.2000122070312,5626.97021484375,16252.4697265625,-400000.0625,-400000.0625,-400000.0625,-400000.0625,-400000.0625
3.564185857772827,674.719970703125,5631.4501953125,16254.8095703125,-400000.0625,-400000.0625,-400000.0625,-400000.0625,-400000.0625
3.5641894340515137,677.2000122070312,5631.35009765625,16252.419921875,-400000.0625,-400000.0625,-400000.0625,-400000.0625,-400000.0625
3.5641932487487793,677.3499755859375,5623.009765625,16246.1298828125,-400000.0625,-400000.0625,-400000.0625,-400000.0625,-400000.0625
3.5688345432281494,673.2000122070312,5617.2900390625,16241.83984375,-400000.0625,-400000.0625,-400000.0625,-400000.0625,-400000.0625
3.568843364715576,672.2000122070312,5620.85986328125,16245.1796875,-400000.0625,-400000.0625,-400000.0625,-400000.0625,-400000.0625
3.56884765625,681.2100219726562,5631.8798828125,16255.2900390625,-400000.0625,-400000.0625,-400000.0625,-400000.0625,-400000.0625
3.568857192993164,677.3499755859375,5625.81982421875,16251.759765625,-400000.0625,-400000.0625,-400000.0625,-400000.0625,-400000.0625
3.5688610076904297,669.1900024414062,5611.7099609375,16240.98046875,-400000.0625,-400000.0625,-400000.0625,-400000.0625,-400000.0625
3.6147825717926025,669.2899780273438,5608.93994140625,16238.7900390625,-400000.0625,-400000.0625,-400000.0625,-400000.0625,-400000.0625
3.6238327026367188,666.4299926757812,5607.7998046875,16235.5,-400000.0625,-400000.0625,-400000.0625,-400000.0625,-400000.0625
3.6288578510284424,666.760009765625,5614.3798828125,16239.0302734375,-400000.0625,-400000.0625,-400000.0625,-400000.0625,-400000.0625
3.633833885192871,668.5700073242188,5623.47998046875,16247.4697265625,-400000.0625,-400000.0625,-400000.0625,-400000.0625,-400000.0625
3.633843421936035,667.1400146484375,5616.43017578125,16243.509765625,-400000.0625,-400000.0625,-400000.0625,-400000.0625,-400000.0625
3.6338865756988525,663.6599731445312,5612.27978515625,16241.26953125,-400000.0625,-400000.0625,-400000.0625,-400000.0625,-400000.0625
3.639024496078491,665.6199951171875,5612.330078125,16243.3603515625,-400000.0625,-400000.0625,-400000.0625,-400000.0625,-400000.0625
3.644148826599121,669.0499877929688,5613.60986328125,16244.599609375,-400000.0625,-400000.0625,-400000.0625,-400000.0625,-400000.0625
3.649001121520996,674.8699951171875,5614.18994140625,16244.650390625,-400000.0625,-400000.0625,-400000.0625,-400000.0625,-400000.0625
3.649010181427002,671.77001953125,5612.52001953125,16243.2197265625,-400000.0625,-400000.0625,-400000.0625,-400000.0625,-400000.0625
