time,ch1,ch2,ch3,ch4,ch5,ch6,ch7,ch8
191.3546462059021,1435.6600341796875,-7821.85009765625,-2508.68994140625,-371927.71875,-12805.9404296875,-400000.0625,-356307.875,-400000.0625
191.37450790405273,1421.2099609375,-7842.10986328125,-2525.18994140625,-371593.0,-12826.349609375,-400000.0625,-355778.375,-400000.0625
191.39473390579224,1425.9300537109375,-7837.2001953125,-2520.56005859375,-371413.75,-12820.0498046875,-400000.0625,-355569.75,-400000.0625
191.42435550689697,1441.6700439453125,-7817.7001953125,-2504.2099609375,-371639.71875,-12807.900390625,-400000.0625,-355980.625,-400000.0625
191.48332977294922,1450.06005859375,-7809.93017578125,-2498.25,-371959.6875,-12810.4697265625,-400000.0625,-356447.125,-400000.0625
191.51410222053528,1434.6099853515625,-7827.9501953125,-2513.64990234375,-371930.75,-12813.669921875,-400000.0625,-356335.875,-400000.0625
191.5462362766266,1418.969970703125,-7839.77978515625,-2525.760009765625,-371599.34375,-12822.7197265625,-400000.0625,-355805.6875,-400000.0625
191.59538984298706,1427.1300048828125,-7830.0498046875,-2518.27001953125,-371419.03125,-12814.330078125,-400000.0625,-355595.71875,-400000.0625
191.6276032924652,1440.949951171875,-7819.18017578125,-2502.679931640625,-371644.59375,-12801.740234375,-400000.0625,-356005.5625,-400000.0625
191.65535640716553,1449.43994140625,-7812.06982421875,-2495.18994140625,-371962.4375,-12797.7900390625,-400000.0625,-356470.71875,-400000.0625
191.7212851047516,1437.1400146484375,-7823.18017578125,-2505.830078125,-371936.78125,-12798.4501953125,-400000.0625,-356364.625,-400000.0625
191.74744153022766,1428.56005859375,-7831.91015625,-2514.030029296875,-371607.3125,-12804.1298828125,-400000.0625,-355834.96875,-400000.0625
191.78654885292053,1435.760009765625,-7829.43017578125,-2514.739990234375,-371429.3125,-12812.1396484375,-400000.0625,-355622.5625,-400000.0625
191.85739946365356,1451.5400390625,-7819.22021484375,-2503.8701171875,-371652.3125,-12809.330078125,-400000.0625,-356031.96875,-400000.0625
191.88932871818542,1457.31005859375,-7809.02001953125,-2496.820068359375,-371972.9375,-12808.75,-400000.0625,-356500.0625,-400000.0625
191.96331405639648,1443.9100341796875,-7820.56005859375,-2505.2099609375,-371946.1875,-12814.9501953125,-400000.0625,-356390.9375,-400000.0625
191.9914150238037,1429.4100341796875,-7840.72998046875,-2522.56005859375,-371617.3125,-12837.3203125,-400000.0625,-355861.3125,-400000.0625
192.04610872268677,1431.3699951171875,-7836.10009765625,-2520.0400390625,-371436.125,-12837.1298828125,-400000.0625,-355650.40625,-400000.0625
192.07815504074097,1449.25,-7817.60009765625,-2500.72998046875,-371660.375,-12788.580078125,-400000.0625,-356061.84375,-400000.0625
192.10990691184998,1455.739990234375,-7810.1201171875,-2494.340087890625,-371978.03125,-12775.990234375,-400000.0625,-356528.0,-400000.0625
192.16184639930725,1437.3800048828125,-7828.52001953125,-2514.840087890625,-371952.78125,-12803.8896484375,-400000.0625,-356421.09375,-400000.0625
192.19586062431335,1424.27001953125,-7839.58984375,-2524.22998046875,-371620.78125,-12813.7099609375,-400000.0625,-355888.375,-400000.0625
192.23482537269592,1435.469970703125,-7823.9501953125,-2511.219970703125,-371440.9375,-12806.26953125,-400000.0625,-355673.9375,-400000.0625
192.28904056549072,1446.3399658203125,-7815.41015625,-2502.25,-371661.65625,-12810.759765625,-400000.0625,-356082.15625,-400000.0625
192.32410383224487,1446.719970703125,-7815.7900390625,-2500.340087890625,-371981.34375,-12801.8896484375,-400000.0625,-356552.21875,-400000.0625
192.35083532333374,1432.800048828125,-7827.330078125,-2514.7900390625,-371955.875,-12821.0595703125,-400000.0625,-356445.4375,-400000.0625
192.394921541214,1424.4100341796875,-7832.81005859375,-2522.89990234375,-371628.40625,-12831.8798828125,-400000.0625,-355915.3125,-400000.0625
192.42851042747498,1437.3800048828125,-7822.85009765625,-2510.260009765625,-371444.65625,-12814.9501953125,-400000.0625,-355698.59375,-400000.0625
192.45390391349792,1452.780029296875,-7811.31005859375,-2499.6298828125,-371665.0,-12799.599609375,-400000.0625,-356109.03125,-400000.0625
192.51496171951294,1447.25,-7812.1201171875,-2499.6298828125,-371983.90625,-12789.349609375,-400000.0625,-356578.125,-400000.0625
192.5445318222046,1433.800048828125,-7824.66015625,-2512.8798828125,-371960.625,-12799.83984375,-400000.0625,-356472.5,-400000.0625
192.57213020324707,1425.6500244140625,-7840.06005859375,-2524.659912109375,-371631.53125,-12825.7802734375,-400000.0625,-355938.09375,-400000.0625
192.63372707366943,1430.3199462890625,-7831.0498046875,-2515.64990234375,-371450.1875,-12822.6298828125,-400000.0625,-355721.65625,-400000.0625
192.66901087760925,1445.5799560546875,-7812.4501953125,-2500.919921875,-371670.875,-12800.599609375,-400000.0625,-356130.15625,-400000.0625
192.69939517974854,1446.9599609375,-7815.93017578125,-2503.25,-371992.625,-12794.8798828125,-400000.0625,-356602.71875,-400000.0625
192.76181387901306,1436.760009765625,-7828.43017578125,-2515.030029296875,-371966.9375,-12811.23046875,-400000.0625,-356495.84375,-400000.0625
192.79236960411072,1429.219970703125,-7829.240234375,-2514.080078125,-371636.46875,-12827.7802734375,-400000.0625,-355963.03125,-400000.0625
192.83170223236084,1429.1300048828125,-7829.56982421875,-2512.8798828125,-371453.40625,-12815.669921875,-400000.0625,-355745.9375,-400000.0625
192.8875696659088,1444.010009765625,-7816.080078125,-2502.159912109375,-371676.125,-12790.6298828125,-400000.0625,-356155.625,-400000.0625
192.92509055137634,1443.6199951171875,-7813.64990234375,-2498.820068359375,-371996.03125,-12794.830078125,-400000.0625,-356626.46875,-400000.0625
192.95584893226624,1432.93994140625,-7825.7099609375,-2513.889892578125,-371974.6875,-12809.4697265625,-400000.0625,-356524.8125,-400000.0625
193.0059940814972,1422.739990234375,-7834.85986328125,-2522.89990234375,-371644.59375,-12823.8701171875,-400000.0625,-355992.6875,-400000.0625
193.03607368469238,1427.4599609375,-7826.08984375,-2514.169921875,-371463.90625,-12817.8603515625,-400000.0625,-355777.5,-400000.0625
193.05750012397766,1445.9599609375,-7806.64013671875,-2493.719970703125,-371682.125,-12795.1201171875,-400000.0625,-356183.65625,-400000.0625
193.1165256500244,1451.8699951171875,-7804.25,-2490.81005859375,-372003.78125,-12797.4501953125,-400000.0625,-356654.25,-400000.0625
193.14126348495483,1439.4300537109375,-7817.7001953125,-2505.159912109375,-371981.125,-12807.66015625,-400000.0625,-356548.5,-400000.0625
193.16597843170166,1424.1700439453125,-7830.9501953125,-2515.97998046875,-371653.21875,-12814.5703125,-400000.0625,-356017.875,-400000.0625
193.22648096084595,1431.4200439453125,-7826.6201171875,-2512.739990234375,-371467.90625,-12810.1796875,-400000.0625,-355799.5625,-400000.0625
193.25804495811462,1447.25,-7814.35986328125,-2499.8701171875,-371687.40625,-12795.2099609375,-400000.0625,-356205.46875,-400000.0625
193.28782320022583,1446.25,-7808.77978515625,-2496.10009765625,-372005.65625,-12799.41015625,-400000.0625,-356674.28125,-400000.0625
193.34033131599426,1434.469970703125,-7817.35986328125,-2506.68994140625,-371984.5625,-12810.66015625,-400000.0625,-356572.875,-400000.0625
193.36410975456238,1423.31005859375,-7831.52978515625,-2517.56005859375,-371656.84375,-12811.0400390625,-400000.0625,-356041.25,-400000.0625
193.39017748832703,1428.27001953125,-7825.22998046875,-2510.739990234375,-371474.21875,-12805.3203125,-400000.0625,-355823.625,-400000.0625
193.4378433227539,1450.5899658203125,-7801.10009765625,-2488.89990234375,-371691.875,-12788.009765625,-400000.0625,-356229.5,-400000.0625
193.4603569507599,1459.5,-7797.81005859375,-2483.419921875,-372014.03125,-12789.7802734375,-400000.0625,-356703.84375,-400000.0625
193.49027562141418,1442.47998046875,-7816.4599609375,-2502.6298828125,-371993.90625,-12800.650390625,-400000.0625,-356602.8125,-400000.0625
193.5557107925415,1426.510009765625,-7829.18994140625,-2518.610107421875,-371667.09375,-12818.5302734375,-400000.0625,-356071.375,-400000.0625
193.58006167411804,1424.8399658203125,-7828.3798828125,-2519.699951171875,-371482.40625,-12830.1201171875,-400000.0625,-355850.84375,-400000.0625
193.6016490459442,1443.47998046875,-7811.97998046875,-2502.06005859375,-371705.375,-12813.240234375,-400000.0625,-356255.125,-400000.0625
193.6480951309204,1445.199951171875,-7802.14990234375,-2495.909912109375,-372026.78125,-12804.0302734375,-400000.0625,-356726.03125,-400000.0625
193.67467784881592,1438.6700439453125,-7813.93017578125,-2503.969970703125,-372009.1875,-12806.9404296875,-400000.0625,-356629.0,-400000.0625
193.69411063194275,1430.3199462890625,-7826.419921875,-2512.97998046875,-371679.3125,-12808.6103515625,-400000.0625,-356098.78125,-400000.0625
193.72521686553955,1433.9000244140625,-7824.7099609375,-2510.7900390625,-371494.53125,-12800.4599609375,-400000.0625,-355878.96875,-400000.0625
193.7786808013916,1444.239990234375,-7813.740234375,-2501.77001953125,-371714.15625,-12792.259765625,-400000.0625,-356280.875,-400000.0625
193.80591201782227,1444.6300048828125,-7811.93017578125,-2499.010009765625,-372037.875,-12793.349609375,-400000.0625,-356753.34375,-400000.0625
193.83313918113708,1429.699951171875,-7823.7998046875,-2513.219970703125,-372019.53125,-12808.08984375,-400000.0625,-356656.84375,-400000.0625
193.8918170928955,1423.739990234375,-7829.0498046875,-2522.3701171875,-371695.28125,-12821.4404296875,-400000.0625,-356130.125,-400000.0625
193.9281826019287,1430.93994140625,-7828.669921875,-2516.320068359375,-371510.0625,-12822.6298828125,-400000.0625,-355909.5,-400000.0625
193.95986580848694,1445.9599609375,-7812.31005859375,-2498.43994140625,-371729.375,-12799.259765625,-400000.0625,-356308.6875,-400000.0625
194.02236676216125,1449.300048828125,-7811.68994140625,-2501.5400390625,-372051.71875,-12804.080078125,-400000.0625,-356777.28125,-400000.0625
194.05383944511414,1437.0400390625,-7823.330078125,-2516.1298828125,-372036.4375,-12833.169921875,-400000.0625,-356682.15625,-400000.0625
194.0811848640442,1433.0400390625,-7831.669921875,-2522.800048828125,-371709.8125,-12822.33984375,-400000.0625,-356152.53125,-400000.0625
194.14385986328125,1434.1400146484375,-7828.6201171875,-2519.320068359375,-371528.0,-12795.7802734375,-400000.0625,-355931.28125,-400000.0625
194.17312264442444,1449.1600341796875,-7814.64990234375,-2504.780029296875,-371747.15625,-12788.580078125,-400000.0625,-356328.28125,-400000.0625
194.20561456680298,1455.02001953125,-7807.5400390625,-2498.530029296875,-372070.3125,-12792.259765625,-400000.0625,-356798.96875,-400000.0625
194.27166032791138,1446.2900390625,-7818.31982421875,-2509.2099609375,-372053.875,-12809.0400390625,-400000.0625,-356701.28125,-400000.0625
194.2954568862915,1434.760009765625,-7829.3798828125,-2521.56005859375,-371727.5625,-12832.740234375,-400000.0625,-356175.65625,-400000.0625
194.33568787574768,1433.0400390625,-7829.669921875,-2523.949951171875,-371541.15625,-12815.4296875,-400000.0625,-355952.59375,-400000.0625
194.386981010437,1454.31005859375,-7806.64013671875,-2498.43994140625,-371760.28125,-12791.5400390625,-400000.0625,-356351.3125,-400000.0625
194.42138385772705,1458.5,-7805.8701171875,-2496.199951171875,-372084.1875,-12806.4599609375,-400000.0625,-356819.375,-400000.0625
194.45220232009888,1443.4300537109375,-7814.27001953125,-2508.449951171875,-372068.84375,-12810.900390625,-400000.0625,-356723.53125,-400000.0625
194.51891350746155,1433.1300048828125,-7826.3798828125,-2521.280029296875,-371741.59375,-12813.4697265625,-400000.0625,-356197.90625,-400000.0625
194.55636596679688,1436.0,-7832.33984375,-2522.090087890625,-371555.46875,-12821.6298828125,-400000.0625,-355976.1875,-400000.0625
194.61199259757996,1455.2099609375,-7809.35009765625,-2502.300048828125,-371770.53125,-12804.9404296875,-400000.0625,-356368.78125,-400000.0625
194.64522552490234,1459.4599609375,-7804.25,-2496.530029296875,-372092.25,-12796.9296875,-400000.0625,-356837.21875,-400000.0625
194.68016171455383,1446.9100341796875,-7814.97998046875,-2508.969970703125,-372072.875,-12790.6298828125,-400000.0625,-356741.9375,-400000.0625
194.73451685905457,1434.469970703125,-7831.0,-2525.429931640625,-371745.90625,-12810.4697265625,-400000.0625,-356218.5625,-400000.0625
194.7607343196869,1437.1400146484375,-7831.2900390625,-2519.4599609375,-371558.8125,-12815.099609375,-400000.0625,-355996.9375,-400000.0625
194.788831949234,1458.550048828125,-7808.259765625,-2496.530029296875,-371775.09375,-12794.16015625,-400000.0625,-356392.65625,-400000.0625
194.85607862472534,1460.699951171875,-7804.97021484375,-2495.669921875,-372096.375,-12793.01953125,-400000.0625,-356860.0,-400000.0625
194.88855576515198,1447.25,-7818.75,-2508.830078125,-372083.21875,-12803.41015625,-400000.0625,-356769.1875,-400000.0625
194.923415184021,1431.56005859375,-7833.33984375,-2524.469970703125,-371758.09375,-12819.76953125,-400000.0625,-356247.1875,-400000.0625
194.9793496131897,1436.6600341796875,-7829.08984375,-2519.419921875,-371572.59375,-12814.4296875,-400000.0625,-356025.21875,-400000.0625
195.00762295722961,1451.2099609375,-7812.5498046875,-2505.489990234375,-371787.53125,-12797.4501953125,-400000.0625,-356416.21875,-400000.0625
195.0313949584961,1458.550048828125,-7810.68994140625,-2502.489990234375,-372111.28125,-12801.509765625,-400000.0625,-356882.9375,-400000.0625
195.09571313858032,1444.77001953125,-7821.93994140625,-2514.360107421875,-372095.4375,-12807.900390625,-400000.0625,-356791.25,-400000.0625
195.1345672607422,1429.8399658203125,-7832.240234375,-2524.280029296875,-371768.28125,-12809.9501953125,-400000.0625,-356269.25,-400000.0625
195.20067715644836,1441.239990234375,-7829.0498046875,-2520.510009765625,-371579.96875,-12812.4296875,-400000.0625,-356047.0625,-400000.0625
195.23543620109558,1458.1199951171875,-7810.16015625,-2502.6298828125,-371795.03125,-12808.2802734375,-400000.0625,-356439.71875,-400000.0625
195.2929015159607,1461.3199462890625,-7805.2099609375,-2497.2900390625,-372117.03125,-12807.7998046875,-400000.0625,-356905.5,-400000.0625
195.3258776664734,1448.06005859375,-7821.1298828125,-2511.449951171875,-372104.3125,-12804.5595703125,-400000.0625,-356816.875,-400000.0625
195.34857082366943,1431.22998046875,-7834.580078125,-2525.760009765625,-371776.71875,-12812.8095703125,-400000.0625,-356295.6875,-400000.0625
195.3997039794922,1434.3699951171875,-7831.77001953125,-2523.85009765625,-371586.03125,-12803.7900390625,-400000.0625,-356072.375,-400000.0625
195.42696976661682,1456.550048828125,-7812.2099609375,-2504.2099609375,-371799.5625,-12788.33984375,-400000.0625,-356461.90625,-400000.0625
195.45118594169617,1464.699951171875,-7803.6298828125,-2494.760009765625,-372125.25,-12785.009765625,-400000.0625,-356930.0,-400000.0625
195.50067496299744,1444.199951171875,-7822.93994140625,-2512.550048828125,-372111.65625,-12796.169921875,-400000.0625,-356841.0,-400000.0625
195.53101921081543,1434.469970703125,-7831.10009765625,-2521.469970703125,-371785.3125,-12813.8095703125,-400000.0625,-356323.34375,-400000.0625
195.56659984588623,1451.2099609375,-7816.83984375,-2507.8798828125,-371594.84375,-12808.75,-400000.0625,-356096.9375,-400000.0625
195.6220874786377,1456.5,-7809.31005859375,-2500.14990234375,-371808.75,-12807.66015625,-400000.0625,-356486.46875,-400000.0625
195.65239000320435,1458.5999755859375,-7809.2099609375,-2499.6298828125,-372131.90625,-12804.3203125,-400000.0625,-356954.09375,-400000.0625
195.6860466003418,1447.1099853515625,-7820.27001953125,-2511.929931640625,-372120.28125,-12806.0400390625,-400000.0625,-356867.875,-400000.0625
195.75135970115662,1436.280029296875,-7828.9501953125,-2524.090087890625,-371793.65625,-12814.0498046875,-400000.0625,-356348.46875,-400000.0625
195.77423930168152,1442.9599609375,-7823.419921875,-2518.93994140625,-371605.71875,-12811.4697265625,-400000.0625,-356122.625,-400000.0625
195.7986056804657,1462.27001953125,-7809.39990234375,-2500.580078125,-371818.125,-12795.7802734375,-400000.0625,-356507.3125,-400000.0625
195.85498428344727,1462.3199462890625,-7798.39013671875,-2491.669921875,-372144.40625,-12788.5400390625,-400000.0625,-356976.5,-400000.0625
195.8864026069641,1439.6700439453125,-7819.080078125,-2513.169921875,-372132.53125,-12806.9404296875,-400000.0625,-356889.0,-400000.0625
195.92180633544922,1427.699951171875,-7840.009765625,-2531.9599609375,-371808.1875,-12826.6298828125,-400000.0625,-356370.21875,-400000.0625
195.97600936889648,1439.239990234375,-7824.47021484375,-2520.610107421875,-371618.84375,-12814.51953125,-400000.0625,-356142.65625,-400000.0625
196.00672912597656,1452.4000244140625,-7808.39990234375,-2504.590087890625,-371833.6875,-12785.2900390625,-400000.0625,-356531.09375,-400000.0625
196.0387544631958,1452.969970703125,-7807.16015625,-2503.8701171875,-372158.90625,-12782.4296875,-400000.0625,-356998.59375,-400000.0625
196.09374570846558,1446.06005859375,-7819.4599609375,-2517.3701171875,-372152.21875,-12813.2802734375,-400000.0625,-356914.90625,-400000.0625
196.12891292572021,1440.0999755859375,-7820.419921875,-2517.800048828125,-371830.96875,-12814.6201171875,-400000.0625,-356393.90625,-400000.0625
196.15996503829956,1451.6400146484375,-7809.259765625,-2503.489990234375,-371646.84375,-12799.1201171875,-400000.0625,-356168.03125,-400000.0625
196.22523474693298,1462.1700439453125,-7801.33984375,-2495.0,-371863.03125,-12795.400390625,-400000.0625,-356553.5625,-400000.0625
196.25444149971008,1460.0799560546875,-7800.8701171875,-2493.81005859375,-372194.5625,-12797.0703125,-400000.0625,-357022.625,-400000.0625
196.28427696228027,1444.719970703125,-7815.22021484375,-2505.919921875,-372189.34375,-12804.9404296875,-400000.0625,-356937.9375,-400000.0625
196.36177563667297,1431.989990234375,-7831.669921875,-2519.93994140625,-371869.84375,-12816.1396484375,-400000.0625,-356418.9375,-400000.0625
196.39351320266724,1436.9000244140625,-7824.9501953125,-2514.360107421875,-371680.59375,-12807.900390625,-400000.0625,-356188.8125,-400000.0625
196.45746636390686,1455.5,-7804.97021484375,-2499.389892578125,-371896.96875,-12785.48046875,-400000.0625,-356575.0625,-400000.0625
196.48964023590088,1461.3199462890625,-7800.8701171875,-2497.2900390625,-372228.1875,-12788.73046875,-400000.0625,-357045.5625,-400000.0625
196.52130722999573,1446.2900390625,-7813.83984375,-2511.31005859375,-372224.9375,-12805.080078125,-400000.0625,-356962.0,-400000.0625
196.57642316818237,1440.6199951171875,-7829.81005859375,-2524.89990234375,-371903.6875,-12813.51953125,-400000.0625,-356440.875,-400000.0625
196.6052348613739,1438.6199951171875,-7830.56982421875,-2521.989990234375,-371718.9375,-12813.6201171875,-400000.0625,-356211.03125,-400000.0625
196.64271688461304,1452.8299560546875,-7812.35986328125,-2503.969970703125,-371935.78125,-12804.3701171875,-400000.0625,-356597.65625,-400000.0625
196.69554233551025,1459.7900390625,-7804.58984375,-2497.530029296875,-372269.96875,-12806.849609375,-400000.0625,-357069.96875,-400000.0625
196.7288293838501,1447.1099853515625,-7812.97998046875,-2506.449951171875,-372267.0625,-12808.1796875,-400000.0625,-356987.5625,-400000.0625
196.7579436302185,1438.9000244140625,-7822.1298828125,-2515.75,-371949.90625,-12807.419921875,-400000.0625,-356468.78125,-400000.0625
196.82158493995667,1439.47998046875,-7827.6201171875,-2521.419921875,-371762.5625,-12809.51953125,-400000.0625,-356235.84375,-400000.0625
196.84529829025269,1451.300048828125,-7810.64013671875,-2506.780029296875,-371977.8125,-12795.5,-400000.0625,-356623.3125,-400000.0625
196.87829089164734,1456.02001953125,-7806.8701171875,-2500.9599609375,-372305.28125,-12808.900390625,-400000.0625,-357096.375,-400000.0625
196.93692207336426,1442.81005859375,-7819.93994140625,-2513.889892578125,-372298.34375,-12805.990234375,-400000.0625,-357016.21875,-400000.0625
196.96631932258606,1428.699951171875,-7832.240234375,-2526.7099609375,-371970.75,-12815.51953125,-400000.0625,-356492.5,-400000.0625
196.99185347557068,1437.0,-7831.3798828125,-2522.800048828125,-371778.90625,-12812.1396484375,-400000.0625,-356261.625,-400000.0625
197.04325938224792,1456.550048828125,-7807.16015625,-2502.25,-371986.625,-12799.2197265625,-400000.0625,-356647.34375,-400000.0625
197.06961631774902,1460.699951171875,-7805.2099609375,-2500.9599609375,-372312.625,-12802.2197265625,-400000.0625,-357123.21875,-400000.0625
197.10076022148132,1438.8599853515625,-7822.7099609375,-2517.75,-372301.59375,-12809.23046875,-400000.0625,-357040.5,-400000.0625
197.1549150943756,1425.4100341796875,-7836.68017578125,-2532.47998046875,-371975.125,-12815.8603515625,-400000.0625,-356517.9375,-400000.0625
197.17813897132874,1441.18994140625,-7824.89990234375,-2520.0400390625,-371779.0625,-12803.599609375,-400000.0625,-356283.75,-400000.0625
197.21008276939392,1458.449951171875,-7802.43994140625,-2499.489990234375,-371988.65625,-12787.2001953125,-400000.0625,-356670.9375,-400000.0625
197.25520753860474,1460.5,-7803.72998046875,-2497.9599609375,-372313.84375,-12791.58984375,-400000.0625,-357148.5625,-400000.0625
197.27752447128296,1444.1500244140625,-7818.990234375,-2514.510009765625,-372304.96875,-12812.23046875,-400000.0625,-357068.59375,-400000.0625
197.30264163017273,1434.1400146484375,-7828.43017578125,-2525.0400390625,-371976.125,-12833.9296875,-400000.0625,-356542.25,-400000.0625
197.33451795578003,1445.530029296875,-7816.35986328125,-2512.739990234375,-371781.25,-12817.8095703125,-400000.0625,-356308.96875,-400000.0625
197.38918232917786,1462.219970703125,-7799.2001953125,-2496.860107421875,-371988.15625,-12790.8701171875,-400000.0625,-356695.84375,-400000.0625
197.41924262046814,1458.260009765625,-7810.02001953125,-2505.8701171875,-372313.21875,-12796.4501953125,-400000.0625,-357175.34375,-400000.0625
197.4445445537567,1439.47998046875,-7824.0400390625,-2520.56005859375,-372302.53125,-12808.75,-400000.0625,-357095.71875,-400000.0625
197.50073671340942,1434.6099853515625,-7827.0,-2528.2900390625,-371976.1875,-12819.5302734375,-400000.0625,-356569.625,-400000.0625
197.53767085075378,1444.530029296875,-7824.3701171875,-2522.469970703125,-371779.34375,-12811.1396484375,-400000.0625,-356332.53125,-400000.0625
197.57247614860535,1456.550048828125,-7813.06982421875,-2506.639892578125,-371987.59375,-12798.6396484375,-400000.0625,-356720.1875,-400000.0625
197.6498167514801,1459.97998046875,-7797.91015625,-2497.050048828125,-372310.625,-12794.8798828125,-400000.0625,-357198.8125,-400000.0625
197.68354392051697,1444.239990234375,-7812.2099609375,-2512.360107421875,-372303.71875,-12799.83984375,-400000.0625,-357123.40625,-400000.0625
197.74313402175903,1434.280029296875,-7830.43017578125,-2527.949951171875,-371975.3125,-12806.509765625,-400000.0625,-356596.46875,-400000.0625
197.77836990356445,1442.5799560546875,-7827.6201171875,-2520.280029296875,-371776.53125,-12807.23046875,-400000.0625,-356357.8125,-400000.0625
197.8150074481964,1457.1700439453125,-7812.97998046875,-2507.5400390625,-371981.53125,-12805.75,-400000.0625,-356745.28125,-400000.0625
197.87310123443604,1460.5999755859375,-7806.02001953125,-2502.5400390625,-372308.34375,-12805.26953125,-400000.0625,-357227.875,-400000.0625
197.90180444717407,1449.1099853515625,-7818.080078125,-2512.4599609375,-372301.34375,-12816.0498046875,-400000.0625,-357150.78125,-400000.0625
197.93807077407837,1434.469970703125,-7833.47998046875,-2526.330078125,-371976.21875,-12815.0498046875,-400000.0625,-356624.03125,-400000.0625
197.99832797050476,1436.8499755859375,-7825.27978515625,-2520.85009765625,-371778.0625,-12804.83984375,-400000.0625,-356381.78125,-400000.0625
198.03979349136353,1457.8800048828125,-7813.5,-2508.739990234375,-371986.0625,-12794.830078125,-400000.0625,-356770.03125,-400000.0625
198.09878396987915,1455.739990234375,-7815.4599609375,-2508.449951171875,-372310.3125,-12797.830078125,-400000.0625,-357253.9375,-400000.0625
198.13529324531555,1437.0,-7824.9501953125,-2521.090087890625,-372305.15625,-12814.8603515625,-400000.0625,-357177.875,-400000.0625
198.16090893745422,1433.52001953125,-7832.240234375,-2531.860107421875,-371977.5625,-12821.009765625,-400000.0625,-356648.3125,-400000.0625
198.22861695289612,1447.489990234375,-7821.0400390625,-2523.139892578125,-371778.875,-12809.9501953125,-400000.0625,-356408.21875,-400000.0625
198.25488901138306,1467.3699951171875,-7799.9599609375,-2499.199951171875,-371983.71875,-12801.509765625,-400000.0625,-356792.03125,-400000.0625
198.28392434120178,1472.469970703125,-7794.759765625,-2494.719970703125,-372311.34375,-12791.7802734375,-400000.0625,-357278.6875,-400000.0625
198.34509539604187,1453.2099609375,-7815.41015625,-2511.840087890625,-372303.96875,-12801.509765625,-400000.0625,-357202.4375,-400000.0625
198.36969304084778,1429.3699951171875,-7837.580078125,-2533.050048828125,-371978.46875,-12812.6201171875,-400000.0625,-356673.65625,-400000.0625
198.42017149925232,1429.6500244140625,-7832.47998046875,-2529.909912109375,-371777.90625,-12809.7099609375,-400000.0625,-356429.4375,-400000.0625
198.47117567062378,1454.1199951171875,-7811.1201171875,-2507.35009765625,-371983.625,-12798.6396484375,-400000.0625,-356816.28125,-400000.0625
198.50157570838928,1462.75,-7805.2998046875,-2498.8701171875,-372309.6875,-12801.3603515625,-400000.0625,-357303.46875,-400000.0625
198.5398337841034,1451.780029296875,-7811.740234375,-2507.969970703125,-372304.28125,-12812.330078125,-400000.0625,-357228.75,-400000.0625
198.59238123893738,1441.9599609375,-7821.22998046875,-2516.60009765625,-371974.125,-12811.849609375,-400000.0625,-356696.65625,-400000.0625
198.62520384788513,1447.1500244140625,-7818.89013671875,-2515.360107421875,-371775.78125,-12805.26953125,-400000.0625,-356452.59375,-400000.0625
198.65977311134338,1467.280029296875,-7801.580078125,-2500.110107421875,-371977.65625,-12794.9296875,-400000.0625,-356836.21875,-400000.0625
198.72471237182617,1467.8499755859375,-7797.580078125,-2496.239990234375,-372305.15625,-12787.919921875,-400000.0625,-357323.15625,-400000.0625
198.75577926635742,1440.949951171875,-7826.9501953125,-2522.3701171875,-372301.8125,-12818.0498046875,-400000.0625,-357248.71875,-400000.0625
198.78166270256042,1425.699951171875,-7838.009765625,-2537.35009765625,-371975.75,-12833.7900390625,-400000.0625,-356718.0,-400000.0625
198.85627102851868,1432.93994140625,-7831.6201171875,-2527.669921875,-371775.53125,-12818.91015625,-400000.0625,-356471.28125,-400000.0625
198.90039086341858,1451.43994140625,-7809.4501953125,-2505.2099609375,-371979.28125,-12783.0498046875,-400000.0625,-356857.96875,-400000.0625
198.97016215324402,1457.260009765625,-7801.10009765625,-2498.820068359375,-372304.96875,-12783.9599609375,-400000.0625,-357344.25,-400000.0625
198.99664950370789,1445.0999755859375,-7817.27001953125,-2511.550048828125,-372302.625,-12803.2197265625,-400000.0625,-357271.4375,-400000.0625
199.0288724899292,1436.4200439453125,-7825.419921875,-2521.89990234375,-371977.125,-12821.150390625,-400000.0625,-356738.0,-400000.0625
199.08879613876343,1446.489990234375,-7817.080078125,-2511.840087890625,-371776.59375,-12814.1904296875,-400000.0625,-356490.6875,-400000.0625
199.1205415725708,1462.97998046875,-7802.06005859375,-2494.909912109375,-371979.125,-12798.5498046875,-400000.0625,-356875.21875,-400000.0625
199.14921474456787,1457.97998046875,-7806.68017578125,-2504.159912109375,-372308.90625,-12791.400390625,-400000.0625,-357366.03125,-400000.0625
199.20018672943115,1435.5699462890625,-7829.52001953125,-2524.419921875,-372305.96875,-12804.7998046875,-400000.0625,-357292.65625,-400000.0625
199.23323440551758,1430.510009765625,-7835.47998046875,-2531.47998046875,-371982.5625,-12816.7197265625,-400000.0625,-356760.40625,-400000.0625
199.26480770111084,1439.47998046875,-7828.47021484375,-2525.3798828125,-371780.78125,-12819.8603515625,-400000.0625,-356509.90625,-400000.0625
199.3166310787201,1453.6400146484375,-7813.5,-2510.02001953125,-371985.4375,-12815.0,-400000.0625,-356895.5,-400000.0625
199.34441876411438,1453.8299560546875,-7804.009765625,-2503.489990234375,-372314.5625,-12797.8798828125,-400000.0625,-357384.8125,-400000.0625
199.37494087219238,1443.6700439453125,-7819.4599609375,-2514.550048828125,-372314.125,-12798.5,-400000.0625,-357314.875,-400000.0625
199.44935631752014,1434.7099609375,-7830.81005859375,-2525.949951171875,-371989.1875,-12801.740234375,-400000.0625,-356783.71875,-400000.0625
199.48381400108337,1432.3199462890625,-7828.81005859375,-2527.760009765625,-371790.15625,-12811.8095703125,-400000.0625,-356534.46875,-400000.0625
199.57968425750732,1446.1500244140625,-7821.0400390625,-2515.320068359375,-371993.96875,-12810.1396484375,-400000.0625,-356917.34375,-400000.0625
199.62103867530823,1449.1600341796875,-7822.27978515625,-2513.60009765625,-372326.125,-12804.1298828125,-400000.0625,-357408.65625,-400000.0625
199.69214463233948,1435.6600341796875,-7832.72021484375,-2528.2900390625,-372323.03125,-12815.669921875,-400000.0625,-357334.1875,-400000.0625
199.73079776763916,1430.6500244140625,-7837.009765625,-2534.6298828125,-371997.3125,-12821.6298828125,-400000.0625,-356800.0625,-400000.0625
199.8138771057129,1438.0,-7823.47021484375,-2523.469970703125,-371795.03125,-12804.0302734375,-400000.0625,-356550.6875,-400000.0625
199.85749435424805,1454.1199951171875,-7808.8798828125,-2508.159912109375,-372000.59375,-12793.9697265625,-400000.0625,-356933.6875,-400000.0625
199.93517661094666,1463.0799560546875,-7808.5400390625,-2504.919921875,-372330.34375,-12798.599609375,-400000.0625,-357423.0625,-400000.0625
199.96687006950378,1445.9599609375,-7817.83984375,-2515.409912109375,-372333.5625,-12806.0400390625,-400000.0625,-357354.25,-400000.0625
200.03201150894165,1438.5699462890625,-7823.56005859375,-2520.75,-372009.84375,-12810.330078125,-400000.0625,-356821.375,-400000.0625
200.06579184532166,1442.0999755859375,-7824.27978515625,-2520.0400390625,-371808.625,-12809.66015625,-400000.0625,-356570.46875,-400000.0625
200.10183382034302,1456.68994140625,-7810.35986328125,-2510.929931640625,-372010.3125,-12803.3701171875,-400000.0625,-356950.9375,-400000.0625
200.17127180099487,1454.1600341796875,-7816.41015625,-2511.5,-372342.0,-12801.26953125,-400000.0625,-357442.0,-400000.0625
200.21540451049805,1435.3299560546875,-7829.9501953125,-2523.0400390625,-372344.96875,-12807.1796875,-400000.0625,-357372.75,-400000.0625
200.28715419769287,1427.93994140625,-7834.77001953125,-2530.719970703125,-372024.53125,-12812.8095703125,-400000.0625,-356842.03125,-400000.0625
200.3218228816986,1434.280029296875,-7828.759765625,-2527.89990234375,-371824.84375,-12809.6103515625,-400000.0625,-356589.65625,-400000.0625
200.39232325553894,1448.1500244140625,-7816.83984375,-2512.97998046875,-372027.25,-12799.169921875,-400000.0625,-356969.84375,-400000.0625
200.4372262954712,1452.489990234375,-7808.77978515625,-2505.02001953125,-372357.84375,-12801.509765625,-400000.0625,-357459.21875,-400000.0625
200.5161542892456,1441.8599853515625,-7820.990234375,-2518.989990234375,-372362.21875,-12803.8896484375,-400000.0625,-357392.84375,-400000.0625
200.55451130867004,1428.699951171875,-7839.68017578125,-2532.820068359375,-372038.875,-12809.5595703125,-400000.0625,-356860.0625,-400000.0625
200.6386423110962,1434.469970703125,-7834.47998046875,-2526.570068359375,-371837.625,-12801.9296875,-400000.0625,-356607.53125,-400000.0625
200.67077231407166,1454.1600341796875,-7815.89013671875,-2508.159912109375,-372040.375,-12791.5400390625,-400000.0625,-356984.0,-400000.0625
200.74832272529602,1463.5999755859375,-7805.5400390625,-2500.25,-372373.0,-12802.080078125,-400000.0625,-357475.3125,-400000.0625
200.7821822166443,1449.25,-7816.83984375,-2514.4599609375,-372375.71875,-12822.7197265625,-400000.0625,-357408.375,-400000.0625
200.83688831329346,1432.6099853515625,-7829.240234375,-2527.89990234375,-372054.90625,-12831.9296875,-400000.0625,-356880.0,-400000.0625
200.862206697464,1432.3699951171875,-7833.85986328125,-2527.89990234375,-371850.71875,-12810.5703125,-400000.0625,-356626.3125,-400000.0625
200.89033317565918,1449.1600341796875,-7816.35986328125,-2510.02001953125,-372053.46875,-12781.5703125,-400000.0625,-357003.84375,-400000.0625
200.96396589279175,1459.4599609375,-7809.4501953125,-2502.159912109375,-372385.21875,-12786.009765625,-400000.0625,-357491.125,-400000.0625
201.0039439201355,1444.719970703125,-7826.3798828125,-2518.800048828125,-372391.5,-12787.6796875,-400000.0625,-357425.0625,-400000.0625
201.07796239852905,1428.800048828125,-7840.39990234375,-2534.6298828125,-372070.40625,-12801.98046875,-400000.0625,-356897.15625,-400000.0625
201.10431623458862,1437.7099609375,-7835.72021484375,-2528.909912109375,-371869.875,-12811.23046875,-400000.0625,-356645.1875,-400000.0625
201.15788054466248,1457.0699462890625,-7817.169921875,-2510.39990234375,-372071.96875,-12805.75,-400000.0625,-357018.9375,-400000.0625
201.18072152137756,1454.6400146484375,-7809.35009765625,-2507.929931640625,-372405.1875,-12804.1298828125,-400000.0625,-357507.5625,-400000.0625
201.21161890029907,1441.530029296875,-7820.56005859375,-2520.0400390625,-372409.65625,-12814.08984375,-400000.0625,-357440.5,-400000.0625
201.27592134475708,1430.93994140625,-7831.91015625,-2530.909912109375,-372088.28125,-12835.3603515625,-400000.0625,-356910.5625,-400000.0625
201.29951906204224,1437.280029296875,-7832.91015625,-2527.89990234375,-371884.375,-12825.400390625,-400000.0625,-356654.40625,-400000.0625
201.33071780204773,1453.3499755859375,-7813.740234375,-2509.929931640625,-372085.71875,-12792.6396484375,-400000.0625,-357027.625,-400000.0625
201.40946507453918,1457.5,-7813.97998046875,-2508.260009765625,-372418.71875,-12783.6201171875,-400000.0625,-357515.46875,-400000.0625
201.44261360168457,1444.43994140625,-7824.85009765625,-2518.840087890625,-372424.125,-12795.01953125,-400000.0625,-357451.34375,-400000.0625
201.54527044296265,1424.6500244140625,-7843.77978515625,-2538.300048828125,-372100.625,-12815.669921875,-400000.0625,-356922.5625,-400000.0625
201.63335871696472,1428.699951171875,-7841.2099609375,-2536.06005859375,-371898.5,-12812.0,-400000.0625,-356669.03125,-400000.0625
201.68013739585876,1445.9599609375,-7824.47021484375,-2520.1298828125,-372098.34375,-12799.1201171875,-400000.0625,-357039.53125,-400000.0625
201.74195003509521,1451.06005859375,-7819.3701171875,-2514.699951171875,-372431.875,-12794.7802734375,-400000.0625,-357528.78125,-400000.0625
201.76421976089478,1436.6600341796875,-7831.33984375,-2525.570068359375,-372439.46875,-12820.2900390625,-400000.0625,-357466.125,-400000.0625
201.80800652503967,1423.6500244140625,-7843.77978515625,-2537.72998046875,-372118.8125,-12831.3603515625,-400000.0625,-356939.6875,-400000.0625
201.87851524353027,1432.8499755859375,-7839.77978515625,-2532.10009765625,-371912.34375,-12810.330078125,-400000.0625,-356682.1875,-400000.0625
201.90386772155762,1453.2099609375,-7818.89013671875,-2510.070068359375,-372113.6875,-12780.2900390625,-400000.0625,-357053.875,-400000.0625
201.93981385231018,1460.7900390625,-7809.97021484375,-2505.830078125,-372448.5,-12780.0,-400000.0625,-357541.21875,-400000.0625
201.99654412269592,1446.77001953125,-7821.3701171875,-2520.75,-372459.78125,-12800.650390625,-400000.0625,-357480.21875,-400000.0625
202.02721619606018,1433.3699951171875,-7837.8701171875,-2533.43994140625,-372138.25,-12822.0595703125,-400000.0625,-356952.75,-400000.0625
202.07069754600525,1437.239990234375,-7836.25,-2530.050048828125,-371934.96875,-12825.7802734375,-400000.0625,-356697.40625,-400000.0625
202.12434697151184,1446.9100341796875,-7824.14013671875,-2517.320068359375,-372133.53125,-12806.9404296875,-400000.0625,-357066.1875,-400000.0625
202.14996552467346,1453.3499755859375,-7820.7998046875,-2511.7900390625,-372470.46875,-12792.259765625,-400000.0625,-357554.71875,-400000.0625
202.1734492778778,1441.77001953125,-7832.0,-2524.949951171875,-372478.375,-12801.509765625,-400000.0625,-357492.625,-400000.0625
202.23829674720764,1427.1300048828125,-7846.169921875,-2539.110107421875,-372158.125,-12807.0400390625,-400000.0625,-356968.0625,-400000.0625
202.26089429855347,1435.22998046875,-7836.8701171875,-2528.570068359375,-371951.96875,-12805.75,-400000.0625,-356710.8125,-400000.0625
202.28285360336304,1456.8800048828125,-7811.2099609375,-2504.72998046875,-372152.625,-12784.150390625,-400000.0625,-357079.40625,-400000.0625
202.34900951385498,1458.260009765625,-7808.72998046875,-2505.969970703125,-372486.5,-12783.9599609375,-400000.0625,-357567.40625,-400000.0625
202.3701822757721,1448.3499755859375,-7820.93994140625,-2518.4599609375,-372496.3125,-12810.7998046875,-400000.0625,-357509.21875,-400000.0625
202.39123916625977,1436.0,-7832.2900390625,-2528.3798828125,-372173.5,-12830.830078125,-400000.0625,-356982.0,-400000.0625
202.45982098579407,1437.5699462890625,-7832.77001953125,-2525.6201171875,-371966.625,-12812.759765625,-400000.0625,-356725.6875,-400000.0625
202.4812409877777,1453.5400390625,-7811.5,-2504.2099609375,-372162.53125,-12779.0498046875,-400000.0625,-357091.34375,-400000.0625
202.50330185890198,1456.8800048828125,-7806.77978515625,-2505.260009765625,-372498.375,-12784.5302734375,-400000.0625,-357581.46875,-400000.0625
202.5674273967743,1442.0,-7825.89990234375,-2521.3701171875,-372507.09375,-12801.7001953125,-400000.0625,-357522.15625,-400000.0625
202.59130477905273,1430.1300048828125,-7837.2001953125,-2531.14990234375,-372186.28125,-12801.83984375,-400000.0625,-356998.4375,-400000.0625
202.63824319839478,1432.22998046875,-7836.06005859375,-2532.389892578125,-371976.5625,-12814.3798828125,-400000.0625,-356738.8125,-400000.0625
202.7180712223053,1449.300048828125,-7817.64990234375,-2516.989990234375,-372174.4375,-12798.83984375,-400000.0625,-357106.0625,-400000.0625
202.74365711212158,1453.1600341796875,-7813.169921875,-2511.60009765625,-372508.8125,-12786.91015625,-400000.0625,-357597.125,-400000.0625
202.78986239433289,1442.239990234375,-7824.0400390625,-2520.1298828125,-372519.1875,-12801.83984375,-400000.0625,-357541.3125,-400000.0625
202.8116888999939,1442.1500244140625,-7823.85009765625,-2520.510009765625,-372196.0625,-12818.669921875,-400000.0625,-357012.875,-400000.0625
202.856586933136,1443.77001953125,-7823.330078125,-2518.510009765625,-371988.65625,-12802.9404296875,-400000.0625,-356753.6875,-400000.0625
202.90505075454712,1454.5,-7819.1298828125,-2512.169921875,-372185.8125,-12788.3896484375,-400000.0625,-357119.21875,-400000.0625
202.92702627182007,1457.260009765625,-7815.31005859375,-2510.02001953125,-372521.5,-12789.580078125,-400000.0625,-357610.3125,-400000.0625
202.96168041229248,1441.77001953125,-7828.14013671875,-2523.139892578125,-372530.46875,-12807.7001953125,-400000.0625,-357554.0625,-400000.0625
203.0014350414276,1430.3199462890625,-7838.43994140625,-2534.9599609375,-372209.84375,-12819.48046875,-400000.0625,-357029.59375,-400000.0625
203.02278995513916,1431.75,-7840.58984375,-2535.389892578125,-372000.75,-12811.23046875,-400000.0625,-356768.21875,-400000.0625
203.0477650165558,1442.719970703125,-7823.27978515625,-2518.030029296875,-372196.71875,-12790.9697265625,-400000.0625,-357134.09375,-400000.0625
203.0859498977661,1454.4000244140625,-7809.259765625,-2503.25,-372531.375,-12787.150390625,-400000.0625,-357625.375,-400000.0625
203.14004969596863,1447.43994140625,-7817.080078125,-2514.360107421875,-372543.8125,-12797.830078125,-400000.0625,-357572.78125,-400000.0625
203.16749787330627,1436.469970703125,-7833.669921875,-2531.340087890625,-372220.125,-12806.1796875,-400000.0625,-357049.09375,-400000.0625
203.21450901031494,1438.81005859375,-7829.3798828125,-2524.659912109375,-372010.03125,-12795.9296875,-400000.0625,-356788.96875,-400000.0625
203.2671618461609,1458.449951171875,-7819.31982421875,-2510.169921875,-372204.4375,-12786.4404296875,-400000.0625,-357153.65625,-400000.0625
203.31561303138733,1459.260009765625,-7812.7900390625,-2505.969970703125,-372540.125,-12796.740234375,-400000.0625,-357648.5,-400000.0625
203.37914109230042,1443.3399658203125,-7825.22998046875,-2519.85009765625,-372551.625,-12816.240234375,-400000.0625,-357595.78125,-400000.0625
203.4056293964386,1438.6700439453125,-7828.56982421875,-2524.090087890625,-372231.96875,-12815.759765625,-400000.0625,-357072.25,-400000.0625
203.4284746646881,1441.18994140625,-7825.08984375,-2518.179931640625,-372019.875,-12799.7900390625,-400000.0625,-356808.75,-400000.0625
203.5112428665161,1456.1700439453125,-7807.10986328125,-2504.5400390625,-372213.6875,-12787.6796875,-400000.0625,-357173.09375,-400000.0625
203.53208684921265,1460.9300537109375,-7806.58984375,-2504.679931640625,-372545.9375,-12796.830078125,-400000.0625,-357668.0,-400000.0625
203.5780532360077,1446.010009765625,-7820.22998046875,-2516.320068359375,-372559.9375,-12799.3603515625,-400000.0625,-357618.71875,-400000.0625
203.62785816192627,1426.6500244140625,-7840.8701171875,-2534.489990234375,-372237.34375,-12808.75,-400000.0625,-357093.40625,-400000.0625
203.65873622894287,1428.219970703125,-7840.35009765625,-2538.489990234375,-372025.875,-12808.51953125,-400000.0625,-356830.78125,-400000.0625
203.69583654403687,1452.489990234375,-7819.27001953125,-2514.64990234375,-372219.6875,-12792.1103515625,-400000.0625,-357193.75,-400000.0625
203.74216175079346,1462.4599609375,-7808.16015625,-2502.35009765625,-372554.53125,-12792.4501953125,-400000.0625,-357688.28125,-400000.0625
203.76300311088562,1450.2099609375,-7821.1298828125,-2515.409912109375,-372566.125,-12801.0302734375,-400000.0625,-357637.59375,-400000.0625
203.80506491661072,1438.949951171875,-7835.47998046875,-2525.81005859375,-372245.96875,-12808.900390625,-400000.0625,-357113.5625,-400000.0625
203.8243706226349,1439.52001953125,-7833.72021484375,-2527.050048828125,-372033.9375,-12819.33984375,-400000.0625,-356849.53125,-400000.0625
203.85928416252136,1453.0699462890625,-7816.89013671875,-2510.97998046875,-372227.4375,-12801.4599609375,-400000.0625,-357215.25,-400000.0625
203.88929295539856,1455.969970703125,-7814.68994140625,-2508.2099609375,-372560.59375,-12786.9599609375,-400000.0625,-357712.5625,-400000.0625
203.93935585021973,1444.47998046875,-7829.0,-2523.800048828125,-372575.8125,-12805.2197265625,-400000.0625,-357665.53125,-400000.0625
203.98861575126648,1429.93994140625,-7844.77978515625,-2539.72998046875,-372255.0,-12816.099609375,-400000.0625,-357140.125,-400000.0625
204.01099491119385,1436.4200439453125,-7839.2001953125,-2530.429931640625,-372041.40625,-12805.5595703125,-400000.0625,-356873.9375,-400000.0625
204.0597746372223,1454.02001953125,-7818.080078125,-2509.780029296875,-372231.71875,-12792.0595703125,-400000.0625,-357239.34375,-400000.0625
204.08755040168762,1456.9300537109375,-7816.169921875,-2512.030029296875,-372566.5625,-12788.919921875,-400000.0625,-357741.6875,-400000.0625
204.11547708511353,1447.9599609375,-7826.22998046875,-2522.800048828125,-372577.46875,-12804.1298828125,-400000.0625,-357695.1875,-400000.0625
204.1854236125946,1434.3699951171875,-7839.6298828125,-2534.14990234375,-372258.03125,-12817.669921875,-400000.0625,-357170.09375,-400000.0625
204.20725679397583,1439.9100341796875,-7839.06005859375,-2531.10009765625,-372044.5625,-12810.330078125,-400000.0625,-356903.25,-400000.0625
204.25939345359802,1457.8800048828125,-7822.419921875,-2516.409912109375,-372236.25,-12787.8701171875,-400000.0625,-357269.4375,-400000.0625
204.29813408851624,1456.6400146484375,-7821.66015625,-2515.840087890625,-372569.5,-12787.5302734375,-400000.0625,-357767.375,-400000.0625
204.31958770751953,1441.530029296875,-7829.0498046875,-2526.81005859375,-372583.625,-12804.5595703125,-400000.0625,-357722.09375,-400000.0625
204.36181354522705,1432.510009765625,-7846.02001953125,-2541.830078125,-372261.34375,-12822.4404296875,-400000.0625,-357195.03125,-400000.0625
204.40131735801697,1435.949951171875,-7841.2099609375,-2539.2099609375,-372047.21875,-12812.330078125,-400000.0625,-356928.59375,-400000.0625
204.42146635055542,1457.5,-7824.0400390625,-2519.889892578125,-372236.25,-12788.73046875,-400000.0625,-357292.3125,-400000.0625
204.49586367607117,1460.739990234375,-7819.27001953125,-2516.1298828125,-372570.65625,-12790.6796875,-400000.0625,-357797.09375,-400000.0625
204.61691522598267,1444.8599853515625,-7829.7099609375,-2526.18994140625,-372584.15625,-12793.490234375,-400000.0625,-357751.84375,-400000.0625
204.68155074119568,1431.22998046875,-7846.68994140625,-2539.919921875,-372264.0,-12820.099609375,-400000.0625,-357225.59375,-400000.0625
204.7097098827362,1442.18994140625,-7840.25,-2534.25,-372046.3125,-12822.580078125,-400000.0625,-356954.90625,-400000.0625
204.74796652793884,1458.739990234375,-7820.64990234375,-2515.889892578125,-372233.96875,-12795.16015625,-400000.0625,-357317.6875,-400000.0625
204.8057119846344,1457.1700439453125,-7818.27001953125,-2515.030029296875,-372567.6875,-12802.3203125,-400000.0625,-357822.75,-400000.0625
204.84211325645447,1449.43994140625,-7829.6201171875,-2527.6201171875,-372585.78125,-12816.8095703125,-400000.0625,-357780.78125,-400000.0625
204.877694606781,1442.47998046875,-7842.97021484375,-2537.43994140625,-372265.09375,-12814.330078125,-400000.0625,-357252.6875,-400000.0625
204.937326669693,1445.3399658203125,-7839.16015625,-2533.10009765625,-372051.03125,-12800.98046875,-400000.0625,-356981.8125,-400000.0625
204.96896123886108,1460.5999755859375,-7819.3701171875,-2513.1201171875,-372237.6875,-12782.150390625,-400000.0625,-357343.8125,-400000.0625
204.99952363967896,1461.5999755859375,-7818.31982421875,-2513.97998046875,-372574.09375,-12797.98046875,-400000.0625,-357851.375,-400000.0625
205.05755400657654,1454.969970703125,-7824.0400390625,-2519.75,-372590.3125,-12806.0400390625,-400000.0625,-357810.03125,-400000.0625
205.08709597587585,1438.9000244140625,-7836.77001953125,-2530.580078125,-372270.8125,-12806.75,-400000.0625,-357282.3125,-400000.0625
205.12033128738403,1436.9000244140625,-7837.72998046875,-2530.6201171875,-372053.625,-12808.6103515625,-400000.0625,-357009.0625,-400000.0625
205.185729265213,1455.1199951171875,-7819.3701171875,-2510.68994140625,-372240.59375,-12802.080078125,-400000.0625,-357373.8125,-400000.0625
205.22320437431335,1464.989990234375,-7810.97998046875,-2500.110107421875,-372576.0,-12796.2099609375,-400000.0625,-357883.0625,-400000.0625
205.2890944480896,1451.02001953125,-7828.240234375,-2518.93994140625,-372594.84375,-12805.75,-400000.0625,-357844.71875,-400000.0625
205.3199646472931,1436.3800048828125,-7839.2001953125,-2532.050048828125,-372274.78125,-12804.6103515625,-400000.0625,-357316.5,-400000.0625
205.35721516609192,1440.949951171875,-7837.33984375,-2527.52001953125,-372058.78125,-12794.0703125,-400000.0625,-357042.03125,-400000.0625
205.41105270385742,1458.7900390625,-7823.419921875,-2513.699951171875,-372242.90625,-12780.51953125,-400000.0625,-357403.75,-400000.0625
205.44351720809937,1460.739990234375,-7817.93994140625,-2508.590087890625,-372578.75,-12786.580078125,-400000.0625,-357914.78125,-400000.0625
205.47672367095947,1452.8800048828125,-7824.759765625,-2515.7900390625,-372595.875,-12802.98046875,-400000.0625,-357874.59375,-400000.0625
205.53617215156555,1442.719970703125,-7834.39013671875,-2524.659912109375,-372277.96875,-12807.6103515625,-400000.0625,-357346.1875,-400000.0625
205.57066297531128,1443.0999755859375,-7836.490234375,-2525.659912109375,-372059.25,-12806.4599609375,-400000.0625,-357071.5,-400000.0625
205.60550022125244,1457.739990234375,-7820.85009765625,-2510.5,-372245.5,-12800.3095703125,-400000.0625,-357434.75,-400000.0625
205.66424751281738,1463.3699951171875,-7810.4501953125,-2502.919921875,-372581.0,-12802.7001953125,-400000.0625,-357945.28125,-400000.0625
205.69456219673157,1447.8699951171875,-7832.580078125,-2521.7099609375,-372601.6875,-12810.759765625,-400000.0625,-357907.90625,-400000.0625
205.72259759902954,1436.6600341796875,-7848.1201171875,-2534.77001953125,-372283.46875,-12812.7099609375,-400000.0625,-357375.875,-400000.0625
205.7864100933075,1436.4200439453125,-7841.06005859375,-2531.81005859375,-372067.3125,-12813.5703125,-400000.0625,-357097.90625,-400000.0625
205.8163824081421,1452.3499755859375,-7826.52001953125,-2517.4599609375,-372251.96875,-12798.4501953125,-400000.0625,-357458.59375,-400000.0625
205.85711479187012,1463.0799560546875,-7816.60009765625,-2506.070068359375,-372589.4375,-12782.76953125,-400000.0625,-357969.28125,-400000.0625
205.91182851791382,1453.72998046875,-7821.7001953125,-2512.260009765625,-372607.5,-12790.9697265625,-400000.0625,-357929.9375,-400000.0625
205.94084811210632,1433.75,-7844.77978515625,-2535.77001953125,-372289.3125,-12808.990234375,-400000.0625,-357399.5625,-400000.0625
205.97847032546997,1440.719970703125,-7844.1201171875,-2533.010009765625,-372071.875,-12804.7998046875,-400000.0625,-357120.03125,-400000.0625
206.04246735572815,1460.0799560546875,-7825.08984375,-2512.7900390625,-372258.46875,-12799.83984375,-400000.0625,-357481.375,-400000.0625
206.08042430877686,1465.8499755859375,-7818.509765625,-2508.2099609375,-372594.4375,-12797.6396484375,-400000.0625,-357993.375,-400000.0625
206.13568353652954,1450.06005859375,-7829.6201171875,-2521.0400390625,-372616.90625,-12810.7099609375,-400000.0625,-357955.25,-400000.0625
206.17639756202698,1437.7099609375,-7843.35009765625,-2534.010009765625,-372299.53125,-12827.7802734375,-400000.0625,-357424.625,-400000.0625
206.20556569099426,1443.1500244140625,-7836.06005859375,-2529.47998046875,-372082.71875,-12816.7197265625,-400000.0625,-357144.4375,-400000.0625
206.27593636512756,1462.030029296875,-7822.31982421875,-2513.080078125,-372269.0625,-12789.2998046875,-400000.0625,-357504.28125,-400000.0625
206.30572390556335,1475.4300537109375,-7811.97998046875,-2500.679931640625,-372606.65625,-12778.4697265625,-400000.0625,-358017.0,-400000.0625
206.3796579837799,1463.030029296875,-7822.7099609375,-2513.030029296875,-372627.34375,-12800.1201171875,-400000.0625,-357979.625,-400000.0625
206.40801572799683,1438.0,-7844.97021484375,-2537.820068359375,-372311.6875,-12827.490234375,-400000.0625,-357449.875,-400000.0625
206.46989583969116,1442.5799560546875,-7844.16015625,-2532.2900390625,-372095.4375,-12828.0703125,-400000.0625,-357170.25,-400000.0625
206.50123476982117,1459.8399658203125,-7826.7099609375,-2515.360107421875,-372281.875,-12796.830078125,-400000.0625,-357528.90625,-400000.0625
206.52799129486084,1465.510009765625,-7819.4599609375,-2512.550048828125,-372617.34375,-12789.580078125,-400000.0625,-358039.71875,-400000.0625
206.5811698436737,1451.1600341796875,-7833.47998046875,-2525.570068359375,-372640.5,-12803.9404296875,-400000.0625,-358004.9375,-400000.0625
206.61021542549133,1441.050048828125,-7843.4501953125,-2532.669921875,-372323.40625,-12808.66015625,-400000.0625,-357472.75,-400000.0625
206.6314194202423,1451.06005859375,-7830.47998046875,-2522.419921875,-372107.40625,-12799.3095703125,-400000.0625,-357188.875,-400000.0625
206.6892466545105,1466.27001953125,-7821.3701171875,-2512.550048828125,-372291.0,-12794.5,-400000.0625,-357544.8125,-400000.0625
206.70980310440063,1469.56005859375,-7813.8798828125,-2506.639892578125,-372628.78125,-12797.2099609375,-400000.0625,-358058.34375,-400000.0625
206.73730540275574,1456.550048828125,-7827.27978515625,-2522.419921875,-372651.71875,-12810.759765625,-400000.0625,-358023.53125,-400000.0625
206.7978880405426,1443.0,-7845.64013671875,-2539.06005859375,-372335.1875,-12826.490234375,-400000.0625,-357493.125,-400000.0625
206.823548078537,1446.9100341796875,-7842.16015625,-2536.9599609375,-372116.75,-12818.0498046875,-400000.0625,-357210.71875,-400000.0625
206.8469159603119,1464.0799560546875,-7828.18994140625,-2520.280029296875,-372301.90625,-12800.080078125,-400000.0625,-357568.75,-400000.0625
206.91658782958984,1472.280029296875,-7818.31982421875,-2510.070068359375,-372638.65625,-12781.8095703125,-400000.0625,-358078.71875,-400000.0625
206.95723748207092,1458.3599853515625,-7833.81982421875,-2524.949951171875,-372661.90625,-12799.4599609375,-400000.0625,-358045.65625,-400000.0625
207.02263593673706,1444.43994140625,-7846.39990234375,-2536.110107421875,-372344.6875,-12807.1298828125,-400000.0625,-357515.375,-400000.0625
207.06600332260132,1447.1500244140625,-7839.6298828125,-2531.719970703125,-372125.78125,-12801.9296875,-400000.0625,-357233.28125,-400000.0625
207.13287734985352,1465.75,-7826.08984375,-2516.409912109375,-372306.34375,-12789.349609375,-400000.0625,-357587.53125,-400000.0625
207.1712770462036,1470.6099853515625,-7814.1201171875,-2507.830078125,-372645.46875,-12788.5400390625,-400000.0625,-358099.46875,-400000.0625
207.24140167236328,1456.0699462890625,-7827.43017578125,-2520.800048828125,-372668.625,-12813.900390625,-400000.0625,-358065.375,-400000.0625
207.3829243183136,1447.010009765625,-7838.06005859375,-2532.14990234375,-372351.875,-12818.48046875,-400000.0625,-357535.25,-400000.0625
207.5181884765625,1451.8699951171875,-7829.3798828125,-2523.570068359375,-372130.78125,-12811.759765625,-400000.0625,-357250.03125,-400000.0625
207.63354301452637,1467.8499755859375,-7816.02978515625,-2508.739990234375,-372313.875,-12805.3203125,-400000.0625,-357604.59375,-400000.0625
207.72511291503906,1466.93994140625,-7821.27001953125,-2513.1201171875,-372650.9375,-12795.7802734375,-400000.0625,-358114.625,-400000.0625
207.76061701774597,1449.25,-7837.25,-2530.3798828125,-372677.0,-12797.5498046875,-400000.0625,-358084.09375,-400000.0625
207.82193064689636,1438.9000244140625,-7843.58984375,-2539.2099609375,-372360.5625,-12811.1904296875,-400000.0625,-357556.4375,-400000.0625
207.8592712879181,1442.81005859375,-7837.9599609375,-2533.2900390625,-372141.5,-12812.8095703125,-400000.0625,-357272.25,-400000.0625
207.88723731040955,1460.5999755859375,-7817.1298828125,-2512.60009765625,-372320.59375,-12793.349609375,-400000.0625,-357621.90625,-400000.0625
207.97044491767883,1466.93994140625,-7812.740234375,-2505.260009765625,-372659.0625,-12789.73046875,-400000.0625,-358131.03125,-400000.0625
208.00785970687866,1457.0699462890625,-7819.93994140625,-2514.699951171875,-372682.90625,-12801.0302734375,-400000.0625,-358098.375,-400000.0625
208.09286236763,1442.050048828125,-7838.580078125,-2530.239990234375,-372366.90625,-12820.0498046875,-400000.0625,-357571.59375,-400000.0625
208.12937879562378,1444.719970703125,-7836.25,-2528.050048828125,-372145.46875,-12812.8095703125,-400000.0625,-357285.71875,-400000.0625
208.21631836891174,1461.3199462890625,-7814.68994140625,-2509.5,-372325.9375,-12783.8603515625,-400000.0625,-357634.96875,-400000.0625
208.25454998016357,1465.93994140625,-7811.7900390625,-2505.110107421875,-372662.15625,-12784.5302734375,-400000.0625,-358142.8125,-400000.0625
208.30936479568481,1456.449951171875,-7823.52001953125,-2517.219970703125,-372689.78125,-12805.26953125,-400000.0625,-358114.625,-400000.0625
208.33880519866943,1443.5799560546875,-7844.2099609375,-2533.010009765625,-372372.625,-12812.900390625,-400000.0625,-357590.65625,-400000.0625
208.37062549591064,1444.3399658203125,-7836.39013671875,-2523.85009765625,-372151.28125,-12803.3701171875,-400000.0625,-357304.8125,-400000.0625
208.426118850708,1465.1300048828125,-7813.35986328125,-2507.02001953125,-372331.21875,-12793.2998046875,-400000.0625,-357651.3125,-400000.0625
208.46193504333496,1472.4300537109375,-7812.93017578125,-2505.489990234375,-372672.6875,-12803.0302734375,-400000.0625,-358162.0625,-400000.0625
208.49225497245789,1462.030029296875,-7822.1298828125,-2513.1201171875,-372700.9375,-12805.509765625,-400000.0625,-358135.59375,-400000.0625
208.6410892009735,1450.5899658203125,-7834.47998046875,-2527.18994140625,-372388.03125,-12808.51953125,-400000.0625,-357612.46875,-400000.0625
208.8495433330536,1448.969970703125,-7838.39013671875,-2532.340087890625,-372165.53125,-12807.5595703125,-400000.0625,-357325.5625,-400000.0625
208.92143201828003,1457.97998046875,-7828.0498046875,-2519.080078125,-372346.4375,-12801.4599609375,-400000.0625,-357673.25,-400000.0625
209.09120535850525,1464.8900146484375,-7820.18017578125,-2512.409912109375,-372685.4375,-12798.8798828125,-400000.0625,-358179.46875,-400000.0625
209.2256157398224,1457.739990234375,-7825.60986328125,-2519.3701171875,-372715.375,-12800.650390625,-400000.0625,-358152.1875,-400000.0625
209.32372546195984,1446.77001953125,-7838.68017578125,-2528.669921875,-372400.28125,-12803.1298828125,-400000.0625,-357630.09375,-400000.0625
209.3609561920166,1450.8199462890625,-7836.2001953125,-2523.989990234375,-372177.59375,-12806.23046875,-400000.0625,-357345.71875,-400000.0625
209.43827986717224,1467.4200439453125,-7823.08984375,-2510.5,-372357.6875,-12801.7001953125,-400000.0625,-357690.5625,-400000.0625
209.4716100692749,1469.3699951171875,-7816.83984375,-2507.5,-372699.34375,-12800.5,-400000.0625,-358198.96875,-400000.0625
209.58951807022095,1454.9300537109375,-7828.9501953125,-2520.510009765625,-372728.875,-12803.1298828125,-400000.0625,-358173.21875,-400000.0625
209.66811776161194,1444.47998046875,-7839.77978515625,-2535.43994140625,-372414.90625,-12817.8095703125,-400000.0625,-357654.125,-400000.0625
209.70612382888794,1452.6800537109375,-7833.43017578125,-2529.570068359375,-372190.1875,-12814.9501953125,-400000.0625,-357368.125,-400000.0625
209.77671694755554,1465.93994140625,-7814.93017578125,-2508.550048828125,-372370.875,-12791.830078125,-400000.0625,-357712.03125,-400000.0625
209.8088014125824,1464.4599609375,-7817.7001953125,-2510.8798828125,-372710.40625,-12787.6796875,-400000.0625,-358217.375,-400000.0625
209.8809928894043,1456.68994140625,-7827.3798828125,-2516.93994140625,-372741.6875,-12803.990234375,-400000.0625,-358195.125,-400000.0625
209.92725610733032,1441.050048828125,-7842.77978515625,-2533.389892578125,-372426.375,-12821.33984375,-400000.0625,-357676.03125,-400000.0625
210.02681350708008,1442.47998046875,-7837.72998046875,-2528.760009765625,-372203.0,-12810.990234375,-400000.0625,-357388.53125,-400000.0625
210.09184312820435,1462.7900390625,-7817.64990234375,-2508.929931640625,-372377.71875,-12788.490234375,-400000.0625,-357727.1875,-400000.0625
210.2177927494049,1467.6600341796875,-7813.169921875,-2507.02001953125,-372718.71875,-12792.6796875,-400000.0625,-358235.53125,-400000.0625
210.30857157707214,1459.31005859375,-7821.1298828125,-2516.510009765625,-372749.90625,-12791.6796875,-400000.0625,-358211.84375,-400000.0625
210.34678077697754,1446.77001953125,-7836.68017578125,-2528.239990234375,-372437.65625,-12803.169921875,-400000.0625,-357696.25,-400000.0625
210.43958353996277,1446.6300048828125,-7836.2001953125,-2530.14990234375,-372212.4375,-12815.3798828125,-400000.0625,-357407.84375,-400000.0625
210.49291729927063,1463.93994140625,-7823.3701171875,-2515.97998046875,-372390.03125,-12805.2197265625,-400000.0625,-357747.4375,-400000.0625
210.64507603645325,1470.7099609375,-7816.1201171875,-2507.72998046875,-372729.53125,-12803.080078125,-400000.0625,-358256.125,-400000.0625
210.7718698978424,1462.6500244140625,-7818.64990234375,-2512.409912109375,-372762.78125,-12806.9404296875,-400000.0625,-358235.875,-400000.0625
210.85928750038147,1447.8199462890625,-7835.72021484375,-2526.6201171875,-372447.15625,-12809.849609375,-400000.0625,-357716.5625,-400000.0625
210.90818166732788,1449.300048828125,-7834.47998046875,-2529.050048828125,-372222.1875,-12800.3095703125,-400000.0625,-357429.375,-400000.0625
211.02732491493225,1467.56005859375,-7815.1201171875,-2509.31005859375,-372400.03125,-12785.25,-400000.0625,-357770.34375,-400000.0625
211.14124011993408,1465.8499755859375,-7819.509765625,-2509.68994140625,-372743.46875,-12790.2998046875,-400000.0625,-358282.3125,-400000.0625
211.21438694000244,1453.0699462890625,-7828.759765625,-2524.280029296875,-372776.59375,-12799.740234375,-400000.0625,-358262.6875,-400000.0625
211.25549507141113,1443.4300537109375,-7837.68017578125,-2535.8701171875,-372462.28125,-12809.1396484375,-400000.0625,-357746.0625,-400000.0625
211.35285782814026,1450.3499755859375,-7830.85986328125,-2529.139892578125,-372235.90625,-12817.91015625,-400000.0625,-357455.875,-400000.0625
211.40336275100708,1468.0400390625,-7814.5,-2511.840087890625,-372414.1875,-12801.3095703125,-400000.0625,-357794.375,-400000.0625
211.4694061279297,1474.2900390625,-7808.02001953125,-2503.25,-372754.625,-12789.7802734375,-400000.0625,-358303.15625,-400000.0625
211.50849509239197,1460.4100341796875,-7825.08984375,-2521.179931640625,-372789.09375,-12810.0400390625,-400000.0625,-358284.21875,-400000.0625
211.5984365940094,1442.6199951171875,-7841.97021484375,-2537.679931640625,-372472.65625,-12815.0498046875,-400000.0625,-357764.8125,-400000.0625
211.6398046016693,1446.8699951171875,-7836.68017578125,-2530.719970703125,-372247.0625,-12802.650390625,-400000.0625,-357477.84375,-400000.0625
211.72486352920532,1467.93994140625,-7815.509765625,-2510.31005859375,-372421.4375,-12784.2001953125,-400000.0625,-357815.84375,-400000.0625
211.76404094696045,1472.9000244140625,-7810.64013671875,-2504.159912109375,-372764.78125,-12777.1904296875,-400000.0625,-358326.8125,-400000.0625
212.09698581695557,1460.4599609375,-7820.509765625,-2517.56005859375,-372800.96875,-12800.41015625,-400000.0625,-358309.5625,-400000.0625
212.19113945960999,1447.1500244140625,-7830.10009765625,-2529.669921875,-372489.3125,-12818.580078125,-400000.0625,-357793.40625,-400000.0625
212.2860279083252,1447.1500244140625,-7837.14990234375,-2533.010009765625,-372260.75,-12818.3896484375,-400000.0625,-357500.9375,-400000.0625
212.42821764945984,1458.7900390625,-7828.52001953125,-2522.949951171875,-372438.1875,-12806.26953125,-400000.0625,-357839.8125,-400000.0625
212.64608025550842,1466.56005859375,-7816.4599609375,-2512.219970703125,-372780.03125,-12795.6396484375,-400000.0625,-358352.125,-400000.0625
212.8286907672882,1457.4100341796875,-7829.0498046875,-2524.18994140625,-372817.5,-12796.0703125,-400000.0625,-358338.6875,-400000.0625
212.9668276309967,1443.6199951171875,-7838.25,-2538.969970703125,-372505.65625,-12813.1904296875,-400000.0625,-357822.3125,-400000.0625
213.18281292915344,1449.5400390625,-7831.72021484375,-2530.909912109375,-372277.625,-12815.8095703125,-400000.0625,-357530.03125,-400000.0625
213.3050730228424,1469.22998046875,-7822.3701171875,-2516.60009765625,-372450.59375,-12798.3603515625,-400000.0625,-357866.75,-400000.0625
213.44473099708557,1468.1300048828125,-7816.35986328125,-2512.070068359375,-372792.4375,-12796.2099609375,-400000.0625,-358380.46875,-400000.0625
213.58070397377014,1455.5,-7824.9501953125,-2522.610107421875,-372828.78125,-12807.3203125,-400000.0625,-358364.4375,-400000.0625
213.7206745147705,1443.2900390625,-7837.14990234375,-2534.8701171875,-372517.5,-12813.0498046875,-400000.0625,-357846.3125,-400000.0625
213.82330203056335,1441.6700439453125,-7838.77001953125,-2535.77001953125,-372288.03125,-12807.23046875,-400000.0625,-357550.71875,-400000.0625
213.9030544757843,1455.02001953125,-7823.89990234375,-2522.75,-372461.9375,-12793.8798828125,-400000.0625,-357887.03125,-400000.0625
213.94133234024048,1462.75,-7815.41015625,-2514.60009765625,-372803.3125,-12786.6796875,-400000.0625,-358399.875,-400000.0625
214.0413613319397,1452.9200439453125,-7824.22998046875,-2524.81005859375,-372841.59375,-12801.509765625,-400000.0625,-358386.1875,-400000.0625
214.15775227546692,1444.77001953125,-7837.9599609375,-2536.820068359375,-372528.15625,-12821.25,-400000.0625,-357867.625,-400000.0625
214.26893401145935,1447.3900146484375,-7832.6201171875,-2529.429931640625,-372299.28125,-12813.900390625,-400000.0625,-357573.21875,-400000.0625
214.36074233055115,1458.3599853515625,-7818.1298828125,-2513.5,-372469.21875,-12797.8798828125,-400000.0625,-357908.375,-400000.0625
214.40906262397766,1465.4599609375,-7814.7900390625,-2512.4599609375,-372811.5,-12800.0302734375,-400000.0625,-358424.1875,-400000.0625
214.51026582717896,1456.31005859375,-7825.08984375,-2523.989990234375,-372847.40625,-12800.41015625,-400000.0625,-358412.15625,-400000.0625
214.59976363182068,1439.6700439453125,-7835.81982421875,-2534.820068359375,-372535.625,-12810.1796875,-400000.0625,-357893.8125,-400000.0625
214.64473605155945,1444.8199462890625,-7828.43017578125,-2529.429931640625,-372303.8125,-12807.6103515625,-400000.0625,-357594.28125,-400000.0625
214.7267427444458,1464.030029296875,-7814.97998046875,-2513.5,-372474.25,-12796.169921875,-400000.0625,-357930.21875,-400000.0625
214.7902011871338,1468.1800537109375,-7811.5498046875,-2510.360107421875,-372815.28125,-12795.259765625,-400000.0625,-358446.59375,-400000.0625
214.88424921035767,1457.5999755859375,-7822.47021484375,-2520.1298828125,-372853.1875,-12796.5498046875,-400000.0625,-358435.875,-400000.0625
214.92146968841553,1441.8599853515625,-7832.580078125,-2532.2900390625,-372540.5625,-12809.5595703125,-400000.0625,-357915.21875,-400000.0625
214.9920473098755,1443.6700439453125,-7830.3798828125,-2530.909912109375,-372313.5,-12820.669921875,-400000.0625,-357616.5,-400000.0625
215.02844262123108,1461.219970703125,-7808.97021484375,-2511.929931640625,-372481.5,-12796.400390625,-400000.0625,-357949.96875,-400000.0625
215.10620880126953,1471.81005859375,-7806.64013671875,-2507.8798828125,-372822.03125,-12789.490234375,-400000.0625,-358467.75,-400000.0625
215.15329551696777,1458.8399658203125,-7818.83984375,-2520.85009765625,-372860.9375,-12807.080078125,-400000.0625,-358456.5,-400000.0625
215.2411069869995,1449.43994140625,-7829.52001953125,-2531.2900390625,-372550.65625,-12815.7197265625,-400000.0625,-357936.46875,-400000.0625
215.26940512657166,1450.3499755859375,-7831.0,-2531.860107421875,-372320.21875,-12814.330078125,-400000.0625,-357636.53125,-400000.0625
215.32777953147888,1466.8900146484375,-7812.68994140625,-2513.4599609375,-372489.4375,-12789.009765625,-400000.0625,-357972.4375,-400000.0625
215.36081671714783,1471.0899658203125,-7804.72998046875,-2508.35009765625,-372828.375,-12781.8603515625,-400000.0625,-358490.625,-400000.0625
215.40407514572144,1456.5899658203125,-7819.419921875,-2525.139892578125,-372869.78125,-12803.650390625,-400000.0625,-358483.4375,-400000.0625
215.49690771102905,1437.5699462890625,-7848.35986328125,-2546.97998046875,-372558.6875,-12818.2900390625,-400000.0625,-357960.96875,-400000.0625
215.54178094863892,1442.9100341796875,-7844.16015625,-2539.02001953125,-372328.0,-12810.7998046875,-400000.0625,-357657.8125,-400000.0625
215.65580558776855,1464.0799560546875,-7820.64990234375,-2515.840087890625,-372495.3125,-12791.830078125,-400000.0625,-357989.3125,-400000.0625
215.7716166973114,1471.4200439453125,-7811.740234375,-2509.5,-372837.0625,-12797.5498046875,-400000.0625,-358511.78125,-400000.0625
215.8592700958252,1457.02001953125,-7826.56982421875,-2527.89990234375,-372878.0625,-12824.9697265625,-400000.0625,-358504.59375,-400000.0625
215.90393590927124,1442.8599853515625,-7839.25,-2542.02001953125,-372570.0,-12831.5,-400000.0625,-357983.6875,-400000.0625
216.0025372505188,1451.6400146484375,-7834.9599609375,-2533.199951171875,-372338.15625,-12813.3798828125,-400000.0625,-357677.75,-400000.0625
216.05821299552917,1466.6600341796875,-7818.7998046875,-2515.360107421875,-372508.0625,-12791.73046875,-400000.0625,-358011.25,-400000.0625
216.1449737548828,1468.0400390625,-7817.22021484375,-2514.4599609375,-372849.21875,-12795.5,-400000.0625,-358533.21875,-400000.0625
216.18904161453247,1462.5999755859375,-7821.85009765625,-2522.139892578125,-372891.53125,-12808.0400390625,-400000.0625,-358528.0,-400000.0625
216.3075828552246,1446.9599609375,-7839.81982421875,-2539.25,-372579.71875,-12815.2900390625,-400000.0625,-358003.375,-400000.0625
216.40113615989685,1451.02001953125,-7840.8701171875,-2537.110107421875,-372347.53125,-12815.0,-400000.0625,-357695.25,-400000.0625
216.44027972221375,1470.6600341796875,-7816.02978515625,-2514.7900390625,-372513.34375,-12800.26953125,-400000.0625,-358026.5625,-400000.0625
216.52561783790588,1476.81005859375,-7809.93017578125,-2510.830078125,-372855.46875,-12788.580078125,-400000.0625,-358551.15625,-400000.0625
216.57477474212646,1466.1300048828125,-7820.7001953125,-2521.3701171875,-372896.0625,-12802.8896484375,-400000.0625,-358543.78125,-400000.0625
216.65535807609558,1452.8299560546875,-7834.47998046875,-2533.340087890625,-372587.8125,-12824.73046875,-400000.0625,-358019.6875,-400000.0625
216.688862323761,1454.1600341796875,-7834.6298828125,-2533.9599609375,-372354.21875,-12810.6103515625,-400000.0625,-357708.53125,-400000.0625
216.7723650932312,1466.4200439453125,-7823.60986328125,-2520.320068359375,-372521.03125,-12787.0595703125,-400000.0625,-358040.9375,-400000.0625
216.8121395111084,1470.280029296875,-7814.41015625,-2514.080078125,-372863.34375,-12795.6396484375,-400000.0625,-358566.09375,-400000.0625
216.90515899658203,1455.739990234375,-7821.27001953125,-2523.469970703125,-372906.15625,-12817.1904296875,-400000.0625,-358562.125,-400000.0625
216.94641494750977,1448.8199462890625,-7836.81982421875,-2535.06005859375,-372594.71875,-12819.3896484375,-400000.0625,-358035.5625,-400000.0625
217.0287754535675,1453.260009765625,-7835.43994140625,-2534.9599609375,-372362.90625,-12807.509765625,-400000.0625,-357726.65625,-400000.0625
217.06170558929443,1463.3199462890625,-7816.83984375,-2519.75,-372528.3125,-12797.400390625,-400000.0625,-358056.96875,-400000.0625
217.1267077922821,1469.9000244140625,-7808.16015625,-2508.780029296875,-372870.96875,-12793.830078125,-400000.0625,-358583.84375,-400000.0625
217.15835881233215,1465.3699951171875,-7815.89013671875,-2512.929931640625,-372911.5625,-12792.01953125,-400000.0625,-358579.25,-400000.0625
217.20255041122437,1450.25,-7832.240234375,-2529.340087890625,-372602.3125,-12811.66015625,-400000.0625,-358052.625,-400000.0625
217.33472895622253,1447.3399658203125,-7836.14990234375,-2533.10009765625,-372365.84375,-12818.8603515625,-400000.0625,-357737.375,-400000.0625
217.48115873336792,1460.219970703125,-7823.22998046875,-2519.3701171875,-372531.40625,-12805.650390625,-400000.0625,-358067.40625,-400000.0625
217.5879442691803,1464.3699951171875,-7814.1201171875,-2513.169921875,-372872.59375,-12797.7900390625,-400000.0625,-358594.40625,-400000.0625
217.6720368862152,1454.9300537109375,-7826.0400390625,-2525.280029296875,-372918.9375,-12801.83984375,-400000.0625,-358593.875,-400000.0625
217.70538067817688,1441.530029296875,-7841.39990234375,-2540.780029296875,-372610.71875,-12811.1396484375,-400000.0625,-358065.59375,-400000.0625
217.79265880584717,1448.9200439453125,-7829.81005859375,-2535.6298828125,-372378.6875,-12812.900390625,-400000.0625,-357752.59375,-400000.0625
217.83159136772156,1469.22998046875,-7813.41015625,-2514.1201171875,-372543.4375,-12798.259765625,-400000.0625,-358081.15625,-400000.0625
217.8903238773346,1476.239990234375,-7803.72998046875,-2504.02001953125,-372887.46875,-12787.2998046875,-400000.0625,-358610.28125,-400000.0625
217.92759466171265,1453.449951171875,-7829.0,-2529.530029296875,-372931.8125,-12819.7197265625,-400000.0625,-358605.9375,-400000.0625
217.96789956092834,1440.530029296875,-7841.2998046875,-2542.68994140625,-372622.59375,-12828.6396484375,-400000.0625,-358078.5625,-400000.0625
218.03687953948975,1448.3499755859375,-7833.669921875,-2534.820068359375,-372387.25,-12808.1298828125,-400000.0625,-357761.625,-400000.0625
218.06873321533203,1462.8900146484375,-7820.1298828125,-2520.0400390625,-372554.15625,-12788.2001953125,-400000.0625,-358091.15625,-400000.0625
218.13791346549988,1471.4200439453125,-7813.35986328125,-2512.5,-372896.0625,-12789.490234375,-400000.0625,-358618.875,-400000.0625
218.1795732975006,1461.0799560546875,-7814.5,-2516.510009765625,-372942.15625,-12808.419921875,-400000.0625,-358618.875,-400000.0625
218.24653029441833,1444.5799560546875,-7837.8701171875,-2536.9599609375,-372631.78125,-12826.6298828125,-400000.0625,-358091.96875,-400000.0625
218.28078699111938,1440.4300537109375,-7844.830078125,-2541.300048828125,-372395.46875,-12830.6396484375,-400000.0625,-357775.0625,-400000.0625
218.34495615959167,1457.5999755859375,-7826.419921875,-2522.989990234375,-372556.59375,-12814.48046875,-400000.0625,-358098.03125,-400000.0625
218.38421630859375,1471.949951171875,-7813.7900390625,-2513.219970703125,-372898.46875,-12789.3896484375,-400000.0625,-358624.9375,-400000.0625
218.441823720932,1473.239990234375,-7815.1201171875,-2515.169921875,-372941.1875,-12783.5302734375,-400000.0625,-358623.15625,-400000.0625
218.46795749664307,1458.1700439453125,-7832.240234375,-2532.340087890625,-372633.96875,-12805.7998046875,-400000.0625,-358098.84375,-400000.0625
218.50113797187805,1455.02001953125,-7840.8701171875,-2538.06005859375,-372395.40625,-12821.9599609375,-400000.0625,-357782.25,-400000.0625
218.572491645813,1462.1300048828125,-7827.3798828125,-2526.860107421875,-372558.125,-12809.900390625,-400000.0625,-358105.5625,-400000.0625
218.6120707988739,1464.800048828125,-7820.75,-2522.989990234375,-372901.09375,-12807.2802734375,-400000.0625,-358632.1875,-400000.0625
218.70977973937988,1460.5,-7828.43017578125,-2527.0,-372949.21875,-12812.1396484375,-400000.0625,-358635.34375,-400000.0625
218.7473213672638,1451.1600341796875,-7837.490234375,-2535.919921875,-372637.75,-12825.6796875,-400000.0625,-358110.34375,-400000.0625
218.8247218132019,1451.3499755859375,-7834.39013671875,-2530.2900390625,-372399.8125,-12819.3896484375,-400000.0625,-357792.46875,-400000.0625
218.8698968887329,1462.510009765625,-7818.89013671875,-2512.169921875,-372558.71875,-12798.259765625,-400000.0625,-358110.9375,-400000.0625
218.95936059951782,1479.43994140625,-7803.77001953125,-2499.2900390625,-372900.96875,-12782.2900390625,-400000.0625,-358638.03125,-400000.0625
219.00110602378845,1462.93994140625,-7823.47021484375,-2519.989990234375,-372946.125,-12798.259765625,-400000.0625,-358638.375,-400000.0625
219.09587788581848,1441.18994140625,-7843.35009765625,-2539.35009765625,-372639.0,-12812.4296875,-400000.0625,-358115.09375,-400000.0625
219.1552906036377,1441.0,-7837.10986328125,-2536.340087890625,-372400.1875,-12820.2001953125,-400000.0625,-357796.125,-400000.0625
219.25637698173523,1456.6400146484375,-7822.27978515625,-2521.090087890625,-372563.125,-12808.2802734375,-400000.0625,-358116.125,-400000.0625
219.3632731437683,1470.52001953125,-7811.740234375,-2507.639892578125,-372904.3125,-12790.9697265625,-400000.0625,-358639.625,-400000.0625
219.45672869682312,1463.0799560546875,-7820.64990234375,-2520.510009765625,-372949.75,-12807.23046875,-400000.0625,-358642.28125,-400000.0625
219.48937702178955,1446.77001953125,-7839.2001953125,-2537.300048828125,-372639.5625,-12835.2197265625,-400000.0625,-358117.65625,-400000.0625
219.54906845092773,1450.5899658203125,-7837.33984375,-2536.489990234375,-372401.5625,-12836.8896484375,-400000.0625,-357798.8125,-400000.0625
219.58773565292358,1467.1800537109375,-7818.31982421875,-2516.60009765625,-372560.03125,-12800.7001953125,-400000.0625,-358116.1875,-400000.0625
219.62180304527283,1469.1800537109375,-7811.740234375,-2509.68994140625,-372902.625,-12792.8701171875,-400000.0625,-358641.90625,-400000.0625
219.6755542755127,1454.5400390625,-7827.66015625,-2526.52001953125,-372948.5,-12801.740234375,-400000.0625,-358644.1875,-400000.0625
219.70553827285767,1445.2900390625,-7839.2998046875,-2539.919921875,-372640.5625,-12817.48046875,-400000.0625,-358123.625,-400000.0625
219.73623871803284,1444.530029296875,-7840.68017578125,-2537.110107421875,-372398.9375,-12819.240234375,-400000.0625,-357804.1875,-400000.0625
219.8073570728302,1458.260009765625,-7821.31982421875,-2520.22998046875,-372558.6875,-12800.26953125,-400000.0625,-358120.53125,-400000.0625
219.83612656593323,1472.81005859375,-7812.68994140625,-2510.97998046875,-372899.53125,-12789.0595703125,-400000.0625,-358642.53125,-400000.0625
219.87769079208374,1466.0400390625,-7815.89013671875,-2516.080078125,-372948.375,-12816.48046875,-400000.0625,-358648.4375,-400000.0625
219.9600076675415,1448.25,-7828.759765625,-2529.909912109375,-372638.40625,-12836.26953125,-400000.0625,-358129.34375,-400000.0625
220.01768231391907,1442.77001953125,-7832.9599609375,-2530.429931640625,-372397.5,-12815.8095703125,-400000.0625,-357810.25,-400000.0625
220.10987424850464,1455.969970703125,-7826.81005859375,-2522.52001953125,-372553.8125,-12800.83984375,-400000.0625,-358124.0,-400000.0625
220.15883660316467,1466.8900146484375,-7818.64990234375,-2514.699951171875,-372898.625,-12799.599609375,-400000.0625,-358647.625,-400000.0625
220.23838424682617,1461.4100341796875,-7819.02978515625,-2516.080078125,-372947.59375,-12804.9404296875,-400000.0625,-358652.21875,-400000.0625
220.2928111553192,1445.47998046875,-7830.72021484375,-2531.530029296875,-372639.875,-12809.2802734375,-400000.0625,-358134.84375,-400000.0625
220.41928148269653,1452.489990234375,-7831.33984375,-2533.010009765625,-372394.21875,-12810.759765625,-400000.0625,-357813.96875,-400000.0625
220.4965741634369,1468.1800537109375,-7819.3701171875,-2517.840087890625,-372550.90625,-12809.23046875,-400000.0625,-358126.71875,-400000.0625
220.52880120277405,1468.800048828125,-7811.68994140625,-2513.840087890625,-372892.8125,-12813.669921875,-400000.0625,-358647.34375,-400000.0625
220.5934703350067,1464.1800537109375,-7823.7998046875,-2522.0400390625,-372942.875,-12812.4697265625,-400000.0625,-358654.84375,-400000.0625
220.62371921539307,1449.6300048828125,-7838.35009765625,-2534.909912109375,-372631.84375,-12815.0498046875,-400000.0625,-358136.59375,-400000.0625
220.66211128234863,1448.9200439453125,-7835.72021484375,-2533.6298828125,-372389.9375,-12810.759765625,-400000.0625,-357817.5625,-400000.0625
220.72439241409302,1466.800048828125,-7815.31005859375,-2515.60009765625,-372544.375,-12804.2197265625,-400000.0625,-358127.4375,-400000.0625
220.76042127609253,1471.18994140625,-7806.68017578125,-2509.590087890625,-372888.625,-12810.08984375,-400000.0625,-358649.125,-400000.0625
220.79222130775452,1460.31005859375,-7817.93994140625,-2521.1298828125,-372936.59375,-12806.4599609375,-400000.0625,-358656.78125,-400000.0625
220.8671224117279,1456.7900390625,-7827.85986328125,-2529.47998046875,-372628.5,-12822.8203125,-400000.0625,-358143.09375,-400000.0625
220.90770387649536,1461.4100341796875,-7829.43017578125,-2527.6201171875,-372384.0625,-12827.9697265625,-400000.0625,-357821.40625,-400000.0625
220.99610662460327,1467.1800537109375,-7813.22021484375,-2514.080078125,-372538.65625,-12802.5498046875,-400000.0625,-358130.125,-400000.0625
221.05172157287598,1470.1400146484375,-7808.10986328125,-2510.830078125,-372880.0625,-12786.76953125,-400000.0625,-358648.78125,-400000.0625
221.16856288909912,1459.97998046875,-7824.85009765625,-2525.139892578125,-372933.0625,-12806.509765625,-400000.0625,-358660.84375,-400000.0625
221.27595782279968,1448.489990234375,-7836.2998046875,-2535.8701171875,-372622.71875,-12820.8203125,-400000.0625,-358145.9375,-400000.0625
221.36982107162476,1451.25,-7828.56982421875,-2527.81005859375,-372379.15625,-12819.4296875,-400000.0625,-357825.125,-400000.0625
221.4124047756195,1472.0899658203125,-7806.490234375,-2508.780029296875,-372531.875,-12810.419921875,-400000.0625,-358129.875,-400000.0625
221.50205421447754,1478.3900146484375,-7800.77001953125,-2504.679931640625,-372874.78125,-12803.1298828125,-400000.0625,-358650.8125,-400000.0625
221.54638624191284,1473.3299560546875,-7806.39990234375,-2512.219970703125,-372926.40625,-12802.509765625,-400000.0625,-358662.65625,-400000.0625
221.61853218078613,1456.68994140625,-7823.89990234375,-2527.18994140625,-372619.34375,-12821.25,-400000.0625,-358152.375,-400000.0625
221.64583802223206,1452.02001953125,-7824.759765625,-2528.860107421875,-372372.4375,-12814.0,-400000.0625,-357831.9375,-400000.0625
221.67860007286072,1467.989990234375,-7811.7900390625,-2514.699951171875,-372525.3125,-12793.9697265625,-400000.0625,-358138.6875,-400000.0625
221.7420346736908,1473.18994140625,-7806.68017578125,-2508.780029296875,-372867.59375,-12794.4501953125,-400000.0625,-358658.5,-400000.0625
221.77109050750732,1462.8399658203125,-7819.75,-2520.1298828125,-372921.9375,-12812.7099609375,-400000.0625,-358673.21875,-400000.0625
221.80118942260742,1451.2099609375,-7831.9599609375,-2533.2900390625,-372614.9375,-12827.73046875,-400000.0625,-358161.34375,-400000.0625
221.86265206336975,1463.699951171875,-7817.75,-2523.52001953125,-372371.5625,-12823.9599609375,-400000.0625,-357841.0625,-400000.0625
221.9017596244812,1484.43994140625,-7797.10009765625,-2501.679931640625,-372522.03125,-12798.3095703125,-400000.0625,-358144.34375,-400000.0625
221.95874547958374,1482.43994140625,-7796.240234375,-2500.389892578125,-372866.15625,-12791.400390625,-400000.0625,-358666.5625,-400000.0625
222.00049901008606,1470.22998046875,-7808.77978515625,-2512.169921875,-372918.65625,-12805.990234375,-400000.0625,-358680.0,-400000.0625
222.03856801986694,1464.8399658203125,-7815.35986328125,-2520.3701171875,-372611.125,-12814.08984375,-400000.0625,-358169.46875,-400000.0625
222.10733199119568,1464.8900146484375,-7822.22998046875,-2523.179931640625,-372364.03125,-12814.4296875,-400000.0625,-357843.96875,-400000.0625
222.13906979560852,1472.81005859375,-7812.97998046875,-2514.840087890625,-372516.53125,-12810.51953125,-400000.0625,-358148.9375,-400000.0625
222.21847772598267,1479.6700439453125,-7802.10986328125,-2506.070068359375,-372859.5625,-12801.2197265625,-400000.0625,-358668.6875,-400000.0625
222.25502753257751,1468.9000244140625,-7811.64013671875,-2516.4599609375,-372915.5,-12811.6103515625,-400000.0625,-358684.78125,-400000.0625
222.33236145973206,1464.4100341796875,-7825.7998046875,-2529.18994140625,-372606.28125,-12822.2001953125,-400000.0625,-358173.09375,-400000.0625
222.35825324058533,1466.93994140625,-7820.02978515625,-2523.949951171875,-372359.875,-12809.23046875,-400000.0625,-357850.15625,-400000.0625
222.41830897331238,1477.18994140625,-7808.39990234375,-2508.639892578125,-372509.625,-12798.169921875,-400000.0625,-358151.09375,-400000.0625
222.45528507232666,1481.43994140625,-7797.6201171875,-2502.580078125,-372855.8125,-12798.8798828125,-400000.0625,-358673.65625,-400000.0625
222.48517322540283,1467.989990234375,-7816.89013671875,-2520.179931640625,-372910.03125,-12812.66015625,-400000.0625,-358690.03125,-400000.0625
222.54628324508667,1462.4100341796875,-7824.56005859375,-2525.85009765625,-372604.625,-12823.5400390625,-400000.0625,-358180.125,-400000.0625
222.58339548110962,1461.27001953125,-7821.60986328125,-2521.419921875,-372357.03125,-12821.9599609375,-400000.0625,-357854.15625,-400000.0625
222.61084723472595,1466.699951171875,-7817.83984375,-2514.27001953125,-372508.53125,-12797.6904296875,-400000.0625,-358157.53125,-400000.0625
222.66273832321167,1473.52001953125,-7812.1201171875,-2510.5,-372853.46875,-12785.33984375,-400000.0625,-358679.46875,-400000.0625
222.70829582214355,1465.6099853515625,-7819.27001953125,-2519.27001953125,-372910.34375,-12810.5703125,-400000.0625,-358699.59375,-400000.0625
222.74736189842224,1454.9300537109375,-7827.330078125,-2524.7099609375,-372604.125,-12832.98046875,-400000.0625,-358189.375,-400000.0625
222.80763816833496,1461.699951171875,-7823.56005859375,-2520.989990234375,-372357.9375,-12823.919921875,-400000.0625,-357864.84375,-400000.0625
222.83761954307556,1477.9100341796875,-7806.490234375,-2507.929931640625,-372507.4375,-12798.6396484375,-400000.0625,-358164.875,-400000.0625
222.8657832145691,1483.010009765625,-7799.81982421875,-2502.010009765625,-372851.84375,-12793.16015625,-400000.0625,-358689.3125,-400000.0625
222.9342336654663,1472.1400146484375,-7819.18017578125,-2519.4599609375,-372907.96875,-12808.6103515625,-400000.0625,-358710.28125,-400000.0625
222.9665892124176,1455.1600341796875,-7838.06005859375,-2535.6298828125,-372604.5625,-12820.33984375,-400000.0625,-358201.125,-400000.0625
223.0274682044983,1456.31005859375,-7834.52978515625,-2531.47998046875,-372356.3125,-12810.7998046875,-400000.0625,-357873.28125,-400000.0625
223.0559277534485,1472.7099609375,-7813.259765625,-2511.219970703125,-372505.34375,-12801.650390625,-400000.0625,-358173.5,-400000.0625
223.09485960006714,1482.3399658203125,-7804.72998046875,-2503.300048828125,-372847.6875,-12808.990234375,-400000.0625,-358697.9375,-400000.0625
223.153315782547,1472.1400146484375,-7813.1201171875,-2514.030029296875,-372905.6875,-12820.4404296875,-400000.0625,-358719.1875,-400000.0625
223.1837124824524,1460.4599609375,-7826.56982421875,-2527.81005859375,-372598.96875,-12837.9404296875,-400000.0625,-358207.875,-400000.0625
223.21067786216736,1458.449951171875,-7828.47021484375,-2527.570068359375,-372350.375,-12827.25,-400000.0625,-357880.4375,-400000.0625
223.28009581565857,1473.9000244140625,-7810.8798828125,-2511.409912109375,-372494.65625,-12802.509765625,-400000.0625,-358179.75,-400000.0625
223.31059861183167,1484.300048828125,-7805.77978515625,-2506.639892578125,-372837.875,-12792.5400390625,-400000.0625,-358707.40625,-400000.0625
223.34503483772278,1470.949951171875,-7812.93017578125,-2514.4599609375,-372894.875,-12799.1201171875,-400000.0625,-358730.0625,-400000.0625
223.41347980499268,1458.97998046875,-7824.89990234375,-2523.419921875,-372590.875,-12816.3798828125,-400000.0625,-358220.09375,-400000.0625
223.44836139678955,1464.6500244140625,-7819.990234375,-2520.080078125,-372340.4375,-12822.0595703125,-400000.0625,-357887.03125,-400000.0625
223.5116572380066,1471.949951171875,-7811.740234375,-2510.5,-372488.03125,-12814.1396484375,-400000.0625,-358188.0625,-400000.0625
223.53981566429138,1479.0999755859375,-7804.58984375,-2505.830078125,-372829.875,-12817.240234375,-400000.0625,-358716.375,-400000.0625
223.57583212852478,1467.8499755859375,-7811.5498046875,-2515.93994140625,-372888.6875,-12821.76953125,-400000.0625,-358739.28125,-400000.0625
223.63464403152466,1450.2099609375,-7833.0,-2535.300048828125,-372582.15625,-12819.33984375,-400000.0625,-358226.28125,-400000.0625
223.66295289993286,1452.5899658203125,-7832.0498046875,-2532.050048828125,-372333.0625,-12813.1396484375,-400000.0625,-357896.21875,-400000.0625
223.7046844959259,1473.949951171875,-7814.35986328125,-2512.64990234375,-372476.28125,-12799.4599609375,-400000.0625,-358195.40625,-400000.0625
223.78126692771912,1482.489990234375,-7805.68017578125,-2504.2099609375,-372820.46875,-12799.169921875,-400000.0625,-358726.625,-400000.0625
223.81342935562134,1472.6199951171875,-7814.60009765625,-2511.639892578125,-372880.0625,-12805.0302734375,-400000.0625,-358751.53125,-400000.0625
223.88738298416138,1454.31005859375,-7830.9501953125,-2528.050048828125,-372577.65625,-12822.7197265625,-400000.0625,-358240.46875,-400000.0625
223.9175319671631,1455.68994140625,-7832.33984375,-2529.6201171875,-372327.21875,-12830.1201171875,-400000.0625,-357905.46875,-400000.0625
223.9790539741516,1470.8499755859375,-7819.93994140625,-2514.889892578125,-372471.375,-12813.759765625,-400000.0625,-358205.28125,-400000.0625
224.00622034072876,1474.47998046875,-7805.39990234375,-2505.639892578125,-372813.375,-12803.41015625,-400000.0625,-358736.84375,-400000.0625
224.03612303733826,1466.4200439453125,-7815.31005859375,-2515.840087890625,-372874.40625,-12808.900390625,-400000.0625,-358764.03125,-400000.0625
224.09010863304138,1455.9300537109375,-7833.33984375,-2531.81005859375,-372569.5,-12821.76953125,-400000.0625,-358248.46875,-400000.0625
224.12086391448975,1457.1700439453125,-7830.759765625,-2527.330078125,-372319.5625,-12813.1396484375,-400000.0625,-357914.34375,-400000.0625
224.1528308391571,1475.47998046875,-7813.8798828125,-2508.739990234375,-372462.75,-12805.2197265625,-400000.0625,-358213.28125,-400000.0625
224.2104890346527,1478.239990234375,-7809.68994140625,-2504.780029296875,-372805.3125,-12802.41015625,-400000.0625,-358747.875,-400000.0625
224.2375364303589,1466.22998046875,-7824.47021484375,-2519.56005859375,-372864.96875,-12818.0498046875,-400000.0625,-358776.625,-400000.0625
224.27437448501587,1449.3499755859375,-7838.35009765625,-2534.909912109375,-372560.96875,-12819.9599609375,-400000.0625,-358263.375,-400000.0625
224.32970762252808,1454.6400146484375,-7827.81005859375,-2523.570068359375,-372307.71875,-12818.5302734375,-400000.0625,-357924.84375,-400000.0625
224.36669516563416,1479.8199462890625,-7808.8798828125,-2502.300048828125,-372452.34375,-12806.6103515625,-400000.0625,-358222.25,-400000.0625
224.39656281471252,1481.3399658203125,-7807.68017578125,-2502.010009765625,-372794.46875,-12796.830078125,-400000.0625,-358759.78125,-400000.0625
224.4501452445984,1465.989990234375,-7820.419921875,-2515.840087890625,-372858.4375,-12809.1796875,-400000.0625,-358794.78125,-400000.0625
224.4811408519745,1452.6400146484375,-7836.91015625,-2533.77001953125,-372554.6875,-12835.080078125,-400000.0625,-358279.28125,-400000.0625
224.51186800003052,1456.550048828125,-7830.47998046875,-2524.659912109375,-372303.15625,-12824.919921875,-400000.0625,-357940.0625,-400000.0625
224.559641122818,1470.6099853515625,-7815.02978515625,-2511.02001953125,-372443.53125,-12819.2900390625,-400000.0625,-358236.9375,-400000.0625
224.59131121635437,1477.050048828125,-7810.06982421875,-2510.830078125,-372787.8125,-12811.849609375,-400000.0625,-358775.28125,-400000.0625
224.61611366271973,1464.75,-7819.31982421875,-2517.75,-372850.21875,-12801.1201171875,-400000.0625,-358804.59375,-400000.0625
224.67329216003418,1451.489990234375,-7831.47998046875,-2528.6201171875,-372549.375,-12813.669921875,-400000.0625,-358289.34375,-400000.0625
224.7019054889679,1455.31005859375,-7829.9501953125,-2526.239990234375,-372298.0,-12820.150390625,-400000.0625,-357948.4375,-400000.0625
224.73342084884644,1474.9100341796875,-7806.64013671875,-2503.590087890625,-372442.96875,-12798.9296875,-400000.0625,-358246.46875,-400000.0625
224.7917833328247,1482.1099853515625,-7801.81982421875,-2496.340087890625,-372787.375,-12797.98046875,-400000.0625,-358784.09375,-400000.0625
224.81598949432373,1465.510009765625,-7819.080078125,-2512.360107421875,-372852.03125,-12819.76953125,-400000.0625,-358818.625,-400000.0625
224.83859038352966,1453.300048828125,-7828.330078125,-2523.469970703125,-372549.8125,-12830.0703125,-400000.0625,-358302.15625,-400000.0625
224.89386200904846,1450.9200439453125,-7833.0,-2525.760009765625,-372300.09375,-12823.3896484375,-400000.0625,-357960.6875,-400000.0625
224.91861414909363,1466.1800537109375,-7818.18017578125,-2510.830078125,-372441.65625,-12809.330078125,-400000.0625,-358258.09375,-400000.0625
224.9403727054596,1476.1400146484375,-7803.490234375,-2499.530029296875,-372785.65625,-12799.740234375,-400000.0625,-358800.78125,-400000.0625
225.00231409072876,1467.989990234375,-7815.4599609375,-2510.739990234375,-372849.40625,-12815.330078125,-400000.0625,-358834.84375,-400000.0625
225.0362524986267,1458.550048828125,-7828.18994140625,-2521.7099609375,-372551.0625,-12829.830078125,-400000.0625,-358320.09375,-400000.0625
225.0742347240448,1463.0799560546875,-7824.7998046875,-2519.56005859375,-372298.0,-12817.8095703125,-400000.0625,-357976.8125,-400000.0625
225.1384527683258,1475.3800048828125,-7813.83984375,-2509.590087890625,-372439.28125,-12802.1298828125,-400000.0625,-358272.6875,-400000.0625
225.17792057991028,1478.719970703125,-7804.919921875,-2504.39990234375,-372784.0,-12801.41015625,-400000.0625,-358812.75,-400000.0625
225.26184391975403,1474.1400146484375,-7814.169921875,-2513.840087890625,-372850.65625,-12816.48046875,-400000.0625,-358848.46875,-400000.0625
225.33887696266174,1465.510009765625,-7829.47998046875,-2527.050048828125,-372549.15625,-12837.1298828125,-400000.0625,-358331.4375,-400000.0625
225.4628586769104,1462.27001953125,-7830.72021484375,-2525.52001953125,-372296.0,-12832.1201171875,-400000.0625,-357986.78125,-400000.0625
225.55679297447205,1474.3299560546875,-7819.7998046875,-2514.27001953125,-372435.46875,-12809.330078125,-400000.0625,-358281.375,-400000.0625
225.59410309791565,1488.9200439453125,-7801.25,-2498.25,-372782.125,-12792.919921875,-400000.0625,-358823.78125,-400000.0625
225.65345287322998,1480.5799560546875,-7804.919921875,-2501.25,-372844.875,-12803.5595703125,-400000.0625,-358855.28125,-400000.0625
225.6943039894104,1462.3599853515625,-7822.22998046875,-2517.800048828125,-372542.75,-12825.0595703125,-400000.0625,-358338.21875,-400000.0625
225.78307366371155,1459.739990234375,-7827.6201171875,-2524.419921875,-372289.03125,-12831.6396484375,-400000.0625,-357993.9375,-400000.0625
225.8221628665924,1476.0999755859375,-7815.7001953125,-2509.550048828125,-372429.8125,-12815.330078125,-400000.0625,-358291.25,-400000.0625
225.9085087776184,1492.68994140625,-7797.14990234375,-2493.18994140625,-372772.96875,-12797.169921875,-400000.0625,-358831.3125,-400000.0625
225.93684697151184,1481.6800537109375,-7809.97021484375,-2507.02001953125,-372839.4375,-12809.3701171875,-400000.0625,-358870.03125,-400000.0625
226.00261092185974,1468.800048828125,-7827.08984375,-2522.179931640625,-372537.5625,-12815.6201171875,-400000.0625,-358356.21875,-400000.0625
226.03953504562378,1476.47998046875,-7817.02978515625,-2514.4599609375,-372283.125,-12815.9501953125,-400000.0625,-358012.28125,-400000.0625
226.09920716285706,1480.9100341796875,-7811.39990234375,-2508.449951171875,-372420.15625,-12821.4404296875,-400000.0625,-358304.59375,-400000.0625
226.1291937828064,1486.5400390625,-7809.259765625,-2504.110107421875,-372764.59375,-12803.3203125,-400000.0625,-358846.34375,-400000.0625
226.15857481956482,1478.3900146484375,-7818.3701171875,-2515.840087890625,-372829.28125,-12800.650390625,-400000.0625,-358883.34375,-400000.0625
226.22472596168518,1462.8399658203125,-7835.009765625,-2531.6201171875,-372531.28125,-12825.8701171875,-400000.0625,-358370.875,-400000.0625
226.2537968158722,1463.6500244140625,-7834.580078125,-2528.949951171875,-372275.125,-12829.9296875,-400000.0625,-358024.34375,-400000.0625
226.28810286521912,1487.2099609375,-7805.58984375,-2506.260009765625,-372411.875,-12811.23046875,-400000.0625,-358317.5625,-400000.0625
226.35465574264526,1495.97998046875,-7795.52978515625,-2494.669921875,-372754.34375,-12801.740234375,-400000.0625,-358857.28125,-400000.0625
226.39272332191467,1479.239990234375,-7815.02978515625,-2510.929931640625,-372823.0,-12807.1298828125,-400000.0625,-358897.25,-400000.0625
226.460027217865,1468.8499755859375,-7828.7099609375,-2524.89990234375,-372521.53125,-12819.099609375,-400000.0625,-358385.0,-400000.0625
226.50274872779846,1471.4200439453125,-7825.7099609375,-2521.090087890625,-372265.125,-12830.349609375,-400000.0625,-358039.21875,-400000.0625
226.58826303482056,1487.6400146484375,-7803.25,-2501.6298828125,-372398.9375,-12830.58984375,-400000.0625,-358328.0625,-400000.0625
226.61274194717407,1493.030029296875,-7798.2900390625,-2498.9599609375,-372743.84375,-12815.8603515625,-400000.0625,-358869.75,-400000.0625
226.664794921875,1480.77001953125,-7820.75,-2517.840087890625,-372810.375,-12820.4404296875,-400000.0625,-358910.09375,-400000.0625
226.6948206424713,1464.510009765625,-7830.43017578125,-2528.139892578125,-372511.65625,-12826.9697265625,-400000.0625,-358399.96875,-400000.0625
226.72289514541626,1465.27001953125,-7826.08984375,-2524.0400390625,-372252.84375,-12813.51953125,-400000.0625,-358052.875,-400000.0625
226.78324127197266,1482.8699951171875,-7811.7900390625,-2507.159912109375,-372387.03125,-12797.3095703125,-400000.0625,-358339.96875,-400000.0625
226.80766940116882,1488.6400146484375,-7804.72998046875,-2500.72998046875,-372729.3125,-12797.5498046875,-400000.0625,-358878.21875,-400000.0625
226.83186888694763,1478.0999755859375,-7819.22021484375,-2515.1298828125,-372799.96875,-12818.91015625,-400000.0625,-358921.0625,-400000.0625
226.90682744979858,1464.3199462890625,-7831.72021484375,-2527.239990234375,-372499.09375,-12843.4697265625,-400000.0625,-358413.84375,-400000.0625
226.93860721588135,1468.800048828125,-7830.10009765625,-2526.090087890625,-372242.96875,-12836.7900390625,-400000.0625,-358069.875,-400000.0625
227.0045075416565,1483.72998046875,-7811.35986328125,-2507.639892578125,-372378.53125,-12819.8203125,-400000.0625,-358352.5625,-400000.0625
227.03439450263977,1485.72998046875,-7799.81982421875,-2499.679931640625,-372723.71875,-12803.650390625,-400000.0625,-358888.65625,-400000.0625
227.08443760871887,1474.3299560546875,-7810.39990234375,-2512.97998046875,-372792.15625,-12806.75,-400000.0625,-358933.34375,-400000.0625
227.1424379348755,1463.989990234375,-7828.56982421875,-2526.6201171875,-372493.03125,-12819.7197265625,-400000.0625,-358428.03125,-400000.0625
227.17270874977112,1467.469970703125,-7827.240234375,-2520.89990234375,-372232.34375,-12817.9599609375,-400000.0625,-358079.46875,-400000.0625
227.20531272888184,1480.8699951171875,-7807.490234375,-2503.300048828125,-372365.34375,-12806.4599609375,-400000.0625,-358360.375,-400000.0625
227.25951981544495,1487.1600341796875,-7798.39013671875,-2495.77001953125,-372708.59375,-12804.41015625,-400000.0625,-358894.5,-400000.0625
227.29280471801758,1472.0400390625,-7813.5,-2511.219970703125,-372780.46875,-12824.919921875,-400000.0625,-358938.6875,-400000.0625
227.31139302253723,1459.030029296875,-7835.2001953125,-2533.25,-372482.0,-12851.8095703125,-400000.0625,-358434.09375,-400000.0625
227.3658754825592,1459.97998046875,-7829.3798828125,-2526.3798828125,-372223.625,-12834.169921875,-400000.0625,-358089.59375,-400000.0625
227.40841460227966,1477.9100341796875,-7808.8798828125,-2505.39990234375,-372356.03125,-12803.75,-400000.0625,-358368.78125,-400000.0625
227.43622589111328,1488.6400146484375,-7800.77001953125,-2497.77001953125,-372699.9375,-12794.9296875,-400000.0625,-358902.59375,-400000.0625
227.49019360542297,1474.3800048828125,-7815.89013671875,-2509.31005859375,-372769.34375,-12810.66015625,-400000.0625,-358947.84375,-400000.0625
227.52457571029663,1459.1700439453125,-7826.759765625,-2519.889892578125,-372471.21875,-12822.1103515625,-400000.0625,-358447.40625,-400000.0625
227.55121541023254,1458.1199951171875,-7823.3701171875,-2514.699951171875,-372211.75,-12821.150390625,-400000.0625,-358101.5,-400000.0625
227.61257672309875,1472.0899658203125,-7814.97998046875,-2502.489990234375,-372346.03125,-12808.9404296875,-400000.0625,-358381.6875,-400000.0625
227.64516043663025,1479.6700439453125,-7804.919921875,-2494.760009765625,-372689.8125,-12813.240234375,-400000.0625,-358912.875,-400000.0625
227.68398141860962,1469.4200439453125,-7813.97998046875,-2504.919921875,-372764.96875,-12830.9296875,-400000.0625,-358959.46875,-400000.0625
227.76003551483154,1455.260009765625,-7833.240234375,-2523.760009765625,-372466.46875,-12829.5,-400000.0625,-358460.5625,-400000.0625
227.8072910308838,1453.449951171875,-7831.72021484375,-2523.989990234375,-372206.25,-12820.91015625,-400000.0625,-358116.875,-400000.0625
227.90282249450684,1473.4300537109375,-7814.02978515625,-2504.2099609375,-372336.4375,-12804.8896484375,-400000.0625,-358391.90625,-400000.0625
227.94640684127808,1488.3499755859375,-7799.72021484375,-2490.0,-372682.90625,-12792.2099609375,-400000.0625,-358922.375,-400000.0625
228.02437138557434,1477.050048828125,-7808.97021484375,-2505.780029296875,-372754.9375,-12808.4697265625,-400000.0625,-358969.78125,-400000.0625
228.05733394622803,1461.4100341796875,-7831.6201171875,-2527.0,-372456.875,-12835.5498046875,-400000.0625,-358474.25,-400000.0625
228.11912322044373,1465.6500244140625,-7819.93994140625,-2515.840087890625,-372195.34375,-12830.58984375,-400000.0625,-358128.84375,-400000.0625
228.15296602249146,1478.719970703125,-7804.68017578125,-2501.72998046875,-372326.21875,-12815.330078125,-400000.0625,-358403.5,-400000.0625
228.18914079666138,1481.1500244140625,-7807.06005859375,-2504.2099609375,-372670.65625,-12805.5595703125,-400000.0625,-358931.90625,-400000.0625
228.2378432750702,1472.280029296875,-7818.31982421875,-2511.8798828125,-372744.875,-12803.3701171875,-400000.0625,-358981.46875,-400000.0625
228.27734398841858,1455.2099609375,-7830.56982421875,-2525.52001953125,-372446.78125,-12821.25,-400000.0625,-358485.9375,-400000.0625
228.31099581718445,1455.0699462890625,-7826.18994140625,-2523.0400390625,-372188.03125,-12821.009765625,-400000.0625,-358143.125,-400000.0625
228.40039134025574,1474.1400146484375,-7813.31005859375,-2504.5400390625,-372318.5,-12805.26953125,-400000.0625,-358415.59375,-400000.0625
228.44473552703857,1480.9100341796875,-7807.02001953125,-2502.159912109375,-372667.4375,-12809.1396484375,-400000.0625,-358945.09375,-400000.0625
228.50931668281555,1468.7099609375,-7818.509765625,-2514.60009765625,-372743.03125,-12821.6298828125,-400000.0625,-358994.625,-400000.0625
228.53648447990417,1457.449951171875,-7831.43017578125,-2525.18994140625,-372448.5,-12831.5498046875,-400000.0625,-358503.34375,-400000.0625
228.56857585906982,1464.75,-7827.85986328125,-2520.75,-372188.1875,-12828.16015625,-400000.0625,-358158.5,-400000.0625
228.64765000343323,1476.18994140625,-7811.64013671875,-2504.43994140625,-372317.75,-12811.51953125,-400000.0625,-358430.09375,-400000.0625
228.68322658538818,1484.06005859375,-7802.10986328125,-2494.760009765625,-372663.3125,-12800.1201171875,-400000.0625,-358957.375,-400000.0625
228.7374391555786,1478.239990234375,-7811.740234375,-2505.159912109375,-372743.125,-12817.4296875,-400000.0625,-359009.875,-400000.0625
228.75707745552063,1456.1700439453125,-7830.47998046875,-2523.0400390625,-372447.625,-12835.41015625,-400000.0625,-358518.84375,-400000.0625
228.78875255584717,1451.6400146484375,-7836.77001953125,-2528.330078125,-372187.46875,-12833.41015625,-400000.0625,-358174.1875,-400000.0625
228.8418688774109,1471.0400390625,-7814.740234375,-2509.070068359375,-372316.6875,-12809.08984375,-400000.0625,-358442.53125,-400000.0625
228.87193989753723,1481.25,-7803.009765625,-2498.77001953125,-372665.0625,-12799.599609375,-400000.0625,-358969.6875,-400000.0625
228.90169215202332,1473.52001953125,-7810.5,-2506.449951171875,-372742.84375,-12808.2802734375,-400000.0625,-359020.28125,-400000.0625
228.9602768421173,1459.219970703125,-7823.75,-2520.1298828125,-372449.625,-12830.16015625,-400000.0625,-358531.0,-400000.0625
229.00273442268372,1459.8399658203125,-7826.330078125,-2521.610107421875,-372188.9375,-12837.1298828125,-400000.0625,-358186.28125,-400000.0625
229.06284999847412,1476.5699462890625,-7806.10986328125,-2502.389892578125,-372316.9375,-12808.0400390625,-400000.0625,-358453.5,-400000.0625
229.10605764389038,1487.2099609375,-7801.14990234375,-2496.580078125,-372662.21875,-12792.16015625,-400000.0625,-358978.59375,-400000.0625
229.16677379608154,1476.0999755859375,-7815.4599609375,-2507.5,-372742.75,-12815.91015625,-400000.0625,-359032.28125,-400000.0625
229.20393586158752,1458.5999755859375,-7829.7099609375,-2523.610107421875,-372449.5,-12833.4501953125,-400000.0625,-358542.90625,-400000.0625
229.23902130126953,1455.3499755859375,-7828.08984375,-2524.570068359375,-372190.0,-12829.5,-400000.0625,-358198.25,-400000.0625
229.29656744003296,1470.949951171875,-7812.7900390625,-2509.2099609375,-372317.875,-12815.2900390625,-400000.0625,-358462.65625,-400000.0625
229.32543420791626,1482.1500244140625,-7802.9599609375,-2498.47998046875,-372667.75,-12808.51953125,-400000.0625,-358990.125,-400000.0625
229.35410070419312,1478.6199951171875,-7810.06982421875,-2506.300048828125,-372747.21875,-12817.240234375,-400000.0625,-359042.21875,-400000.0625
229.4210615158081,1463.93994140625,-7823.9501953125,-2520.179931640625,-372457.3125,-12825.16015625,-400000.0625,-358554.84375,-400000.0625
229.45889472961426,1461.4100341796875,-7825.47021484375,-2519.3701171875,-372196.28125,-12825.2001953125,-400000.0625,-358210.21875,-400000.0625
229.62012434005737,1481.6800537109375,-7801.490234375,-2495.340087890625,-372324.125,-12804.5595703125,-400000.0625,-358477.15625,-400000.0625
229.71110773086548,1488.4000244140625,-7795.14013671875,-2489.570068359375,-372671.84375,-12798.5,-400000.0625,-359003.0625,-400000.0625
229.77569150924683,1476.47998046875,-7807.02001953125,-2502.820068359375,-372755.4375,-12815.8095703125,-400000.0625,-359059.03125,-400000.0625
229.86264777183533,1458.9300537109375,-7823.22998046875,-2517.889892578125,-372464.03125,-12831.400390625,-400000.0625,-358570.4375,-400000.0625
229.9019603729248,1460.9300537109375,-7824.0400390625,-2517.080078125,-372207.84375,-12828.0703125,-400000.0625,-358226.90625,-400000.0625
229.9675281047821,1479.0999755859375,-7807.4501953125,-2500.14990234375,-372335.90625,-12804.3203125,-400000.0625,-358492.84375,-400000.0625
230.0004551410675,1485.969970703125,-7793.9501953125,-2491.18994140625,-372685.4375,-12796.1201171875,-400000.0625,-359021.90625,-400000.0625
230.03271412849426,1477.0,-7812.4501953125,-2508.590087890625,-372766.0,-12804.5595703125,-400000.0625,-359079.96875,-400000.0625
230.08003902435303,1461.1700439453125,-7829.2900390625,-2524.7099609375,-372475.28125,-12824.73046875,-400000.0625,-358592.75,-400000.0625
230.118878364563,1460.6500244140625,-7824.7099609375,-2519.1298828125,-372214.59375,-12825.25,-400000.0625,-358243.5625,-400000.0625
230.1484079360962,1476.81005859375,-7813.41015625,-2504.8701171875,-372342.1875,-12807.5595703125,-400000.0625,-358507.59375,-400000.0625
230.22298622131348,1490.68994140625,-7799.240234375,-2489.280029296875,-372686.8125,-12803.650390625,-400000.0625,-359037.78125,-400000.0625
230.2600359916687,1474.2900390625,-7809.97021484375,-2505.2099609375,-372771.25,-12826.9697265625,-400000.0625,-359100.09375,-400000.0625
230.33639812469482,1459.4100341796875,-7830.240234375,-2525.89990234375,-372481.25,-12836.080078125,-400000.0625,-358614.0625,-400000.0625
230.37094593048096,1468.3199462890625,-7821.31982421875,-2515.4599609375,-372220.625,-12823.5400390625,-400000.0625,-358264.96875,-400000.0625
230.45507383346558,1482.300048828125,-7805.43994140625,-2497.47998046875,-372345.4375,-12808.1298828125,-400000.0625,-358526.6875,-400000.0625
230.6107039451599,1484.1099853515625,-7807.64013671875,-2498.25,-372694.0,-12793.349609375,-400000.0625,-359058.21875,-400000.0625
230.72749662399292,1471.280029296875,-7818.080078125,-2513.219970703125,-372775.6875,-12802.650390625,-400000.0625,-359118.75,-400000.0625
230.83599424362183,1455.02001953125,-7827.3798828125,-2523.949951171875,-372485.3125,-12819.0498046875,-400000.0625,-358632.0,-400000.0625
230.89648175239563,1462.27001953125,-7824.14013671875,-2519.659912109375,-372222.8125,-12827.4501953125,-400000.0625,-358280.75,-400000.0625
230.92821407318115,1476.4300537109375,-7811.830078125,-2507.070068359375,-372349.75,-12814.2802734375,-400000.0625,-358544.96875,-400000.0625
230.9618902206421,1482.530029296875,-7805.009765625,-2501.679931640625,-372695.59375,-12806.23046875,-400000.0625,-359076.03125,-400000.0625
231.02252864837646,1468.3699951171875,-7823.89990234375,-2519.800048828125,-372782.125,-12830.0703125,-400000.0625,-359141.15625,-400000.0625
231.05501127243042,1453.9200439453125,-7832.39013671875,-2529.81005859375,-372491.625,-12847.4697265625,-400000.0625,-358653.4375,-400000.0625
231.0929777622223,1458.0699462890625,-7834.81982421875,-2529.18994140625,-372228.625,-12839.650390625,-400000.0625,-358302.0625,-400000.0625
231.15472507476807,1476.5699462890625,-7820.56005859375,-2508.1201171875,-372350.03125,-12803.26953125,-400000.0625,-358563.3125,-400000.0625
231.19130444526672,1476.6199951171875,-7809.1201171875,-2503.010009765625,-372695.875,-12797.5,-400000.0625,-359096.1875,-400000.0625
231.2274067401886,1470.6099853515625,-7811.97998046875,-2508.780029296875,-372776.9375,-12809.5595703125,-400000.0625,-359159.375,-400000.0625
231.288743019104,1462.6500244140625,-7825.419921875,-2517.699951171875,-372487.5,-12821.5302734375,-400000.0625,-358673.75,-400000.0625
231.3189537525177,1463.4599609375,-7828.27978515625,-2519.93994140625,-372222.28125,-12833.599609375,-400000.0625,-358319.09375,-400000.0625
231.350487947464,1466.6099853515625,-7824.9501953125,-2516.4599609375,-372344.15625,-12821.5302734375,-400000.0625,-358582.3125,-400000.0625
231.41931819915771,1468.800048828125,-7818.3701171875,-2511.070068359375,-372686.09375,-12807.1796875,-400000.0625,-359118.65625,-400000.0625
231.44564819335938,1466.699951171875,-7822.1298828125,-2515.97998046875,-372772.5,-12814.5703125,-400000.0625,-359187.59375,-400000.0625
231.48300981521606,1457.8800048828125,-7826.3798828125,-2519.22998046875,-372483.15625,-12829.0703125,-400000.0625,-358699.84375,-400000.0625
231.53663635253906,1461.7900390625,-7821.66015625,-2513.97998046875,-372218.40625,-12832.01953125,-400000.0625,-358345.03125,-400000.0625
231.56384706497192,1475.949951171875,-7806.64013671875,-2502.010009765625,-372338.4375,-12804.4599609375,-400000.0625,-358607.65625,-400000.0625
231.5955629348755,1483.06005859375,-7804.16015625,-2496.77001953125,-372684.34375,-12792.01953125,-400000.0625,-359149.96875,-400000.0625
231.64526677131653,1471.949951171875,-7820.93994140625,-2510.60009765625,-372768.5,-12813.1396484375,-400000.0625,-359218.3125,-400000.0625
231.6697235107422,1457.1700439453125,-7832.240234375,-2525.3798828125,-372479.90625,-12839.5595703125,-400000.0625,-358730.0625,-400000.0625
231.70022869110107,1459.31005859375,-7827.9501953125,-2521.469970703125,-372216.125,-12841.7001953125,-400000.0625,-358373.875,-400000.0625
231.7621145248413,1480.47998046875,-7809.93017578125,-2501.300048828125,-372337.59375,-12815.6201171875,-400000.0625,-358637.0,-400000.0625
231.8076057434082,1481.3399658203125,-7812.68994140625,-2503.489990234375,-372680.1875,-12805.080078125,-400000.0625,-359175.6875,-400000.0625
231.88407254219055,1474.3299560546875,-7822.419921875,-2513.840087890625,-372765.6875,-12824.16015625,-400000.0625,-359245.1875,-400000.0625
231.9096441268921,1467.3199462890625,-7827.3798828125,-2519.659912109375,-372476.5625,-12844.2802734375,-400000.0625,-358754.3125,-400000.0625
231.95948100090027,1468.93994140625,-7825.89990234375,-2518.75,-372212.25,-12832.5498046875,-400000.0625,-358398.28125,-400000.0625
231.99193334579468,1484.1099853515625,-7812.06982421875,-2504.780029296875,-372328.375,-12821.8701171875,-400000.0625,-358660.375,-400000.0625
232.02765464782715,1484.969970703125,-7807.97021484375,-2500.389892578125,-372672.28125,-12812.23046875,-400000.0625,-359201.875,-400000.0625
232.0889916419983,1480.3399658203125,-7812.7900390625,-2504.489990234375,-372756.9375,-12810.419921875,-400000.0625,-359273.90625,-400000.0625
232.11090922355652,1470.0899658203125,-7820.22998046875,-2510.360107421875,-372469.75,-12816.91015625,-400000.0625,-358786.90625,-400000.0625
232.13819408416748,1470.469970703125,-7818.990234375,-2508.639892578125,-372203.78125,-12821.490234375,-400000.0625,-358428.625,-400000.0625
232.18353414535522,1483.25,-7813.5,-2501.679931640625,-372321.125,-12806.9404296875,-400000.0625,-358691.96875,-400000.0625
232.20775270462036,1486.300048828125,-7808.16015625,-2499.340087890625,-372663.84375,-12802.650390625,-400000.0625,-359232.46875,-400000.0625
232.2302918434143,1473.9000244140625,-7817.4599609375,-2511.68994140625,-372749.90625,-12816.9599609375,-400000.0625,-359308.0,-400000.0625
232.25320720672607,1463.5999755859375,-7826.27978515625,-2525.330078125,-372460.5,-12831.5,-400000.0625,-358823.15625,-400000.0625
232.30272150039673,1468.989990234375,-7822.75,-2520.75,-372192.90625,-12841.8896484375,-400000.0625,-358467.4375,-400000.0625
232.32330679893494,1485.3499755859375,-7808.16015625,-2502.5400390625,-372308.125,-12827.5400390625,-400000.0625,-358729.84375,-400000.0625
232.3479723930359,1494.4100341796875,-7797.2900390625,-2495.530029296875,-372648.8125,-12807.3203125,-400000.0625,-359274.71875,-400000.0625
232.36983847618103,1482.77001953125,-7811.4501953125,-2510.39990234375,-372734.03125,-12814.8095703125,-400000.0625,-359348.96875,-400000.0625
232.42220902442932,1471.18994140625,-7824.22998046875,-2523.469970703125,-372449.3125,-12819.6298828125,-400000.0625,-358860.0,-400000.0625
232.4460666179657,1468.0400390625,-7826.27978515625,-2524.89990234375,-372183.0,-12829.58984375,-400000.0625,-358491.9375,-400000.0625
232.46933674812317,1476.81005859375,-7817.169921875,-2511.68994140625,-372297.625,-12819.33984375,-400000.0625,-358749.65625,-400000.0625
232.4953498840332,1489.3499755859375,-7799.2001953125,-2497.669921875,-372640.0,-12799.0302734375,-400000.0625,-359296.5625,-400000.0625
232.54642605781555,1478.9599609375,-7814.4599609375,-2514.739990234375,-372729.15625,-12819.2001953125,-400000.0625,-359374.9375,-400000.0625
232.56931114196777,1460.3599853515625,-7839.43994140625,-2533.820068359375,-372442.375,-12830.3095703125,-400000.0625,-358889.0,-400000.0625
232.59756541252136,1462.3599853515625,-7829.7099609375,-2525.429931640625,-372178.3125,-12826.01953125,-400000.0625,-358529.03125,-400000.0625
232.64226531982422,1481.489990234375,-7803.25,-2503.780029296875,-372292.375,-12807.75,-400000.0625,-358785.28125,-400000.0625
232.66709113121033,1491.97998046875,-7802.33984375,-2499.14990234375,-372636.15625,-12795.9697265625,-400000.0625,-359329.125,-400000.0625
232.69633650779724,1484.5400390625,-7809.740234375,-2505.39990234375,-372724.65625,-12807.5595703125,-400000.0625,-359403.75,-400000.0625
232.72392392158508,1472.760009765625,-7819.83984375,-2517.800048828125,-372437.5625,-12825.8203125,-400000.0625,-358916.125,-400000.0625
232.79238152503967,1468.8499755859375,-7827.330078125,-2520.56005859375,-372169.625,-12828.919921875,-400000.0625,-358550.21875,-400000.0625
232.8333134651184,1476.719970703125,-7817.1298828125,-2509.590087890625,-372286.5625,-12814.3798828125,-400000.0625,-358806.46875,-400000.0625
232.91513800621033,1485.969970703125,-7810.4501953125,-2504.639892578125,-372628.5,-12804.5595703125,-400000.0625,-359351.25,-400000.0625
232.9535048007965,1475.0,-7821.85009765625,-2516.840087890625,-372718.53125,-12817.91015625,-400000.0625,-359429.96875,-400000.0625
233.02761697769165,1460.5,-7834.47998046875,-2530.530029296875,-372432.71875,-12827.830078125,-400000.0625,-358942.03125,-400000.0625
233.05811214447021,1461.699951171875,-7836.77001953125,-2526.429931640625,-372167.3125,-12822.25,-400000.0625,-358578.625,-400000.0625
233.1183660030365,1477.9599609375,-7816.35986328125,-2509.39990234375,-372280.0625,-12811.3798828125,-400000.0625,-358832.59375,-400000.0625
233.15457010269165,1487.5899658203125,-7803.2998046875,-2500.919921875,-372624.25,-12804.41015625,-400000.0625,-359376.34375,-400000.0625
233.19032096862793,1484.9200439453125,-7814.97998046875,-2508.02001953125,-372715.625,-12822.9599609375,-400000.0625,-359451.625,-400000.0625
233.2397747039795,1466.8900146484375,-7824.52001953125,-2520.419921875,-372433.75,-12841.509765625,-400000.0625,-358966.34375,-400000.0625
233.2662444114685,1463.1700439453125,-7826.18994140625,-2524.89990234375,-372166.96875,-12837.2197265625,-400000.0625,-358600.28125,-400000.0625
233.29655075073242,1477.1500244140625,-7816.35986328125,-2511.68994140625,-372280.6875,-12811.5703125,-400000.0625,-358853.71875,-400000.0625
233.33864331245422,1485.06005859375,-7805.39990234375,-2499.199951171875,-372622.71875,-12791.01953125,-400000.0625,-359394.875,-400000.0625
233.36510825157166,1472.1400146484375,-7818.27001953125,-2515.219970703125,-372716.625,-12808.900390625,-400000.0625,-359475.21875,-400000.0625
233.39460682868958,1462.510009765625,-7832.240234375,-2530.909912109375,-372435.5625,-12830.830078125,-400000.0625,-358989.46875,-400000.0625
233.4219183921814,1462.8900146484375,-7832.580078125,-2526.139892578125,-372170.5,-12826.25,-400000.0625,-358624.3125,-400000.0625
233.4720265865326,1476.9599609375,-7810.58984375,-2508.35009765625,-372286.21875,-12808.75,-400000.0625,-358874.65625,-400000.0625
233.50341963768005,1485.72998046875,-7805.35009765625,-2501.14990234375,-372635.40625,-12801.98046875,-400000.0625,-359416.8125,-400000.0625
233.52782011032104,1471.9000244140625,-7817.31982421875,-2511.5,-372730.8125,-12817.7197265625,-400000.0625,-359493.8125,-400000.0625
233.58308362960815,1458.3599853515625,-7832.72021484375,-2528.0,-372449.96875,-12829.73046875,-400000.0625,-359008.03125,-400000.0625
233.60785722732544,1460.219970703125,-7835.06005859375,-2529.340087890625,-372181.46875,-12830.3095703125,-400000.0625,-358640.28125,-400000.0625
233.63276076316833,1473.18994140625,-7822.93994140625,-2512.550048828125,-372296.46875,-12810.900390625,-400000.0625,-358890.4375,-400000.0625
233.68582248687744,1481.8199462890625,-7806.58984375,-2497.9599609375,-372643.1875,-12801.650390625,-400000.0625,-359430.15625,-400000.0625
233.70394682884216,1479.2900390625,-7815.64990234375,-2508.02001953125,-372738.84375,-12809.9501953125,-400000.0625,-359508.40625,-400000.0625
233.727041721344,1464.6500244140625,-7831.91015625,-2522.89990234375,-372457.21875,-12830.01953125,-400000.0625,-359022.28125,-400000.0625
233.75324773788452,1465.75,-7829.47998046875,-2517.93994140625,-372193.9375,-12824.580078125,-400000.0625,-358658.5625,-400000.0625
233.81812500953674,1481.8199462890625,-7807.39990234375,-2500.580078125,-372308.90625,-12805.0302734375,-400000.0625,-358906.5,-400000.0625
233.86621832847595,1490.31005859375,-7801.10009765625,-2494.47998046875,-372657.3125,-12792.7802734375,-400000.0625,-359446.125,-400000.0625
233.93016028404236,1473.6700439453125,-7820.56005859375,-2509.739990234375,-372753.28125,-12820.009765625,-400000.0625,-359525.0625,-400000.0625
233.9581925868988,1462.7900390625,-7827.47021484375,-2519.800048828125,-372480.0625,-12838.169921875,-400000.0625,-359044.59375,-400000.0625
233.99586939811707,1467.989990234375,-7824.66015625,-2517.889892578125,-372219.65625,-12823.25,-400000.0625,-358677.90625,-400000.0625
234.05645370483398,1479.77001953125,-7813.8798828125,-2503.25,-372335.71875,-12802.9404296875,-400000.0625,-358926.59375,-400000.0625
234.08688378334045,1487.5400390625,-7805.39990234375,-2492.2900390625,-372680.53125,-12796.5498046875,-400000.0625,-359464.5,-400000.0625
234.10922813415527,1479.530029296875,-7813.259765625,-2501.8701171875,-372774.6875,-12806.7001953125,-400000.0625,-359544.125,-400000.0625
234.1533670425415,1461.699951171875,-7827.330078125,-2519.56005859375,-372488.15625,-12828.2998046875,-400000.0625,-359061.25,-400000.0625
234.1786949634552,1465.93994140625,-7830.9501953125,-2520.280029296875,-372215.5625,-12829.1103515625,-400000.0625,-358694.75,-400000.0625
234.20628237724304,1486.1600341796875,-7812.7900390625,-2501.43994140625,-372321.9375,-12807.900390625,-400000.0625,-358938.21875,-400000.0625
234.2268726825714,1498.3699951171875,-7794.240234375,-2486.85009765625,-372664.25,-12816.5302734375,-400000.0625,-359476.21875,-400000.0625
234.28009796142578,1488.260009765625,-7802.33984375,-2494.760009765625,-372754.25,-12814.6201171875,-400000.0625,-359555.65625,-400000.0625
234.3121829032898,1467.699951171875,-7824.990234375,-2516.7900390625,-372467.90625,-12814.48046875,-400000.0625,-359075.3125,-400000.0625
234.3423821926117,1471.469970703125,-7832.0498046875,-2519.659912109375,-372193.8125,-12822.2001953125,-400000.0625,-358709.84375,-400000.0625
234.40357303619385,1488.5,-7811.5,-2502.389892578125,-372301.71875,-12811.3798828125,-400000.0625,-358954.625,-400000.0625
234.43290615081787,1494.8399658203125,-7801.81982421875,-2493.18994140625,-372642.625,-12802.5498046875,-400000.0625,-359489.25,-400000.0625
234.45762634277344,1486.6400146484375,-7812.31005859375,-2500.389892578125,-372734.3125,-12802.7900390625,-400000.0625,-359570.625,-400000.0625
234.50848770141602,1480.77001953125,-7816.169921875,-2506.02001953125,-372447.125,-12812.849609375,-400000.0625,-359090.90625,-400000.0625
234.53276538848877,1480.5799560546875,-7814.93017578125,-2506.159912109375,-372174.15625,-12822.7197265625,-400000.0625,-358726.15625,-400000.0625
234.55714964866638,1481.8699951171875,-7813.5,-2502.820068359375,-372281.40625,-12811.4697265625,-400000.0625,-358968.34375,-400000.0625
234.58701634407043,1489.5899658203125,-7807.2998046875,-2496.050048828125,-372623.125,-12800.7900390625,-400000.0625,-359502.5625,-400000.0625
234.63789534568787,1483.6300048828125,-7817.56005859375,-2508.590087890625,-372714.625,-12816.5703125,-400000.0625,-359583.71875,-400000.0625
234.66293954849243,1471.5699462890625,-7830.10009765625,-2523.179931640625,-372431.28125,-12835.9296875,-400000.0625,-359108.8125,-400000.0625
234.69457960128784,1472.760009765625,-7823.75,-2517.1298828125,-372158.875,-12837.83984375,-400000.0625,-358744.53125,-400000.0625
