time,ch1,ch2,ch3,ch4,ch5,ch6,ch7,ch8
0.05019235610961914,1644.6099853515625,-7253.02978515625,-2305.93994140625,-342056.28125,-12647.73046875,-394286.4375,-348872.3125,-400000.0625
0.05040454864501953,1658.5400390625,-7235.47998046875,-2287.580078125,-342581.3125,-12616.01953125,-395383.03125,-349988.6875,-400000.0625
0.05044984817504883,1603.1700439453125,-7289.31982421875,-2340.840087890625,-342682.875,-12667.23046875,-395691.3125,-350164.0625,-400000.0625
0.0504763126373291,1556.43994140625,-7343.6298828125,-2392.239990234375,-342165.6875,-12721.25,-394764.1875,-349160.34375,-400000.0625
0.05049705505371094,1578.4300537109375,-7322.4599609375,-2371.739990234375,-341691.96875,-12699.41015625,-393876.03125,-348379.0,-400000.0625
0.05052590370178223,1640.8399658203125,-7253.4599609375,-2306.889892578125,-341860.65625,-12638.1904296875,-394226.25,-348905.40625,-400000.0625
0.05055594444274902,1657.3900146484375,-7238.009765625,-2288.580078125,-342387.75,-12621.4501953125,-395318.9375,-350029.5,-400000.0625
0.050575971603393555,1602.7900390625,-7294.60986328125,-2345.989990234375,-342493.875,-12672.5703125,-395625.25,-350206.5625,-400000.0625
0.050594329833984375,1549.9599609375,-7347.6298828125,-2396.77001953125,-341975.84375,-12720.919921875,-394699.125,-349199.375,-400000.0625
0.05065298080444336,1567.97998046875,-7328.3701171875,-2377.1298828125,-341509.96875,-12702.1796875,-393817.53125,-348418.375,-400000.0625
0.05068397521972656,1632.4000244140625,-7264.52001953125,-2313.7099609375,-341678.84375,-12643.3896484375,-394167.53125,-348941.75,-400000.0625
0.05070376396179199,1650.239990234375,-7244.25,-2292.6298828125,-342207.53125,-12624.740234375,-395256.625,-350072.9375,-400000.0625
0.05072188377380371,1592.780029296875,-7298.14013671875,-2345.419921875,-342312.375,-12675.9501953125,-395560.125,-350253.28125,-400000.0625
0.05074000358581543,1547.050048828125,-7349.58984375,-2396.110107421875,-341800.21875,-12727.5498046875,-394641.125,-349247.59375,-400000.0625
0.05075836181640625,1570.6500244140625,-7324.509765625,-2370.070068359375,-341336.0,-12701.3701171875,-393765.78125,-348461.96875,-400000.0625
0.05077934265136719,1633.8800048828125,-7257.990234375,-2306.320068359375,-341506.875,-12638.1904296875,-394118.6875,-348984.75,-400000.0625
0.15015459060668945,1651.6700439453125,-7243.58984375,-2291.25,-342032.65625,-12621.58984375,-395200.625,-350115.09375,-400000.0625
0.1504223346710205,1595.739990234375,-7302.669921875,-2345.510009765625,-342141.75,-12672.3798828125,-395504.0,-350300.78125,-400000.0625
0.1504509449005127,1548.050048828125,-7353.64013671875,-2396.199951171875,-341632.3125,-12720.16015625,-394589.90625,-349291.65625,-400000.0625
0.15047526359558105,1568.219970703125,-7328.60986328125,-2370.550048828125,-341171.5,-12696.4599609375,-393724.25,-348503.53125,-400000.0625
0.1504974365234375,1635.5999755859375,-7262.56005859375,-2308.320068359375,-341342.4375,-12639.51953125,-394071.28125,-349022.375,-400000.0625
0.20608949661254883,1656.43994140625,-7245.4501953125,-2292.06005859375,-341871.71875,-12626.3203125,-395145.3125,-350148.78125,-400000.0625
0.2063760757446289,1599.260009765625,-7302.6201171875,-2346.469970703125,-341979.3125,-12677.7197265625,-395438.15625,-350328.34375,-400000.0625
0.20640778541564941,1552.06005859375,-7355.39990234375,-2396.43994140625,-341473.4375,-12725.16015625,-394529.09375,-349324.59375,-400000.0625
0.2064342498779297,1576.6600341796875,-7328.93994140625,-2371.1201171875,-341013.28125,-12699.1298828125,-393664.125,-348537.96875,-400000.0625
0.20646166801452637,1638.3199462890625,-7260.0400390625,-2305.169921875,-341187.09375,-12638.5703125,-394011.875,-349053.84375,-400000.0625
0.20648765563964844,1657.6300048828125,-7244.68017578125,-2290.06005859375,-341713.90625,-12621.58984375,-395079.1875,-350175.40625,-400000.0625
0.2065126895904541,1600.4599609375,-7303.81005859375,-2346.85009765625,-341822.125,-12672.3798828125,-395371.0625,-350356.90625,-400000.0625
0.20653676986694336,1549.6700439453125,-7355.06982421875,-2396.5400390625,-341315.25,-12717.8203125,-394454.875,-349353.625,-400000.0625
0.20656299591064453,1572.800048828125,-7332.27978515625,-2373.7900390625,-340857.5625,-12695.9296875,-393589.96875,-348571.6875,-400000.0625
0.206587553024292,1639.8900146484375,-7264.85009765625,-2308.080078125,-341031.40625,-12636.23046875,-393935.53125,-349085.53125,-400000.0625
0.20661020278930664,1656.9599609375,-7245.259765625,-2288.580078125,-341561.6875,-12618.58984375,-395002.59375,-350200.6875,-400000.0625
0.2066490650177002,1600.4100341796875,-7300.43017578125,-2342.889892578125,-341670.46875,-12672.3798828125,-395286.46875,-350377.9375,-400000.0625
0.20667743682861328,1552.1500244140625,-7351.58984375,-2393.820068359375,-341162.71875,-12719.009765625,-394367.46875,-349378.875,-400000.0625
0.20669770240783691,1576.5699462890625,-7330.509765625,-2369.360107421875,-340707.3125,-12699.650390625,-393502.125,-348599.09375,-400000.0625
0.20671844482421875,1637.97998046875,-7267.6201171875,-2307.610107421875,-340886.0,-12634.759765625,-393856.34375,-349114.3125,-400000.0625
0.20673751831054688,1655.9599609375,-7252.64990234375,-2290.580078125,-341411.90625,-12615.0595703125,-394921.125,-350217.25,-400000.0625
0.20676445960998535,1597.9300537109375,-7310.2001953125,-2347.419921875,-341518.78125,-12669.9501953125,-395202.5,-350391.375,-400000.0625
0.20678496360778809,1548.0,-7362.41015625,-2398.300048828125,-341014.34375,-12718.919921875,-394284.15625,-349404.65625,-400000.0625
0.20680499076843262,1573.280029296875,-7337.9501953125,-2373.31005859375,-340563.1875,-12697.509765625,-393428.71875,-348639.15625,-400000.0625
0.20682501792907715,1634.0699462890625,-7270.52978515625,-2308.419921875,-340740.25,-12636.9501953125,-393784.1875,-349144.375,-400000.0625
0.2068467140197754,1651.0,-7249.35986328125,-2289.25,-341266.09375,-12614.0595703125,-394846.8125,-350235.84375,-400000.0625
0.20686745643615723,1596.5899658203125,-7306.77001953125,-2345.320068359375,-341372.09375,-12667.75,-395122.09375,-350403.21875,-400000.0625
0.20688772201538086,1541.9000244140625,-7357.60009765625,-2394.489990234375,-340869.71875,-12716.3896484375,-394205.875,-349424.21875,-400000.0625
0.20691299438476562,1573.0400390625,-7331.93994140625,-2367.68994140625,-340421.46875,-12698.2197265625,-393353.46875,-348664.09375,-400000.0625
0.20693278312683105,1641.0799560546875,-7265.56982421875,-2301.030029296875,-340603.4375,-12638.0498046875,-393712.40625,-349163.375,-400000.0625
0.20695257186889648,1653.719970703125,-7252.06982421875,-2287.909912109375,-341126.71875,-12615.73046875,-394771.0,-350233.3125,-400000.0625
0.20697331428527832,1600.9300537109375,-7311.2998046875,-2346.3701171875,-341231.46875,-12665.3701171875,-395044.75,-350399.875,-400000.0625
0.24404454231262207,1551.6800537109375,-7357.8798828125,-2390.719970703125,-340727.65625,-12709.0,-394128.46875,-349433.9375,-400000.0625
0.24489998817443848,1574.800048828125,-7335.3798828125,-2368.5,-340281.875,-12689.8798828125,-393282.78125,-348685.625,-400000.0625
0.24582600593566895,1638.6500244140625,-7275.33984375,-2311.179931640625,-340461.625,-12634.6103515625,-393643.875,-349177.625,-400000.0625
0.2458956241607666,1652.81005859375,-7253.5498046875,-2293.5400390625,-340985.96875,-12619.58984375,-394701.15625,-350236.75,-400000.0625
0.24594449996948242,1599.8800048828125,-7305.18994140625,-2344.179931640625,-341084.375,-12670.2802734375,-394963.96875,-350394.90625,-400000.0625
0.24598979949951172,1551.199951171875,-7357.83984375,-2393.10009765625,-340579.75,-12715.9599609375,-394045.59375,-349439.0,-400000.0625
0.24608373641967773,1572.989990234375,-7336.47021484375,-2369.68994140625,-340133.8125,-12689.6904296875,-393206.03125,-348698.625,-400000.0625
0.2461249828338623,1636.7900390625,-7273.52978515625,-2308.0400390625,-340318.1875,-12626.080078125,-393579.625,-349187.5,-400000.0625
0.24615049362182617,1655.77001953125,-7253.1201171875,-2290.5400390625,-340839.9375,-12613.490234375,-394633.78125,-350230.78125,-400000.0625
0.24617314338684082,1604.8900146484375,-7306.669921875,-2342.4599609375,-340932.28125,-12662.98046875,-394887.53125,-350382.125,-400000.0625
0.24619603157043457,1553.199951171875,-7358.7900390625,-2391.199951171875,-340416.125,-12709.51953125,-393959.03125,-349429.375,-400000.0625
0.2462177276611328,1576.22998046875,-7338.56982421875,-2367.070068359375,-339966.375,-12688.73046875,-393124.25,-348695.3125,-400000.0625
0.24623870849609375,1641.6600341796875,-7270.52978515625,-2304.169921875,-340146.1875,-12629.2197265625,-393497.03125,-349173.15625,-400000.0625
0.2462599277496338,1663.780029296875,-7252.4599609375,-2287.199951171875,-340665.875,-12615.16015625,-394546.09375,-350202.5,-400000.0625
0.24628305435180664,1608.989990234375,-7309.52978515625,-2340.7900390625,-340752.4375,-12666.8896484375,-394788.0625,-350341.75,-400000.0625
0.24631690979003906,1562.260009765625,-7362.64990234375,-2389.429931640625,-340233.03125,-12714.150390625,-393859.0625,-349386.25,-400000.0625
0.3293170928955078,1582.3800048828125,-7343.2001953125,-2366.35009765625,-339782.34375,-12695.41015625,-393028.34375,-348650.3125,-400000.0625
0.42122936248779297,1636.9300537109375,-7266.81005859375,-2294.969970703125,-339968.25,-12630.75,-393410.0625,-349114.78125,-400000.0625
0.45120811462402344,1649.050048828125,-7233.85986328125,-2270.409912109375,-340488.0625,-12609.8203125,-394457.1875,-350114.96875,-400000.0625
0.5151622295379639,1593.1600341796875,-7285.259765625,-2317.18994140625,-340577.96875,-12657.259765625,-394699.71875,-350230.53125,-400000.0625
0.5542597770690918,1538.4200439453125,-7331.419921875,-2357.530029296875,-340060.3125,-12700.849609375,-393771.28125,-349249.6875,-400000.0625
0.6168124675750732,1554.199951171875,-7313.43994140625,-2334.60009765625,-339610.8125,-12680.4404296875,-392947.78125,-348488.90625,-400000.0625
0.6389508247375488,1607.469970703125,-7240.580078125,-2263.590087890625,-339796.90625,-12619.6904296875,-393333.8125,-348933.5625,-400000.0625
0.6693141460418701,1621.2900390625,-7219.7001953125,-2241.330078125,-340322.25,-12600.7099609375,-394390.375,-349934.9375,-400000.0625
0.7329974174499512,1567.1300048828125,-7275.10986328125,-2288.719970703125,-340409.1875,-12646.9599609375,-394637.71875,-350064.65625,-400000.0625
0.760406494140625,1518.1099853515625,-7320.02001953125,-2333.070068359375,-339888.1875,-12692.6904296875,-393713.5625,-349099.375,-400000.0625
0.7822823524475098,1542.6600341796875,-7299.18994140625,-2312.090087890625,-339432.9375,-12674.8603515625,-392885.53125,-348335.6875,-400000.0625
0.8477301597595215,1601.9300537109375,-7235.3798828125,-2247.909912109375,-339623.53125,-12614.73046875,-393271.21875,-348779.28125,-400000.0625
0.881458044052124,1619.47998046875,-7218.1201171875,-2231.739990234375,-340153.4375,-12599.330078125,-394329.78125,-349779.96875,-400000.0625
0.9186737537384033,1567.27001953125,-7273.6298828125,-2284.47998046875,-340248.1875,-12649.16015625,-394587.28125,-349911.875,-400000.0625
0.9772987365722656,1520.5400390625,-7317.97021484375,-2326.389892578125,-339729.21875,-12692.98046875,-393664.4375,-348945.53125,-400000.0625
1.022291660308838,1547.3399658203125,-7294.990234375,-2300.639892578125,-339282.03125,-12671.8095703125,-392838.09375,-348179.9375,-400000.0625
1.0908854007720947,1605.27001953125,-7231.52001953125,-2241.989990234375,-339477.4375,-12618.349609375,-393226.25,-348615.53125,-400000.0625
1.1272032260894775,1621.3399658203125,-7211.4501953125,-2226.8798828125,-340018.28125,-12601.7099609375,-394296.5,-349616.75,-400000.0625
1.1938247680664062,1568.4100341796875,-7273.669921875,-2282.719970703125,-340118.6875,-12654.740234375,-394557.4375,-349751.6875,-400000.0625
1.2313008308410645,1522.8800048828125,-7323.7900390625,-2331.070068359375,-339607.125,-12700.26953125,-393636.3125,-348790.21875,-400000.0625
1.2966268062591553,1542.7099609375,-7301.14013671875,-2307.219970703125,-339161.09375,-12672.759765625,-392810.96875,-348025.3125,-400000.0625
1.3314800262451172,1603.93994140625,-7240.580078125,-2246.570068359375,-339358.125,-12600.08984375,-393201.96875,-348461.96875,-400000.0625
1.3900306224822998,1622.489990234375,-7220.31982421875,-2230.070068359375,-339897.78125,-12584.740234375,-394271.75,-349467.09375,-400000.0625
1.4178564548492432,1570.4200439453125,-7271.9599609375,-2280.280029296875,-340000.90625,-12641.099609375,-394533.0,-349609.21875,-400000.0625
1.4448351860046387,1519.3900146484375,-7327.080078125,-2333.2099609375,-339484.34375,-12690.5498046875,-393600.40625,-348646.0625,-400000.0625
1.5144402980804443,1540.22998046875,-7307.77001953125,-2314.18994140625,-339035.03125,-12676.5302734375,-392760.9375,-347886.15625,-400000.0625
1.5438175201416016,1599.030029296875,-7246.16015625,-2255.14990234375,-339231.15625,-12619.400390625,-393146.03125,-348334.0625,-400000.0625
1.5772647857666016,1618.6700439453125,-7231.08984375,-2240.610107421875,-339773.15625,-12599.0400390625,-394217.6875,-349354.75,-400000.0625
1.632758617401123,1565.8900146484375,-7282.2099609375,-2291.820068359375,-339875.125,-12647.76953125,-394477.0,-349506.03125,-400000.0625
1.6549766063690186,1520.010009765625,-7333.9501953125,-2340.64990234375,-339360.34375,-12696.7900390625,-393546.78125,-348550.6875,-400000.0625
1.6793479919433594,1546.530029296875,-7308.8701171875,-2316.570068359375,-338909.71875,-12674.2900390625,-392708.21875,-347794.375,-400000.0625
1.7291109561920166,1607.1800537109375,-7245.16015625,-2255.6298828125,-339109.09375,-12614.73046875,-393095.59375,-348262.625,-400000.0625
1.7500178813934326,1626.300048828125,-7231.0498046875,-2243.7099609375,-339652.65625,-12605.1396484375,-394168.1875,-349306.8125,-400000.0625
1.7782132625579834,1576.3299560546875,-7285.4501953125,-2295.39990234375,-339758.375,-12656.8798828125,-394431.84375,-349480.71875,-400000.0625
1.8019311428070068,1529.1199951171875,-7335.14013671875,-2339.1201171875,-339240.15625,-12697.169921875,-393501.34375,-348537.8125,-400000.0625
1.8665671348571777,1547.77001953125,-7313.009765625,-2319.3798828125,-338788.0625,-12678.669921875,-392661.34375,-347797.59375,-400000.0625
1.9001274108886719,1610.1800537109375,-7251.1201171875,-2260.159912109375,-338983.65625,-12620.259765625,-393041.21875,-348289.0,-400000.0625
1.9219887256622314,1629.31005859375,-7232.330078125,-2241.419921875,-339533.28125,-12602.2802734375,-394112.625,-349361.875,-400000.0625
1.9719552993774414,1578.050048828125,-7281.58984375,-2288.77001953125,-339639.9375,-12649.009765625,-394372.28125,-349546.75,-400000.0625
1.9973669052124023,1535.27001953125,-7327.990234375,-2335.8798828125,-339120.125,-12695.1201171875,-393438.90625,-348608.875,-400000.0625
2.0218212604522705,1555.199951171875,-7309.6298828125,-2312.280029296875,-338663.4375,-12674.1904296875,-392591.28125,-347873.53125,-400000.0625
2.0451629161834717,1610.3299560546875,-7248.5498046875,-2254.77001953125,-338861.21875,-12613.2998046875,-392970.8125,-348373.25,-400000.0625
2.0850369930267334,1628.8800048828125,-7228.56982421875,-2237.800048828125,-339409.8125,-12593.41015625,-394040.1875,-349449.0,-400000.0625
2.105203866958618,1584.8199462890625,-7279.68017578125,-2286.010009765625,-339519.4375,-12642.0,-394305.625,-349637.96875,-400000.0625
2.1298155784606934,1539.760009765625,-7326.75,-2332.780029296875,-338998.78125,-12692.0703125,-393373.875,-348693.21875,-400000.0625
2.1616086959838867,1554.489990234375,-7306.0498046875,-2313.85009765625,-338541.59375,-12669.7099609375,-392530.71875,-347953.6875,-400000.0625
2.207487106323242,1614.6199951171875,-7244.35009765625,-2252.77001953125,-338738.28125,-12613.6796875,-392912.25,-348454.09375,-400000.0625
2.232262134552002,1639.989990234375,-7227.89990234375,-2235.64990234375,-339289.75,-12600.0400390625,-393987.6875,-349537.5,-400000.0625
2.253274440765381,1586.6300048828125,-7281.68994140625,-2290.010009765625,-339397.46875,-12649.6298828125,-394254.84375,-349722.625,-400000.0625
2.272064685821533,1533.6500244140625,-7329.18017578125,-2334.739990234375,-338878.0625,-12690.400390625,-393329.875,-348768.65625,-400000.0625
2.321539878845215,1554.199951171875,-7309.14990234375,-2313.0400390625,-338420.0,-12667.08984375,-392491.34375,-348017.15625,-400000.0625
2.345783233642578,1613.6199951171875,-7249.97998046875,-2253.2900390625,-338618.59375,-12609.8203125,-392875.65625,-348515.28125,-400000.0625
2.369767665863037,1633.3599853515625,-7229.27978515625,-2235.4599609375,-339168.6875,-12593.509765625,-393952.28125,-349603.28125,-400000.0625
2.3954567909240723,1582.1500244140625,-7283.4501953125,-2287.669921875,-339280.25,-12643.76953125,-394225.375,-349791.9375,-400000.0625
2.453894853591919,1528.8399658203125,-7336.81005859375,-2338.219970703125,-338761.8125,-12692.5,-393302.125,-348823.90625,-400000.0625
2.482457160949707,1547.4300537109375,-7314.8701171875,-2316.330078125,-338307.625,-12675.6201171875,-392463.4375,-348060.375,-400000.0625
2.503784418106079,1607.699951171875,-7250.7900390625,-2254.489990234375,-338504.40625,-12620.400390625,-392845.0,-348559.28125,-400000.0625
2.588630437850952,1630.1600341796875,-7230.9501953125,-2236.4599609375,-339057.4375,-12607.8603515625,-393920.5625,-349658.09375,-400000.0625
2.6288247108459473,1580.2900390625,-7279.72998046875,-2282.18994140625,-339167.84375,-12648.919921875,-394191.59375,-349846.4375,-400000.0625
2.6873106956481934,1533.699951171875,-7325.97998046875,-2326.77001953125,-338651.75,-12688.8798828125,-393268.8125,-348872.03125,-400000.0625
2.729990005493164,1550.6300048828125,-7306.240234375,-2307.27001953125,-338196.875,-12671.900390625,-392426.125,-348096.46875,-400000.0625
2.7885067462921143,1610.1400146484375,-7246.39990234375,-2248.47998046875,-338395.21875,-12608.009765625,-392804.53125,-348595.03125,-400000.0625
2.8196425437927246,1629.6400146484375,-7229.08984375,-2232.5,-338944.34375,-12593.83984375,-393876.15625,-349698.6875,-400000.0625
2.8527820110321045,1578.239990234375,-7277.6298828125,-2280.52001953125,-339059.6875,-12639.51953125,-394149.625,-349892.84375,-400000.0625
2.945039987564087,1529.6500244140625,-7326.509765625,-2328.489990234375,-338546.5,-12679.4404296875,-393226.0,-348909.46875,-400000.0625
2.9804115295410156,1550.9599609375,-7309.52978515625,-2309.699951171875,-338094.21875,-12666.990234375,-392381.90625,-348123.3125,-400000.0625
3.039921522140503,1610.9000244140625,-7245.8798828125,-2248.570068359375,-338288.125,-12608.48046875,-392752.84375,-348616.25,-400000.0625
3.066551923751831,1632.6400146484375,-7226.1298828125,-2229.169921875,-338840.53125,-12586.8798828125,-393822.53125,-349724.53125,-400000.0625
3.096607208251953,1581.3800048828125,-7275.490234375,-2277.89990234375,-338958.59375,-12632.9404296875,-394097.65625,-349920.28125,-400000.0625
3.1594371795654297,1530.699951171875,-7326.22021484375,-2327.6298828125,-338449.375,-12682.009765625,-393177.40625,-348933.6875,-400000.0625
3.195366382598877,1551.3900146484375,-7308.009765625,-2310.510009765625,-337995.28125,-12666.3203125,-392328.40625,-348140.75,-400000.0625
3.228689193725586,1611.22998046875,-7247.5400390625,-2249.81005859375,-338190.78125,-12606.33984375,-392696.875,-348635.28125,-400000.0625
3.2882449626922607,1629.72998046875,-7225.7099609375,-2228.5,-338742.71875,-12588.169921875,-393763.90625,-349752.28125,-400000.0625
3.3172576427459717,1578.6600341796875,-7276.8701171875,-2278.139892578125,-338862.875,-12639.3798828125,-394041.375,-349955.46875,-400000.0625
3.338585376739502,1529.4100341796875,-7328.4599609375,-2328.110107421875,-338352.09375,-12687.2099609375,-393121.71875,-348966.6875,-400000.0625
3.3961329460144043,1546.6700439453125,-7308.0498046875,-2309.27001953125,-337897.875,-12664.650390625,-392271.5625,-348169.5625,-400000.0625
3.435197353363037,1607.699951171875,-7247.02001953125,-2248.10009765625,-338091.375,-12605.2900390625,-392634.71875,-348664.71875,-400000.0625
3.465714931488037,1629.0699462890625,-7224.3701171875,-2228.68994140625,-338644.25,-12587.3603515625,-393701.375,-349786.40625,-400000.0625
3.5241358280181885,1577.18994140625,-7277.43994140625,-2281.139892578125,-338764.5625,-12639.08984375,-393979.3125,-349990.09375,-400000.0625
3.549724817276001,1528.550048828125,-7331.31982421875,-2330.639892578125,-338257.25,-12686.01953125,-393058.53125,-348997.625,-400000.0625
3.577021837234497,1546.8599853515625,-7312.39013671875,-2309.989990234375,-337803.21875,-12663.4599609375,-392204.09375,-348193.875,-400000.0625
3.6425225734710693,1606.989990234375,-7246.35009765625,-2248.6201171875,-337998.375,-12606.099609375,-392565.375,-348687.5625,-400000.0625
3.6677958965301514,1631.8800048828125,-7224.56005859375,-2228.360107421875,-338549.65625,-12588.83984375,-393631.125,-349813.03125,-400000.0625
3.7691452503204346,1585.530029296875,-7277.6298828125,-2278.659912109375,-338674.375,-12636.6201171875,-393911.375,-350020.78125,-400000.0625
3.827467918395996,1535.030029296875,-7328.080078125,-2326.300048828125,-338171.1875,-12685.8203125,-392988.0625,-349022.8125,-400000.0625
3.8794972896575928,1553.25,-7309.490234375,-2307.840087890625,-337723.34375,-12669.990234375,-392128.9375,-348213.90625,-400000.0625
3.9346046447753906,1612.0400390625,-7246.06982421875,-2248.530029296875,-337919.46875,-12611.33984375,-392485.375,-348703.125,-400000.0625
3.9521596431732178,1634.8800048828125,-7229.66015625,-2231.070068359375,-338480.21875,-12589.0703125,-393554.625,-349827.75,-400000.0625
3.979168653488159,1584.5799560546875,-7281.02001953125,-2281.6201171875,-338612.78125,-12633.0400390625,-393837.3125,-350036.03125,-400000.0625
4.002393484115601,1532.030029296875,-7332.27978515625,-2329.110107421875,-338114.875,-12680.8701171875,-392918.1875,-349039.6875,-400000.0625
4.048894882202148,1551.489990234375,-7310.490234375,-2308.699951171875,-337666.875,-12665.419921875,-392056.09375,-348225.71875,-400000.0625
4.070284128189087,1611.6600341796875,-7253.97998046875,-2252.199951171875,-337866.15625,-12611.009765625,-392412.21875,-348713.0625,-400000.0625
4.100054740905762,1630.9300537109375,-7229.66015625,-2230.929931640625,-338422.96875,-12585.9296875,-393480.1875,-349833.8125,-400000.0625
4.1276726722717285,1580.949951171875,-7279.02001953125,-2280.139892578125,-338554.21875,-12630.3203125,-393769.40625,-350045.1875,-400000.0625
4.173015117645264,1531.550048828125,-7334.81005859375,-2331.300048828125,-338050.625,-12679.669921875,-392849.6875,-349049.09375,-400000.0625
4.195769548416138,1551.2900390625,-7313.77978515625,-2311.610107421875,-337593.78125,-12660.2197265625,-391986.5,-348235.6875,-400000.0625
4.227887153625488,1611.1400146484375,-7250.41015625,-2249.530029296875,-337781.34375,-12602.1904296875,-392334.5625,-348715.875,-400000.0625
4.269597291946411,1625.4000244140625,-7237.77001953125,-2229.449951171875,-338335.125,-12585.7802734375,-393403.15625,-349834.59375,-400000.0625
4.2959489822387695,1585.77001953125,-7295.27978515625,-2286.860107421875,-338463.5,-12644.7197265625,-393692.875,-350044.59375,-400000.0625
4.3170106410980225,1547.4300537109375,-7343.6298828125,-2343.0400390625,-337960.4375,-12693.169921875,-392773.71875,-349054.90625,-400000.0625
4.339691400527954,1566.8399658203125,-7320.5,-2327.300048828125,-337498.625,-12668.330078125,-391898.78125,-348243.625,-400000.0625
4.381731271743774,1634.550048828125,-7261.1298828125,-2274.85009765625,-337685.59375,-12610.91015625,-392235.125,-348721.96875,-400000.0625
4.40220308303833,1659.3900146484375,-7241.35009765625,-2260.780029296875,-338237.75,-12594.509765625,-393290.90625,-349835.875,-400000.0625
4.421215057373047,1615.1400146484375,-7293.18017578125,-2313.89990234375,-338369.875,-12643.580078125,-393574.53125,-350050.59375,-400000.0625
4.441603899002075,1571.22998046875,-7343.0498046875,-2366.02001953125,-337865.6875,-12688.9697265625,-392644.96875,-349067.21875,-400000.0625
4.495092153549194,1588.9599609375,-7322.83984375,-2349.330078125,-337402.90625,-12671.2802734375,-391760.59375,-348259.6875,-400000.0625
4.513468027114868,1645.949951171875,-7262.56005859375,-2288.8701171875,-337587.5,-12615.58984375,-392083.75,-348733.46875,-400000.0625
4.535185813903809,1665.8800048828125,-7242.2998046875,-2272.179931640625,-338143.6875,-12599.9501953125,-393133.9375,-349843.0625,-400000.0625
4.5555548667907715,1615.949951171875,-7295.1298828125,-2321.77001953125,-338276.625,-12647.009765625,-393413.90625,-350057.03125,-400000.0625
4.616365194320679,1568.989990234375,-7346.6298828125,-2370.97998046875,-337772.96875,-12692.740234375,-392483.125,-349081.09375,-400000.0625
4.640787601470947,1584.010009765625,-7323.93017578125,-2351.139892578125,-337306.90625,-12676.9599609375,-391592.21875,-348276.46875,-400000.0625
4.673646450042725,1642.3699951171875,-7262.759765625,-2290.489990234375,-337486.75,-12619.349609375,-391911.59375,-348744.96875,-400000.0625
4.734211683273315,1661.25,-7245.830078125,-2273.1298828125,-338037.59375,-12600.08984375,-392956.875,-349846.6875,-400000.0625
4.766064882278442,1612.760009765625,-7297.08984375,-2322.239990234375,-338171.8125,-12648.009765625,-393239.4375,-350063.125,-400000.0625
4.790497064590454,1562.260009765625,-7343.43994140625,-2367.260009765625,-337667.21875,-12692.8798828125,-392306.21875,-349091.125,-400000.0625
4.850368976593018,1585.050048828125,-7324.41015625,-2347.469970703125,-337200.0625,-12677.0,-391409.21875,-348289.09375,-400000.0625
4.884512901306152,1646.1400146484375,-7266.08984375,-2291.199951171875,-337377.71875,-12623.9296875,-391716.15625,-348750.78125,-400000.0625
4.917731523513794,1659.6300048828125,-7247.39990234375,-2273.889892578125,-337932.96875,-12606.5703125,-392757.65625,-349845.25,-400000.0625
4.981986045837402,1610.1800537109375,-7297.85009765625,-2321.530029296875,-338068.8125,-12644.91015625,-393038.8125,-350061.125,-400000.0625
5.009783983230591,1561.260009765625,-7351.68994140625,-2372.1201171875,-337568.375,-12689.8798828125,-392107.8125,-349101.1875,-400000.0625
5.033387660980225,1577.0400390625,-7332.3701171875,-2351.89990234375,-337099.15625,-12671.5703125,-391206.03125,-348302.03125,-400000.0625
5.088572978973389,1639.800048828125,-7267.81005859375,-2290.14990234375,-337277.78125,-12614.8203125,-391512.15625,-348756.84375,-400000.0625
5.121415376663208,1660.3499755859375,-7246.72998046875,-2269.699951171875,-337832.5,-12596.23046875,-392553.8125,-349838.71875,-400000.0625
5.148439407348633,1610.0899658203125,-7300.81005859375,-2320.580078125,-337971.4375,-12647.2001953125,-392840.59375,-350052.96875,-400000.0625
5.2042083740234375,1563.449951171875,-7351.490234375,-2369.449951171875,-337469.46875,-12694.5,-391911.09375,-349096.53125,-400000.0625
5.231202602386475,1584.4300537109375,-7332.56005859375,-2350.3798828125,-337003.0,-12677.91015625,-391010.53125,-348304.125,-400000.0625
5.266633033752441,1645.949951171875,-7267.0498046875,-2288.679931640625,-337179.03125,-12618.5,-391315.09375,-348753.0625,-400000.0625
5.3335723876953125,1664.780029296875,-7247.06982421875,-2269.1298828125,-337732.625,-12596.419921875,-392361.75,-349825.71875,-400000.0625
5.367223739624023,1612.8499755859375,-7299.27978515625,-2320.0,-337870.21875,-12644.6298828125,-392652.5,-350036.84375,-400000.0625
5.432447671890259,1562.0699462890625,-7348.43994140625,-2367.830078125,-337372.375,-12688.6396484375,-391729.59375,-349086.53125,-400000.0625
5.454794406890869,1584.0999755859375,-7330.85009765625,-2348.3798828125,-336903.09375,-12675.1904296875,-390827.21875,-348290.4375,-400000.0625
5.483872652053833,1645.3699951171875,-7269.81005859375,-2287.10009765625,-337079.1875,-12617.2099609375,-391130.4375,-348730.84375,-400000.0625
5.540133953094482,1664.68994140625,-7246.64013671875,-2267.739990234375,-337634.78125,-12598.2802734375,-392177.15625,-349794.53125,-400000.0625
5.570448160171509,1614.050048828125,-7297.9501953125,-2319.18994140625,-337780.21875,-12647.490234375,-392476.0,-350007.25,-400000.0625
5.596804141998291,1564.9300537109375,-7351.35009765625,-2367.739990234375,-337282.03125,-12689.9296875,-391553.875,-349058.53125,-400000.0625
5.651833772659302,1584.47998046875,-7333.08984375,-2350.0400390625,-336812.625,-12678.0,-390647.6875,-348259.1875,-400000.0625
5.679339170455933,1645.6600341796875,-7269.669921875,-2290.25,-336988.3125,-12625.509765625,-390944.25,-348690.96875,-400000.0625
5.706191062927246,1666.3599853515625,-7249.830078125,-2271.510009765625,-337549.59375,-12603.0498046875,-391995.1875,-349754.625,-400000.0625
5.758973836898804,1617.8599853515625,-7300.14013671875,-2321.239990234375,-337696.625,-12645.33984375,-392295.59375,-349962.21875,-400000.0625
5.787052869796753,1571.4599609375,-7348.6298828125,-2368.31005859375,-337200.59375,-12690.740234375,-391374.84375,-348997.4375,-400000.0625
5.815183401107788,1587.3900146484375,-7333.08984375,-2350.760009765625,-336728.90625,-12674.1396484375,-390463.5,-348163.96875,-400000.0625
5.866973400115967,1646.9000244140625,-7270.91015625,-2289.820068359375,-336905.71875,-12616.9697265625,-390762.375,-348566.125,-400000.0625
5.894959926605225,1669.8399658203125,-7248.8798828125,-2268.4599609375,-337466.5625,-12597.3701171875,-391812.375,-349618.65625,-400000.0625
5.915744066238403,1613.3299560546875,-7300.81005859375,-2320.239990234375,-337618.59375,-12647.3896484375,-392118.84375,-349832.8125,-400000.0625
5.965182542800903,1562.02001953125,-7354.5,-2371.1201171875,-337120.90625,-12695.1201171875,-391194.875,-348868.5625,-400000.0625
6.0003578662872314,1584.77001953125,-7335.0400390625,-2350.139892578125,-336649.75,-12677.5302734375,-390281.625,-348047.0,-400000.0625
6.026076316833496,1645.0400390625,-7273.33984375,-2291.110107421875,-336825.03125,-12617.919921875,-390575.0625,-348466.15625,-400000.0625
6.083720445632935,1666.0699462890625,-7254.5498046875,-2273.4599609375,-337389.21875,-12595.8896484375,-391630.15625,-349532.875,-400000.0625
6.115077018737793,1610.800048828125,-7305.0498046875,-2322.389892578125,-337539.875,-12637.7099609375,-391938.0625,-349749.28125,-400000.0625
6.148828029632568,1560.1600341796875,-7354.97998046875,-2371.64990234375,-337043.90625,-12686.4404296875,-391014.65625,-348788.40625,-400000.0625
6.209498882293701,1579.81005859375,-7338.72021484375,-2354.0,-336569.25,-12673.4296875,-390097.1875,-347961.625,-400000.0625
6.239843130111694,1640.510009765625,-7277.10986328125,-2294.159912109375,-336744.0625,-12619.1201171875,-390390.15625,-348371.4375,-400000.0625
6.278053522109985,1661.72998046875,-7257.75,-2274.320068359375,-337307.78125,-12597.900390625,-391442.0625,-349427.6875,-400000.0625
6.374087333679199,1614.47998046875,-7305.72021484375,-2324.010009765625,-337462.03125,-12642.669921875,-391753.53125,-349644.5625,-400000.0625
6.4088170528411865,1567.75,-7357.06982421875,-2370.60009765625,-336964.21875,-12691.0703125,-390833.03125,-348685.59375,-400000.0625
6.462737083435059,1584.5799560546875,-7339.52978515625,-2351.3798828125,-336490.96875,-12673.669921875,-389919.65625,-347863.8125,-400000.0625
6.484666347503662,1644.52001953125,-7277.72998046875,-2293.010009765625,-336664.0625,-12618.5,-390211.96875,-348282.09375,-400000.0625
6.505257844924927,1663.1099853515625,-7254.509765625,-2270.080078125,-337229.59375,-12602.1396484375,-391267.125,-349352.40625,-400000.0625
6.536896467208862,1611.8499755859375,-7308.2900390625,-2320.340087890625,-337383.375,-12648.0595703125,-391581.875,-349580.84375,-400000.0625
6.5957417488098145,1560.5,-7359.7001953125,-2368.31005859375,-336888.40625,-12683.4404296875,-390664.96875,-348633.9375,-400000.0625
6.61893367767334,1578.6199951171875,-7339.6201171875,-2350.7099609375,-336411.9375,-12668.419921875,-389745.125,-347816.375,-400000.0625
6.6445159912109375,1637.510009765625,-7280.2099609375,-2293.39990234375,-336585.75,-12617.7802734375,-390037.3125,-348238.75,-400000.0625
6.702569961547852,1660.5400390625,-7258.3701171875,-2271.27001953125,-337148.90625,-12595.0400390625,-391092.78125,-349309.1875,-400000.0625
6.727808237075806,1608.510009765625,-7308.47998046875,-2320.389892578125,-337305.90625,-12638.1904296875,-391412.3125,-349543.03125,-400000.0625
6.7510387897491455,1557.969970703125,-7358.60009765625,-2371.60009765625,-336811.96875,-12684.8203125,-390495.5,-348596.8125,-400000.0625
6.801050901412964,1577.280029296875,-7343.14990234375,-2353.81005859375,-336337.65625,-12670.759765625,-389580.25,-347781.78125,-400000.0625
6.822114706039429,1638.030029296875,-7279.919921875,-2292.06005859375,-336508.78125,-12617.2998046875,-389869.3125,-348205.28125,-400000.0625
6.860124111175537,1664.0699462890625,-7254.5498046875,-2270.56005859375,-337072.6875,-12598.51953125,-390928.9375,-349285.6875,-400000.0625
6.924296855926514,1613.4300537109375,-7307.14990234375,-2322.719970703125,-337229.09375,-12649.25,-391250.40625,-349527.5,-400000.0625
6.955138444900513,1561.550048828125,-7359.93017578125,-2371.550048828125,-336737.46875,-12695.0302734375,-390339.9375,-348596.28125,-400000.0625
6.9811012744903564,1580.760009765625,-7339.10009765625,-2350.429931640625,-336259.78125,-12675.48046875,-389424.0,-347795.96875,-400000.0625
7.0296854972839355,1635.739990234375,-7284.68994140625,-2297.590087890625,-336432.03125,-12624.0703125,-389715.625,-348234.5,-400000.0625
7.057175874710083,1655.010009765625,-7260.990234375,-2276.610107421875,-336995.3125,-12598.990234375,-390778.90625,-349323.78125,-400000.0625
7.088338136672974,1604.3699951171875,-7310.33984375,-2323.47998046875,-337151.65625,-12643.3896484375,-391105.65625,-349573.5625,-400000.0625
7.137014150619507,1557.72998046875,-7358.93017578125,-2371.360107421875,-336657.28125,-12693.6904296875,-390194.125,-348643.8125,-400000.0625
7.171720027923584,1575.3699951171875,-7340.9599609375,-2354.3798828125,-336182.3125,-12675.240234375,-389280.09375,-347845.625,-400000.0625
7.20005464553833,1630.8299560546875,-7276.43994140625,-2294.449951171875,-336350.53125,-12613.9697265625,-389571.65625,-348283.75,-400000.0625
7.248797416687012,1654.0999755859375,-7257.60986328125,-2274.93994140625,-336915.625,-12601.51953125,-390638.34375,-349374.53125,-400000.0625
7.279542446136475,1610.22998046875,-7309.9599609375,-2325.010009765625,-337072.15625,-12647.3896484375,-390971.71875,-349622.59375,-400000.0625
7.304715394973755,1559.3499755859375,-7357.8798828125,-2370.070068359375,-336580.9375,-12689.349609375,-390071.3125,-348690.28125,-400000.0625
7.372692823410034,1575.280029296875,-7341.0498046875,-2351.429931640625,-336105.4375,-12672.9501953125,-389163.34375,-347886.40625,-400000.0625
7.405266284942627,1636.4599609375,-7278.06005859375,-2288.580078125,-336275.0,-12618.01953125,-389462.90625,-348320.28125,-400000.0625
7.495489835739136,1659.6800537109375,-7256.22021484375,-2266.550048828125,-336836.8125,-12598.4697265625,-390537.5,-349405.0,-400000.0625
7.531275749206543,1612.760009765625,-7305.81005859375,-2315.469970703125,-336997.125,-12641.6201171875,-390887.75,-349652.4375,-400000.0625
7.602846384048462,1561.2099609375,-7357.7900390625,-2364.830078125,-336506.65625,-12689.2099609375,-390005.03125,-348710.4375,-400000.0625
7.642774820327759,1575.8499755859375,-7337.759765625,-2345.510009765625,-336031.71875,-12669.900390625,-389114.9375,-347895.28125,-400000.0625
7.704612493515015,1640.3199462890625,-7276.25,-2285.2900390625,-336198.65625,-12606.8603515625,-389425.375,-348320.71875,-400000.0625
7.762518882751465,1662.06005859375,-7253.7001953125,-2261.830078125,-336760.3125,-12585.98046875,-390511.46875,-349407.0,-400000.0625
7.879478693008423,1610.5699462890625,-7300.56982421875,-2308.93994140625,-336918.53125,-12630.7998046875,-390869.75,-349652.34375,-400000.0625
7.94482421875,1563.31005859375,-7352.97021484375,-2356.580078125,-336431.71875,-12677.150390625,-389995.5625,-348707.8125,-400000.0625
7.971697568893433,1580.3800048828125,-7338.0498046875,-2338.550048828125,-335956.90625,-12662.41015625,-389106.8125,-347884.15625,-400000.0625
8.013922929763794,1640.75,-7274.580078125,-2279.6201171875,-336125.03125,-12609.3896484375,-389417.96875,-348308.46875,-400000.0625
8.088571548461914,1663.02001953125,-7254.35986328125,-2257.820068359375,-336687.03125,-12588.6904296875,-390500.4375,-349398.28125,-400000.0625
8.114416599273682,1608.1300048828125,-7307.240234375,-2309.85009765625,-336849.6875,-12635.51953125,-390861.5,-349647.53125,-400000.0625
8.203075170516968,1555.199951171875,-7361.60009765625,-2364.25,-336363.0625,-12684.0595703125,-389988.5625,-348699.0,-400000.0625
8.263087034225464,1572.4200439453125,-7345.8701171875,-2348.280029296875,-335888.71875,-12668.419921875,-389100.875,-347871.6875,-400000.0625
8.345693826675415,1635.0699462890625,-7285.259765625,-2287.820068359375,-336053.125,-12611.490234375,-389404.4375,-348294.0,-400000.0625
8.370227813720703,1656.3399658203125,-7261.47021484375,-2264.68994140625,-336615.40625,-12587.599609375,-390485.0625,-349387.53125,-400000.0625
8.44910454750061,1607.699951171875,-7310.14990234375,-2312.179931640625,-336776.625,-12631.7001953125,-390845.90625,-349638.28125,-400000.0625
8.488363981246948,1557.5400390625,-7361.75,-2362.199951171875,-336291.6875,-12679.240234375,-389978.5625,-348690.28125,-400000.0625
8.553616523742676,1575.989990234375,-7347.5400390625,-2346.85009765625,-335814.375,-12663.26953125,-389085.65625,-347856.84375,-400000.0625
8.594644546508789,1635.27001953125,-7287.7900390625,-2291.8701171875,-335978.25,-12612.76953125,-389380.3125,-348276.84375,-400000.0625
8.654685974121094,1654.1500244140625,-7263.52001953125,-2269.320068359375,-336539.21875,-12593.7001953125,-390450.125,-349374.90625,-400000.0625
8.695207357406616,1607.0799560546875,-7313.39990234375,-2318.0,-336705.34375,-12640.91015625,-390803.25,-349632.53125,-400000.0625
8.767553091049194,1555.969970703125,-7367.27978515625,-2369.5,-336219.0625,-12680.33984375,-389920.75,-348680.59375,-400000.0625
8.812108516693115,1573.1300048828125,-7348.81982421875,-2350.0,-335743.28125,-12660.1201171875,-389014.0,-347843.875,-400000.0625
8.912138938903809,1634.260009765625,-7286.97998046875,-2289.77001953125,-335905.6875,-12609.0498046875,-389292.9375,-348269.15625,-400000.0625
9.012663125991821,1660.010009765625,-7262.89990234375,-2266.360107421875,-336469.5625,-12593.0302734375,-390351.375,-349377.53125,-400000.0625
9.0765700340271,1606.800048828125,-7314.72998046875,-2316.47998046875,-336634.15625,-12635.4697265625,-390691.09375,-349637.75,-400000.0625
9.111734390258789,1557.02001953125,-7365.419921875,-2366.02001953125,-336143.875,-12678.0,-389793.59375,-348679.125,-400000.0625
9.137152194976807,1575.760009765625,-7347.72998046875,-2347.760009765625,-335663.78125,-12661.7900390625,-388882.15625,-347843.03125,-400000.0625
9.19637393951416,1631.780029296875,-7287.5498046875,-2287.47998046875,-335828.0625,-12605.48046875,-389165.71875,-348272.9375,-400000.0625
9.231594562530518,1652.719970703125,-7265.85009765625,-2267.60009765625,-336388.5,-12585.16015625,-390223.96875,-349382.0,-400000.0625
9.25717830657959,1603.56005859375,-7316.06982421875,-2318.47998046875,-336555.84375,-12631.5595703125,-390575.78125,-349650.84375,-400000.0625
9.310978651046753,1554.5400390625,-7368.3701171875,-2369.68994140625,-336066.25,-12680.099609375,-389693.34375,-348696.28125,-400000.0625
9.34281301498413,1570.6099853515625,-7352.68994140625,-2354.0,-335585.0625,-12664.26953125,-388785.0625,-347853.21875,-400000.0625
9.369716167449951,1629.780029296875,-7289.7900390625,-2295.070068359375,-335745.21875,-12610.8203125,-389062.4375,-348272.9375,-400000.0625
9.432183265686035,1655.010009765625,-7267.08984375,-2272.219970703125,-336309.84375,-12590.3095703125,-390125.5625,-349381.5,-400000.0625
9.45979380607605,1605.800048828125,-7314.06005859375,-2317.7099609375,-336477.625,-12632.7099609375,-390478.28125,-349646.3125,-400000.0625
9.481751203536987,1552.530029296875,-7365.3701171875,-2368.739990234375,-335990.21875,-12683.73046875,-389601.46875,-348695.375,-400000.0625
9.543593883514404,1570.27001953125,-7349.68017578125,-2354.2900390625,-335502.9375,-12668.08984375,-388690.65625,-347850.09375,-400000.0625
9.570574045181274,1630.260009765625,-7290.31982421875,-2293.110107421875,-335658.25,-12610.8701171875,-388966.8125,-348264.34375,-400000.0625
9.609138488769531,1653.530029296875,-7268.9501953125,-2271.510009765625,-336216.6875,-12591.5498046875,-390027.71875,-349364.5,-400000.0625
9.652874231338501,1607.6099853515625,-7315.68017578125,-2317.949951171875,-336382.0625,-12631.9404296875,-390388.8125,-349626.4375,-400000.0625
9.67941164970398,1558.0699462890625,-7363.93994140625,-2365.919921875,-335889.71875,-12673.900390625,-389519.78125,-348670.8125,-400000.0625
9.70767855644226,1575.52001953125,-7348.009765625,-2348.330078125,-335402.15625,-12658.98046875,-388628.46875,-347824.625,-400000.0625
9.726191520690918,1635.5999755859375,-7283.740234375,-2286.9599609375,-335557.0625,-12604.759765625,-388919.71875,-348229.25,-400000.0625
9.781938314437866,1658.8699951171875,-7261.89990234375,-2267.889892578125,-336121.0625,-12589.5498046875,-389996.25,-349322.3125,-400000.0625
9.809227228164673,1610.6099853515625,-7313.68017578125,-2316.280029296875,-336288.53125,-12638.4296875,-390367.96875,-349580.40625,-400000.0625
9.837380647659302,1558.260009765625,-7362.41015625,-2363.8701171875,-335799.125,-12678.099609375,-389514.21875,-348625.8125,-400000.0625
9.899262189865112,1571.1300048828125,-7345.6298828125,-2348.139892578125,-335314.6875,-12661.41015625,-388630.28125,-347775.78125,-400000.0625
9.956136226654053,1634.97998046875,-7287.1201171875,-2291.06005859375,-335476.53125,-12608.8603515625,-388926.375,-348179.34375,-400000.0625
10.017903327941895,1662.780029296875,-7266.0,-2269.840087890625,-336045.59375,-12590.7900390625,-390000.59375,-349268.53125,-400000.0625
10.052276849746704,1618.5799560546875,-7314.25,-2316.6201171875,-336221.0625,-12638.0,-390370.46875,-349528.40625,-400000.0625
10.095967292785645,1570.510009765625,-7359.83984375,-2364.5400390625,-335733.5625,-12684.4404296875,-389514.125,-348575.6875,-400000.0625
10.151116847991943,1591.43994140625,-7341.240234375,-2348.280029296875,-335248.625,-12669.3701171875,-388629.34375,-347726.78125,-400000.0625
10.194336175918579,1650.949951171875,-7279.97021484375,-2290.199951171875,-335408.6875,-12613.25,-388921.96875,-348126.59375,-400000.0625
10.219113111495972,1673.97998046875,-7252.83984375,-2267.929931640625,-335981.9375,-12590.169921875,-389994.625,-349214.3125,-400000.0625
10.270200729370117,1626.43994140625,-7302.0,-2315.239990234375,-336155.75,-12637.8095703125,-390364.21875,-349473.125,-400000.0625
10.300374269485474,1575.280029296875,-7353.35009765625,-2363.780029296875,-335663.78125,-12694.599609375,-389511.125,-348525.40625,-400000.0625
10.325936794281006,1591.5899658203125,-7333.08984375,-2343.85009765625,-335170.6875,-12675.1904296875,-388622.65625,-347677.09375,-400000.0625
10.399177312850952,1650.3299560546875,-7268.3798828125,-2280.0,-335331.90625,-12609.669921875,-388909.625,-348074.75,-400000.0625
10.432074546813965,1669.739990234375,-7246.2998046875,-2258.010009765625,-335905.15625,-12583.349609375,-389969.90625,-349156.53125,-400000.0625
10.50075364112854,1623.8699951171875,-7294.1298828125,-2304.360107421875,-336081.25,-12625.3095703125,-390327.125,-349417.53125,-400000.0625
10.526600360870361,1571.75,-7350.10986328125,-2356.820068359375,-335583.1875,-12677.2900390625,-389455.40625,-348473.625,-400000.0625
10.553116083145142,1584.9599609375,-7333.52001953125,-2340.60009765625,-335090.53125,-12661.83984375,-388554.09375,-347631.78125,-400000.0625
10.625121355056763,1646.9000244140625,-7269.56982421875,-2280.3798828125,-335249.3125,-12603.48046875,-388832.71875,-348030.75,-400000.0625
10.664865493774414,1670.6500244140625,-7248.58984375,-2257.35009765625,-335822.96875,-12581.7802734375,-389896.53125,-349114.5625,-400000.0625
10.766113996505737,1622.489990234375,-7294.93994140625,-2303.699951171875,-335996.9375,-12630.7001953125,-390257.4375,-349377.1875,-400000.0625
10.834540367126465,1572.75,-7344.6298828125,-2352.81005859375,-335502.75,-12676.5302734375,-389388.1875,-348438.25,-400000.0625
10.862084865570068,1585.0999755859375,-7333.14013671875,-2340.1298828125,-335005.625,-12662.41015625,-388485.0625,-347595.71875,-400000.0625
10.90297794342041,1646.9000244140625,-7272.43994140625,-2282.909912109375,-335165.875,-12605.1396484375,-388770.15625,-347991.6875,-400000.0625
10.968184471130371,1670.030029296875,-7242.8701171875,-2257.300048828125,-335743.21875,-12586.6396484375,-389842.375,-349073.40625,-400000.0625
11.004370927810669,1621.9100341796875,-7293.31982421875,-2306.64990234375,-335922.40625,-12635.900390625,-390214.78125,-349336.71875,-400000.0625
11.065386056900024,1566.7900390625,-7350.919921875,-2360.300048828125,-335427.125,-12678.8203125,-389347.3125,-348395.46875,-400000.0625
11.1033353805542,1579.9000244140625,-7337.0,-2345.419921875,-334932.9375,-12660.080078125,-388449.5625,-347550.625,-400000.0625
11.129390478134155,1640.3699951171875,-7277.06005859375,-2287.909912109375,-335092.53125,-12604.1904296875,-388740.53125,-347936.71875,-400000.0625
11.18134593963623,1661.8699951171875,-7250.64013671875,-2262.780029296875,-335673.84375,-12584.6396484375,-389826.8125,-349010.59375,-400000.0625
11.20639419555664,1616.0,-7299.759765625,-2309.27001953125,-335855.625,-12630.3203125,-390205.8125,-349269.78125,-400000.0625
11.229088306427002,1566.3599853515625,-7353.830078125,-2360.300048828125,-335363.28125,-12680.7197265625,-389342.125,-348324.1875,-400000.0625
11.249841451644897,1583.050048828125,-7335.9501953125,-2344.0400390625,-334867.09375,-12668.4697265625,-388442.21875,-347466.6875,-400000.0625
11.3015878200531,1645.52001953125,-7273.72021484375,-2282.47998046875,-335030.6875,-12611.150390625,-388733.53125,-347840.90625,-400000.0625
11.332739114761353,1666.97998046875,-7246.77978515625,-2257.6298828125,-335613.78125,-12581.400390625,-389814.5625,-348899.25,-400000.0625
11.35537052154541,1618.6700439453125,-7294.419921875,-2304.550048828125,-335798.15625,-12627.9404296875,-390191.9375,-349151.84375,-400000.0625
11.415350437164307,1567.8399658203125,-7349.06005859375,-2356.9599609375,-335302.90625,-12678.33984375,-389325.375,-348193.03125,-400000.0625
11.441175937652588,1583.2900390625,-7333.60986328125,-2342.75,-334806.78125,-12664.8896484375,-388424.53125,-347315.15625,-400000.0625
11.469604730606079,1644.6099853515625,-7273.72021484375,-2283.860107421875,-334967.375,-12609.76953125,-388709.78125,-347678.65625,-400000.0625
11.530600547790527,1669.550048828125,-7248.35009765625,-2259.06005859375,-335552.6875,-12584.740234375,-389789.28125,-348751.78125,-400000.0625
11.553427457809448,1624.6800537109375,-7297.89990234375,-2307.989990234375,-335736.40625,-12627.169921875,-390167.875,-349017.625,-400000.0625
11.580364465713501,1575.9000244140625,-7350.02001953125,-2358.820068359375,-335243.75,-12679.3896484375,-389309.25,-348066.03125,-400000.0625
11.646685361862183,1593.02001953125,-7334.27978515625,-2342.75,-334747.0625,-12664.1796875,-388409.125,-347186.9375,-400000.0625
11.67824649810791,1650.81005859375,-7275.2998046875,-2283.18994140625,-334910.25,-12608.48046875,-388693.25,-347546.09375,-400000.0625
11.709226846694946,1673.0799560546875,-7248.68994140625,-2259.679931640625,-335492.5,-12588.740234375,-389765.5,-348607.78125,-400000.0625
11.769901037216187,1626.72998046875,-7295.990234375,-2306.320068359375,-335680.125,-12633.419921875,-390144.15625,-348868.6875,-400000.0625
11.80079174041748,1576.3299560546875,-7349.35009765625,-2359.10009765625,-335189.28125,-12678.48046875,-389282.84375,-347912.625,-400000.0625
11.830367803573608,1591.25,-7333.7099609375,-2341.64990234375,-334695.0,-12658.4501953125,-388382.25,-347030.625,-400000.0625
11.94827127456665,1652.0,-7271.72021484375,-2279.7099609375,-334855.5625,-12601.849609375,-388661.125,-347382.3125,-400000.0625
12.000707626342773,1674.800048828125,-7249.06982421875,-2261.68994140625,-335439.46875,-12582.58984375,-389736.40625,-348444.40625,-400000.0625
12.032487630844116,1625.780029296875,-7301.85986328125,-2312.989990234375,-335624.15625,-12628.26953125,-390113.03125,-348706.28125,-400000.0625
12.054707527160645,1570.75,-7354.169921875,-2363.2099609375,-335134.875,-12680.0595703125,-389250.1875,-347753.03125,-400000.0625
12.106998682022095,1585.3900146484375,-7339.56982421875,-2346.56005859375,-334638.25,-12663.080078125,-388341.9375,-346871.0,-400000.0625
12.14362382888794,1645.8499755859375,-7281.16015625,-2288.340087890625,-334798.125,-12609.7197265625,-388620.21875,-347227.34375,-400000.0625
12.18083667755127,1667.3599853515625,-7256.1298828125,-2264.68994140625,-335379.625,-12587.7900390625,-389694.4375,-348293.53125,-400000.0625
12.238277435302734,1618.6700439453125,-7303.759765625,-2311.280029296875,-335565.8125,-12630.509765625,-390074.375,-348564.34375,-400000.0625
12.262670040130615,1567.6500244140625,-7357.5498046875,-2361.8701171875,-335077.90625,-12678.669921875,-389209.875,-347617.375,-400000.0625
12.28043246269226,1579.050048828125,-7342.39013671875,-2348.22998046875,-334583.21875,-12663.0302734375,-388299.21875,-346742.15625,-400000.0625
12.305699110031128,1640.510009765625,-7282.02001953125,-2287.580078125,-334738.96875,-12603.9501953125,-388572.78125,-347104.4375,-400000.0625
12.355151176452637,1666.1199951171875,-7257.83984375,-2262.159912109375,-335320.03125,-12580.830078125,-389648.28125,-348181.1875,-400000.0625
12.384918928146362,1615.9100341796875,-7305.33984375,-2312.179931640625,-335504.65625,-12627.169921875,-390029.9375,-348461.875,-400000.0625
12.421072244644165,1566.4599609375,-7362.93994140625,-2366.02001953125,-335017.15625,-12679.8603515625,-389166.84375,-347530.96875,-400000.0625
12.468113899230957,1581.1400146484375,-7346.25,-2351.239990234375,-334521.65625,-12664.41015625,-388255.875,-346676.0,-400000.0625
12.502777338027954,1641.3699951171875,-7285.06982421875,-2291.72998046875,-334679.59375,-12609.240234375,-388533.03125,-347065.78125,-400000.0625
12.533106803894043,1666.449951171875,-7261.22998046875,-2268.030029296875,-335258.25,-12591.8896484375,-389607.71875,-348165.96875,-400000.0625
12.587883710861206,1619.530029296875,-7306.6201171875,-2313.22998046875,-335447.4375,-12633.23046875,-389989.9375,-348468.90625,-400000.0625
12.61883544921875,1569.6500244140625,-7361.22021484375,-2364.5400390625,-334959.78125,-12679.9599609375,-389127.0,-347554.3125,-400000.0625
12.6439790725708,1582.3399658203125,-7345.14990234375,-2347.800048828125,-334464.21875,-12663.9404296875,-388215.84375,-346715.15625,-400000.0625
12.704640865325928,1644.3299560546875,-7284.06982421875,-2287.580078125,-334618.21875,-12606.76953125,-388488.0,-347110.125,-400000.0625
12.740150690078735,1669.0699462890625,-7257.27001953125,-2264.97998046875,-335198.375,-12586.0703125,-389562.375,-348213.53125,-400000.0625
12.770664930343628,1623.3900146484375,-7305.0,-2310.610107421875,-335385.40625,-12634.51953125,-389946.09375,-348518.125,-400000.0625
12.828641653060913,1573.0899658203125,-7355.31005859375,-2359.10009765625,-334903.09375,-12687.8798828125,-389091.0,-347610.65625,-400000.0625
12.850635290145874,1585.2900390625,-7341.85986328125,-2345.280029296875,-334407.5,-12670.08984375,-388180.40625,-346768.46875,-400000.0625
12.87986946105957,1646.8499755859375,-7280.35009765625,-2285.10009765625,-334561.34375,-12603.330078125,-388447.09375,-347158.90625,-400000.0625
12.952988147735596,1671.739990234375,-7254.97998046875,-2260.159912109375,-335137.3125,-12573.4296875,-389517.78125,-348259.0625,-400000.0625
12.995589017868042,1624.3900146484375,-7299.3798828125,-2305.360107421875,-335328.0625,-12616.830078125,-389906.96875,-348565.1875,-400000.0625
13.076063871383667,1575.0400390625,-7353.64013671875,-2357.239990234375,-334844.71875,-12669.3701171875,-389050.96875,-347649.9375,-400000.0625
13.105606079101562,1587.6800537109375,-7344.68017578125,-2345.179931640625,-334348.65625,-12659.26953125,-388138.25,-346803.5625,-400000.0625
13.16902780532837,1645.280029296875,-7282.5,-2285.81005859375,-334499.71875,-12604.9501953125,-388402.46875,-347189.65625,-400000.0625
13.199359893798828,1672.510009765625,-7256.3701171875,-2261.780029296875,-335077.28125,-12584.0703125,-389474.375,-348288.34375,-400000.0625
13.23816990852356,1629.0699462890625,-7303.81005859375,-2305.7900390625,-335266.59375,-12624.8896484375,-389863.78125,-348589.6875,-400000.0625
13.296613931655884,1579.0899658203125,-7353.16015625,-2354.239990234375,-334784.125,-12668.4697265625,-389010.4375,-347671.25,-400000.0625
13.329478025436401,1590.6800537109375,-7337.47998046875,-2342.320068359375,-334286.40625,-12657.5,-388093.34375,-346814.25,-400000.0625
13.356215715408325,1649.3800048828125,-7279.43994140625,-2286.860107421875,-334438.03125,-12610.2900390625,-388357.15625,-347199.15625,-400000.0625
13.412273645401001,1675.6500244140625,-7255.169921875,-2263.39990234375,-335013.875,-12586.7900390625,-389426.9375,-348301.40625,-400000.0625
13.451250314712524,1627.969970703125,-7303.6201171875,-2306.840087890625,-335204.625,-12621.2099609375,-389819.09375,-348607.6875,-400000.0625
13.48187804222107,1577.7099609375,-7355.7900390625,-2358.8701171875,-334721.0,-12667.7998046875,-388968.09375,-347682.46875,-400000.0625
13.533319234848022,1592.449951171875,-7341.72021484375,-2343.610107421875,-334226.40625,-12655.830078125,-388056.0,-346819.53125,-400000.0625
13.55538558959961,1651.5699462890625,-7277.77978515625,-2282.330078125,-334373.5625,-12600.6103515625,-388315.8125,-347197.90625,-400000.0625
13.584951639175415,1672.1700439453125,-7253.5,-2260.449951171875,-334947.59375,-12577.73046875,-389384.21875,-348302.84375,-400000.0625
13.639973878860474,1624.06005859375,-7304.72021484375,-2308.56005859375,-335138.21875,-12619.16015625,-389776.625,-348611.125,-400000.0625
13.664366722106934,1570.93994140625,-7356.02001953125,-2360.110107421875,-334660.625,-12671.6201171875,-388933.0,-347686.34375,-400000.0625
13.69386601448059,1587.489990234375,-7345.490234375,-2349.0400390625,-334162.65625,-12662.7900390625,-388020.40625,-346816.59375,-400000.0625
13.761292934417725,1644.6600341796875,-7289.7001953125,-2290.820068359375,-334309.375,-12602.8603515625,-388279.6875,-347193.84375,-400000.0625
13.792815923690796,1671.219970703125,-7262.08984375,-2268.4599609375,-334879.3125,-12581.9697265625,-389342.5625,-348297.84375,-400000.0625
13.828116178512573,1624.6300048828125,-7308.14990234375,-2312.090087890625,-335073.0,-12623.83984375,-389737.28125,-348610.96875,-400000.0625
13.870816946029663,1571.8499755859375,-7366.0400390625,-2365.679931640625,-334596.34375,-12671.900390625,-388894.75,-347683.8125,-400000.0625
13.898432970046997,1587.3900146484375,-7348.6298828125,-2350.280029296875,-334104.0625,-12658.0703125,-387987.28125,-346813.59375,-400000.0625
13.93295669555664,1645.52001953125,-7286.8798828125,-2288.2900390625,-334249.25,-12599.1796875,-388241.0625,-347186.9375,-400000.0625
13.983825206756592,1670.219970703125,-7262.419921875,-2265.7900390625,-334821.78125,-12579.0595703125,-389304.53125,-348295.15625,-400000.0625
14.006290674209595,1624.5400390625,-7305.10009765625,-2309.75,-335011.75,-12623.41015625,-389698.59375,-348608.375,-400000.0625
14.038942813873291,1574.0400390625,-7353.58984375,-2356.860107421875,-334539.78125,-12668.08984375,-388860.375,-347683.28125,-400000.0625
14.089543104171753,1590.199951171875,-7342.91015625,-2345.85009765625,-334047.9375,-12656.169921875,-387953.65625,-346807.625,-400000.0625
14.121109962463379,1645.7099609375,-7283.35009765625,-2289.9599609375,-334192.5,-12601.1904296875,-388208.15625,-347175.71875,-400000.0625
14.138118505477905,1670.0699462890625,-7259.22998046875,-2264.2099609375,-334757.9375,-12575.6796875,-389267.0,-348278.375,-400000.0625
14.16848874092102,1624.72998046875,-7305.52978515625,-2308.800048828125,-334950.1875,-12621.0703125,-389665.21875,-348593.5,-400000.0625
14.22177529335022,1576.0899658203125,-7357.169921875,-2360.77001953125,-334477.75,-12669.7099609375,-388830.46875,-347665.78125,-400000.0625
14.249865531921387,1587.06005859375,-7345.52978515625,-2347.760009765625,-333989.34375,-12653.349609375,-387923.25,-346786.625,-400000.0625
14.272733211517334,1644.1800537109375,-7291.41015625,-2290.06005859375,-334132.4375,-12598.1796875,-388170.65625,-347150.1875,-400000.0625
14.33762240409851,1668.739990234375,-7268.759765625,-2264.830078125,-334697.0625,-12578.6796875,-389224.71875,-348253.375,-400000.0625
14.36193561553955,1623.199951171875,-7311.919921875,-2309.989990234375,-334890.75,-12618.8798828125,-389620.71875,-348569.625,-400000.0625
14.381715536117554,1571.4599609375,-7362.27001953125,-2363.830078125,-334425.6875,-12663.8896484375,-388791.75,-347646.09375,-400000.0625
14.441687107086182,1582.81005859375,-7351.2099609375,-2354.9599609375,-333937.875,-12652.7802734375,-387888.875,-346763.84375,-400000.0625
14.47607684135437,1639.989990234375,-7296.66015625,-2299.830078125,-334079.53125,-12603.1396484375,-388134.28125,-347122.53125,-400000.0625
14.510702133178711,1666.1199951171875,-7269.9599609375,-2272.75,-334640.84375,-12581.58984375,-389181.21875,-348220.0,-400000.0625
14.571374893188477,1617.9100341796875,-7314.830078125,-2316.47998046875,-334839.4375,-12619.1201171875,-389579.4375,-348542.40625,-400000.0625
14.604451656341553,1566.1199951171875,-7369.3798828125,-2366.8798828125,-334376.84375,-12663.990234375,-388754.6875,-347623.90625,-400000.0625
14.64610242843628,1582.239990234375,-7358.97998046875,-2355.719970703125,-333891.78125,-12659.0302734375,-387850.4375,-346742.4375,-400000.0625
14.695739269256592,1640.1300048828125,-7295.080078125,-2293.5400390625,-334027.84375,-12601.3798828125,-388085.28125,-347091.4375,-400000.0625
14.719502687454224,1665.780029296875,-7270.10009765625,-2267.5,-334586.21875,-12575.150390625,-389126.0,-348183.375,-400000.0625
14.74363088607788,1624.6300048828125,-7317.5400390625,-2314.0,-334784.25,-12619.2099609375,-389523.09375,-348505.5,-400000.0625
14.76729154586792,1571.93994140625,-7368.89990234375,-2363.6298828125,-334330.65625,-12665.849609375,-388709.34375,-347594.59375,-400000.0625
14.828739643096924,1583.3900146484375,-7356.22021484375,-2350.570068359375,-333844.03125,-12653.0703125,-387805.9375,-346712.34375,-400000.0625
14.880754470825195,1643.3199462890625,-7297.52001953125,-2292.919921875,-333977.875,-12597.6103515625,-388035.625,-347053.9375,-400000.0625
14.993736982345581,1668.449951171875,-7272.77001953125,-2267.550048828125,-334533.3125,-12573.669921875,-389071.1875,-348138.375,-400000.0625
15.067049503326416,1620.8699951171875,-7318.77978515625,-2312.52001953125,-334734.53125,-12615.0595703125,-389477.375,-348466.625,-400000.0625
15.095663785934448,1566.030029296875,-7371.85986328125,-2364.919921875,-334281.78125,-12664.83984375,-388665.65625,-347561.21875,-400000.0625
15.153817653656006,1576.7099609375,-7362.509765625,-2353.860107421875,-333798.4375,-12653.2099609375,-387763.625,-346680.71875,-400000.0625
15.1804518699646,1636.219970703125,-7303.56982421875,-2294.39990234375,-333927.78125,-12596.5595703125,-387987.28125,-347014.125,-400000.0625
15.205169916152954,1661.43994140625,-7273.47998046875,-2267.31005859375,-334484.53125,-12572.33984375,-389023.21875,-348095.03125,-400000.0625
15.259296894073486,1617.6199951171875,-7317.5400390625,-2310.610107421875,-334684.84375,-12617.349609375,-389432.8125,-348425.5625,-400000.0625
15.284940004348755,1564.260009765625,-7374.14013671875,-2362.820068359375,-334236.34375,-12664.75,-388631.4375,-347532.15625,-400000.0625
15.306836366653442,1576.3299560546875,-7360.31982421875,-2351.139892578125,-333750.71875,-12650.2998046875,-387726.9375,-346654.375,-400000.0625
15.36556887626648,1635.68994140625,-7295.31982421875,-2286.77001953125,-333881.125,-12595.7001953125,-387949.3125,-346984.8125,-400000.0625
15.39902639389038,1659.77001953125,-7271.580078125,-2261.929931640625,-334436.46875,-12571.5703125,-388983.90625,-348057.84375,-400000.0625
15.433881759643555,1615.6700439453125,-7319.740234375,-2309.179931640625,-334643.84375,-12612.2001953125,-389400.875,-348391.96875,-400000.0625
15.50333857536316,1563.97998046875,-7369.27978515625,-2357.820068359375,-334197.03125,-12656.3095703125,-388603.84375,-347506.09375,-400000.0625
15.5328950881958,1576.760009765625,-7360.27001953125,-2346.419921875,-333713.625,-12648.25,-387700.6875,-346631.8125,-400000.0625
15.56049656867981,1634.4100341796875,-7301.330078125,-2287.669921875,-333837.625,-12594.650390625,-387913.84375,-346952.28125,-400000.0625
15.611146926879883,1661.8299560546875,-7273.39013671875,-2262.159912109375,-334390.625,-12567.6201171875,-388946.1875,-348017.03125,-400000.0625
15.649333715438843,1617.4300537109375,-7319.93017578125,-2307.3701171875,-334598.6875,-12612.6298828125,-389366.0625,-348350.5625,-400000.0625
15.690205812454224,1566.31005859375,-7369.47021484375,-2355.429931640625,-334156.5,-12661.83984375,-388573.9375,-347472.40625,-400000.0625
15.752614498138428,1579.7099609375,-7355.169921875,-2341.75,-333669.3125,-12650.16015625,-387667.75,-346598.375,-400000.0625
15.784688234329224,1637.27001953125,-7294.990234375,-2284.14990234375,-333793.0,-12594.4599609375,-387879.3125,-346913.875,-400000.0625
15.817180871963501,1664.1099853515625,-7269.72021484375,-2259.2099609375,-334347.09375,-12570.330078125,-388912.71875,-347971.875,-400000.0625
15.890750646591187,1621.1500244140625,-7314.8701171875,-2304.7900390625,-334560.71875,-12615.16015625,-389340.15625,-348306.40625,-400000.0625
15.939228773117065,1568.3699951171875,-7365.7998046875,-2354.47998046875,-334118.03125,-12659.98046875,-388548.84375,-347431.875,-400000.0625
16.024256944656372,1581.9599609375,-7355.97998046875,-2342.419921875,-333632.375,-12647.6796875,-387640.875,-346561.03125,-400000.0625
16.051079988479614,1638.699951171875,-7297.85009765625,-2286.010009765625,-333754.46875,-12596.1796875,-387847.09375,-346869.125,-400000.0625
16.099385261535645,1661.72998046875,-7272.14990234375,-2262.35009765625,-334308.84375,-12576.2001953125,-388884.4375,-347923.28125,-400000.0625
16.130812883377075,1620.719970703125,-7324.080078125,-2310.3701171875,-334520.4375,-12612.2998046875,-389311.84375,-348255.78125,-400000.0625
16.160513877868652,1570.93994140625,-7373.669921875,-2357.340087890625,-334078.3125,-12653.01953125,-388517.09375,-347383.71875,-400000.0625
16.225963830947876,1585.25,-7359.7900390625,-2342.840087890625,-333588.34375,-12645.099609375,-387598.9375,-346511.375,-400000.0625
16.260138034820557,1642.0400390625,-7301.43017578125,-2288.199951171875,-333711.8125,-12600.66015625,-387804.375,-346820.40625,-400000.0625
16.288689136505127,1664.2099609375,-7277.72998046875,-2262.739990234375,-334270.5625,-12571.6201171875,-388839.59375,-347871.375,-400000.0625
16.33791422843933,1623.3399658203125,-7315.68017578125,-2303.409912109375,-334489.0,-12608.150390625,-389271.96875,-348204.375,-400000.0625
16.36608099937439,1570.27001953125,-7369.759765625,-2354.81005859375,-334045.15625,-12659.1201171875,-388471.75,-347330.53125,-400000.0625
16.393799543380737,1578.6600341796875,-7361.4599609375,-2345.419921875,-333556.5,-12650.16015625,-387547.40625,-346455.8125,-400000.0625
16.459232568740845,1639.27001953125,-7302.7099609375,-2287.669921875,-333678.8125,-12590.4599609375,-387749.28125,-346760.40625,-400000.0625
16.493012189865112,1664.5400390625,-7273.0498046875,-2259.830078125,-334241.46875,-12564.900390625,-388793.21875,-347811.21875,-400000.0625
16.52295160293579,1623.6300048828125,-7314.919921875,-2301.030029296875,-334459.6875,-12607.669921875,-389229.625,-348142.4375,-400000.0625
16.58868646621704,1572.3699951171875,-7367.08984375,-2351.3798828125,-334017.09375,-12656.3095703125,-388426.875,-347261.34375,-400000.0625
16.61377239227295,1581.47998046875,-7354.31005859375,-2342.080078125,-333521.625,-12651.73046875,-387493.40625,-346373.21875,-400000.0625
16.64411211013794,1642.3699951171875,-7294.31982421875,-2284.570068359375,-333646.59375,-12597.3701171875,-387690.96875,-346666.53125,-400000.0625
16.710017442703247,1669.97998046875,-7266.0,-2258.35009765625,-334212.0625,-12568.8095703125,-388732.78125,-347705.59375,-400000.0625
16.740329027175903,1625.489990234375,-7312.81982421875,-2300.639892578125,-334432.59375,-12611.5302734375,-389160.3125,-348021.84375,-400000.0625
16.767704963684082,1571.800048828125,-7365.509765625,-2349.949951171875,-333986.40625,-12659.740234375,-388338.0,-347120.1875,-400000.0625
16.823704957962036,1582.050048828125,-7353.830078125,-2338.080078125,-333491.03125,-12638.2802734375,-387386.09375,-346218.90625,-400000.0625
16.852165460586548,1639.030029296875,-7296.08984375,-2281.18994140625,-333614.46875,-12586.259765625,-387571.46875,-346511.21875,-400000.0625
16.88198232650757,1665.780029296875,-7267.56982421875,-2255.300048828125,-334182.3125,-12564.3701171875,-388608.59375,-347560.0625,-400000.0625
16.971143007278442,1627.5899658203125,-7309.25,-2295.449951171875,-334403.15625,-12603.9501953125,-389033.65625,-347891.65625,-400000.0625
17.02601432800293,1579.4300537109375,-7363.7998046875,-2350.239990234375,-333955.84375,-12663.650390625,-388213.0625,-347004.5625,-400000.0625
17.10550594329834,1584.199951171875,-7359.64990234375,-2345.22998046875,-333458.09375,-12661.8896484375,-387265.625,-346107.125,-400000.0625
17.15243434906006,1637.97998046875,-7299.85009765625,-2286.6298828125,-333581.78125,-12600.08984375,-387463.9375,-346393.09375,-400000.0625
17.221259117126465,1665.739990234375,-7273.9599609375,-2260.72998046875,-334150.875,-12564.0400390625,-388519.25,-347434.5,-400000.0625
17.267385005950928,1625.25,-7322.259765625,-2304.27001953125,-334374.5625,-12601.9501953125,-388963.09375,-347762.1875,-400000.0625
17.350219249725342,1570.1800537109375,-7372.43017578125,-2354.0,-333926.09375,-12653.73046875,-388149.625,-346868.15625,-400000.0625
17.3854877948761,1578.760009765625,-7361.1298828125,-2340.4599609375,-333428.09375,-12651.1103515625,-387208.21875,-345964.9375,-400000.0625
17.513127326965332,1637.510009765625,-7301.9501953125,-2282.050048828125,-333552.0625,-12590.4599609375,-387409.53125,-346243.75,-400000.0625
17.620254516601562,1667.449951171875,-7274.72021484375,-2254.6298828125,-334124.46875,-12559.26953125,-388473.875,-347284.0625,-400000.0625
17.669793367385864,1622.530029296875,-7318.58984375,-2298.929931640625,-334347.8125,-12602.0,-388921.96875,-347611.40625,-400000.0625
17.71295738220215,1569.1800537109375,-7370.85009765625,-2350.52001953125,-333901.78125,-12652.1103515625,-388113.15625,-346722.9375,-400000.0625
17.748711109161377,1580.47998046875,-7362.18017578125,-2339.080078125,-333401.4375,-12641.5302734375,-387170.96875,-345819.65625,-400000.0625
17.79996347427368,1637.97998046875,-7304.9599609375,-2282.0,-333522.5625,-12589.169921875,-387377.375,-346102.75,-400000.0625
17.854236841201782,1662.72998046875,-7276.10986328125,-2256.35009765625,-334089.125,-12565.08984375,-388440.75,-347146.9375,-400000.0625
17.96355438232422,1618.530029296875,-7316.830078125,-2295.300048828125,-334312.75,-12599.08984375,-388893.03125,-347483.28125,-400000.0625
18.05200481414795,1564.8800048828125,-7374.10009765625,-2348.800048828125,-333862.875,-12648.490234375,-388086.125,-346596.53125,-400000.0625
18.099347829818726,1573.56005859375,-7362.3701171875,-2337.070068359375,-333360.90625,-12639.08984375,-387145.53125,-345698.90625,-400000.0625
18.1872775554657,1632.4000244140625,-7301.85986328125,-2277.89990234375,-333480.21875,-12589.3603515625,-387350.875,-345988.46875,-400000.0625
18.226465225219727,1657.43994140625,-7274.9599609375,-2253.530029296875,-334049.9375,-12567.330078125,-388420.71875,-347043.84375,-400000.0625
18.294231176376343,1614.0,-7324.740234375,-2302.409912109375,-334272.28125,-12607.9599609375,-388873.0,-347387.59375,-400000.0625
18.34621500968933,1558.489990234375,-7377.2001953125,-2354.909912109375,-333823.09375,-12657.169921875,-388065.96875,-346509.9375,-400000.0625
18.427135944366455,1574.800048828125,-7365.75,-2340.169921875,-333320.21875,-12645.33984375,-387124.3125,-345626.59375,-400000.0625
18.49542760848999,1633.9300537109375,-7301.85986328125,-2279.949951171875,-333442.59375,-12588.9296875,-387332.34375,-345940.0,-400000.0625
18.618655920028687,1662.300048828125,-7267.759765625,-2251.340087890625,-334008.84375,-12563.1796875,-388398.5,-347014.34375,-400000.0625
18.7168288230896,1620.050048828125,-7314.06005859375,-2295.969970703125,-334230.8125,-12608.8203125,-388851.6875,-347372.34375,-400000.0625
18.774057626724243,1563.5,-7372.89990234375,-2351.330078125,-333780.8125,-12667.7998046875,-388042.15625,-346510.21875,-400000.0625
18.833568334579468,1573.280029296875,-7363.509765625,-2340.169921875,-333281.03125,-12646.2998046875,-387102.21875,-345646.71875,-400000.0625
18.867294788360596,1629.5400390625,-7305.0,-2283.050048828125,-333400.59375,-12581.16015625,-387308.96875,-345971.34375,-400000.0625
18.91278886795044,1661.43994140625,-7275.2998046875,-2255.340087890625,-333971.03125,-12560.080078125,-388374.28125,-347050.8125,-400000.0625
18.99533462524414,1615.719970703125,-7319.64013671875,-2299.360107421875,-334193.84375,-12601.759765625,-388823.875,-347411.09375,-400000.0625
19.03476119041443,1562.5,-7374.6201171875,-2350.760009765625,-333748.125,-12650.7802734375,-388022.75,-346555.8125,-400000.0625
19.099767208099365,1576.81005859375,-7363.3701171875,-2340.219970703125,-333247.8125,-12643.33984375,-387085.875,-345692.78125,-400000.0625
19.13333296775818,1634.030029296875,-7304.0,-2284.340087890625,-333366.625,-12589.0302734375,-387289.1875,-346015.71875,-400000.0625
19.15939497947693,1665.31005859375,-7275.14990234375,-2255.919921875,-333930.375,-12571.4296875,-388345.71875,-347091.09375,-400000.0625
19.226420640945435,1622.9200439453125,-7316.64013671875,-2297.780029296875,-334154.75,-12613.6796875,-388798.0,-347452.53125,-400000.0625
19.25481915473938,1567.6500244140625,-7374.2900390625,-2351.3798828125,-333708.125,-12652.259765625,-387997.0,-346592.21875,-400000.0625
19.2885262966156,1578.6600341796875,-7368.89990234375,-2344.699951171875,-333209.75,-12640.5302734375,-387061.4375,-345721.53125,-400000.0625
19.35531973838806,1632.8299560546875,-7309.9599609375,-2283.760009765625,-333325.90625,-12581.6396484375,-387260.875,-346038.0,-400000.0625
19.389440298080444,1659.8699951171875,-7281.64013671875,-2256.780029296875,-333889.28125,-12560.509765625,-388315.5,-347116.1875,-400000.0625
19.44523787498474,1621.6800537109375,-7329.89013671875,-2303.97998046875,-334110.96875,-12606.4296875,-388763.71875,-347476.0625,-400000.0625
19.46475100517273,1567.550048828125,-7379.43994140625,-2351.669921875,-333669.375,-12660.5,-387968.71875,-346611.5,-400000.0625
19.49842405319214,1580.52001953125,-7369.3798828125,-2340.93994140625,-333173.15625,-12651.2998046875,-387036.3125,-345730.78125,-400000.0625
19.550947904586792,1637.699951171875,-7307.77001953125,-2282.719970703125,-333290.71875,-12592.26953125,-387236.4375,-346045.0,-400000.0625
19.588205814361572,1663.72998046875,-7279.919921875,-2255.679931640625,-333850.21875,-12562.7099609375,-388288.59375,-347124.875,-400000.0625
19.613502740859985,1623.6300048828125,-7326.169921875,-2302.60009765625,-334072.6875,-12602.900390625,-388742.78125,-347489.71875,-400000.0625
19.690665006637573,1568.989990234375,-7377.10009765625,-2351.7099609375,-333631.59375,-12648.25,-387952.0,-346617.21875,-400000.0625
19.72199034690857,1577.280029296875,-7367.56005859375,-2339.4599609375,-333137.9375,-12640.5302734375,-387025.6875,-345729.8125,-400000.0625
19.798773050308228,1636.0799560546875,-7307.6298828125,-2279.81005859375,-333254.09375,-12585.259765625,-387223.875,-346040.59375,-400000.0625
19.825950145721436,1660.6300048828125,-7281.02001953125,-2254.25,-333813.09375,-12562.3701171875,-388272.375,-347123.46875,-400000.0625
19.882880449295044,1617.9599609375,-7325.75,-2298.159912109375,-334034.09375,-12605.9501953125,-388723.625,-347489.96875,-400000.0625
19.91186809539795,1571.3199462890625,-7380.68017578125,-2349.0,-333597.1875,-12652.349609375,-387937.34375,-346615.78125,-400000.0625
19.937407732009888,1579.6199951171875,-7369.14013671875,-2338.840087890625,-333102.96875,-12642.0,-387011.65625,-345722.09375,-400000.0625
20.001075744628906,1638.4599609375,-7310.68017578125,-2281.860107421875,-333216.28125,-12589.2197265625,-387206.375,-346031.90625,-400000.0625
20.037091732025146,1668.260009765625,-7279.919921875,-2253.719970703125,-333770.875,-12564.0400390625,-388249.6875,-347123.0,-400000.0625
20.06125521659851,1625.969970703125,-7322.60009765625,-2294.780029296875,-333991.375,-12597.990234375,-388700.8125,-347496.75,-400000.0625
20.117116451263428,1573.75,-7378.6298828125,-2348.139892578125,-333548.6875,-12646.8203125,-387911.6875,-346616.75,-400000.0625
20.13790512084961,1583.77001953125,-7368.85009765625,-2338.1201171875,-333050.59375,-12646.6298828125,-386982.90625,-345715.53125,-400000.0625
20.153461933135986,1640.510009765625,-7310.77001953125,-2282.47998046875,-333161.6875,-12591.4599609375,-387173.40625,-346023.5625,-400000.0625
20.191176414489746,1665.5899658203125,-7282.16015625,-2254.919921875,-333717.65625,-12556.3603515625,-388215.40625,-347121.5625,-400000.0625
20.236353158950806,1623.5799560546875,-7327.60986328125,-2298.2099609375,-333941.59375,-12595.9404296875,-388667.625,-347499.375,-400000.0625
20.263051986694336,1571.8499755859375,-7379.33984375,-2348.89990234375,-333507.375,-12647.580078125,-387887.34375,-346620.09375,-400000.0625
20.298303604125977,1579.7099609375,-7365.89990234375,-2337.550048828125,-333009.4375,-12641.8095703125,-386960.875,-345709.09375,-400000.0625
20.345666646957397,1639.8399658203125,-7306.52978515625,-2279.0,-333119.09375,-12586.9296875,-387152.34375,-346016.0625,-400000.0625
20.36957049369812,1668.8299560546875,-7282.35009765625,-2251.340087890625,-333666.6875,-12562.849609375,-388188.40625,-347113.46875,-400000.0625
20.401991844177246,1622.530029296875,-7325.93994140625,-2294.02001953125,-333885.65625,-12600.23046875,-388645.3125,-347498.125,-400000.0625
20.45248246192932,1566.31005859375,-7385.06005859375,-2349.469970703125,-333446.3125,-12646.490234375,-387867.78125,-346617.4375,-400000.0625
20.480376720428467,1572.93994140625,-7374.0,-2339.320068359375,-332948.15625,-12634.7099609375,-386942.4375,-345704.15625,-400000.0625
20.516411781311035,1633.3599853515625,-7312.16015625,-2278.89990234375,-333050.15625,-12580.349609375,-387124.0625,-346001.53125,-400000.0625
20.568016052246094,1661.010009765625,-7287.740234375,-2252.820068359375,-333595.125,-12558.3203125,-388160.21875,-347100.8125,-400000.0625
20.60360074043274,1613.949951171875,-7329.66015625,-2294.780029296875,-333815.9375,-12597.66015625,-388619.71875,-347487.125,-400000.0625
20.630807399749756,1559.68994140625,-7384.97021484375,-2346.989990234375,-333382.46875,-12645.9599609375,-387848.625,-346608.71875,-400000.0625
20.679620504379272,1571.22998046875,-7374.0,-2338.4599609375,-332883.59375,-12634.7099609375,-386921.9375,-345688.8125,-400000.0625
20.704784631729126,1632.1199951171875,-7313.2001953125,-2279.090087890625,-332985.1875,-12580.2099609375,-387103.28125,-345985.75,-400000.0625
20.737818241119385,1655.050048828125,-7289.27001953125,-2257.06005859375,-333524.59375,-12562.849609375,-388135.0625,-347083.3125,-400000.0625
20.793811082839966,1608.0400390625,-7337.47998046875,-2304.889892578125,-333744.90625,-12606.7197265625,-388592.875,-347473.09375,-400000.0625
20.833658695220947,1554.489990234375,-7390.06982421875,-2354.9599609375,-333311.5,-12648.0595703125,-387821.09375,-346594.1875,-400000.0625
20.864527463912964,1566.4100341796875,-7388.06982421875,-2347.989990234375,-332814.96875,-12641.76953125,-386895.5,-345673.75,-400000.0625
20.934675931930542,1624.780029296875,-7329.27001953125,-2288.679931640625,-332913.3125,-12588.169921875,-387070.1875,-345964.125,-400000.0625
20.979079008102417,1647.7099609375,-7285.8798828125,-2249.0,-333454.5625,-12556.83984375,-388103.25,-347064.34375,-400000.0625
21.062390565872192,1599.219970703125,-7313.39990234375,-2281.52001953125,-333677.1875,-12592.1298828125,-388566.78125,-347457.5,-400000.0625
21.09737992286682,1544.760009765625,-7365.31982421875,-2330.39990234375,-333247.46875,-12639.7099609375,-387807.65625,-346582.75,-400000.0625
21.145222902297974,1547.1500244140625,-7354.8798828125,-2314.3798828125,-332748.15625,-12627.650390625,-386884.21875,-345659.375,-400000.0625
21.17745542526245,1593.780029296875,-7288.97998046875,-2246.18994140625,-332844.90625,-12571.8603515625,-387058.5,-345947.625,-400000.0625
21.21786904335022,1617.3800048828125,-7251.7900390625,-2207.139892578125,-333386.78125,-12542.150390625,-388088.1875,-347043.75,-400000.0625
21.269654273986816,1566.219970703125,-7287.740234375,-2237.93994140625,-333614.4375,-12576.8203125,-388554.9375,-347438.40625,-400000.0625
21.312705755233765,1506.52001953125,-7338.47998046875,-2281.3798828125,-333188.9375,-12623.0302734375,-387796.4375,-346564.53125,-400000.0625
21.34324026107788,1511.0,-7329.56005859375,-2267.64990234375,-332695.09375,-12614.4404296875,-386875.90625,-345642.875,-400000.0625
21.398854970932007,1565.8399658203125,-7272.39013671875,-2203.4599609375,-332791.3125,-12555.0302734375,-387046.0,-345925.28125,-400000.0625
21.4350643157959,1592.9200439453125,-7239.8701171875,-2171.330078125,-333334.1875,-12529.66015625,-388078.34375,-347018.28125,-400000.0625
21.458434581756592,1549.6300048828125,-7283.259765625,-2216.050048828125,-333561.65625,-12574.5302734375,-388551.625,-347412.4375,-400000.0625
21.51912760734558,1496.27001953125,-7336.330078125,-2268.929931640625,-333141.28125,-12621.1201171875,-387797.84375,-346544.03125,-400000.0625
21.553641080856323,1507.3800048828125,-7328.75,-2259.06005859375,-332647.65625,-12610.6298828125,-386872.15625,-345622.15625,-400000.0625
21.5797061920166,1564.8399658203125,-7270.0498046875,-2202.27001953125,-332746.15625,-12555.650390625,-387040.65625,-345903.0625,-400000.0625
21.65388798713684,1595.1600341796875,-7239.2001953125,-2174.949951171875,-333288.09375,-12531.3798828125,-388068.53125,-346989.53125,-400000.0625
21.680601596832275,1552.300048828125,-7284.259765625,-2216.429931640625,-333520.0625,-12573.3896484375,-388539.40625,-347383.71875,-400000.0625
21.737889051437378,1498.6500244140625,-7337.6201171875,-2267.219970703125,-333098.40625,-12620.740234375,-387783.875,-346518.125,-400000.0625
21.779254913330078,1506.0400390625,-7327.83984375,-2257.5400390625,-332607.625,-12609.8603515625,-386859.65625,-345599.75,-400000.0625
21.815646409988403,1567.3199462890625,-7267.85986328125,-2197.31005859375,-332703.8125,-12553.83984375,-387024.9375,-345874.40625,-400000.0625
21.889941215515137,1595.1199951171875,-7241.25,-2169.419921875,-333246.59375,-12529.66015625,-388051.3125,-346955.0625,-400000.0625
21.91770339012146,1548.199951171875,-7283.5498046875,-2211.090087890625,-333476.625,-12566.6201171875,-388524.34375,-347347.84375,-400000.0625
21.97071599960327,1498.27001953125,-7337.7099609375,-2262.830078125,-333056.4375,-12616.5400390625,-387770.09375,-346490.75,-400000.0625
22.005648612976074,1505.6600341796875,-7332.27978515625,-2255.9599609375,-332561.15625,-12612.4404296875,-386840.15625,-345575.1875,-400000.0625
22.039400815963745,1562.7900390625,-7274.52978515625,-2200.080078125,-332654.0,-12560.990234375,-386999.125,-345844.3125,-400000.0625
22.09552025794983,1592.4000244140625,-7244.16015625,-2171.610107421875,-333192.90625,-12529.7998046875,-388019.5625,-346912.53125,-400000.0625
22.134307861328125,1553.6800537109375,-7286.169921875,-2210.7099609375,-333426.46875,-12569.6201171875,-388490.6875,-347302.28125,-400000.0625
22.15921378135681,1499.699951171875,-7339.72021484375,-2262.159912109375,-333007.90625,-12630.6103515625,-387731.125,-346450.75,-400000.0625
22.229590892791748,1505.7099609375,-7334.27978515625,-2255.110107421875,-332514.375,-12618.5400390625,-386795.84375,-345542.40625,-400000.0625
22.255266904830933,1568.75,-7272.81982421875,-2194.60009765625,-332607.59375,-12548.1103515625,-386947.4375,-345807.78125,-400000.0625
22.285239696502686,1596.0699462890625,-7240.33984375,-2163.27001953125,-333153.5625,-12518.1201171875,-387968.8125,-346867.78125,-400000.0625
22.345449686050415,1557.02001953125,-7285.7900390625,-2205.0400390625,-333389.21875,-12562.1298828125,-388439.8125,-347253.875,-400000.0625
22.372605800628662,1501.8900146484375,-7346.68017578125,-2261.35009765625,-332973.34375,-12618.8798828125,-387680.53125,-346409.46875,-400000.0625
22.39996075630188,1504.469970703125,-7338.72021484375,-2254.10009765625,-332479.1875,-12608.8603515625,-386737.4375,-345504.1875,-400000.0625
22.439631462097168,1564.260009765625,-7278.39990234375,-2196.97998046875,-332576.40625,-12553.8798828125,-386888.875,-345766.59375,-400000.0625
22.464216947555542,1593.2099609375,-7247.16015625,-2167.93994140625,-333123.625,-12527.1298828125,-387909.78125,-346818.1875,-400000.0625
22.48610782623291,1547.81005859375,-7291.02978515625,-2209.0,-333363.0625,-12569.099609375,-388386.875,-347203.4375,-400000.0625
22.518553018569946,1494.8399658203125,-7347.68017578125,-2263.68994140625,-332943.8125,-12621.6904296875,-387623.40625,-346361.875,-400000.0625
22.572405338287354,1504.6099853515625,-7341.52978515625,-2253.77001953125,-332444.75,-12613.8701171875,-386676.5625,-345464.9375,-400000.0625
22.60434341430664,1566.4599609375,-7279.68017578125,-2194.830078125,-332534.21875,-12558.8896484375,-386824.625,-345721.875,-400000.0625
22.625589609146118,1594.5,-7248.1201171875,-2164.60009765625,-333078.71875,-12524.75,-387851.5625,-346764.8125,-400000.0625
22.668363571166992,1549.050048828125,-7291.60009765625,-2205.989990234375,-333315.15625,-12566.1396484375,-388327.3125,-347143.875,-400000.0625
22.68912982940674,1492.8800048828125,-7349.35009765625,-2260.489990234375,-332897.6875,-12620.6904296875,-387563.84375,-346309.3125,-400000.0625
22.716368198394775,1502.9000244140625,-7344.14990234375,-2253.8701171875,-332397.0625,-12611.490234375,-386613.3125,-345415.5,-400000.0625
22.735822916030884,1561.8299560546875,-7286.31005859375,-2197.080078125,-332490.375,-12552.3603515625,-386760.09375,-345670.40625,-400000.0625
22.782803297042847,1588.5799560546875,-7254.169921875,-2168.889892578125,-333038.875,-12522.650390625,-387788.53125,-346701.84375,-400000.0625
22.816824674606323,1547.4300537109375,-7296.27978515625,-2213.6201171875,-333278.875,-12567.9501953125,-388270.03125,-347080.125,-400000.0625
22.83760380744934,1493.1700439453125,-7353.16015625,-2267.409912109375,-332858.875,-12623.3603515625,-387505.34375,-346251.0,-400000.0625
22.892088890075684,1497.0799560546875,-7345.580078125,-2257.780029296875,-332360.9375,-12610.009765625,-386552.5625,-345360.28125,-400000.0625
22.932026624679565,1557.8699951171875,-7292.83984375,-2202.1298828125,-332450.625,-12551.1201171875,-386695.0,-345605.09375,-400000.0625
22.959308862686157,1604.3199462890625,-7270.6201171875,-2180.719970703125,-333001.625,-12530.759765625,-387725.71875,-346628.03125,-400000.0625
23.039233446121216,1572.4200439453125,-7309.490234375,-2231.260009765625,-333244.96875,-12575.2001953125,-388211.1875,-346999.71875,-400000.0625
23.062072038650513,1525.969970703125,-7359.4599609375,-2291.969970703125,-332825.9375,-12625.98046875,-387446.75,-346167.03125,-400000.0625
23.12094736099243,1548.1500244140625,-7347.6298828125,-2291.35009765625,-332323.84375,-12624.26953125,-386489.6875,-345266.1875,-400000.0625
23.151474714279175,1620.47998046875,-7281.58984375,-2240.7099609375,-332418.34375,-12576.099609375,-386636.59375,-345488.96875,-400000.0625
23.17243266105652,1660.5400390625,-7246.259765625,-2219.199951171875,-332970.375,-12553.3095703125,-387671.84375,-346478.15625,-400000.0625
23.23282480239868,1632.97998046875,-7288.35986328125,-2273.85009765625,-333215.0,-12598.4697265625,-388158.9375,-346834.125,-400000.0625
23.257596492767334,1584.199951171875,-7346.490234375,-2336.449951171875,-332791.875,-12650.58984375,-387389.03125,-345985.75,-400000.0625
23.28265929222107,1598.02001953125,-7335.0,-2328.06005859375,-332288.03125,-12640.4296875,-386428.21875,-345059.96875,-400000.0625
23.33812665939331,1667.1700439453125,-7271.14990234375,-2271.989990234375,-332379.8125,-12592.75,-386574.15625,-345270.4375,-400000.0625
23.36729645729065,1696.43994140625,-7235.81005859375,-2243.330078125,-332934.375,-12571.0498046875,-387614.375,-346273.40625,-400000.0625
23.38905930519104,1653.5799560546875,-7276.35009765625,-2284.47998046875,-333177.40625,-12604.099609375,-388101.0625,-346638.8125,-400000.0625
23.451273679733276,1596.97998046875,-7335.3798828125,-2338.219970703125,-332754.59375,-12647.919921875,-387331.65625,-345800.25,-400000.0625
23.47761845588684,1604.510009765625,-7329.66015625,-2329.449951171875,-332247.96875,-12636.759765625,-386368.8125,-344888.71875,-400000.0625
23.509374141693115,1663.2099609375,-7264.419921875,-2269.1298828125,-332343.9375,-12586.2099609375,-386519.28125,-345114.6875,-400000.0625
23.569450855255127,1690.8199462890625,-7237.240234375,-2241.949951171875,-332898.6875,-12566.4697265625,-387558.28125,-346119.40625,-400000.0625
23.601725339889526,1646.22998046875,-7283.16015625,-2282.760009765625,-333145.375,-12598.4697265625,-388045.3125,-346481.84375,-400000.0625
23.6376850605011,1588.6800537109375,-7339.91015625,-2337.5,-332723.0,-12643.2001953125,-387273.5,-345635.21875,-400000.0625
23.68752431869507,1599.1199951171875,-7331.22998046875,-2326.820068359375,-332219.25,-12635.5703125,-386310.4375,-344714.03125,-400000.0625
23.71963357925415,1660.8199462890625,-7262.7998046875,-2263.2099609375,-332311.96875,-12577.76953125,-386454.6875,-344923.875,-400000.0625
23.749576330184937,1690.239990234375,-7232.52001953125,-2233.739990234375,-332868.0,-12556.0302734375,-387492.5625,-345921.75,-400000.0625
23.804430723190308,1647.0899658203125,-7279.2099609375,-2278.89990234375,-333114.125,-12605.8603515625,-387979.125,-346284.46875,-400000.0625
23.831204414367676,1590.5400390625,-7340.10009765625,-2336.1201171875,-332693.65625,-12652.0595703125,-387214.375,-345443.96875,-400000.0625
23.860464811325073,1599.0699462890625,-7331.66015625,-2328.25,-332186.59375,-12637.1904296875,-386251.90625,-344519.3125,-400000.0625
23.912744522094727,1660.06005859375,-7273.81982421875,-2270.409912109375,-332278.0625,-12582.0703125,-386391.875,-344725.78125,-400000.0625
23.948390245437622,1691.8199462890625,-7241.72998046875,-2237.889892578125,-332832.40625,-12549.4501953125,-387425.03125,-345723.8125,-400000.0625
23.988652229309082,1647.760009765625,-7284.4501953125,-2278.570068359375,-333082.875,-12589.7900390625,-387916.125,-346093.28125,-400000.0625
24.058404445648193,1595.780029296875,-7341.6201171875,-2333.449951171875,-332662.625,-12645.3896484375,-387152.96875,-345253.125,-400000.0625
24.08936381340027,1602.75,-7333.08984375,-2324.06005859375,-332157.46875,-12635.759765625,-386190.375,-344329.84375,-400000.0625
24.14844012260437,1664.72998046875,-7274.33984375,-2265.68994140625,-332245.0625,-12578.580078125,-386324.84375,-344533.6875,-400000.0625
24.179627180099487,1694.8699951171875,-7243.43994140625,-2237.75,-332802.4375,-12551.169921875,-387359.1875,-345541.09375,-400000.0625
24.213566780090332,1652.1500244140625,-7284.1201171875,-2277.3701171875,-333052.875,-12591.650390625,-387851.25,-345918.75,-400000.0625
24.25974750518799,1596.8299560546875,-7343.47998046875,-2331.590087890625,-332632.6875,-12646.5302734375,-387088.625,-345082.65625,-400000.0625
24.28718852996826,1603.6500244140625,-7335.759765625,-2323.199951171875,-332120.875,-12638.0498046875,-386123.03125,-344158.25,-400000.0625
24.319935083389282,1665.0699462890625,-7270.6201171875,-2260.590087890625,-332209.0,-12578.4404296875,-386259.40625,-344376.75,-400000.0625
24.374598026275635,1697.72998046875,-7237.580078125,-2230.739990234375,-332767.71875,-12551.9296875,-387293.4375,-345400.03125,-400000.0625
24.401601314544678,1653.0999755859375,-7283.8798828125,-2276.1298828125,-333022.4375,-12594.4599609375,-387791.6875,-345797.1875,-400000.0625
24.433466911315918,1595.68994140625,-7345.14990234375,-2331.919921875,-332599.96875,-12646.8203125,-387026.40625,-344969.3125,-400000.0625
24.4858181476593,1603.27001953125,-7337.08984375,-2324.8701171875,-332089.03125,-12639.669921875,-386058.9375,-344060.28125,-400000.0625
24.526768922805786,1665.449951171875,-7275.52978515625,-2267.31005859375,-332177.53125,-12585.6904296875,-386191.875,-344306.1875,-400000.0625
24.55652379989624,1695.8699951171875,-7241.6298828125,-2235.320068359375,-332739.34375,-12555.83984375,-387230.25,-345366.5625,-400000.0625
24.614770889282227,1652.1500244140625,-7288.5498046875,-2279.18994140625,-332992.15625,-12598.3701171875,-387726.9375,-345786.125,-400000.0625
24.645456075668335,1595.3499755859375,-7348.81982421875,-2336.929931640625,-332569.4375,-12649.3896484375,-386963.84375,-344978.90625,-400000.0625
24.6659677028656,1605.56005859375,-7340.52978515625,-2327.300048828125,-332051.40625,-12636.9501953125,-385988.03125,-344089.375,-400000.0625
24.72643756866455,1666.31005859375,-7277.5400390625,-2265.169921875,-332138.0,-12576.8701171875,-386119.84375,-344355.59375,-400000.0625
24.751928091049194,1699.260009765625,-7244.39990234375,-2233.739990234375,-332700.71875,-12552.98046875,-387158.375,-345429.5,-400000.0625
24.777363300323486,1654.9599609375,-7292.60986328125,-2279.89990234375,-332956.875,-12597.66015625,-387660.9375,-345860.65625,-400000.0625
24.836533308029175,1596.02001953125,-7349.68017578125,-2333.68994140625,-332533.34375,-12641.7197265625,-386897.0,-345054.75,-400000.0625
24.859758377075195,1607.9000244140625,-7343.14990234375,-2328.39990234375,-332015.28125,-12636.66015625,-385922.75,-344162.09375,-400000.0625
24.889366626739502,1667.550048828125,-7286.259765625,-2271.60009765625,-332098.375,-12588.740234375,-386051.375,-344425.1875,-400000.0625
24.950239181518555,1697.25,-7253.27001953125,-2239.0400390625,-332661.1875,-12552.169921875,-387094.03125,-345501.875,-400000.0625
24.98914885520935,1657.1500244140625,-7297.08984375,-2282.909912109375,-332918.15625,-12591.7900390625,-387601.34375,-345930.0,-400000.0625
25.027860641479492,1599.739990234375,-7353.02001953125,-2337.31005859375,-332495.71875,-12646.8203125,-386840.34375,-345113.1875,-400000.0625
25.09302830696106,1607.93994140625,-7347.06005859375,-2328.679931640625,-331974.0625,-12637.5703125,-385865.53125,-344206.65625,-400000.0625
25.120041847229004,1669.449951171875,-7282.68994140625,-2267.840087890625,-332059.375,-12577.25,-385996.1875,-344465.0,-400000.0625
25.14742946624756,1700.1199951171875,-7253.1201171875,-2238.22998046875,-332622.625,-12550.9296875,-387039.5625,-345546.28125,-400000.0625
25.195658206939697,1656.5799560546875,-7298.27978515625,-2282.52001953125,-332883.90625,-12593.83984375,-387552.15625,-345978.21875,-400000.0625
25.219746351242065,1600.739990234375,-7355.97998046875,-2338.360107421875,-332461.34375,-12646.5302734375,-386789.9375,-345150.0,-400000.0625
25.249751806259155,1607.93994140625,-7345.919921875,-2329.8701171875,-331942.9375,-12639.0,-385812.28125,-344228.15625,-400000.0625
25.31633448600769,1668.1199951171875,-7281.72998046875,-2269.4599609375,-332024.65625,-12583.349609375,-385935.0625,-344481.375,-400000.0625
25.343488454818726,1699.1600341796875,-7253.35986328125,-2237.989990234375,-332588.1875,-12553.5,-386979.09375,-345571.84375,-400000.0625
25.368398666381836,1654.8599853515625,-7299.419921875,-2283.139892578125,-332847.0625,-12594.83984375,-387489.9375,-346007.25,-400000.0625
25.434385776519775,1598.260009765625,-7354.93017578125,-2338.929931640625,-332425.5,-12648.4404296875,-386729.34375,-345171.25,-400000.0625
25.46538782119751,1605.8900146484375,-7347.35009765625,-2331.35009765625,-331902.71875,-12641.150390625,-385748.71875,-344238.125,-400000.0625
25.486506462097168,1666.5,-7284.68994140625,-2269.550048828125,-331982.9375,-12583.400390625,-385875.75,-344492.28125,-400000.0625
25.544046640396118,1697.4000244140625,-7255.41015625,-2239.699951171875,-332544.375,-12550.9296875,-386918.15625,-345590.625,-400000.0625
25.580292463302612,1653.3900146484375,-7297.3701171875,-2280.949951171875,-332803.8125,-12590.740234375,-387431.46875,-346032.125,-400000.0625
25.599369764328003,1598.260009765625,-7350.72998046875,-2334.31005859375,-332379.65625,-12651.73046875,-386671.0625,-345188.625,-400000.0625
25.662482976913452,1602.7900390625,-7343.72021484375,-2327.389892578125,-331860.875,-12646.580078125,-385692.84375,-344244.53125,-400000.0625
25.69422459602356,1663.300048828125,-7283.06982421875,-2268.360107421875,-331940.40625,-12582.6396484375,-385816.4375,-344494.34375,-400000.0625
25.728039503097534,1695.9200439453125,-7250.830078125,-2236.93994140625,-332502.78125,-12552.0703125,-386859.3125,-345600.46875,-400000.0625
25.81340503692627,1653.77001953125,-7297.89990234375,-2281.0,-332762.0,-12590.5498046875,-387372.5,-346046.34375,-400000.0625
25.839406967163086,1599.68994140625,-7354.77978515625,-2336.5,-332337.9375,-12638.669921875,-386617.53125,-345197.53125,-400000.0625
25.912184238433838,1606.8900146484375,-7347.2998046875,-2327.010009765625,-331813.65625,-12633.0400390625,-385638.8125,-344242.34375,-400000.0625
25.93608331680298,1663.8800048828125,-7281.830078125,-2265.449951171875,-331891.875,-12578.1103515625,-385763.78125,-344492.90625,-400000.0625
25.95912766456604,1692.489990234375,-7252.41015625,-2237.320068359375,-332451.46875,-12550.3603515625,-386804.65625,-345606.9375,-400000.0625
26.02034068107605,1641.56005859375,-7308.39013671875,-2282.949951171875,-332711.75,-12589.4599609375,-387319.5625,-346058.46875,-400000.0625
26.067985773086548,1591.1600341796875,-7374.33984375,-2341.60009765625,-332286.90625,-12643.76953125,-386562.0625,-345204.3125,-400000.0625
26.137234926223755,1610.469970703125,-7367.9501953125,-2342.989990234375,-331763.125,-12642.150390625,-385585.21875,-344245.4375,-400000.0625
26.16599464416504,1669.0699462890625,-7307.39013671875,-2290.679931640625,-331840.46875,-12584.8798828125,-385707.375,-344495.78125,-400000.0625
26.197376489639282,1698.1600341796875,-7278.8701171875,-2266.1201171875,-332401.28125,-12554.599609375,-386747.15625,-345615.1875,-400000.0625
26.253798007965088,1652.530029296875,-7329.080078125,-2317.47998046875,-332660.625,-12598.7998046875,-387257.96875,-346070.03125,-400000.0625
26.280433654785156,1598.9300537109375,-7394.509765625,-2379.699951171875,-332238.0625,-12652.490234375,-386503.28125,-345213.75,-400000.0625
26.316083192825317,1608.75,-7384.16015625,-2372.360107421875,-331710.09375,-12645.33984375,-385527.28125,-344245.28125,-400000.0625
26.37389063835144,1667.449951171875,-7321.22021484375,-2313.52001953125,-331786.0625,-12585.6904296875,-385649.34375,-344494.71875,-400000.0625
26.41230273246765,1698.969970703125,-7290.93994140625,-2281.330078125,-332343.71875,-12554.599609375,-386684.65625,-345613.71875,-400000.0625
26.441718816757202,1656.25,-7339.2900390625,-2325.580078125,-332601.84375,-12596.6103515625,-387198.21875,-346072.28125,-400000.0625
26.497084140777588,1597.739990234375,-7398.31982421875,-2383.419921875,-332175.6875,-12651.830078125,-386444.21875,-345212.125,-400000.0625
26.5417320728302,1606.27001953125,-7391.64013671875,-2374.93994140625,-331648.875,-12640.330078125,-385467.4375,-344240.46875,-400000.0625
26.615535736083984,1670.0699462890625,-7327.83984375,-2315.3798828125,-331719.375,-12582.490234375,-385583.96875,-344483.375,-400000.0625
26.66214370727539,1701.449951171875,-7296.75,-2286.719970703125,-332275.9375,-12555.2197265625,-386619.75,-345605.21875,-400000.0625
26.728689432144165,1655.2900390625,-7341.81005859375,-2328.43994140625,-332533.5,-12595.1298828125,-387133.9375,-346064.5625,-400000.0625
26.76417875289917,1598.219970703125,-7399.1298828125,-2384.760009765625,-332109.8125,-12650.830078125,-386384.5,-345209.84375,-400000.0625
26.82829260826111,1606.27001953125,-7395.60009765625,-2378.080078125,-331579.59375,-12646.490234375,-385404.71875,-344236.40625,-400000.0625
26.850993871688843,1665.8299560546875,-7335.47021484375,-2317.949951171875,-331649.375,-12592.0302734375,-385518.5625,-344475.15625,-400000.0625
26.874711990356445,1697.8699951171875,-7301.0498046875,-2284.3798828125,-332202.09375,-12558.5595703125,-386550.5625,-345592.4375,-400000.0625
26.944757223129272,1655.199951171875,-7348.2998046875,-2330.159912109375,-332462.21875,-12597.419921875,-387067.9375,-346054.4375,-400000.0625
26.97807550430298,1597.449951171875,-7411.47998046875,-2390.81005859375,-332036.71875,-12652.73046875,-386316.90625,-345201.0,-400000.0625
27.047668933868408,1605.27001953125,-7405.47021484375,-2382.85009765625,-331505.90625,-12643.5302734375,-385335.3125,-344230.5625,-400000.0625
27.079651355743408,1669.219970703125,-7340.0,-2320.6201171875,-331572.09375,-12584.400390625,-385440.96875,-344463.375,-400000.0625
27.141204357147217,1700.969970703125,-7306.77001953125,-2288.340087890625,-332125.65625,-12551.169921875,-386472.9375,-345575.21875,-400000.0625
27.179746866226196,1655.77001953125,-7355.169921875,-2333.830078125,-332383.46875,-12596.080078125,-386989.34375,-346033.46875,-400000.0625
27.24496054649353,1598.550048828125,-7414.009765625,-2391.909912109375,-331960.4375,-12651.490234375,-386241.15625,-345187.28125,-400000.0625
27.2718722820282,1607.8499755859375,-7405.56982421875,-2383.090087890625,-331428.125,-12644.8203125,-385259.4375,-344220.15625,-400000.0625
27.311766862869263,1670.7900390625,-7341.0,-2320.580078125,-331493.9375,-12585.1201171875,-385365.375,-344449.09375,-400000.0625
27.36601424217224,1702.2099609375,-7309.39013671875,-2290.340087890625,-332045.15625,-12554.9296875,-386393.5,-345550.90625,-400000.0625
27.397995471954346,1657.06005859375,-7358.02978515625,-2336.030029296875,-332307.90625,-12597.1796875,-386914.34375,-346011.875,-400000.0625
27.4320969581604,1595.0699462890625,-7419.97021484375,-2395.679931640625,-331887.875,-12652.73046875,-386170.71875,-345172.40625,-400000.0625
27.483925580978394,1602.219970703125,-7414.39013671875,-2388.2900390625,-331356.34375,-12646.490234375,-385189.375,-344210.34375,-400000.0625
27.51313352584839,1667.2099609375,-7351.39990234375,-2326.06005859375,-331416.5625,-12589.740234375,-385289.1875,-344434.03125,-400000.0625
27.539687156677246,1700.1199951171875,-7315.58984375,-2291.969970703125,-331967.125,-12561.5595703125,-386313.25,-345525.875,-400000.0625
27.598395586013794,1657.300048828125,-7358.02978515625,-2335.1201171875,-332226.40625,-12605.8603515625,-386830.46875,-345981.6875,-400000.0625
27.627726316452026,1599.8399658203125,-7421.77978515625,-2393.06005859375,-331806.09375,-12656.5,-386088.40625,-345151.5,-400000.0625
27.656055212020874,1603.699951171875,-7413.9599609375,-2385.659912109375,-331272.125,-12646.7197265625,-385103.8125,-344193.84375,-400000.0625
27.727220058441162,1664.449951171875,-7349.58984375,-2321.580078125,-331333.5,-12581.4501953125,-385201.21875,-344413.625,-400000.0625
27.75465178489685,1701.0699462890625,-7317.2099609375,-2291.010009765625,-331881.5625,-12550.6904296875,-386219.5,-345493.375,-400000.0625
27.796780824661255,1655.9100341796875,-7358.5498046875,-2334.639892578125,-332144.59375,-12595.7998046875,-386739.59375,-345945.6875,-400000.0625
27.86284875869751,1594.8299560546875,-7422.06982421875,-2397.780029296875,-331722.59375,-12655.5498046875,-385996.375,-345120.5625,-400000.0625
27.890560150146484,1600.6500244140625,-7417.8701171875,-2391.820068359375,-331189.46875,-12645.8203125,-385012.46875,-344171.28125,-400000.0625
27.919721364974976,1666.1199951171875,-7352.06982421875,-2327.25,-331248.125,-12586.6904296875,-385104.5625,-344386.34375,-400000.0625
27.977801084518433,1702.3599853515625,-7317.259765625,-2295.449951171875,-331798.4375,-12556.509765625,-386125.3125,-345460.9375,-400000.0625
28.015626192092896,1659.8699951171875,-7364.85009765625,-2341.56005859375,-332061.9375,-12599.66015625,-386646.125,-345911.34375,-400000.0625
28.045759201049805,1596.8299560546875,-7422.919921875,-2398.2099609375,-331644.5625,-12654.259765625,-385908.59375,-345095.46875,-400000.0625
28.105600833892822,1605.4200439453125,-7417.72998046875,-2391.429931640625,-331107.03125,-12647.919921875,-384921.21875,-344151.34375,-400000.0625
28.137808322906494,1669.1199951171875,-7353.35009765625,-2328.969970703125,-331164.0625,-12589.83984375,-385009.1875,-344360.34375,-400000.0625
28.16554617881775,1701.550048828125,-7319.169921875,-2293.25,-331712.375,-12557.98046875,-386025.34375,-345419.3125,-400000.0625
28.234905242919922,1657.8699951171875,-7364.7998046875,-2337.5,-331977.375,-12596.0400390625,-386549.65625,-345867.375,-400000.0625
28.2687406539917,1595.6400146484375,-7422.16015625,-2394.719970703125,-331554.40625,-12650.349609375,-385808.09375,-345054.71875,-400000.0625
28.33556842803955,1604.5999755859375,-7417.25,-2388.719970703125,-331019.625,-12644.580078125,-384818.15625,-344118.25,-400000.0625
28.36743712425232,1669.219970703125,-7353.02001953125,-2328.35009765625,-331075.28125,-12588.0703125,-384903.53125,-344325.375,-400000.0625
28.395776987075806,1699.5899658203125,-7321.31005859375,-2293.35009765625,-331626.03125,-12553.169921875,-385923.8125,-345378.96875,-400000.0625
28.463034868240356,1656.25,-7365.47021484375,-2336.360107421875,-331891.0,-12596.7998046875,-386448.875,-345823.40625,-400000.0625
28.490363359451294,1597.1700439453125,-7425.5498046875,-2396.5400390625,-331473.09375,-12662.599609375,-385707.90625,-345015.46875,-400000.0625
28.52217698097229,1602.550048828125,-7416.919921875,-2386.860107421875,-330934.53125,-12650.0595703125,-384713.5625,-344078.90625,-400000.0625
28.57484269142151,1665.969970703125,-7355.97998046875,-2323.43994140625,-330991.75,-12585.1201171875,-384802.09375,-344285.09375,-400000.0625
28.6044864654541,1699.0699462890625,-7320.68994140625,-2290.77001953125,-331544.0,-12552.599609375,-385822.53125,-345331.65625,-400000.0625
28.634953260421753,1654.050048828125,-7366.89990234375,-2336.449951171875,-331813.65625,-12595.66015625,-386351.6875,-345775.21875,-400000.0625
28.70801877975464,1593.6400146484375,-7427.02978515625,-2395.679931640625,-331394.65625,-12649.4404296875,-385609.46875,-344970.6875,-400000.0625
28.738755702972412,1598.550048828125,-7418.97021484375,-2388.330078125,-330855.59375,-12645.150390625,-384615.375,-344038.46875,-400000.0625
28.79613947868347,1662.300048828125,-7359.83984375,-2328.72998046875,-330909.625,-12590.7001953125,-384700.6875,-344238.75,-400000.0625
28.832912921905518,1695.43994140625,-7325.93994140625,-2297.260009765625,-331460.75,-12560.5595703125,-385726.0625,-345278.25,-400000.0625
28.883114099502563,1651.8599853515625,-7366.75,-2338.699951171875,-331730.5,-12599.419921875,-386258.96875,-345718.0,-400000.0625
28.96598219871521,1591.25,-7429.5498046875,-2399.300048828125,-331310.59375,-12654.830078125,-385520.3125,-344914.09375,-400000.0625
28.99367094039917,1599.219970703125,-7425.60009765625,-2395.820068359375,-330765.5625,-12646.8701171875,-384521.0,-343971.25,-400000.0625
29.08665633201599,1662.5899658203125,-7363.509765625,-2334.639892578125,-330819.96875,-12586.7900390625,-384604.21875,-344154.875,-400000.0625
29.118930101394653,1696.780029296875,-7327.509765625,-2299.60009765625,-331372.5,-12557.41015625,-385628.9375,-345175.40625,-400000.0625
29.19046664237976,1653.1500244140625,-7370.18994140625,-2340.97998046875,-331645.78125,-12599.2802734375,-386170.0,-345609.03125,-400000.0625
29.221999406814575,1593.300048828125,-7430.83984375,-2400.639892578125,-331222.65625,-12654.349609375,-385433.34375,-344799.65625,-400000.0625
29.27031970024109,1600.8900146484375,-7423.4501953125,-2394.8701171875,-330678.21875,-12646.33984375,-384439.03125,-343847.03125,-400000.0625
29.299787759780884,1667.0699462890625,-7357.68994140625,-2330.8798828125,-330727.0,-12586.169921875,-384523.5,-344019.25,-400000.0625
29.32310724258423,1702.9300537109375,-7319.830078125,-2293.2099609375,-331279.03125,-12556.1298828125,-385555.5,-345047.3125,-400000.0625
29.3820858001709,1656.5799560546875,-7362.31982421875,-2336.070068359375,-331548.84375,-12600.2802734375,-386099.53125,-345490.53125,-400000.0625
29.41834568977356,1592.5400390625,-7425.68994140625,-2397.43994140625,-331125.34375,-12655.2099609375,-385367.78125,-344686.625,-400000.0625
29.45755100250244,1603.1700439453125,-7418.10986328125,-2388.330078125,-330576.5,-12642.33984375,-384371.90625,-343734.0625,-400000.0625
29.505980253219604,1664.1600341796875,-7354.4501953125,-2325.110107421875,-330625.90625,-12583.1103515625,-384457.96875,-343908.875,-400000.0625
29.54632568359375,1700.4000244140625,-7317.10986328125,-2289.679931640625,-331179.3125,-12554.599609375,-385489.3125,-344937.21875,-400000.0625
29.576451778411865,1657.6300048828125,-7359.4599609375,-2331.68994140625,-331453.375,-12593.080078125,-386037.25,-345382.84375,-400000.0625
29.634599924087524,1595.969970703125,-7423.2099609375,-2392.909912109375,-331030.375,-12647.009765625,-385307.625,-344577.6875,-400000.0625
29.661813974380493,1602.93994140625,-7421.2099609375,-2389.2900390625,-330481.21875,-12647.2998046875,-384313.90625,-343623.71875,-400000.0625
29.686497688293457,1666.1199951171875,-7353.16015625,-2322.77001953125,-330528.8125,-12584.7802734375,-384398.15625,-343792.1875,-400000.0625
29.743080854415894,1703.1700439453125,-7316.06982421875,-2287.340087890625,-331083.90625,-12549.2099609375,-385431.8125,-344819.0,-400000.0625
29.77015995979309,1659.3499755859375,-7361.990234375,-2334.1201171875,-331355.71875,-12591.3203125,-385979.875,-345264.28125,-400000.0625
29.800795555114746,1595.0699462890625,-7422.2099609375,-2392.719970703125,-330931.9375,-12647.33984375,-385253.25,-344460.34375,-400000.0625
29.86168909072876,1603.8900146484375,-7417.2001953125,-2384.469970703125,-330376.0,-12642.7197265625,-384256.84375,-343499.3125,-400000.0625
29.901429176330566,1666.97998046875,-7351.58984375,-2318.860107421875,-330423.0625,-12582.9697265625,-384341.46875,-343665.59375,-400000.0625
29.959415197372437,1703.68994140625,-7313.2001953125,-2281.7099609375,-330979.4375,-12547.73046875,-385373.25,-344692.375,-400000.0625
29.989085912704468,1660.3900146484375,-7357.169921875,-2326.72998046875,-331261.28125,-12590.41015625,-385927.59375,-345142.96875,-400000.0625
30.01952290534973,1598.260009765625,-7421.97021484375,-2385.89990234375,-330841.375,-12647.9599609375,-385200.375,-344338.3125,-400000.0625
30.081249475479126,1603.4599609375,-7413.2900390625,-2378.75,-330291.375,-12641.6201171875,-384202.96875,-343377.6875,-400000.0625
30.103902339935303,1666.6400146484375,-7347.490234375,-2316.090087890625,-330339.09375,-12582.919921875,-384279.90625,-343544.53125,-400000.0625
30.14846658706665,1705.9300537109375,-7316.16015625,-2284.10009765625,-330898.75,-12547.0703125,-385308.6875,-344584.96875,-400000.0625
30.205405235290527,1659.010009765625,-7360.75,-2327.159912109375,-331177.0,-12585.58984375,-385859.25,-345050.90625,-400000.0625
30.24368953704834,1597.31005859375,-7425.2099609375,-2390.530029296875,-330759.1875,-12642.580078125,-385134.46875,-344267.3125,-400000.0625
30.26477599143982,1605.800048828125,-7420.58984375,-2387.860107421875,-330207.34375,-12637.5703125,-384133.59375,-343331.125,-400000.0625
30.312039613723755,1666.1199951171875,-7359.740234375,-2324.530029296875,-330255.3125,-12577.9599609375,-384206.375,-343530.09375,-400000.0625
30.347423553466797,1701.1199951171875,-7328.02978515625,-2291.919921875,-330814.59375,-12550.4501953125,-385232.53125,-344598.34375,-400000.0625
30.36673140525818,1654.9100341796875,-7371.81005859375,-2332.639892578125,-331097.9375,-12591.169921875,-385786.96875,-345088.25,-400000.0625
30.417559385299683,1587.010009765625,-7421.10986328125,-2381.7099609375,-330679.6875,-12640.1904296875,-385061.15625,-344316.8125,-400000.0625
30.454475164413452,1586.489990234375,-7406.66015625,-2371.5,-330127.8125,-12631.990234375,-384057.53125,-343385.9375,-400000.0625
30.489784240722656,1648.469970703125,-7336.0498046875,-2305.510009765625,-330172.0625,-12573.8203125,-384124.21875,-343583.34375,-400000.0625
30.554394245147705,1677.93994140625,-7297.85009765625,-2261.830078125,-330732.71875,-12536.9599609375,-385147.875,-344648.96875,-400000.0625
30.580869913101196,1626.5899658203125,-7337.08984375,-2294.39990234375,-331017.625,-12572.91015625,-385701.75,-345134.625,-400000.0625
30.60231637954712,1559.1600341796875,-7396.93994140625,-2350.3798828125,-330602.71875,-12628.3203125,-384982.6875,-344359.71875,-400000.0625
30.660077333450317,1561.9300537109375,-7391.22021484375,-2340.60009765625,-330047.6875,-12623.9296875,-383979.03125,-343419.625,-400000.0625
30.68478512763977,1622.43994140625,-7320.68994140625,-2270.840087890625,-330092.84375,-12561.6103515625,-384046.5625,-343613.34375,-400000.0625
30.713907957077026,1655.010009765625,-7284.1201171875,-2234.60009765625,-330650.28125,-12527.3203125,-385069.84375,-344680.40625,-400000.0625
30.770710468292236,1607.989990234375,-7326.02978515625,-2274.75,-330939.09375,-12567.51953125,-385630.5625,-345173.4375,-400000.0625
30.802056312561035,1546.2900390625,-7386.39990234375,-2331.830078125,-330526.0625,-12622.9296875,-384914.0625,-344392.4375,-400000.0625
30.83165192604065,1554.5799560546875,-7383.919921875,-2328.2099609375,-329974.6875,-12617.400390625,-383912.1875,-343441.53125,-400000.0625
30.895524978637695,1617.8599853515625,-7320.64013671875,-2265.169921875,-330017.8125,-12557.650390625,-383974.96875,-343631.9375,-400000.0625
30.930577278137207,1650.760009765625,-7283.259765625,-2228.739990234375,-330577.03125,-12523.3701171875,-384996.40625,-344709.59375,-400000.0625
30.9698486328125,1607.699951171875,-7327.18017578125,-2271.3701171875,-330863.90625,-12565.4697265625,-385554.5625,-345206.25,-400000.0625
31.056851863861084,1545.5699462890625,-7391.31005859375,-2331.68994140625,-330452.65625,-12623.599609375,-384842.96875,-344417.1875,-400000.0625
31.092533588409424,1546.6700439453125,-7385.2099609375,-2324.489990234375,-329899.90625,-12617.400390625,-383838.03125,-343449.96875,-400000.0625
31.145999908447266,1613.3299560546875,-7324.169921875,-2261.969970703125,-329942.59375,-12557.3701171875,-383896.03125,-343633.25,-400000.0625
31.171349048614502,1654.0999755859375,-7290.509765625,-2229.8798828125,-330499.5,-12524.26953125,-384910.90625,-344717.59375,-400000.0625
31.202634572982788,1609.1300048828125,-7332.22998046875,-2274.0400390625,-330791.625,-12564.7998046875,-385475.3125,-345221.625,-400000.0625
31.270990133285522,1544.5699462890625,-7396.1298828125,-2336.219970703125,-330383.0625,-12625.7900390625,-384766.71875,-344421.0625,-400000.0625
31.294052839279175,1549.0999755859375,-7393.169921875,-2334.02001953125,-329832.6875,-12622.0703125,-383765.46875,-343440.875,-400000.0625
31.321237087249756,1615.050048828125,-7330.1298828125,-2272.27001953125,-329870.375,-12558.4599609375,-383819.34375,-343618.8125,-400000.0625
31.37522792816162,1651.81005859375,-7292.3701171875,-2235.840087890625,-330431.59375,-12521.599609375,-384837.4375,-344712.0,-400000.0625
31.399749517440796,1606.1300048828125,-7335.85009765625,-2278.280029296875,-330723.8125,-12565.8095703125,-385402.0,-345222.375,-400000.0625
31.429423332214355,1542.0,-7404.14013671875,-2340.360107421875,-330319.0,-12624.3603515625,-384696.53125,-344416.09375,-400000.0625
31.489051342010498,1545.4300537109375,-7397.27001953125,-2332.070068359375,-329766.40625,-12614.8203125,-383693.21875,-343420.59375,-400000.0625
31.53898572921753,1613.0899658203125,-7330.47021484375,-2267.31005859375,-329808.0,-12553.0703125,-383748.78125,-343600.03125,-400000.0625
31.615140676498413,1650.949951171875,-7292.3701171875,-2231.7900390625,-330371.125,-12519.5498046875,-384767.53125,-344706.46875,-400000.0625
31.653631687164307,1604.989990234375,-7337.3798828125,-2275.85009765625,-330670.25,-12561.509765625,-385339.84375,-345227.65625,-400000.0625
31.712068557739258,1541.0400390625,-7404.18994140625,-2338.409912109375,-330264.625,-12621.259765625,-384635.84375,-344413.125,-400000.0625
31.748194217681885,1543.3299560546875,-7400.7998046875,-2334.169921875,-329713.34375,-12615.2998046875,-383632.75,-343405.96875,-400000.0625
31.78792905807495,1611.8499755859375,-7334.81005859375,-2267.68994140625,-329750.96875,-12551.259765625,-383685.125,-343580.0,-400000.0625
31.864975214004517,1649.239990234375,-7297.22998046875,-2231.550048828125,-330313.90625,-12517.259765625,-384705.3125,-344693.1875,-400000.0625
31.88833785057068,1603.699951171875,-7340.669921875,-2273.27001953125,-330613.21875,-12557.080078125,-385282.65625,-345223.0,-400000.0625
31.952649116516113,1541.6600341796875,-7404.85009765625,-2335.1201171875,-330209.71875,-12618.7802734375,-384583.90625,-344405.875,-400000.0625
31.9870445728302,1549.9100341796875,-7400.1298828125,-2327.780029296875,-329655.875,-12611.9599609375,-383576.53125,-343385.125,-400000.0625
32.02004933357239,1614.3299560546875,-7330.080078125,-2264.02001953125,-329693.78125,-12549.9697265625,-383622.4375,-343557.03125,-400000.0625
32.098007917404175,1651.4300537109375,-7291.4599609375,-2227.02001953125,-330255.125,-12512.9697265625,-384638.6875,-344682.625,-400000.0625
32.13127303123474,1608.280029296875,-7338.72021484375,-2272.889892578125,-330559.4375,-12556.7001953125,-385219.0625,-345224.0,-400000.0625
32.194931507110596,1545.760009765625,-7403.08984375,-2336.5,-330157.625,-12617.349609375,-384520.65625,-344403.75,-400000.0625
32.2226939201355,1550.25,-7402.47021484375,-2332.830078125,-329604.125,-12616.4501953125,-383511.78125,-343374.375,-400000.0625
32.263131618499756,1613.760009765625,-7336.14013671875,-2269.93994140625,-329639.90625,-12551.6396484375,-383551.75,-343541.84375,-400000.0625
32.35184979438782,1651.2900390625,-7294.27001953125,-2231.409912109375,-330202.46875,-12512.2998046875,-384568.3125,-344675.1875,-400000.0625
32.38789486885071,1606.75,-7338.56982421875,-2272.27001953125,-330507.125,-12552.3095703125,-385146.9375,-345219.9375,-400000.0625
32.467910051345825,1542.760009765625,-7408.18994140625,-2339.1201171875,-330111.125,-12615.73046875,-384452.25,-344396.59375,-400000.0625
32.50301957130432,1545.760009765625,-7403.66015625,-2334.929931640625,-329558.09375,-12612.150390625,-383438.59375,-343357.9375,-400000.0625
32.577187061309814,1610.4200439453125,-7336.0,-2268.030029296875,-329595.5625,-12550.5498046875,-383476.5,-343524.5,-400000.0625
32.615234375,1645.7099609375,-7297.7099609375,-2230.360107421875,-330158.28125,-12515.740234375,-384489.125,-344658.46875,-400000.0625
32.684263706207275,1601.739990234375,-7342.91015625,-2274.85009765625,-330467.5625,-12557.1298828125,-385070.28125,-345207.0625,-400000.0625
32.71029186248779,1540.800048828125,-7411.9599609375,-2339.080078125,-330072.8125,-12615.490234375,-384372.84375,-344378.125,-400000.0625
32.74015545845032,1544.6199951171875,-7403.3701171875,-2331.919921875,-329520.9375,-12609.48046875,-383360.8125,-343334.34375,-400000.0625
32.802330493927,1610.9000244140625,-7334.66015625,-2267.889892578125,-329552.9375,-12549.400390625,-383392.5625,-343495.28125,-400000.0625
32.835553884506226,1649.0,-7296.18017578125,-2230.260009765625,-330112.40625,-12517.41015625,-384403.0,-344633.125,-400000.0625
32.8653359413147,1603.6500244140625,-7340.33984375,-2273.659912109375,-330417.78125,-12558.26953125,-384987.96875,-345184.0,-400000.0625
32.952213525772095,1540.52001953125,-7405.759765625,-2338.739990234375,-330025.34375,-12621.400390625,-384301.40625,-344358.53125,-400000.0625
32.995593547821045,1545.1400146484375,-7403.18017578125,-2334.2099609375,-329473.0625,-12616.73046875,-383288.53125,-343309.96875,-400000.0625
33.06960201263428,1607.4200439453125,-7336.759765625,-2270.889892578125,-329503.625,-12553.3603515625,-383315.5625,-343467.09375,-400000.0625
33.10400199890137,1645.0400390625,-7299.08984375,-2234.510009765625,-330059.1875,-12513.7802734375,-384320.40625,-344598.4375,-400000.0625
33.172513484954834,1603.8399658203125,-7346.43994140625,-2276.3701171875,-330368.03125,-12553.259765625,-384908.34375,-345152.71875,-400000.0625
33.20295596122742,1537.469970703125,-7407.85986328125,-2338.739990234375,-329977.75,-12612.3896484375,-384223.5,-344330.40625,-400000.0625
33.239542961120605,1542.8499755859375,-7403.89990234375,-2334.830078125,-329428.4375,-12610.3896484375,-383211.90625,-343282.59375,-400000.0625
33.50016188621521,1607.280029296875,-7336.7099609375,-2268.27001953125,-329455.6875,-12549.01953125,-383233.84375,-343432.8125,-400000.0625
33.560755252838135,1645.1800537109375,-7298.7998046875,-2232.68994140625,-330010.9375,-12516.9296875,-384241.96875,-344565.875,-400000.0625
33.59778690338135,1600.4599609375,-7342.47998046875,-2274.179931640625,-330320.71875,-12559.080078125,-384831.25,-345121.75,-400000.0625
33.628015756607056,1536.4200439453125,-7406.0,-2335.60009765625,-329932.71875,-12613.1103515625,-384150.5,-344302.65625,-400000.0625
33.69951128959656,1541.18994140625,-7406.81005859375,-2334.929931640625,-329381.78125,-12610.2900390625,-383135.46875,-343254.1875,-400000.0625
33.7387969493866,1604.0799560546875,-7340.0498046875,-2271.60009765625,-329409.0625,-12554.1201171875,-383159.78125,-343404.0625,-400000.0625
33.8160138130188,1641.699951171875,-7301.240234375,-2233.840087890625,-329961.78125,-12520.509765625,-384167.0,-344532.15625,-400000.0625
33.851080656051636,1596.3599853515625,-7344.009765625,-2274.419921875,-330273.375,-12552.98046875,-384764.09375,-345090.71875,-400000.0625
33.91410255432129,1533.3199462890625,-7407.9501953125,-2338.080078125,-329885.71875,-12615.830078125,-384085.21875,-344275.3125,-400000.0625
33.94683241844177,1541.6099853515625,-7406.9501953125,-2335.02001953125,-329335.1875,-12618.2099609375,-383069.28125,-343227.46875,-400000.0625
33.98503279685974,1605.8399658203125,-7340.85986328125,-2270.4599609375,-329358.0,-12549.5,-383084.34375,-343369.875,-400000.0625
34.042991638183594,1644.0899658203125,-7301.7099609375,-2230.739990234375,-329914.75,-12508.2001953125,-384095.53125,-344497.34375,-400000.0625
34.06826090812683,1601.97998046875,-7344.2001953125,-2271.4599609375,-330229.65625,-12548.3095703125,-384696.375,-345057.4375,-400000.0625
34.09905982017517,1536.1800537109375,-7405.22998046875,-2333.739990234375,-329845.71875,-12606.0498046875,-384020.28125,-344246.53125,-400000.0625
34.16842794418335,1540.1400146484375,-7403.08984375,-2330.35009765625,-329292.53125,-12600.3798828125,-383001.8125,-343199.375,-400000.0625
34.19790577888489,1605.1300048828125,-7337.27978515625,-2265.260009765625,-329315.5,-12542.33984375,-383018.90625,-343341.1875,-400000.0625
34.23022437095642,1644.3299560546875,-7299.81005859375,-2228.929931640625,-329868.75,-12508.7802734375,-384029.78125,-344459.53125,-400000.0625
34.29629731178284,1599.5,-7347.16015625,-2275.989990234375,-330186.03125,-12553.259765625,-384636.125,-345016.8125,-400000.0625
34.32804298400879,1529.0699462890625,-7412.72021484375,-2342.179931640625,-329802.6875,-12617.400390625,-383959.28125,-344208.46875,-400000.0625
34.362568616867065,1532.93994140625,-7410.9599609375,-2338.889892578125,-329248.28125,-12612.76953125,-382936.8125,-343164.90625,-400000.0625
34.41212558746338,1602.4599609375,-7342.39013671875,-2272.510009765625,-329272.5,-12548.01953125,-382946.6875,-343300.0625,-400000.0625
34.437976121902466,1641.0799560546875,-7299.7099609375,-2231.5,-329830.78125,-12510.400390625,-383956.53125,-344411.0,-400000.0625
34.48267602920532,1600.550048828125,-7344.81982421875,-2274.179931640625,-330149.40625,-12550.400390625,-384562.8125,-344963.34375,-400000.0625
34.55039048194885,1530.5999755859375,-7411.2900390625,-2339.409912109375,-329769.03125,-12615.4404296875,-383889.28125,-344163.09375,-400000.0625
34.654181480407715,1532.27001953125,-7412.0498046875,-2338.840087890625,-329215.84375,-12614.5400390625,-382864.8125,-343126.0625,-400000.0625
34.801193714141846,1600.4599609375,-7349.10986328125,-2277.7099609375,-329240.65625,-12552.2197265625,-382874.71875,-343259.71875,-400000.0625
34.90922737121582,1639.800048828125,-7305.0498046875,-2236.60009765625,-329796.625,-12509.919921875,-383884.65625,-344356.875,-400000.0625
34.9803032875061,1599.4599609375,-7347.06005859375,-2277.7099609375,-330117.375,-12552.1201171875,-384494.21875,-344907.28125,-400000.0625
