time,ch1,ch2,ch3,ch4,ch5,ch6,ch7,ch8
0.03309035301208496,-7313.10986328125,-18807.7890625,-2804.989990234375,-400000.0625,-400000.0625,-400000.0625,-400000.0625,-400000.0625
0.08461141586303711,-7335.9501953125,-18818.94921875,-2821.39990234375,-400000.0625,-400000.0625,-400000.0625,-400000.0625,-400000.0625
0.10028719902038574,-7348.6298828125,-18800.640625,-2822.449951171875,-400000.0625,-400000.0625,-400000.0625,-400000.0625,-400000.0625
0.11710047721862793,-7336.47021484375,-18796.73046875,-2818.199951171875,-400000.0625,-400000.0625,-400000.0625,-400000.0625,-400000.0625
0.13501667976379395,-7314.5400390625,-18786.9609375,-2802.320068359375,-400000.0625,-400000.0625,-400000.0625,-400000.0625,-400000.0625
0.14940166473388672,-7304.85986328125,-18760.869140625,-2786.679931640625,-400000.0625,-400000.0625,-400000.0625,-400000.0625,-400000.0625
0.16291117668151855,-7320.5,-18755.630859375,-2793.7900390625,-400000.0625,-400000.0625,-400000.0625,-400000.0625,-400000.0625
0.17346787452697754,-7323.22021484375,-18737.369140625,-2794.840087890625,-400000.0625,-400000.0625,-400000.0625,-400000.0625,-400000.0625
0.185469388961792,-7313.35009765625,-18701.560546875,-2772.0,-400000.0625,-400000.0625,-400000.0625,-400000.0625,-400000.0625
0.20128440856933594,-7305.14990234375,-18668.83984375,-2745.389892578125,-400000.0625,-400000.0625,-400000.0625,-400000.0625,-400000.0625
0.22204971313476562,-7294.7998046875,-18658.119140625,-2736.3798828125,-400000.0625,-400000.0625,-400000.0625,-400000.0625,-400000.0625
0.2362656593322754,-7305.43017578125,-18661.220703125,-2746.06005859375,-400000.0625,-400000.0625,-400000.0625,-400000.0625,-400000.0625
0.2548813819885254,-7316.02001953125,-18654.73046875,-2753.68994140625,-400000.0625,-400000.0625,-400000.0625,-400000.0625,-400000.0625
0.2832791805267334,-7315.58984375,-18638.470703125,-2743.820068359375,-400000.0625,-400000.0625,-400000.0625,-400000.0625,-400000.0625
0.29903554916381836,-7300.759765625,-18630.83984375,-2728.93994140625,-400000.0625,-400000.0625,-400000.0625,-400000.0625,-400000.0625
0.3092467784881592,-7295.080078125,-18621.689453125,-2721.02001953125,-400000.0625,-400000.0625,-400000.0625,-400000.0625,-400000.0625
0.3326702117919922,-7308.33984375,-18633.69921875,-2740.050048828125,-400000.0625,-400000.0625,-400000.0625,-400000.0625,-400000.0625
0.3486807346343994,-7320.5,-18648.9609375,-2749.010009765625,-400000.0625,-400000.0625,-400000.0625,-400000.0625,-400000.0625
0.3627896308898926,-7315.4501953125,-18647.630859375,-2745.719970703125,-400000.0625,-400000.0625,-400000.0625,-400000.0625,-400000.0625
0.3740553855895996,-7308.52978515625,-18641.759765625,-2740.340087890625,-400000.0625,-400000.0625,-400000.0625,-400000.0625,-400000.0625
0.3920607566833496,-7310.10986328125,-18639.0390625,-2735.419921875,-400000.0625,-400000.0625,-400000.0625,-400000.0625,-400000.0625
0.409106969833374,-7321.83984375,-18648.669921875,-2742.77001953125,-400000.0625,-400000.0625,-400000.0625,-400000.0625,-400000.0625
0.4269537925720215,-7326.41015625,-18648.91015625,-2745.43994140625,-400000.0625,-400000.0625,-400000.0625,-400000.0625,-400000.0625
0.43921780586242676,-7324.169921875,-18641.380859375,-2738.330078125,-400000.0625,-400000.0625,-400000.0625,-400000.0625,-400000.0625
0.45235610008239746,-7311.8701171875,-18636.7109375,-2731.659912109375,-400000.0625,-400000.0625,-400000.0625,-400000.0625,-400000.0625
0.46903347969055176,-7309.2900390625,-18629.9296875,-2724.550048828125,-400000.0625,-400000.0625,-400000.0625,-400000.0625,-400000.0625
0.48423242568969727,-7322.60009765625,-18636.279296875,-2734.3798828125,-400000.0625,-400000.0625,-400000.0625,-400000.0625,-400000.0625
0.49855995178222656,-7330.990234375,-18642.240234375,-2743.669921875,-400000.0625,-400000.0625,-400000.0625,-400000.0625,-400000.0625
0.519153356552124,-7322.68994140625,-18634.849609375,-2734.570068359375,-400000.0625,-400000.0625,-400000.0625,-400000.0625,-400000.0625
0.5376043319702148,-7305.43017578125,-18623.9296875,-2717.070068359375,-400000.0625,-400000.0625,-400000.0625,-400000.0625,-400000.0625
0.5490007400512695,-7303.10009765625,-18613.630859375,-2710.43994140625,-400000.0625,-400000.0625,-400000.0625,-400000.0625,-400000.0625
0.5655639171600342,-7322.93017578125,-18631.169921875,-2733.179931640625,-400000.0625,-400000.0625,-400000.0625,-400000.0625,-400000.0625
0.5745730400085449,-7336.85986328125,-18638.94921875,-2740.18994140625,-400000.0625,-400000.0625,-400000.0625,-400000.0625,-400000.0625
0.5904710292816162,-7327.1298828125,-18631.080078125,-2731.419921875,-400000.0625,-400000.0625,-400000.0625,-400000.0625,-400000.0625
0.6039538383483887,-7308.2900390625,-18614.390625,-2713.489990234375,-400000.0625,-400000.0625,-400000.0625,-400000.0625,-400000.0625
0.6224281787872314,-7300.22998046875,-18602.470703125,-2700.469970703125,-400000.0625,-400000.0625,-400000.0625,-400000.0625,-400000.0625
0.6358332633972168,-7319.35986328125,-18612.580078125,-2713.010009765625,-400000.0625,-400000.0625,-400000.0625,-400000.0625,-400000.0625
0.6486105918884277,-7327.31982421875,-18620.25,-2724.97998046875,-400000.0625,-400000.0625,-400000.0625,-400000.0625,-400000.0625
0.662268877029419,-7316.919921875,-18609.9609375,-2717.5,-400000.0625,-400000.0625,-400000.0625,-400000.0625,-400000.0625
0.6754295825958252,-7300.47021484375,-18589.169921875,-2692.219970703125,-400000.0625,-400000.0625,-400000.0625,-400000.0625,-400000.0625
0.6918723583221436,-7298.52001953125,-18584.439453125,-2689.31005859375,-400000.0625,-400000.0625,-400000.0625,-400000.0625,-400000.0625
0.7052426338195801,-7316.58984375,-18598.419921875,-2703.949951171875,-400000.0625,-400000.0625,-400000.0625,-400000.0625,-400000.0625
0.7194726467132568,-7323.93017578125,-18606.810546875,-2716.39990234375,-400000.0625,-400000.0625,-400000.0625,-400000.0625,-400000.0625
0.7295687198638916,-7315.97021484375,-18595.41015625,-2711.6298828125,-400000.0625,-400000.0625,-400000.0625,-400000.0625,-400000.0625
0.7434945106506348,-7298.60986328125,-18579.060546875,-2690.27001953125,-400000.0625,-400000.0625,-400000.0625,-400000.0625,-400000.0625
0.754697322845459,-7287.7900390625,-18569.51953125,-2678.919921875,-400000.0625,-400000.0625,-400000.0625,-400000.0625,-400000.0625
0.7661654949188232,-7304.72021484375,-18577.150390625,-2691.510009765625,-400000.0625,-400000.0625,-400000.0625,-400000.0625,-400000.0625
0.7800722122192383,-7322.5,-18585.640625,-2702.330078125,-400000.0625,-400000.0625,-400000.0625,-400000.0625,-400000.0625
0.7921180725097656,-7314.39990234375,-18582.060546875,-2693.989990234375,-400000.0625,-400000.0625,-400000.0625,-400000.0625,-400000.0625
0.803938627243042,-7294.7001953125,-18568.369140625,-2677.010009765625,-400000.0625,-400000.0625,-400000.0625,-400000.0625,-400000.0625
0.8192873001098633,-7293.75,-18557.689453125,-2668.949951171875,-400000.0625,-400000.0625,-400000.0625,-400000.0625,-400000.0625
0.8301401138305664,-7307.39013671875,-18567.7109375,-2682.300048828125,-400000.0625,-400000.0625,-400000.0625,-400000.0625,-400000.0625
0.8391084671020508,-7321.93017578125,-18581.109375,-2696.510009765625,-400000.0625,-400000.0625,-400000.0625,-400000.0625,-400000.0625
0.8528954982757568,-7310.72998046875,-18576.580078125,-2688.5,-400000.0625,-400000.0625,-400000.0625,-400000.0625,-400000.0625
0.865966796875,-7296.0400390625,-18555.119140625,-2666.0400390625,-400000.0625,-400000.0625,-400000.0625,-400000.0625,-400000.0625
0.8783919811248779,-7288.7001953125,-18554.310546875,-2661.22998046875,-400000.0625,-400000.0625,-400000.0625,-400000.0625,-400000.0625
0.8875448703765869,-7312.10986328125,-18572.240234375,-2681.5400390625,-400000.0625,-400000.0625,-400000.0625,-400000.0625,-400000.0625
0.8996195793151855,-7320.93017578125,-18582.060546875,-2693.610107421875,-400000.0625,-400000.0625,-400000.0625,-400000.0625,-400000.0625
0.9160706996917725,-7307.009765625,-18569.330078125,-2678.300048828125,-400000.0625,-400000.0625,-400000.0625,-400000.0625,-400000.0625
0.9278864860534668,-7285.2099609375,-18538.51953125,-2647.72998046875,-400000.0625,-400000.0625,-400000.0625,-400000.0625,-400000.0625
0.9377026557922363,-7280.4501953125,-18533.23046875,-2645.679931640625,-400000.0625,-400000.0625,-400000.0625,-400000.0625,-400000.0625
0.9500327110290527,-7313.68017578125,-18560.83984375,-2676.679931640625,-400000.0625,-400000.0625,-400000.0625,-400000.0625,-400000.0625
0.9579951763153076,-7336.18994140625,-18584.58984375,-2696.090087890625,-400000.0625,-400000.0625,-400000.0625,-400000.0625,-400000.0625
0.9727962017059326,-7316.2099609375,-18570.0,-2677.679931640625,-400000.0625,-400000.0625,-400000.0625,-400000.0625,-400000.0625
0.9829769134521484,-7295.1298828125,-18542.76953125,-2652.739990234375,-400000.0625,-400000.0625,-400000.0625,-400000.0625,-400000.0625
0.9951958656311035,-7298.27978515625,-18540.580078125,-2650.550048828125,-400000.0625,-400000.0625,-400000.0625,-400000.0625,-400000.0625
1.0036969184875488,-7322.02978515625,-18566.7109375,-2679.969970703125,-400000.0625,-400000.0625,-400000.0625,-400000.0625,-400000.0625
1.0205683708190918,-7339.0,-18576.810546875,-2689.4599609375,-400000.0625,-400000.0625,-400000.0625,-400000.0625,-400000.0625
1.0338125228881836,-7329.66015625,-18575.669921875,-2671.429931640625,-400000.0625,-400000.0625,-400000.0625,-400000.0625,-400000.0625
1.0458130836486816,-7300.759765625,-18574.48046875,-2650.929931640625,-400000.0625,-400000.0625,-400000.0625,-400000.0625,-400000.0625
1.0587785243988037,-7285.02001953125,-18559.26953125,-2654.27001953125,-400000.0625,-400000.0625,-400000.0625,-400000.0625,-400000.0625
1.0712323188781738,-7307.580078125,-18587.9296875,-2693.75,-400000.0625,-400000.0625,-400000.0625,-400000.0625,-400000.0625
1.0848932266235352,-7322.64990234375,-18625.599609375,-2727.219970703125,-400000.0625,-400000.0625,-400000.0625,-400000.0625,-400000.0625
1.0961079597473145,-7298.14013671875,-18627.83984375,-2731.56005859375,-400000.0625,-400000.0625,-400000.0625,-400000.0625,-400000.0625
1.1094839572906494,-7270.85986328125,-18637.330078125,-2727.510009765625,-400000.0625,-400000.0625,-400000.0625,-400000.0625,-400000.0625
1.1274340152740479,-7252.7900390625,-18643.720703125,-2735.18994140625,-400000.0625,-400000.0625,-400000.0625,-400000.0625,-400000.0625
1.1364772319793701,-7270.669921875,-18683.580078125,-2783.820068359375,-400000.0625,-400000.0625,-400000.0625,-400000.0625,-400000.0625
1.1485586166381836,-7273.39013671875,-18723.25,-2820.39990234375,-400000.0625,-400000.0625,-400000.0625,-400000.0625,-400000.0625
1.158357858657837,-7240.52978515625,-18725.109375,-2816.06005859375,-400000.0625,-400000.0625,-400000.0625,-400000.0625,-400000.0625
1.1688716411590576,-7201.669921875,-18713.240234375,-2801.75,-400000.0625,-400000.0625,-400000.0625,-400000.0625,-400000.0625
1.1802895069122314,-7191.47021484375,-18721.5390625,-2813.340087890625,-400000.0625,-400000.0625,-400000.0625,-400000.0625,-400000.0625
1.1898338794708252,-7218.5498046875,-18758.970703125,-2856.06005859375,-400000.0625,-400000.0625,-400000.0625,-400000.0625,-400000.0625
1.2026023864746094,-7222.1298828125,-18779.80078125,-2869.080078125,-400000.0625,-400000.0625,-400000.0625,-400000.0625,-400000.0625
1.2218985557556152,-7212.93017578125,-18779.7109375,-2862.219970703125,-400000.0625,-400000.0625,-400000.0625,-400000.0625,-400000.0625
1.2309741973876953,-7204.8701171875,-18761.349609375,-2840.0400390625,-400000.0625,-400000.0625,-400000.0625,-400000.0625,-400000.0625
1.24357008934021,-7196.27978515625,-18748.94921875,-2830.550048828125,-400000.0625,-400000.0625,-400000.0625,-400000.0625,-400000.0625
1.258899450302124,-7212.97021484375,-18763.880859375,-2846.050048828125,-400000.0625,-400000.0625,-400000.0625,-400000.0625,-400000.0625
1.271392822265625,-7224.60986328125,-18772.939453125,-2856.2099609375,-400000.0625,-400000.0625,-400000.0625,-400000.0625,-400000.0625
1.2824857234954834,-7216.169921875,-18756.109375,-2840.89990234375,-400000.0625,-400000.0625,-400000.0625,-400000.0625,-400000.0625
1.2944371700286865,-7193.7998046875,-18743.900390625,-2825.830078125,-400000.0625,-400000.0625,-400000.0625,-400000.0625,-400000.0625
1.3062946796417236,-7192.18017578125,-18740.419921875,-2820.639892578125,-400000.0625,-400000.0625,-400000.0625,-400000.0625,-400000.0625
1.3242676258087158,-7214.58984375,-18753.150390625,-2841.949951171875,-400000.0625,-400000.0625,-400000.0625,-400000.0625,-400000.0625
1.3335165977478027,-7228.419921875,-18762.58984375,-2850.25,-400000.0625,-400000.0625,-400000.0625,-400000.0625,-400000.0625
1.344238519668579,-7211.35009765625,-18743.08984375,-2831.7900390625,-400000.0625,-400000.0625,-400000.0625,-400000.0625,-400000.0625
1.3535456657409668,-7195.330078125,-18718.630859375,-2808.89990234375,-400000.0625,-400000.0625,-400000.0625,-400000.0625,-400000.0625
1.364149808883667,-7207.39013671875,-18726.2109375,-2812.580078125,-400000.0625,-400000.0625,-400000.0625,-400000.0625,-400000.0625
1.3763847351074219,-7237.91015625,-18750.76953125,-2839.090087890625,-400000.0625,-400000.0625,-400000.0625,-400000.0625,-400000.0625
1.388657569885254,-7246.2099609375,-18756.109375,-2846.77001953125,-400000.0625,-400000.0625,-400000.0625,-400000.0625,-400000.0625
1.397961139678955,-7231.08984375,-18741.23046875,-2829.5,-400000.0625,-400000.0625,-400000.0625,-400000.0625,-400000.0625
1.4089298248291016,-7229.56982421875,-18726.830078125,-2815.10009765625,-400000.0625,-400000.0625,-400000.0625,-400000.0625,-400000.0625
1.4261362552642822,-7232.85986328125,-18734.169921875,-2822.449951171875,-400000.0625,-400000.0625,-400000.0625,-400000.0625,-400000.0625
1.4374580383300781,-7263.89990234375,-18754.060546875,-2843.0,-400000.0625,-400000.0625,-400000.0625,-400000.0625,-400000.0625
1.4487342834472656,-7281.72998046875,-18762.5390625,-2852.340087890625,-400000.0625,-400000.0625,-400000.0625,-400000.0625,-400000.0625
1.4622282981872559,-7264.0,-18748.619140625,-2832.989990234375,-400000.0625,-400000.0625,-400000.0625,-400000.0625,-400000.0625
1.4723944664001465,-7242.6298828125,-18719.91015625,-2801.1298828125,-400000.0625,-400000.0625,-400000.0625,-400000.0625,-400000.0625
1.4859769344329834,-7242.43994140625,-18720.529296875,-2800.419921875,-400000.0625,-400000.0625,-400000.0625,-400000.0625,-400000.0625
1.4946372509002686,-7257.41015625,-18727.689453125,-2813.050048828125,-400000.0625,-400000.0625,-400000.0625,-400000.0625,-400000.0625
1.5068438053131104,-7283.35009765625,-18745.810546875,-2831.93994140625,-400000.0625,-400000.0625,-400000.0625,-400000.0625,-400000.0625
1.5238392353057861,-7282.2099609375,-18737.41015625,-2822.68994140625,-400000.0625,-400000.0625,-400000.0625,-400000.0625,-400000.0625
1.535140037536621,-7262.990234375,-18712.380859375,-2794.699951171875,-400000.0625,-400000.0625,-400000.0625,-400000.0625,-400000.0625
1.548090934753418,-7265.6201171875,-18710.23046875,-2785.72998046875,-400000.0625,-400000.0625,-400000.0625,-400000.0625,-400000.0625
1.5562148094177246,-7287.02978515625,-18726.0703125,-2804.330078125,-400000.0625,-400000.0625,-400000.0625,-400000.0625,-400000.0625
1.5676968097686768,-7300.7099609375,-18734.310546875,-2816.25,-400000.0625,-400000.0625,-400000.0625,-400000.0625,-400000.0625
1.5787277221679688,-7294.75,-18724.009765625,-2803.280029296875,-400000.0625,-400000.0625,-400000.0625,-400000.0625,-400000.0625
1.5899968147277832,-7277.43994140625,-18708.08984375,-2778.669921875,-400000.0625,-400000.0625,-400000.0625,-400000.0625,-400000.0625
1.599231481552124,-7280.39990234375,-18719.869140625,-2770.760009765625,-400000.0625,-400000.0625,-400000.0625,-400000.0625,-400000.0625
1.6171505451202393,-7293.080078125,-18723.8203125,-2786.969970703125,-400000.0625,-400000.0625,-400000.0625,-400000.0625,-400000.0625
1.6287121772766113,-7289.35986328125,-18712.08984375,-2802.1298828125,-400000.0625,-400000.0625,-400000.0625,-400000.0625,-400000.0625
1.6413278579711914,-7282.06982421875,-18716.669921875,-2799.56005859375,-400000.0625,-400000.0625,-400000.0625,-400000.0625,-400000.0625
1.6517772674560547,-7269.18994140625,-18708.419921875,-2780.010009765625,-400000.0625,-400000.0625,-400000.0625,-400000.0625,-400000.0625
1.6608781814575195,-7265.14013671875,-18712.0,-2773.81005859375,-400000.0625,-400000.0625,-400000.0625,-400000.0625,-400000.0625
1.6706533432006836,-7277.2001953125,-18734.029296875,-2794.31005859375,-400000.0625,-400000.0625,-400000.0625,-400000.0625,-400000.0625
1.6802303791046143,-7289.02978515625,-18741.369140625,-2808.860107421875,-400000.0625,-400000.0625,-400000.0625,-400000.0625,-400000.0625
1.6881115436553955,-7284.1201171875,-18745.51953125,-2802.22998046875,-400000.0625,-400000.0625,-400000.0625,-400000.0625,-400000.0625
1.701674461364746,-7273.580078125,-18724.30078125,-2782.77001953125,-400000.0625,-400000.0625,-400000.0625,-400000.0625,-400000.0625
1.715956211090088,-7268.14013671875,-18721.060546875,-2776.340087890625,-400000.0625,-400000.0625,-400000.0625,-400000.0625,-400000.0625
1.7284531593322754,-7294.75,-18725.58984375,-2789.929931640625,-400000.0625,-400000.0625,-400000.0625,-400000.0625,-400000.0625
1.7396807670593262,-7310.009765625,-18735.599609375,-2806.3798828125,-400000.0625,-400000.0625,-400000.0625,-400000.0625,-400000.0625
1.75063157081604,-7309.52978515625,-18737.509765625,-2802.89990234375,-400000.0625,-400000.0625,-400000.0625,-400000.0625,-400000.0625
1.760636329650879,-7300.0,-18725.490234375,-2786.639892578125,-400000.0625,-400000.0625,-400000.0625,-400000.0625,-400000.0625
1.768510103225708,-7292.509765625,-18713.759765625,-2775.6201171875,-400000.0625,-400000.0625,-400000.0625,-400000.0625,-400000.0625
1.7817208766937256,-7311.5400390625,-18722.19921875,-2784.199951171875,-400000.0625,-400000.0625,-400000.0625,-400000.0625,-400000.0625
1.7889878749847412,-7329.89013671875,-18733.55078125,-2800.1298828125,-400000.0625,-400000.0625,-400000.0625,-400000.0625,-400000.0625
1.8031013011932373,-7327.7001953125,-18726.44921875,-2790.5,-400000.0625,-400000.0625,-400000.0625,-400000.0625,-400000.0625
1.8219716548919678,-7310.25,-18711.189453125,-2772.429931640625,-400000.0625,-400000.0625,-400000.0625,-400000.0625,-400000.0625
1.8317773342132568,-7312.39013671875,-18705.560546875,-2769.330078125,-400000.0625,-400000.0625,-400000.0625,-400000.0625,-400000.0625
1.8433396816253662,-7330.3701171875,-18712.759765625,-2781.14990234375,-400000.0625,-400000.0625,-400000.0625,-400000.0625,-400000.0625
1.8544785976409912,-7341.72021484375,-18726.30078125,-2791.169921875,-400000.0625,-400000.0625,-400000.0625,-400000.0625,-400000.0625
1.8656635284423828,-7335.0,-18705.890625,-2774.2900390625,-400000.0625,-400000.0625,-400000.0625,-400000.0625,-400000.0625
1.8751797676086426,-7321.7900390625,-18693.16015625,-2757.550048828125,-400000.0625,-400000.0625,-400000.0625,-400000.0625,-400000.0625
1.8875415325164795,-7326.56005859375,-18691.259765625,-2751.300048828125,-400000.0625,-400000.0625,-400000.0625,-400000.0625,-400000.0625
1.8980062007904053,-7339.240234375,-18703.4609375,-2764.800048828125,-400000.0625,-400000.0625,-400000.0625,-400000.0625,-400000.0625
1.9105653762817383,-7350.64013671875,-18707.7109375,-2772.760009765625,-400000.0625,-400000.0625,-400000.0625,-400000.0625,-400000.0625
1.9285869598388672,-7339.91015625,-18690.869140625,-2753.5,-400000.0625,-400000.0625,-400000.0625,-400000.0625,-400000.0625
1.936492919921875,-7335.66015625,-18676.140625,-2737.429931640625,-400000.0625,-400000.0625,-400000.0625,-400000.0625,-400000.0625
1.9503986835479736,-7332.9501953125,-18666.69921875,-2730.1298828125,-400000.0625,-400000.0625,-400000.0625,-400000.0625,-400000.0625
1.9600756168365479,-7342.91015625,-18682.529296875,-2742.820068359375,-400000.0625,-400000.0625,-400000.0625,-400000.0625,-400000.0625
1.9725961685180664,-7359.740234375,-18696.98046875,-2762.27001953125,-400000.0625,-400000.0625,-400000.0625,-400000.0625,-400000.0625
1.9850523471832275,-7362.56005859375,-18692.5390625,-2755.97998046875,-400000.0625,-400000.0625,-400000.0625,-400000.0625,-400000.0625
1.9969627857208252,-7343.669921875,-18669.990234375,-2728.889892578125,-400000.0625,-400000.0625,-400000.0625,-400000.0625,-400000.0625
2.007976531982422,-7344.43994140625,-18666.83984375,-2726.27001953125,-400000.0625,-400000.0625,-400000.0625,-400000.0625,-400000.0625
2.0228798389434814,-7361.60009765625,-18674.330078125,-2738.760009765625,-400000.0625,-400000.0625,-400000.0625,-400000.0625,-400000.0625
2.0351943969726562,-7375.52978515625,-18683.76953125,-2749.590087890625,-400000.0625,-400000.0625,-400000.0625,-400000.0625,-400000.0625
2.046721935272217,-7363.64990234375,-18673.1796875,-2737.0,-400000.0625,-400000.0625,-400000.0625,-400000.0625,-400000.0625
2.058030366897583,-7352.58984375,-18658.259765625,-2721.830078125,-400000.0625,-400000.0625,-400000.0625,-400000.0625,-400000.0625
2.0705480575561523,-7355.31005859375,-18653.009765625,-2719.969970703125,-400000.0625,-400000.0625,-400000.0625,-400000.0625,-400000.0625
2.079232692718506,-7363.3701171875,-18665.029296875,-2728.030029296875,-400000.0625,-400000.0625,-400000.0625,-400000.0625,-400000.0625
2.093712329864502,-7377.2900390625,-18672.560546875,-2737.469970703125,-400000.0625,-400000.0625,-400000.0625,-400000.0625,-400000.0625
2.1067516803741455,-7378.669921875,-18671.130859375,-2737.330078125,-400000.0625,-400000.0625,-400000.0625,-400000.0625,-400000.0625
2.1239686012268066,-7365.89990234375,-18656.2109375,-2720.8798828125,-400000.0625,-400000.0625,-400000.0625,-400000.0625,-400000.0625
2.132794141769409,-7358.97998046875,-18651.33984375,-2714.06005859375,-400000.0625,-400000.0625,-400000.0625,-400000.0625,-400000.0625
2.1449997425079346,-7371.7099609375,-18658.740234375,-2724.699951171875,-400000.0625,-400000.0625,-400000.0625,-400000.0625,-400000.0625
2.15522837638855,-7385.5400390625,-18663.599609375,-2734.52001953125,-400000.0625,-400000.0625,-400000.0625,-400000.0625,-400000.0625
2.1664247512817383,-7385.2099609375,-18661.880859375,-2726.840087890625,-400000.0625,-400000.0625,-400000.0625,-400000.0625,-400000.0625
2.1760973930358887,-7378.47998046875,-18660.640625,-2717.8798828125,-400000.0625,-400000.0625,-400000.0625,-400000.0625,-400000.0625
2.18947696685791,-7370.08984375,-18649.009765625,-2710.010009765625,-400000.0625,-400000.0625,-400000.0625,-400000.0625,-400000.0625
2.198073148727417,-7384.6298828125,-18638.66015625,-2711.530029296875,-400000.0625,-400000.0625,-400000.0625,-400000.0625,-400000.0625
2.2174808979034424,-7407.7099609375,-18634.23046875,-2712.010009765625,-400000.0625,-400000.0625,-400000.0625,-400000.0625,-400000.0625
2.231306314468384,-7410.81005859375,-18631.650390625,-2705.18994140625,-400000.0625,-400000.0625,-400000.0625,-400000.0625,-400000.0625
2.243637800216675,-7406.47021484375,-18613.150390625,-2686.7900390625,-400000.0625,-400000.0625,-400000.0625,-400000.0625,-400000.0625
2.25396728515625,-7408.759765625,-18602.1796875,-2672.2900390625,-400000.0625,-400000.0625,-400000.0625,-400000.0625,-400000.0625
2.2646217346191406,-7422.64013671875,-18600.3203125,-2673.9599609375,-400000.0625,-400000.0625,-400000.0625,-400000.0625,-400000.0625
2.276301145553589,-7438.14013671875,-18599.990234375,-2674.6298828125,-400000.0625,-400000.0625,-400000.0625,-400000.0625,-400000.0625
2.288217782974243,-7442.81005859375,-18593.119140625,-2670.81005859375,-400000.0625,-400000.0625,-400000.0625,-400000.0625,-400000.0625
2.3022983074188232,-7436.7099609375,-18577.33984375,-2653.7900390625,-400000.0625,-400000.0625,-400000.0625,-400000.0625,-400000.0625
2.309337854385376,-7433.89013671875,-18573.240234375,-2645.679931640625,-400000.0625,-400000.0625,-400000.0625,-400000.0625,-400000.0625
2.323514938354492,-7440.89990234375,-18575.48046875,-2653.070068359375,-400000.0625,-400000.0625,-400000.0625,-400000.0625,-400000.0625
2.335791826248169,-7449.2900390625,-18577.529296875,-2659.4599609375,-400000.0625,-400000.0625,-400000.0625,-400000.0625,-400000.0625
2.3530335426330566,-7448.240234375,-18576.33984375,-2654.1201171875,-400000.0625,-400000.0625,-400000.0625,-400000.0625,-400000.0625
2.3631603717803955,-7437.47021484375,-18560.83984375,-2635.2900390625,-400000.0625,-400000.0625,-400000.0625,-400000.0625,-400000.0625
2.373725175857544,-7441.6201171875,-18563.26953125,-2633.429931640625,-400000.0625,-400000.0625,-400000.0625,-400000.0625,-400000.0625
2.38909912109375,-7456.2998046875,-18578.099609375,-2647.070068359375,-400000.0625,-400000.0625,-400000.0625,-400000.0625,-400000.0625
2.400453805923462,-7470.7998046875,-18584.060546875,-2653.68994140625,-400000.0625,-400000.0625,-400000.0625,-400000.0625,-400000.0625
2.4167301654815674,-7467.60009765625,-18575.380859375,-2647.830078125,-400000.0625,-400000.0625,-400000.0625,-400000.0625,-400000.0625
2.428298234939575,-7451.77001953125,-18558.650390625,-2631.280029296875,-400000.0625,-400000.0625,-400000.0625,-400000.0625,-400000.0625
2.4406325817108154,-7443.72021484375,-18558.310546875,-2627.330078125,-400000.0625,-400000.0625,-400000.0625,-400000.0625,-400000.0625
2.4492366313934326,-7452.39013671875,-18565.080078125,-2634.570068359375,-400000.0625,-400000.0625,-400000.0625,-400000.0625,-400000.0625
2.4584600925445557,-7462.7900390625,-18573.2890625,-2645.780029296875,-400000.0625,-400000.0625,-400000.0625,-400000.0625,-400000.0625
2.4710214138031006,-7458.06982421875,-18573.5703125,-2644.159912109375,-400000.0625,-400000.0625,-400000.0625,-400000.0625,-400000.0625
2.480997085571289,-7447.580078125,-18555.310546875,-2625.419921875,-400000.0625,-400000.0625,-400000.0625,-400000.0625,-400000.0625
2.492709159851074,-7447.33984375,-18557.259765625,-2623.840087890625,-400000.0625,-400000.0625,-400000.0625,-400000.0625,-400000.0625
2.5054683685302734,-7448.240234375,-18562.130859375,-2628.3701171875,-400000.0625,-400000.0625,-400000.0625,-400000.0625,-400000.0625
2.5206105709075928,-7449.9599609375,-18558.9296875,-2630.0,-400000.0625,-400000.0625,-400000.0625,-400000.0625,-400000.0625
2.533255100250244,-7455.77978515625,-18559.9296875,-2628.989990234375,-400000.0625,-400000.0625,-400000.0625,-400000.0625,-400000.0625
2.5441834926605225,-7452.10986328125,-18564.080078125,-2628.179931640625,-400000.0625,-400000.0625,-400000.0625,-400000.0625,-400000.0625
2.5578203201293945,-7445.77001953125,-18555.640625,-2623.889892578125,-400000.0625,-400000.0625,-400000.0625,-400000.0625,-400000.0625
2.5681910514831543,-7450.919921875,-18556.310546875,-2626.989990234375,-400000.0625,-400000.0625,-400000.0625,-400000.0625,-400000.0625
2.578070640563965,-7463.97998046875,-18566.51953125,-2640.14990234375,-400000.0625,-400000.0625,-400000.0625,-400000.0625,-400000.0625
2.592024087905884,-7459.740234375,-18570.810546875,-2640.820068359375,-400000.0625,-400000.0625,-400000.0625,-400000.0625,-400000.0625
2.600560188293457,-7447.2900390625,-18560.359375,-2626.0400390625,-400000.0625,-400000.0625,-400000.0625,-400000.0625,-400000.0625
2.617875814437866,-7441.56982421875,-18548.30078125,-2614.02001953125,-400000.0625,-400000.0625,-400000.0625,-400000.0625,-400000.0625
2.62895131111145,-7450.2998046875,-18554.310546875,-2623.219970703125,-400000.0625,-400000.0625,-400000.0625,-400000.0625,-400000.0625
2.6372928619384766,-7459.58984375,-18559.890625,-2630.18994140625,-400000.0625,-400000.0625,-400000.0625,-400000.0625,-400000.0625
2.651693344116211,-7455.39990234375,-18551.30078125,-2621.409912109375,-400000.0625,-400000.0625,-400000.0625,-400000.0625,-400000.0625
2.6593594551086426,-7443.14013671875,-18541.720703125,-2607.679931640625,-400000.0625,-400000.0625,-400000.0625,-400000.0625,-400000.0625
2.6719863414764404,-7434.93994140625,-18537.380859375,-2602.2900390625,-400000.0625,-400000.0625,-400000.0625,-400000.0625,-400000.0625
2.680528402328491,-7454.2998046875,-18552.779296875,-2621.030029296875,-400000.0625,-400000.0625,-400000.0625,-400000.0625,-400000.0625
2.691941022872925,-7469.990234375,-18569.51953125,-2635.6201171875,-400000.0625,-400000.0625,-400000.0625,-400000.0625,-400000.0625
2.6999237537384033,-7459.35986328125,-18562.609375,-2629.949951171875,-400000.0625,-400000.0625,-400000.0625,-400000.0625,-400000.0625
2.7176713943481445,-7448.85986328125,-18552.880859375,-2618.169921875,-400000.0625,-400000.0625,-400000.0625,-400000.0625,-400000.0625
2.7290198802948,-7453.39013671875,-18560.75,-2620.510009765625,-400000.0625,-400000.0625,-400000.0625,-400000.0625,-400000.0625
2.7369518280029297,-7464.509765625,-18567.609375,-2631.139892578125,-400000.0625,-400000.0625,-400000.0625,-400000.0625,-400000.0625
2.747612953186035,-7475.89990234375,-18579.76953125,-2640.919921875,-400000.0625,-400000.0625,-400000.0625,-400000.0625,-400000.0625
2.75720477104187,-7469.18017578125,-18573.48046875,-2631.0,-400000.0625,-400000.0625,-400000.0625,-400000.0625,-400000.0625
2.769639730453491,-7459.8798828125,-18561.3203125,-2620.4599609375,-400000.0625,-400000.0625,-400000.0625,-400000.0625,-400000.0625
2.7791006565093994,-7464.93017578125,-18564.419921875,-2621.320068359375,-400000.0625,-400000.0625,-400000.0625,-400000.0625,-400000.0625
2.7909414768218994,-7477.330078125,-18579.009765625,-2640.580078125,-400000.0625,-400000.0625,-400000.0625,-400000.0625,-400000.0625
2.8027234077453613,-7491.39990234375,-18584.58984375,-2654.840087890625,-400000.0625,-400000.0625,-400000.0625,-400000.0625,-400000.0625
2.8200879096984863,-7484.72021484375,-18576.0,-2646.830078125,-400000.0625,-400000.0625,-400000.0625,-400000.0625,-400000.0625
2.8294222354888916,-7472.56005859375,-18565.23046875,-2632.860107421875,-400000.0625,-400000.0625,-400000.0625,-400000.0625,-400000.0625
2.8430402278900146,-7466.1298828125,-18563.939453125,-2629.330078125,-400000.0625,-400000.0625,-400000.0625,-400000.0625,-400000.0625
2.856576919555664,-7471.27978515625,-18564.609375,-2639.679931640625,-400000.0625,-400000.0625,-400000.0625,-400000.0625,-400000.0625
2.868779420852661,-7472.85009765625,-18557.359375,-2653.219970703125,-400000.0625,-400000.0625,-400000.0625,-400000.0625,-400000.0625
2.8777036666870117,-7458.2099609375,-18536.619140625,-2641.5400390625,-400000.0625,-400000.0625,-400000.0625,-400000.0625,-400000.0625
2.8910038471221924,-7436.3701171875,-18495.900390625,-2615.7900390625,-400000.0625,-400000.0625,-400000.0625,-400000.0625,-400000.0625
2.903907060623169,-7428.5498046875,-18457.130859375,-2603.909912109375,-400000.0625,-400000.0625,-400000.0625,-400000.0625,-400000.0625
2.9203379154205322,-7433.75,-18444.060546875,-2612.449951171875,-400000.0625,-400000.0625,-400000.0625,-400000.0625,-400000.0625
2.936849355697632,-7442.0498046875,-18426.51953125,-2612.919921875,-400000.0625,-400000.0625,-400000.0625,-400000.0625,-400000.0625
2.9540092945098877,-7423.06982421875,-18391.330078125,-2587.27001953125,-400000.0625,-400000.0625,-400000.0625,-400000.0625,-400000.0625
2.9665865898132324,-7401.0400390625,-18340.30078125,-2546.8798828125,-400000.0625,-400000.0625,-400000.0625,-400000.0625,-400000.0625
2.979863405227661,-7395.31982421875,-18311.4609375,-2532.239990234375,-400000.0625,-400000.0625,-400000.0625,-400000.0625,-400000.0625
2.990874767303467,-7415.72021484375,-18301.19921875,-2541.159912109375,-400000.0625,-400000.0625,-400000.0625,-400000.0625,-400000.0625
3.0034711360931396,-7425.60009765625,-18283.75,-2532.199951171875,-400000.0625,-400000.0625,-400000.0625,-400000.0625,-400000.0625
3.019684076309204,-7414.68017578125,-18259.099609375,-2507.070068359375,-400000.0625,-400000.0625,-400000.0625,-400000.0625,-400000.0625
3.032963514328003,-7393.1201171875,-18218.849609375,-2469.919921875,-400000.0625,-400000.0625,-400000.0625,-400000.0625,-400000.0625
3.043919086456299,-7392.93017578125,-18196.630859375,-2452.3701171875,-400000.0625,-400000.0625,-400000.0625,-400000.0625,-400000.0625
3.0575027465820312,-7419.97021484375,-18196.6796875,-2456.669921875,-400000.0625,-400000.0625,-400000.0625,-400000.0625,-400000.0625
3.0675129890441895,-7435.1298828125,-18191.439453125,-2455.280029296875,-400000.0625,-400000.0625,-400000.0625,-400000.0625,-400000.0625
3.0787580013275146,-7411.77001953125,-18176.41015625,-2434.43994140625,-400000.0625,-400000.0625,-400000.0625,-400000.0625,-400000.0625
3.08811354637146,-7392.64990234375,-18160.8203125,-2411.080078125,-400000.0625,-400000.0625,-400000.0625,-400000.0625,-400000.0625
3.101039171218872,-7400.85009765625,-18163.490234375,-2413.699951171875,-400000.0625,-400000.0625,-400000.0625,-400000.0625,-400000.0625
3.116729974746704,-7426.02001953125,-18173.98046875,-2437.969970703125,-400000.0625,-400000.0625,-400000.0625,-400000.0625,-400000.0625
3.125565767288208,-7433.89013671875,-18187.5703125,-2451.800048828125,-400000.0625,-400000.0625,-400000.0625,-400000.0625,-400000.0625
3.1378767490386963,-7421.2998046875,-18182.140625,-2437.070068359375,-400000.0625,-400000.0625,-400000.0625,-400000.0625,-400000.0625
3.1476831436157227,-7397.990234375,-18163.830078125,-2418.139892578125,-400000.0625,-400000.0625,-400000.0625,-400000.0625,-400000.0625
3.160733699798584,-7395.4599609375,-18169.259765625,-2421.050048828125,-400000.0625,-400000.0625,-400000.0625,-400000.0625,-400000.0625
3.1740267276763916,-7417.06005859375,-18187.859375,-2439.639892578125,-400000.0625,-400000.0625,-400000.0625,-400000.0625,-400000.0625
3.182255268096924,-7429.740234375,-18206.220703125,-2456.89990234375,-400000.0625,-400000.0625,-400000.0625,-400000.0625,-400000.0625
3.1931800842285156,-7416.10986328125,-18198.830078125,-2439.31005859375,-400000.0625,-400000.0625,-400000.0625,-400000.0625,-400000.0625
3.2023956775665283,-7391.5498046875,-18185.900390625,-2421.429931640625,-400000.0625,-400000.0625,-400000.0625,-400000.0625,-400000.0625
3.2201247215270996,-7390.60009765625,-18190.8203125,-2426.820068359375,-400000.0625,-400000.0625,-400000.0625,-400000.0625,-400000.0625
3.229046583175659,-7411.85986328125,-18210.41015625,-2448.030029296875,-400000.0625,-400000.0625,-400000.0625,-400000.0625,-400000.0625
3.2421278953552246,-7417.490234375,-18223.140625,-2463.2900390625,-400000.0625,-400000.0625,-400000.0625,-400000.0625,-400000.0625
3.2501766681671143,-7398.89013671875,-18215.51953125,-2451.93994140625,-400000.0625,-400000.0625,-400000.0625,-400000.0625,-400000.0625
3.258880615234375,-7377.669921875,-18199.73046875,-2431.919921875,-400000.0625,-400000.0625,-400000.0625,-400000.0625,-400000.0625
3.270307779312134,-7374.240234375,-18207.55078125,-2437.5,-400000.0625,-400000.0625,-400000.0625,-400000.0625,-400000.0625
3.282184362411499,-7391.7900390625,-18219.900390625,-2449.93994140625,-400000.0625,-400000.0625,-400000.0625,-400000.0625,-400000.0625
3.290048837661743,-7403.330078125,-18232.630859375,-2461.719970703125,-400000.0625,-400000.0625,-400000.0625,-400000.0625,-400000.0625
3.3030097484588623,-7387.16015625,-18233.400390625,-2458.139892578125,-400000.0625,-400000.0625,-400000.0625,-400000.0625,-400000.0625
3.317620277404785,-7365.7998046875,-18218.94921875,-2439.7900390625,-400000.0625,-400000.0625,-400000.0625,-400000.0625,-400000.0625
3.3256728649139404,-7366.990234375,-18220.240234375,-2445.510009765625,-400000.0625,-400000.0625,-400000.0625,-400000.0625,-400000.0625
3.3339016437530518,-7385.5400390625,-18242.69921875,-2470.02001953125,-400000.0625,-400000.0625,-400000.0625,-400000.0625,-400000.0625
3.3472888469696045,-7395.35986328125,-18257.240234375,-2481.4599609375,-400000.0625,-400000.0625,-400000.0625,-400000.0625,-400000.0625
3.357936143875122,-7389.77978515625,-18252.80078125,-2472.35009765625,-400000.0625,-400000.0625,-400000.0625,-400000.0625,-400000.0625
3.3737196922302246,-7365.419921875,-18240.259765625,-2458.3798828125,-400000.0625,-400000.0625,-400000.0625,-400000.0625,-400000.0625
3.384235382080078,-7371.0498046875,-18253.08984375,-2470.2099609375,-400000.0625,-400000.0625,-400000.0625,-400000.0625,-400000.0625
3.396711826324463,-7398.080078125,-18269.640625,-2493.239990234375,-400000.0625,-400000.0625,-400000.0625,-400000.0625,-400000.0625
3.4053664207458496,-7408.14013671875,-18282.369140625,-2508.260009765625,-400000.0625,-400000.0625,-400000.0625,-400000.0625,-400000.0625
3.422940969467163,-7399.3701171875,-18284.509765625,-2504.300048828125,-400000.0625,-400000.0625,-400000.0625,-400000.0625,-400000.0625
3.43511700630188,-7391.64013671875,-18278.890625,-2493.10009765625,-400000.0625,-400000.0625,-400000.0625,-400000.0625,-400000.0625
3.444789171218872,-7398.509765625,-18297.439453125,-2506.260009765625,-400000.0625,-400000.0625,-400000.0625,-400000.0625,-400000.0625
3.4573230743408203,-7417.16015625,-18320.279296875,-2535.389892578125,-400000.0625,-400000.0625,-400000.0625,-400000.0625,-400000.0625
3.466683864593506,-7429.7001953125,-18328.33984375,-2548.4599609375,-400000.0625,-400000.0625,-400000.0625,-400000.0625,-400000.0625
3.478766679763794,-7419.58984375,-18321.75,-2540.300048828125,-400000.0625,-400000.0625,-400000.0625,-400000.0625,-400000.0625
3.4934139251708984,-7401.419921875,-18316.560546875,-2528.139892578125,-400000.0625,-400000.0625,-400000.0625,-400000.0625,-400000.0625
3.5072360038757324,-7406.759765625,-18322.900390625,-2533.050048828125,-400000.0625,-400000.0625,-400000.0625,-400000.0625,-400000.0625
3.524832010269165,-7430.1298828125,-18343.2109375,-2558.89990234375,-400000.0625,-400000.0625,-400000.0625,-400000.0625,-400000.0625
3.5368287563323975,-7433.990234375,-18347.4609375,-2561.570068359375,-400000.0625,-400000.0625,-400000.0625,-400000.0625,-400000.0625
3.5505425930023193,-7415.490234375,-18299.529296875,-2529.570068359375,-400000.0625,-400000.0625,-400000.0625,-400000.0625,-400000.0625
3.5625827312469482,-7398.22021484375,-18261.76953125,-2496.47998046875,-400000.0625,-400000.0625,-400000.0625,-400000.0625,-400000.0625
3.5765204429626465,-7403.47021484375,-18240.169921875,-2481.60009765625,-400000.0625,-400000.0625,-400000.0625,-400000.0625,-400000.0625
3.588909864425659,-7427.1201171875,-18215.23046875,-2478.739990234375,-400000.0625,-400000.0625,-400000.0625,-400000.0625,-400000.0625
3.6019198894500732,-7439.08984375,-18186.94921875,-2460.530029296875,-400000.0625,-400000.0625,-400000.0625,-400000.0625,-400000.0625
3.6203062534332275,-7425.169921875,-18142.1796875,-2425.81005859375,-400000.0625,-400000.0625,-400000.0625,-400000.0625,-400000.0625
3.6296536922454834,-7411.669921875,-18098.169921875,-2383.800048828125,-400000.0625,-400000.0625,-400000.0625,-400000.0625,-400000.0625
3.6433279514312744,-7420.25,-18061.58984375,-2358.43994140625,-400000.0625,-400000.0625,-400000.0625,-400000.0625,-400000.0625
3.6529877185821533,-7438.759765625,-18052.060546875,-2356.10009765625,-400000.0625,-400000.0625,-400000.0625,-400000.0625,-400000.0625
3.6661577224731445,-7444.759765625,-18047.05078125,-2346.22998046875,-400000.0625,-400000.0625,-400000.0625,-400000.0625,-400000.0625
3.677371025085449,-7433.31982421875,-18013.9609375,-2314.85009765625,-400000.0625,-400000.0625,-400000.0625,-400000.0625,-400000.0625
3.689847707748413,-7429.31005859375,-17968.990234375,-2268.510009765625,-400000.0625,-400000.0625,-400000.0625,-400000.0625,-400000.0625
3.7013657093048096,-7439.9501953125,-17946.669921875,-2250.239990234375,-400000.0625,-400000.0625,-400000.0625,-400000.0625,-400000.0625
3.718662977218628,-7467.93994140625,-17943.189453125,-2251.10009765625,-400000.0625,-400000.0625,-400000.0625,-400000.0625,-400000.0625
3.729992389678955,-7479.9501953125,-17941.810546875,-2247.139892578125,-400000.0625,-400000.0625,-400000.0625,-400000.0625,-400000.0625
3.739537477493286,-7466.41015625,-17921.16015625,-2223.25,-400000.0625,-400000.0625,-400000.0625,-400000.0625,-400000.0625
3.750300884246826,-7450.6298828125,-17886.259765625,-2187.489990234375,-400000.0625,-400000.0625,-400000.0625,-400000.0625,-400000.0625
3.762070894241333,-7460.830078125,-17870.7109375,-2167.320068359375,-400000.0625,-400000.0625,-400000.0625,-400000.0625,-400000.0625
3.7727231979370117,-7479.47998046875,-17868.470703125,-2164.889892578125,-400000.0625,-400000.0625,-400000.0625,-400000.0625,-400000.0625
3.788776159286499,-7482.72021484375,-17859.169921875,-2151.43994140625,-400000.0625,-400000.0625,-400000.0625,-400000.0625,-400000.0625
3.797971487045288,-7464.4599609375,-17844.30078125,-2125.7900390625,-400000.0625,-400000.0625,-400000.0625,-400000.0625,-400000.0625
3.8088717460632324,-7444.0,-17820.83984375,-2098.3701171875,-400000.0625,-400000.0625,-400000.0625,-400000.0625,-400000.0625
3.8274803161621094,-7439.47021484375,-17823.7890625,-2098.0400390625,-400000.0625,-400000.0625,-400000.0625,-400000.0625,-400000.0625
3.8393595218658447,-7448.77001953125,-17827.3203125,-2107.239990234375,-400000.0625,-400000.0625,-400000.0625,-400000.0625,-400000.0625
3.852649211883545,-7449.33984375,-17832.330078125,-2116.010009765625,-400000.0625,-400000.0625,-400000.0625,-400000.0625,-400000.0625
3.8591883182525635,-7442.6201171875,-17824.130859375,-2109.10009765625,-400000.0625,-400000.0625,-400000.0625,-400000.0625,-400000.0625
3.870917558670044,-7421.2099609375,-17817.5,-2100.85009765625,-400000.0625,-400000.0625,-400000.0625,-400000.0625,-400000.0625
3.8813464641571045,-7420.8701171875,-17823.560546875,-2104.659912109375,-400000.0625,-400000.0625,-400000.0625,-400000.0625,-400000.0625
3.8918633460998535,-7436.1298828125,-17833.380859375,-2121.39990234375,-400000.0625,-400000.0625,-400000.0625,-400000.0625,-400000.0625
3.9005000591278076,-7449.14990234375,-17836.619140625,-2134.659912109375,-400000.0625,-400000.0625,-400000.0625,-400000.0625,-400000.0625
3.9201853275299072,-7447.77001953125,-17826.419921875,-2125.449951171875,-400000.0625,-400000.0625,-400000.0625,-400000.0625,-400000.0625
4.1878180503845215,-7437.52001953125,-18583.630859375,-2647.969970703125,-400000.0625,-400000.0625,-400000.0625,-400000.0625,-400000.0625
4.233706712722778,-7497.06982421875,-18637.0390625,-2696.989990234375,-400000.0625,-400000.0625,-400000.0625,-400000.0625,-400000.0625
4.35605263710022,-7479.9501953125,-18637.990234375,-2709.679931640625,-400000.0625,-400000.0625,-400000.0625,-400000.0625,-400000.0625
4.420801162719727,-7485.43994140625,-18651.73046875,-2714.919921875,-400000.0625,-400000.0625,-400000.0625,-400000.0625,-400000.0625
4.496697664260864,-7410.52978515625,-18592.650390625,-2654.030029296875,-400000.0625,-400000.0625,-400000.0625,-400000.0625,-400000.0625
4.55777645111084,-7454.10986328125,-18621.5390625,-2697.56005859375,-400000.0625,-400000.0625,-400000.0625,-400000.0625,-400000.0625
4.6225855350494385,-7427.259765625,-18613.099609375,-2682.39990234375,-400000.0625,-400000.0625,-400000.0625,-400000.0625,-400000.0625
4.684427499771118,-7426.68994140625,-18618.25,-2678.35009765625,-400000.0625,-400000.0625,-400000.0625,-400000.0625,-400000.0625
4.8059186935424805,-7488.10986328125,-18664.119140625,-2723.8798828125,-400000.0625,-400000.0625,-400000.0625,-400000.0625,-400000.0625
4.964499235153198,-7455.68017578125,-18637.66015625,-2683.780029296875,-400000.0625,-400000.0625,-400000.0625,-400000.0625,-400000.0625
4.998481512069702,-7424.4501953125,-18617.8203125,-2660.889892578125,-400000.0625,-400000.0625,-400000.0625,-400000.0625,-400000.0625
5.1469409465789795,-7440.14013671875,-18613.869140625,-2659.080078125,-400000.0625,-400000.0625,-400000.0625,-400000.0625,-400000.0625
5.204257965087891,-7449.580078125,-18610.9609375,-2651.97998046875,-400000.0625,-400000.0625,-400000.0625,-400000.0625,-400000.0625
5.383538722991943,-7450.68017578125,-18615.099609375,-2645.5400390625,-400000.0625,-400000.0625,-400000.0625,-400000.0625,-400000.0625
5.447282314300537,-7464.7001953125,-18626.5,-2660.56005859375,-400000.0625,-400000.0625,-400000.0625,-400000.0625,-400000.0625
5.516193628311157,-7456.919921875,-18617.16015625,-2646.639892578125,-400000.0625,-400000.0625,-400000.0625,-400000.0625,-400000.0625
5.572381258010864,-7466.41015625,-18616.919921875,-2652.260009765625,-400000.0625,-400000.0625,-400000.0625,-400000.0625,-400000.0625
5.644973993301392,-7450.6298828125,-18597.509765625,-2629.469970703125,-400000.0625,-400000.0625,-400000.0625,-400000.0625,-400000.0625
5.702182292938232,-7438.0400390625,-18586.349609375,-2628.419921875,-400000.0625,-400000.0625,-400000.0625,-400000.0625,-400000.0625
5.763159275054932,-7445.72021484375,-18592.029296875,-2638.669921875,-400000.0625,-400000.0625,-400000.0625,-400000.0625,-400000.0625
5.854267120361328,-7462.740234375,-18593.5,-2649.68994140625,-400000.0625,-400000.0625,-400000.0625,-400000.0625,-400000.0625
5.908754587173462,-7454.5400390625,-18598.939453125,-2658.320068359375,-400000.0625,-400000.0625,-400000.0625,-400000.0625,-400000.0625
5.961243391036987,-7431.22021484375,-18584.439453125,-2635.530029296875,-400000.0625,-400000.0625,-400000.0625,-400000.0625,-400000.0625
6.023935794830322,-7417.919921875,-18576.4296875,-2627.85009765625,-400000.0625,-400000.0625,-400000.0625,-400000.0625,-400000.0625
6.102159023284912,-7443.85986328125,-18608.720703125,-2670.340087890625,-400000.0625,-400000.0625,-400000.0625,-400000.0625,-400000.0625
6.169607639312744,-7407.6201171875,-18587.0703125,-2647.260009765625,-400000.0625,-400000.0625,-400000.0625,-400000.0625,-400000.0625
6.228897333145142,-7414.39013671875,-18594.310546875,-2660.27001953125,-400000.0625,-400000.0625,-400000.0625,-400000.0625,-400000.0625
6.278526306152344,-7393.7900390625,-18587.779296875,-2647.780029296875,-400000.0625,-400000.0625,-400000.0625,-400000.0625,-400000.0625
6.361090898513794,-7403.7099609375,-18585.01953125,-2644.8701171875,-400000.0625,-400000.0625,-400000.0625,-400000.0625,-400000.0625
6.40338659286499,-7434.7998046875,-18611.619140625,-2681.159912109375,-400000.0625,-400000.0625,-400000.0625,-400000.0625,-400000.0625
6.488018989562988,-7426.5,-18614.869140625,-2676.6298828125,-400000.0625,-400000.0625,-400000.0625,-400000.0625,-400000.0625
6.546051263809204,-7403.0400390625,-18603.419921875,-2650.60009765625,-400000.0625,-400000.0625,-400000.0625,-400000.0625,-400000.0625
6.61316180229187,-7405.330078125,-18592.740234375,-2639.25,-400000.0625,-400000.0625,-400000.0625,-400000.0625,-400000.0625
6.673551559448242,-7429.740234375,-18611.810546875,-2662.610107421875,-400000.0625,-400000.0625,-400000.0625,-400000.0625,-400000.0625
6.726423740386963,-7451.9599609375,-18636.1796875,-2686.070068359375,-400000.0625,-400000.0625,-400000.0625,-400000.0625,-400000.0625
6.8289268016815186,-7461.41015625,-18645.240234375,-2695.080078125,-400000.0625,-400000.0625,-400000.0625,-400000.0625,-400000.0625
7.001507997512817,-7420.35009765625,-18622.44921875,-2668.760009765625,-400000.0625,-400000.0625,-400000.0625,-400000.0625,-400000.0625
7.064725875854492,-7426.740234375,-18631.080078125,-2673.239990234375,-400000.0625,-400000.0625,-400000.0625,-400000.0625,-400000.0625
7.1789634227752686,-7417.25,-18610.9609375,-2667.090087890625,-400000.0625,-400000.0625,-400000.0625,-400000.0625,-400000.0625
7.236081600189209,-7345.77001953125,-18563.609375,-2603.860107421875,-400000.0625,-400000.0625,-400000.0625,-400000.0625,-400000.0625
7.314548015594482,-7451.06005859375,-18663.0703125,-2716.489990234375,-400000.0625,-400000.0625,-400000.0625,-400000.0625,-400000.0625
7.3710737228393555,-7387.93017578125,-18708.7109375,-2743.340087890625,-400000.0625,-400000.0625,-400000.0625,-400000.0625,-400000.0625
7.429208993911743,-7132.6298828125,-18797.109375,-2872.469970703125,-400000.0625,-400000.0625,-400000.0625,-400000.0625,-400000.0625
7.620771884918213,-7155.509765625,-18794.779296875,-2871.22998046875,-400000.0625,-400000.0625,-400000.0625,-400000.0625,-400000.0625
7.715209722518921,-7181.4501953125,-18806.83984375,-2888.43994140625,-400000.0625,-400000.0625,-400000.0625,-400000.0625,-400000.0625
7.7728331089019775,-7131.39013671875,-18759.5390625,-2833.56005859375,-400000.0625,-400000.0625,-400000.0625,-400000.0625,-400000.0625
7.8832738399505615,-7121.990234375,-18760.30078125,-2832.64990234375,-400000.0625,-400000.0625,-400000.0625,-400000.0625,-400000.0625
7.945248365402222,-7165.52978515625,-18792.5390625,-2875.419921875,-400000.0625,-400000.0625,-400000.0625,-400000.0625,-400000.0625
8.012272119522095,-7182.60009765625,-18819.91015625,-2897.31005859375,-400000.0625,-400000.0625,-400000.0625,-400000.0625,-400000.0625
8.194756269454956,-7124.27978515625,-18782.240234375,-2849.010009765625,-400000.0625,-400000.0625,-400000.0625,-400000.0625,-400000.0625
8.263606548309326,-7168.39013671875,-18813.1796875,-2888.8701171875,-400000.0625,-400000.0625,-400000.0625,-400000.0625,-400000.0625
8.328804016113281,-7165.9599609375,-18819.91015625,-2892.35009765625,-400000.0625,-400000.0625,-400000.0625,-400000.0625,-400000.0625
8.398399114608765,-7179.259765625,-18838.7890625,-2907.610107421875,-400000.0625,-400000.0625,-400000.0625,-400000.0625,-400000.0625
8.463823795318604,-7131.77001953125,-18799.689453125,-2855.110107421875,-400000.0625,-400000.0625,-400000.0625,-400000.0625,-400000.0625
8.532573461532593,-7159.52001953125,-18823.91015625,-2878.0,-400000.0625,-400000.0625,-400000.0625,-400000.0625,-400000.0625
8.599522829055786,-7138.06005859375,-18801.0703125,-2857.159912109375,-400000.0625,-400000.0625,-400000.0625,-400000.0625,-400000.0625
8.652523040771484,-7173.16015625,-18834.400390625,-2896.830078125,-400000.0625,-400000.0625,-400000.0625,-400000.0625,-400000.0625
8.709753274917603,-7174.8701171875,-18842.26953125,-2911.0400390625,-400000.0625,-400000.0625,-400000.0625,-400000.0625,-400000.0625
8.779244899749756,-7122.7998046875,-18797.2109375,-2855.35009765625,-400000.0625,-400000.0625,-400000.0625,-400000.0625,-400000.0625
8.901201009750366,-7154.89013671875,-18832.01953125,-2895.639892578125,-400000.0625,-400000.0625,-400000.0625,-400000.0625,-400000.0625
8.965495586395264,-7174.58984375,-18850.279296875,-2914.239990234375,-400000.0625,-400000.0625,-400000.0625,-400000.0625,-400000.0625
9.06470274925232,-7122.14013671875,-18802.9296875,-2858.39990234375,-400000.0625,-400000.0625,-400000.0625,-400000.0625,-400000.0625
9.112431526184082,-7155.47021484375,-18821.05078125,-2884.2900390625,-400000.0625,-400000.0625,-400000.0625,-400000.0625,-400000.0625
9.169999599456787,-7129.85986328125,-18813.419921875,-2873.179931640625,-400000.0625,-400000.0625,-400000.0625,-400000.0625,-400000.0625
9.227418661117554,-7170.009765625,-18842.990234375,-2907.93994140625,-400000.0625,-400000.0625,-400000.0625,-400000.0625,-400000.0625
9.294721126556396,-7168.580078125,-18837.44921875,-2897.840087890625,-400000.0625,-400000.0625,-400000.0625,-400000.0625,-400000.0625
9.359721899032593,-7124.66015625,-18806.4609375,-2864.889892578125,-400000.0625,-400000.0625,-400000.0625,-400000.0625,-400000.0625
9.4147629737854,-7114.27001953125,-18809.609375,-2860.260009765625,-400000.0625,-400000.0625,-400000.0625,-400000.0625,-400000.0625
9.483139991760254,-7131.009765625,-18822.150390625,-2883.820068359375,-400000.0625,-400000.0625,-400000.0625,-400000.0625,-400000.0625
9.55006217956543,-7172.39013671875,-18850.140625,-2912.81005859375,-400000.0625,-400000.0625,-400000.0625,-400000.0625,-400000.0625
9.696022272109985,-7175.72998046875,-18856.150390625,-2921.300048828125,-400000.0625,-400000.0625,-400000.0625,-400000.0625,-400000.0625
9.741811513900757,-7143.77978515625,-18824.2890625,-2893.8798828125,-400000.0625,-400000.0625,-400000.0625,-400000.0625,-400000.0625
9.800824403762817,-7135.81982421875,-18829.009765625,-2888.780029296875,-400000.0625,-400000.0625,-400000.0625,-400000.0625,-400000.0625
9.927304983139038,-7179.93017578125,-18861.869140625,-2931.639892578125,-400000.0625,-400000.0625,-400000.0625,-400000.0625,-400000.0625
10.001857995986938,-7179.7900390625,-18854.0,-2933.360107421875,-400000.0625,-400000.0625,-400000.0625,-400000.0625,-400000.0625
10.060409545898438,-7167.77001953125,-18844.650390625,-2922.43994140625,-400000.0625,-400000.0625,-400000.0625,-400000.0625,-400000.0625
10.123220205307007,-7149.22021484375,-18830.970703125,-2894.639892578125,-400000.0625,-400000.0625,-400000.0625,-400000.0625,-400000.0625
10.182708024978638,-7174.77978515625,-18852.279296875,-2919.25,-400000.0625,-400000.0625,-400000.0625,-400000.0625,-400000.0625
10.24894905090332,-7172.2998046875,-18839.9296875,-2911.280029296875,-400000.0625,-400000.0625,-400000.0625,-400000.0625,-400000.0625
10.319725275039673,-7238.77001953125,-18788.91015625,-2885.77001953125,-400000.0625,-400000.0625,-400000.0625,-400000.0625,-400000.0625
10.374742269515991,-7354.68994140625,-18621.400390625,-2725.080078125,-400000.0625,-400000.0625,-400000.0625,-400000.0625,-400000.0625
10.530964851379395,-7393.60009765625,-18571.240234375,-2677.010009765625,-400000.0625,-400000.0625,-400000.0625,-400000.0625,-400000.0625
10.568559169769287,-7423.06982421875,-18605.810546875,-2707.340087890625,-400000.0625,-400000.0625,-400000.0625,-400000.0625,-400000.0625
10.629929542541504,-7404.60986328125,-18595.029296875,-2685.2099609375,-400000.0625,-400000.0625,-400000.0625,-400000.0625,-400000.0625
10.698413372039795,-7389.39990234375,-18580.439453125,-2665.22998046875,-400000.0625,-400000.0625,-400000.0625,-400000.0625,-400000.0625
10.826203346252441,-7434.419921875,-18640.08984375,-2719.830078125,-400000.0625,-400000.0625,-400000.0625,-400000.0625,-400000.0625
11.021448850631714,-7402.56005859375,-18601.609375,-2680.8701171875,-400000.0625,-400000.0625,-400000.0625,-400000.0625,-400000.0625
11.0749831199646,-7426.8798828125,-18632.4609375,-2713.489990234375,-400000.0625,-400000.0625,-400000.0625,-400000.0625,-400000.0625
11.164937496185303,-7427.5498046875,-18629.509765625,-2711.9599609375,-400000.0625,-400000.0625,-400000.0625,-400000.0625,-400000.0625
11.286176443099976,-7403.08984375,-18613.099609375,-2681.780029296875,-400000.0625,-400000.0625,-400000.0625,-400000.0625,-400000.0625
11.399676322937012,-7401.66015625,-18614.720703125,-2677.199951171875,-400000.0625,-400000.0625,-400000.0625,-400000.0625,-400000.0625
11.463376522064209,-7399.18017578125,-18613.669921875,-2678.780029296875,-400000.0625,-400000.0625,-400000.0625,-400000.0625,-400000.0625
11.602282524108887,-7395.4599609375,-18612.9609375,-2671.340087890625,-400000.0625,-400000.0625,-400000.0625,-400000.0625,-400000.0625
11.71469497680664,-7379.9599609375,-18592.650390625,-2653.64990234375,-400000.0625,-400000.0625,-400000.0625,-400000.0625,-400000.0625
11.797076940536499,-7434.93994140625,-18635.419921875,-2705.050048828125,-400000.0625,-400000.0625,-400000.0625,-400000.0625,-400000.0625
11.85626769065857,-7429.97998046875,-18633.75,-2705.719970703125,-400000.0625,-400000.0625,-400000.0625,-400000.0625,-400000.0625
11.979517459869385,-7380.81982421875,-18597.220703125,-2657.3701171875,-400000.0625,-400000.0625,-400000.0625,-400000.0625,-400000.0625
12.04825472831726,-7400.60986328125,-18610.05078125,-2671.429931640625,-400000.0625,-400000.0625,-400000.0625,-400000.0625,-400000.0625
12.171772241592407,-7422.06982421875,-18632.029296875,-2689.60009765625,-400000.0625,-400000.0625,-400000.0625,-400000.0625,-400000.0625
12.231797933578491,-7388.77978515625,-18599.0390625,-2651.550048828125,-400000.0625,-400000.0625,-400000.0625,-400000.0625,-400000.0625
12.295945882797241,-7423.5,-18637.66015625,-2691.56005859375,-400000.0625,-400000.0625,-400000.0625,-400000.0625,-400000.0625
12.423781156539917,-7423.2099609375,-18635.279296875,-2686.60009765625,-400000.0625,-400000.0625,-400000.0625,-400000.0625,-400000.0625
12.501138925552368,-7371.66015625,-18594.98046875,-2635.14990234375,-400000.0625,-400000.0625,-400000.0625,-400000.0625,-400000.0625
12.5574369430542,-7408.10009765625,-18619.970703125,-2668.7099609375,-400000.0625,-400000.0625,-400000.0625,-400000.0625,-400000.0625
12.613649368286133,-7367.1298828125,-18583.869140625,-2622.60009765625,-400000.0625,-400000.0625,-400000.0625,-400000.0625,-400000.0625
12.677018165588379,-7382.77978515625,-18595.3203125,-2638.389892578125,-400000.0625,-400000.0625,-400000.0625,-400000.0625,-400000.0625
12.76399540901184,-7412.47998046875,-18626.599609375,-2669.909912109375,-400000.0625,-400000.0625,-400000.0625,-400000.0625,-400000.0625
12.88358473777771,-7427.64990234375,-18636.3203125,-2677.72998046875,-400000.0625,-400000.0625,-400000.0625,-400000.0625,-400000.0625
12.933125972747803,-7385.10986328125,-18609.529296875,-2638.669921875,-400000.0625,-400000.0625,-400000.0625,-400000.0625,-400000.0625
13.065165042877197,-7433.509765625,-18644.4296875,-2685.260009765625,-400000.0625,-400000.0625,-400000.0625,-400000.0625,-400000.0625
13.126933574676514,-7385.77978515625,-18613.630859375,-2634.669921875,-400000.0625,-400000.0625,-400000.0625,-400000.0625,-400000.0625
13.196860313415527,-7381.490234375,-18609.5703125,-2633.050048828125,-400000.0625,-400000.0625,-400000.0625,-400000.0625,-400000.0625
13.257651805877686,-7422.5,-18644.380859375,-2669.760009765625,-400000.0625,-400000.0625,-400000.0625,-400000.0625,-400000.0625
13.402348041534424,-7401.93994140625,-18629.890625,-2657.510009765625,-400000.0625,-400000.0625,-400000.0625,-400000.0625,-400000.0625
13.465521097183228,-7425.60009765625,-18655.919921875,-2686.7900390625,-400000.0625,-400000.0625,-400000.0625,-400000.0625,-400000.0625
13.532438516616821,-7388.4501953125,-18616.490234375,-2632.7099609375,-400000.0625,-400000.0625,-400000.0625,-400000.0625,-400000.0625
13.57926893234253,-7408.9501953125,-18622.880859375,-2628.610107421875,-400000.0625,-400000.0625,-400000.0625,-400000.0625,-400000.0625
13.640080690383911,-7638.5,-18379.259765625,-2381.89990234375,-400000.0625,-400000.0625,-400000.0625,-400000.0625,-400000.0625
13.70601773262024,-7657.14990234375,-18398.810546875,-2401.969970703125,-400000.0625,-400000.0625,-400000.0625,-400000.0625,-400000.0625
13.86557149887085,-7634.830078125,-18384.4609375,-2384.7099609375,-400000.0625,-400000.0625,-400000.0625,-400000.0625,-400000.0625
13.964953899383545,-7593.25,-18352.369140625,-2336.929931640625,-400000.0625,-400000.0625,-400000.0625,-400000.0625,-400000.0625
14.02212119102478,-7654.85986328125,-18411.259765625,-2402.02001953125,-400000.0625,-400000.0625,-400000.0625,-400000.0625,-400000.0625
14.08877944946289,-7633.259765625,-18387.1796875,-2380.56005859375,-400000.0625,-400000.0625,-400000.0625,-400000.0625,-400000.0625
14.168550729751587,-7630.68017578125,-18397.380859375,-2385.469970703125,-400000.0625,-400000.0625,-400000.0625,-400000.0625,-400000.0625
14.288911819458008,-7604.64990234375,-18374.060546875,-2352.429931640625,-400000.0625,-400000.0625,-400000.0625,-400000.0625,-400000.0625
14.348636865615845,-7624.2001953125,-18400.619140625,-2377.320068359375,-400000.0625,-400000.0625,-400000.0625,-400000.0625,-400000.0625
14.472779273986816,-7600.68994140625,-18374.2109375,-2345.56005859375,-400000.0625,-400000.0625,-400000.0625,-400000.0625,-400000.0625
14.533370733261108,-7621.240234375,-18400.240234375,-2380.1298828125,-400000.0625,-400000.0625,-400000.0625,-400000.0625,-400000.0625
14.597304821014404,-7620.18994140625,-18404.869140625,-2387.47998046875,-400000.0625,-400000.0625,-400000.0625,-400000.0625,-400000.0625
14.662609577178955,-7616.08984375,-18400.0,-2384.6201171875,-400000.0625,-400000.0625,-400000.0625,-400000.0625,-400000.0625
14.804981470108032,-7589.14990234375,-18389.3203125,-2363.8701171875,-400000.0625,-400000.0625,-400000.0625,-400000.0625,-400000.0625
14.856237649917603,-7583.81005859375,-18381.310546875,-2351.949951171875,-400000.0625,-400000.0625,-400000.0625,-400000.0625,-400000.0625
14.983827352523804,-7636.1201171875,-18425.509765625,-2402.35009765625,-400000.0625,-400000.0625,-400000.0625,-400000.0625,-400000.0625
15.044224977493286,-7636.830078125,-18415.01953125,-2399.5400390625,-400000.0625,-400000.0625,-400000.0625,-400000.0625,-400000.0625
15.131832361221313,-7590.009765625,-18378.01953125,-2348.800048828125,-400000.0625,-400000.0625,-400000.0625,-400000.0625,-400000.0625
15.181035995483398,-7597.39990234375,-18388.849609375,-2354.18994140625,-400000.0625,-400000.0625,-400000.0625,-400000.0625,-400000.0625
15.325443983078003,-7629.35009765625,-18429.0390625,-2408.360107421875,-400000.0625,-400000.0625,-400000.0625,-400000.0625,-400000.0625
15.366161584854126,-7625.06005859375,-18421.939453125,-2395.25,-400000.0625,-400000.0625,-400000.0625,-400000.0625,-400000.0625
15.437317132949829,-7584.91015625,-18385.75,-2357.860107421875,-400000.0625,-400000.0625,-400000.0625,-400000.0625,-400000.0625
15.640199184417725,-7592.009765625,-18391.80078125,-2364.06005859375,-400000.0625,-400000.0625,-400000.0625,-400000.0625,-400000.0625
15.684425830841064,-7631.35009765625,-18432.08984375,-2405.449951171875,-400000.0625,-400000.0625,-400000.0625,-400000.0625,-400000.0625
15.755025863647461,-7583.47998046875,-18391.23046875,-2365.449951171875,-400000.0625,-400000.0625,-400000.0625,-400000.0625,-400000.0625
15.8169686794281,-7568.93017578125,-18377.119140625,-2350.570068359375,-400000.0625,-400000.0625,-400000.0625,-400000.0625,-400000.0625
15.876368522644043,-7611.89990234375,-18415.7890625,-2389.719970703125,-400000.0625,-400000.0625,-400000.0625,-400000.0625,-400000.0625
15.952037334442139,-7627.919921875,-18424.890625,-2403.31005859375,-400000.0625,-400000.0625,-400000.0625,-400000.0625,-400000.0625
16.00243353843689,-7631.830078125,-18425.849609375,-2408.5,-400000.0625,-400000.0625,-400000.0625,-400000.0625,-400000.0625
16.13747787475586,-7605.02978515625,-18417.689453125,-2389.10009765625,-400000.0625,-400000.0625,-400000.0625,-400000.0625,-400000.0625
16.259746551513672,-7570.35986328125,-18387.509765625,-2355.860107421875,-400000.0625,-400000.0625,-400000.0625,-400000.0625,-400000.0625
16.327033758163452,-7626.14990234375,-18433.140625,-2408.7900390625,-400000.0625,-400000.0625,-400000.0625,-400000.0625,-400000.0625
16.515063762664795,-7551.77001953125,-18436.05078125,-2400.72998046875,-400000.0625,-400000.0625,-400000.0625,-400000.0625,-400000.0625
16.613524913787842,-7374.9599609375,-18593.55078125,-2652.260009765625,-400000.0625,-400000.0625,-400000.0625,-400000.0625,-400000.0625
16.66422200202942,-7337.85986328125,-18565.23046875,-2609.6298828125,-400000.0625,-400000.0625,-400000.0625,-400000.0625,-400000.0625
16.797465085983276,-7339.669921875,-18569.189453125,-2596.89990234375,-400000.0625,-400000.0625,-400000.0625,-400000.0625,-400000.0625
16.86620283126831,-7364.7998046875,-18605.470703125,-2633.669921875,-400000.0625,-400000.0625,-400000.0625,-400000.0625,-400000.0625
16.90345549583435,-7359.41015625,-18613.05078125,-2635.429931640625,-400000.0625,-400000.0625,-400000.0625,-400000.0625,-400000.0625
16.968888521194458,-7345.77001953125,-18607.189453125,-2624.699951171875,-400000.0625,-400000.0625,-400000.0625,-400000.0625,-400000.0625
17.047763347625732,-7318.1201171875,-18584.439453125,-2592.0400390625,-400000.0625,-400000.0625,-400000.0625,-400000.0625,-400000.0625
17.096463203430176,-7325.83984375,-18583.73046875,-2585.030029296875,-400000.0625,-400000.0625,-400000.0625,-400000.0625,-400000.0625
17.158674001693726,-7342.2001953125,-18591.83984375,-2592.469970703125,-400000.0625,-400000.0625,-400000.0625,-400000.0625,-400000.0625
17.222110271453857,-7372.89990234375,-18619.830078125,-2626.0400390625,-400000.0625,-400000.0625,-400000.0625,-400000.0625,-400000.0625
17.295275926589966,-7379.91015625,-18629.599609375,-2635.6201171875,-400000.0625,-400000.0625,-400000.0625,-400000.0625,-400000.0625
17.38009786605835,-7341.669921875,-18586.44921875,-2582.030029296875,-400000.0625,-400000.0625,-400000.0625,-400000.0625,-400000.0625
17.414096117019653,-7344.77001953125,-18589.9296875,-2583.60009765625,-400000.0625,-400000.0625,-400000.0625,-400000.0625,-400000.0625
17.481986045837402,-7371.9501953125,-18620.490234375,-2623.419921875,-400000.0625,-400000.0625,-400000.0625,-400000.0625,-400000.0625
17.562633991241455,-7382.68017578125,-18630.3203125,-2627.330078125,-400000.0625,-400000.0625,-400000.0625,-400000.0625,-400000.0625
17.60482883453369,-7382.39013671875,-18633.890625,-2635.77001953125,-400000.0625,-400000.0625,-400000.0625,-400000.0625,-400000.0625
17.667106866836548,-7326.93994140625,-18589.640625,-2575.590087890625,-400000.0625,-400000.0625,-400000.0625,-400000.0625,-400000.0625
17.802189350128174,-7343.47998046875,-18591.259765625,-2580.39990234375,-400000.0625,-400000.0625,-400000.0625,-400000.0625,-400000.0625
17.86737561225891,-7344.490234375,-18591.7890625,-2578.31005859375,-400000.0625,-400000.0625,-400000.0625,-400000.0625,-400000.0625
17.925002336502075,-7371.0,-18617.580078125,-2615.169921875,-400000.0625,-400000.0625,-400000.0625,-400000.0625,-400000.0625
18.016080617904663,-7346.68017578125,-18597.650390625,-2587.889892578125,-400000.0625,-400000.0625,-400000.0625,-400000.0625,-400000.0625
18.050818920135498,-7329.89013671875,-18593.599609375,-2577.969970703125,-400000.0625,-400000.0625,-400000.0625,-400000.0625,-400000.0625
18.11515212059021,-7361.3701171875,-18599.1796875,-2591.090087890625,-400000.0625,-400000.0625,-400000.0625,-400000.0625,-400000.0625
18.200855255126953,-7320.830078125,-18576.859375,-2553.989990234375,-400000.0625,-400000.0625,-400000.0625,-400000.0625,-400000.0625
18.263296604156494,-7341.2001953125,-18586.490234375,-2571.06005859375,-400000.0625,-400000.0625,-400000.0625,-400000.0625,-400000.0625
18.31553888320923,-7343.10009765625,-18590.400390625,-2568.10009765625,-400000.0625,-400000.0625,-400000.0625,-400000.0625,-400000.0625
18.373299598693848,-7356.02001953125,-18612.240234375,-2596.090087890625,-400000.0625,-400000.0625,-400000.0625,-400000.0625,-400000.0625
18.50670599937439,-7366.66015625,-18603.0390625,-2589.179931640625,-400000.0625,-400000.0625,-400000.0625,-400000.0625,-400000.0625
18.595125436782837,-7345.009765625,-18583.8203125,-2558.989990234375,-400000.0625,-400000.0625,-400000.0625,-400000.0625,-400000.0625
18.650481700897217,-7345.009765625,-18584.349609375,-2562.47998046875,-400000.0625,-400000.0625,-400000.0625,-400000.0625,-400000.0625
18.71678137779236,-7323.7001953125,-18583.109375,-2552.219970703125,-400000.0625,-400000.0625,-400000.0625,-400000.0625,-400000.0625
18.755948543548584,-7369.08984375,-18617.8203125,-2596.239990234375,-400000.0625,-400000.0625,-400000.0625,-400000.0625,-400000.0625
18.825315237045288,-7363.18017578125,-18601.560546875,-2583.68994140625,-400000.0625,-400000.0625,-400000.0625,-400000.0625,-400000.0625
18.903650283813477,-7369.85009765625,-18612.76953125,-2586.7900390625,-400000.0625,-400000.0625,-400000.0625,-400000.0625,-400000.0625
18.96976065635681,-7336.9501953125,-18579.099609375,-2556.89990234375,-400000.0625,-400000.0625,-400000.0625,-400000.0625,-400000.0625
19.01901340484619,-7334.0400390625,-18576.240234375,-2545.2099609375,-400000.0625,-400000.0625,-400000.0625,-400000.0625,-400000.0625
19.083457469940186,-7327.93994140625,-18583.109375,-2547.68994140625,-400000.0625,-400000.0625,-400000.0625,-400000.0625,-400000.0625
19.16650915145874,-7331.27978515625,-18576.099609375,-2541.639892578125,-400000.0625,-400000.0625,-400000.0625,-400000.0625,-400000.0625
19.221025228500366,-7385.490234375,-18616.73046875,-2594.89990234375,-400000.0625,-400000.0625,-400000.0625,-400000.0625,-400000.0625
19.275144338607788,-7335.0400390625,-18579.6796875,-2544.97998046875,-400000.0625,-400000.0625,-400000.0625,-400000.0625,-400000.0625
19.343517780303955,-7353.68994140625,-18597.650390625,-2570.10009765625,-400000.0625,-400000.0625,-400000.0625,-400000.0625,-400000.0625
19.400434255599976,-7385.5400390625,-18622.01953125,-2600.2900390625,-400000.0625,-400000.0625,-400000.0625,-400000.0625,-400000.0625
19.46539616584778,-7397.990234375,-18655.640625,-2609.969970703125,-400000.0625,-400000.0625,-400000.0625,-400000.0625,-400000.0625
19.537408351898193,-7449.68017578125,-18821.05078125,-2656.64990234375,-400000.0625,-400000.0625,-400000.0625,-400000.0625,-400000.0625
19.748497247695923,-7418.919921875,-18736.3203125,-2616.60009765625,-400000.0625,-400000.0625,-400000.0625,-400000.0625,-400000.0625
19.86104726791382,-7446.33984375,-18758.390625,-2644.679931640625,-400000.0625,-400000.0625,-400000.0625,-400000.0625,-400000.0625
19.952231884002686,-7418.72998046875,-18736.3203125,-2615.260009765625,-400000.0625,-400000.0625,-400000.0625,-400000.0625,-400000.0625
19.97141146659851,-7427.06982421875,-18743.7109375,-2627.52001953125,-400000.0625,-400000.0625,-400000.0625,-400000.0625,-400000.0625
20.047643423080444,-7412.33984375,-18736.75,-2608.43994140625,-400000.0625,-400000.0625,-400000.0625,-400000.0625,-400000.0625
20.164806365966797,-7458.31005859375,-18792.349609375,-2660.419921875,-400000.0625,-400000.0625,-400000.0625,-400000.0625,-400000.0625
20.250696182250977,-7425.1201171875,-18766.259765625,-2632.18994140625,-400000.0625,-400000.0625,-400000.0625,-400000.0625,-400000.0625
20.30075168609619,-7417.25,-18752.529296875,-2619.510009765625,-400000.0625,-400000.0625,-400000.0625,-400000.0625,-400000.0625
20.354506969451904,-7436.3701171875,-18766.0703125,-2636.9599609375,-400000.0625,-400000.0625,-400000.0625,-400000.0625,-400000.0625
20.429392099380493,-7466.97998046875,-18797.01953125,-2665.280029296875,-400000.0625,-400000.0625,-400000.0625,-400000.0625,-400000.0625
20.503654718399048,-7470.22998046875,-18805.650390625,-2671.429931640625,-400000.0625,-400000.0625,-400000.0625,-400000.0625,-400000.0625
20.582192182540894,-7471.60986328125,-18805.599609375,-2674.719970703125,-400000.0625,-400000.0625,-400000.0625,-400000.0625,-400000.0625
20.619786024093628,-7450.14990234375,-18786.05078125,-2643.389892578125,-400000.0625,-400000.0625,-400000.0625,-400000.0625,-400000.0625
20.677221059799194,-7452.35009765625,-18788.439453125,-2650.830078125,-400000.0625,-400000.0625,-400000.0625,-400000.0625,-400000.0625
20.814934492111206,-7478.18994140625,-18814.849609375,-2670.2900390625,-400000.0625,-400000.0625,-400000.0625,-400000.0625,-400000.0625
20.872835159301758,-7438.22998046875,-18792.580078125,-2636.860107421875,-400000.0625,-400000.0625,-400000.0625,-400000.0625,-400000.0625
20.94607710838318,-7429.93017578125,-18786.580078125,-2628.280029296875,-400000.0625,-400000.0625,-400000.0625,-400000.0625,-400000.0625
21.00265073776245,-7483.009765625,-18829.6796875,-2683.260009765625,-400000.0625,-400000.0625,-400000.0625,-400000.0625,-400000.0625
21.06383466720581,-7487.6298828125,-18835.0703125,-2682.969970703125,-400000.0625,-400000.0625,-400000.0625,-400000.0625,-400000.0625
21.190475463867188,-7436.47021484375,-18791.76953125,-2633.0,-400000.0625,-400000.0625,-400000.0625,-400000.0625,-400000.0625
21.26703929901123,-7456.77978515625,-18810.080078125,-2648.31005859375,-400000.0625,-400000.0625,-400000.0625,-400000.0625,-400000.0625
21.32045602798462,-7430.31982421875,-18798.16015625,-2627.89990234375,-400000.0625,-400000.0625,-400000.0625,-400000.0625,-400000.0625
21.397166967391968,-7426.31005859375,-18783.48046875,-2622.699951171875,-400000.0625,-400000.0625,-400000.0625,-400000.0625,-400000.0625
21.45639729499817,-7454.25,-18806.560546875,-2644.010009765625,-400000.0625,-400000.0625,-400000.0625,-400000.0625,-400000.0625
21.575785636901855,-7428.64990234375,-18787.05078125,-2618.97998046875,-400000.0625,-400000.0625,-400000.0625,-400000.0625,-400000.0625
21.64069652557373,-7476.14013671875,-18824.2890625,-2657.4599609375,-400000.0625,-400000.0625,-400000.0625,-400000.0625,-400000.0625
21.714744091033936,-7414.52978515625,-18792.349609375,-2609.919921875,-400000.0625,-400000.0625,-400000.0625,-400000.0625,-400000.0625
21.77138352394104,-7458.2099609375,-18818.0,-2649.550048828125,-400000.0625,-400000.0625,-400000.0625,-400000.0625,-400000.0625
21.85056471824646,-7423.93017578125,-18791.869140625,-2610.639892578125,-400000.0625,-400000.0625,-400000.0625,-400000.0625,-400000.0625
21.974462270736694,-7478.52001953125,-18843.509765625,-2668.949951171875,-400000.0625,-400000.0625,-400000.0625,-400000.0625,-400000.0625
22.115054607391357,-7428.89013671875,-18802.599609375,-2620.080078125,-400000.0625,-400000.0625,-400000.0625,-400000.0625,-400000.0625
22.17220664024353,-7436.7099609375,-18800.880859375,-2621.27001953125,-400000.0625,-400000.0625,-400000.0625,-400000.0625,-400000.0625
22.28127121925354,-7466.41015625,-18837.029296875,-2661.419921875,-400000.0625,-400000.0625,-400000.0625,-400000.0625,-400000.0625
22.40669536590576,-7437.18017578125,-18819.669921875,-2634.909912109375,-400000.0625,-400000.0625,-400000.0625,-400000.0625,-400000.0625
22.490024089813232,-7455.64013671875,-18828.349609375,-2659.610107421875,-400000.0625,-400000.0625,-400000.0625,-400000.0625,-400000.0625
22.550809144973755,-7385.830078125,-18568.08984375,-2606.580078125,-400000.0625,-400000.0625,-400000.0625,-400000.0625,-400000.0625
22.605632543563843,-7391.83984375,-18590.98046875,-2612.5400390625,-400000.0625,-400000.0625,-400000.0625,-400000.0625,-400000.0625
22.68047785758972,-7348.2001953125,-18577.05078125,-2564.2900390625,-400000.0625,-400000.0625,-400000.0625,-400000.0625,-400000.0625
22.731467247009277,-7401.27978515625,-18611.240234375,-2599.669921875,-400000.0625,-400000.0625,-400000.0625,-400000.0625,-400000.0625
22.805428981781006,-7387.4501953125,-18599.3203125,-2592.85009765625,-400000.0625,-400000.0625,-400000.0625,-400000.0625,-400000.0625
22.853912830352783,-7411.10009765625,-18627.5,-2624.510009765625,-400000.0625,-400000.0625,-400000.0625,-400000.0625,-400000.0625
22.918323516845703,-7410.669921875,-18635.1796875,-2617.31005859375,-400000.0625,-400000.0625,-400000.0625,-400000.0625,-400000.0625
22.995996475219727,-7387.2099609375,-18624.98046875,-2606.72998046875,-400000.0625,-400000.0625,-400000.0625,-400000.0625,-400000.0625
23.044875621795654,-7361.3701171875,-18602.470703125,-2575.2099609375,-400000.0625,-400000.0625,-400000.0625,-400000.0625,-400000.0625
23.134137868881226,-7363.89013671875,-18611.48046875,-2584.739990234375,-400000.0625,-400000.0625,-400000.0625,-400000.0625,-400000.0625
23.181392431259155,-7357.31005859375,-18604.140625,-2583.360107421875,-400000.0625,-400000.0625,-400000.0625,-400000.0625,-400000.0625
23.311920881271362,-7379.81982421875,-18616.390625,-2605.010009765625,-400000.0625,-400000.0625,-400000.0625,-400000.0625,-400000.0625
23.36703109741211,-7368.89990234375,-18617.390625,-2609.300048828125,-400000.0625,-400000.0625,-400000.0625,-400000.0625,-400000.0625
23.438194751739502,-7373.18994140625,-18624.119140625,-2603.719970703125,-400000.0625,-400000.0625,-400000.0625,-400000.0625,-400000.0625
23.55697250366211,-7399.66015625,-18642.94921875,-2631.7099609375,-400000.0625,-400000.0625,-400000.0625,-400000.0625,-400000.0625
23.61850595474243,-7360.5498046875,-18620.2109375,-2599.949951171875,-400000.0625,-400000.0625,-400000.0625,-400000.0625,-400000.0625
23.71586275100708,-7373.6201171875,-18629.740234375,-2617.449951171875,-400000.0625,-400000.0625,-400000.0625,-400000.0625,-400000.0625
23.77731227874756,-7333.3701171875,-18612.669921875,-2584.31005859375,-400000.0625,-400000.0625,-400000.0625,-400000.0625,-400000.0625
23.819576740264893,-7330.85009765625,-18595.939453125,-2574.489990234375,-400000.0625,-400000.0625,-400000.0625,-400000.0625,-400000.0625
23.882761240005493,-7373.0498046875,-18625.55078125,-2615.60009765625,-400000.0625,-400000.0625,-400000.0625,-400000.0625,-400000.0625
23.95074200630188,-7327.83984375,-18598.83984375,-2578.929931640625,-400000.0625,-400000.0625,-400000.0625,-400000.0625,-400000.0625
24.01379156112671,-7346.919921875,-18617.8203125,-2593.7099609375,-400000.0625,-400000.0625,-400000.0625,-400000.0625,-400000.0625
24.079952478408813,-7329.89013671875,-18601.0390625,-2571.820068359375,-400000.0625,-400000.0625,-400000.0625,-400000.0625,-400000.0625
24.17716360092163,-7352.68994140625,-18625.359375,-2594.3798828125,-400000.0625,-400000.0625,-400000.0625,-400000.0625,-400000.0625
24.201601028442383,-7343.009765625,-18624.119140625,-2593.179931640625,-400000.0625,-400000.0625,-400000.0625,-400000.0625,-400000.0625
24.259915113449097,-7371.0,-18654.060546875,-2624.419921875,-400000.0625,-400000.0625,-400000.0625,-400000.0625,-400000.0625
24.332489490509033,-7326.83984375,-18602.23046875,-2568.8701171875,-400000.0625,-400000.0625,-400000.0625,-400000.0625,-400000.0625
24.40464997291565,-7348.25,-18625.830078125,-2590.989990234375,-400000.0625,-400000.0625,-400000.0625,-400000.0625,-400000.0625
24.463218688964844,-7330.89990234375,-18599.4609375,-2562.7099609375,-400000.0625,-400000.0625,-400000.0625,-400000.0625,-400000.0625
24.51925277709961,-7372.56982421875,-18643.91015625,-2616.360107421875,-400000.0625,-400000.0625,-400000.0625,-400000.0625,-400000.0625
24.579810619354248,-7352.10986328125,-18634.419921875,-2591.93994140625,-400000.0625,-400000.0625,-400000.0625,-400000.0625,-400000.0625
24.70841646194458,-7383.43994140625,-18639.189453125,-2618.409912109375,-400000.0625,-400000.0625,-400000.0625,-400000.0625,-400000.0625
24.783220291137695,-7388.5400390625,-18644.5703125,-2617.360107421875,-400000.0625,-400000.0625,-400000.0625,-400000.0625,-400000.0625
24.847030878067017,-7380.9599609375,-18648.91015625,-2618.409912109375,-400000.0625,-400000.0625,-400000.0625,-400000.0625,-400000.0625
24.917139291763306,-7348.8701171875,-18614.8203125,-2576.5400390625,-400000.0625,-400000.0625,-400000.0625,-400000.0625,-400000.0625
24.96740698814392,-7336.43017578125,-18603.609375,-2566.860107421875,-400000.0625,-400000.0625,-400000.0625,-400000.0625,-400000.0625
25.034570693969727,-7389.93017578125,-18648.91015625,-2618.97998046875,-400000.0625,-400000.0625,-400000.0625,-400000.0625,-400000.0625
25.092652797698975,-7362.22021484375,-18622.970703125,-2588.179931640625,-400000.0625,-400000.0625,-400000.0625,-400000.0625,-400000.0625
25.158725023269653,-7381.5400390625,-18651.33984375,-2625.85009765625,-400000.0625,-400000.0625,-400000.0625,-400000.0625,-400000.0625
25.30111336708069,-7357.22021484375,-18624.119140625,-2595.89990234375,-400000.0625,-400000.0625,-400000.0625,-400000.0625,-400000.0625
25.364341497421265,-7365.66015625,-18636.08984375,-2609.8701171875,-400000.0625,-400000.0625,-400000.0625,-400000.0625,-400000.0625
25.416020154953003,-7366.60986328125,-18634.419921875,-2606.110107421875,-400000.0625,-400000.0625,-400000.0625,-400000.0625,-400000.0625
25.477323532104492,-7308.91015625,-18504.240234375,-2572.35009765625,-400000.0625,-400000.0625,-400000.0625,-400000.0625,-400000.0625
25.553815841674805,-7317.830078125,-18441.630859375,-2581.60009765625,-400000.0625,-400000.0625,-400000.0625,-400000.0625,-400000.0625
25.630858659744263,-7317.02001953125,-18461.990234375,-2580.739990234375,-400000.0625,-400000.0625,-400000.0625,-400000.0625,-400000.0625
25.686533212661743,-7317.68994140625,-18476.439453125,-2592.610107421875,-400000.0625,-400000.0625,-400000.0625,-400000.0625,-400000.0625
25.744797229766846,-7294.93994140625,-18467.0,-2567.14990234375,-400000.0625,-400000.0625,-400000.0625,-400000.0625,-400000.0625
25.809988975524902,-7346.10986328125,-18513.30078125,-2584.7900390625,-400000.0625,-400000.0625,-400000.0625,-400000.0625,-400000.0625
25.863383293151855,-7299.3798828125,-18479.349609375,-2537.43994140625,-400000.0625,-400000.0625,-400000.0625,-400000.0625,-400000.0625
25.931145429611206,-7304.47998046875,-18476.109375,-2545.31005859375,-400000.0625,-400000.0625,-400000.0625,-400000.0625,-400000.0625
26.00319790840149,-7313.009765625,-18484.169921875,-2553.030029296875,-400000.0625,-400000.0625,-400000.0625,-400000.0625,-400000.0625
26.072027444839478,-7350.64013671875,-18509.33984375,-2592.1298828125,-400000.0625,-400000.0625,-400000.0625,-400000.0625,-400000.0625
26.117100954055786,-7341.2001953125,-18510.150390625,-2595.0400390625,-400000.0625,-400000.0625,-400000.0625,-400000.0625,-400000.0625
26.24969244003296,-7341.669921875,-18500.0390625,-2590.989990234375,-400000.0625,-400000.0625,-400000.0625,-400000.0625,-400000.0625
26.347043752670288,-7325.41015625,-18489.029296875,-2570.919921875,-400000.0625,-400000.0625,-400000.0625,-400000.0625,-400000.0625
26.380209922790527,-7304.18994140625,-18477.25,-2555.93994140625,-400000.0625,-400000.0625,-400000.0625,-400000.0625,-400000.0625
26.438170433044434,-7346.5400390625,-18509.9609375,-2601.669921875,-400000.0625,-400000.0625,-400000.0625,-400000.0625,-400000.0625
26.49964666366577,-7307.2900390625,-18483.970703125,-2567.820068359375,-400000.0625,-400000.0625,-400000.0625,-400000.0625,-400000.0625
26.565075159072876,-7339.759765625,-18513.25,-2601.050048828125,-400000.0625,-400000.0625,-400000.0625,-400000.0625,-400000.0625
26.664534091949463,-7346.33984375,-18521.359375,-2611.110107421875,-400000.0625,-400000.0625,-400000.0625,-400000.0625,-400000.0625
26.763450622558594,-7351.919921875,-18521.740234375,-2611.72998046875,-400000.0625,-400000.0625,-400000.0625,-400000.0625,-400000.0625
26.82325053215027,-7318.1201171875,-18501.900390625,-2581.550048828125,-400000.0625,-400000.0625,-400000.0625,-400000.0625,-400000.0625
27.029362678527832,-7313.25,-18489.98046875,-2583.4599609375,-400000.0625,-400000.0625,-400000.0625,-400000.0625,-400000.0625
27.08246088027954,-7326.509765625,-18498.140625,-2593.179931640625,-400000.0625,-400000.0625,-400000.0625,-400000.0625,-400000.0625
27.207613468170166,-7278.6298828125,-18476.76953125,-2559.659912109375,-400000.0625,-400000.0625,-400000.0625,-400000.0625,-400000.0625
27.27633762359619,-7306.77001953125,-18486.55078125,-2579.739990234375,-400000.0625,-400000.0625,-400000.0625,-400000.0625,-400000.0625
27.352131843566895,-7312.5400390625,-18481.970703125,-2577.72998046875,-400000.0625,-400000.0625,-400000.0625,-400000.0625,-400000.0625
27.400959730148315,-7313.81982421875,-18486.5,-2589.989990234375,-400000.0625,-400000.0625,-400000.0625,-400000.0625,-400000.0625
27.467890739440918,-7279.43994140625,-18460.1796875,-2551.75,-400000.0625,-400000.0625,-400000.0625,-400000.0625,-400000.0625
27.527257919311523,-7280.58984375,-18455.130859375,-2551.4599609375,-400000.0625,-400000.0625,-400000.0625,-400000.0625,-400000.0625
27.62241005897522,-7274.33984375,-18467.810546875,-2559.280029296875,-400000.0625,-400000.0625,-400000.0625,-400000.0625,-400000.0625
27.730088710784912,-7328.75,-18510.390625,-2613.1201171875,-400000.0625,-400000.0625,-400000.0625,-400000.0625,-400000.0625
27.808294773101807,-7284.93017578125,-18466.05078125,-2555.179931640625,-400000.0625,-400000.0625,-400000.0625,-400000.0625,-400000.0625
27.87000060081482,-7280.2099609375,-18467.859375,-2558.22998046875,-400000.0625,-400000.0625,-400000.0625,-400000.0625,-400000.0625
27.973464488983154,-7310.490234375,-18493.26953125,-2583.070068359375,-400000.0625,-400000.0625,-400000.0625,-400000.0625,-400000.0625
28.064130544662476,-7280.4501953125,-18458.80078125,-2546.97998046875,-400000.0625,-400000.0625,-400000.0625,-400000.0625,-400000.0625
28.127452850341797,-7313.77978515625,-18488.359375,-2580.449951171875,-400000.0625,-400000.0625,-400000.0625,-400000.0625,-400000.0625
28.170063018798828,-7284.93017578125,-18465.849609375,-2551.840087890625,-400000.0625,-400000.0625,-400000.0625,-400000.0625,-400000.0625
28.237510681152344,-7280.490234375,-18462.7109375,-2552.080078125,-400000.0625,-400000.0625,-400000.0625,-400000.0625,-400000.0625
28.252302169799805,-7309.14990234375,-18482.400390625,-2574.72998046875,-400000.0625,-400000.0625,-400000.0625,-400000.0625,-400000.0625
28.264676332473755,-7326.22021484375,-18499.810546875,-2596.659912109375,-400000.0625,-400000.0625,-400000.0625,-400000.0625,-400000.0625
28.27655553817749,-7308.47998046875,-18489.98046875,-2581.1201171875,-400000.0625,-400000.0625,-400000.0625,-400000.0625,-400000.0625
28.28875184059143,-7283.02001953125,-18466.05078125,-2550.550048828125,-400000.0625,-400000.0625,-400000.0625,-400000.0625,-400000.0625
28.296836614608765,-7279.2998046875,-18464.140625,-2551.080078125,-400000.0625,-400000.0625,-400000.0625,-400000.0625,-400000.0625
28.307559728622437,-7310.490234375,-18488.69921875,-2584.360107421875,-400000.0625,-400000.0625,-400000.0625,-400000.0625,-400000.0625
28.31475281715393,-7334.14013671875,-18511.6796875,-2607.780029296875,-400000.0625,-400000.0625,-400000.0625,-400000.0625,-400000.0625
28.321386098861694,-7318.06982421875,-18496.130859375,-2585.93994140625,-400000.0625,-400000.0625,-400000.0625,-400000.0625,-400000.0625
28.337737321853638,-7281.58984375,-18468.720703125,-2551.409912109375,-400000.0625,-400000.0625,-400000.0625,-400000.0625,-400000.0625
28.351904153823853,-7280.58984375,-18470.05078125,-2553.800048828125,-400000.0625,-400000.0625,-400000.0625,-400000.0625,-400000.0625
28.362760543823242,-7310.919921875,-18500.66015625,-2587.030029296875,-400000.0625,-400000.0625,-400000.0625,-400000.0625,-400000.0625
28.371981620788574,-7327.080078125,-18509.25,-2602.10009765625,-400000.0625,-400000.0625,-400000.0625,-400000.0625,-400000.0625
28.383735179901123,-7311.39013671875,-18481.30078125,-2577.39990234375,-400000.0625,-400000.0625,-400000.0625,-400000.0625,-400000.0625
28.39531111717224,-7282.2099609375,-18461.419921875,-2556.280029296875,-400000.0625,-400000.0625,-400000.0625,-400000.0625,-400000.0625
28.405768871307373,-7282.06982421875,-18465.240234375,-2553.219970703125,-400000.0625,-400000.0625,-400000.0625,-400000.0625,-400000.0625
28.41492986679077,-7312.39013671875,-18485.41015625,-2581.070068359375,-400000.0625,-400000.0625,-400000.0625,-400000.0625,-400000.0625
28.432175636291504,-7328.4599609375,-18501.140625,-2601.429931640625,-400000.0625,-400000.0625,-400000.0625,-400000.0625,-400000.0625
28.442553520202637,-7310.72998046875,-18488.740234375,-2584.31005859375,-400000.0625,-400000.0625,-400000.0625,-400000.0625,-400000.0625
28.450435161590576,-7277.72998046875,-18461.849609375,-2556.0400390625,-400000.0625,-400000.0625,-400000.0625,-400000.0625,-400000.0625
28.45604944229126,-7281.5,-18464.140625,-2554.659912109375,-400000.0625,-400000.0625,-400000.0625,-400000.0625,-400000.0625
28.463427543640137,-7315.830078125,-18492.69921875,-2584.080078125,-400000.0625,-400000.0625,-400000.0625,-400000.0625,-400000.0625
28.474056005477905,-7330.89990234375,-18500.51953125,-2602.239990234375,-400000.0625,-400000.0625,-400000.0625,-400000.0625,-400000.0625
28.487003326416016,-7311.68017578125,-18483.259765625,-2581.070068359375,-400000.0625,-400000.0625,-400000.0625,-400000.0625,-400000.0625
28.4984233379364,-7280.2998046875,-18459.369140625,-2548.889892578125,-400000.0625,-400000.0625,-400000.0625,-400000.0625,-400000.0625
28.511282444000244,-7280.68017578125,-18452.029296875,-2545.7900390625,-400000.0625,-400000.0625,-400000.0625,-400000.0625,-400000.0625
28.525160551071167,-7316.16015625,-18478.349609375,-2577.780029296875,-400000.0625,-400000.0625,-400000.0625,-400000.0625,-400000.0625
28.544053077697754,-7335.9501953125,-18501.5703125,-2598.52001953125,-400000.0625,-400000.0625,-400000.0625,-400000.0625,-400000.0625
28.558029651641846,-7313.58984375,-18483.830078125,-2578.1201171875,-400000.0625,-400000.0625,-400000.0625,-400000.0625,-400000.0625
28.569411516189575,-7279.8701171875,-18452.83984375,-2546.929931640625,-400000.0625,-400000.0625,-400000.0625,-400000.0625,-400000.0625
28.581231355667114,-7281.2099609375,-18456.509765625,-2546.8798828125,-400000.0625,-400000.0625,-400000.0625,-400000.0625,-400000.0625
28.591384649276733,-7315.72998046875,-18487.220703125,-2580.360107421875,-400000.0625,-400000.0625,-400000.0625,-400000.0625,-400000.0625
28.59970784187317,-7336.3798828125,-18503.2890625,-2600.6201171875,-400000.0625,-400000.0625,-400000.0625,-400000.0625,-400000.0625
28.61087965965271,-7314.490234375,-18485.169921875,-2576.780029296875,-400000.0625,-400000.0625,-400000.0625,-400000.0625,-400000.0625
28.619502782821655,-7278.97021484375,-18456.599609375,-2543.969970703125,-400000.0625,-400000.0625,-400000.0625,-400000.0625,-400000.0625
28.636571884155273,-7293.56005859375,-18463.279296875,-2552.080078125,-400000.0625,-400000.0625,-400000.0625,-400000.0625,-400000.0625
28.64830231666565,-7318.4501953125,-18488.5,-2581.409912109375,-400000.0625,-400000.0625,-400000.0625,-400000.0625,-400000.0625
28.65691637992859,-7330.93994140625,-18496.470703125,-2593.989990234375,-400000.0625,-400000.0625,-400000.0625,-400000.0625,-400000.0625
28.66875386238098,-7311.2998046875,-18483.349609375,-2573.06005859375,-400000.0625,-400000.0625,-400000.0625,-400000.0625,-400000.0625
28.680652856826782,-7278.009765625,-18461.939453125,-2545.2099609375,-400000.0625,-400000.0625,-400000.0625,-400000.0625,-400000.0625
28.68834638595581,-7281.2998046875,-18467.4296875,-2550.360107421875,-400000.0625,-400000.0625,-400000.0625,-400000.0625,-400000.0625
28.69609022140503,-7311.81982421875,-18488.220703125,-2577.260009765625,-400000.0625,-400000.0625,-400000.0625,-400000.0625,-400000.0625
28.706247329711914,-7330.1298828125,-18497.08984375,-2592.419921875,-400000.0625,-400000.0625,-400000.0625,-400000.0625,-400000.0625
28.71514391899109,-7311.72998046875,-18483.830078125,-2576.02001953125,-400000.0625,-400000.0625,-400000.0625,-400000.0625,-400000.0625
28.72177243232727,-7280.68017578125,-18458.419921875,-2542.8798828125,-400000.0625,-400000.0625,-400000.0625,-400000.0625,-400000.0625
28.7344172000885,-7284.830078125,-18462.369140625,-2550.219970703125,-400000.0625,-400000.0625,-400000.0625,-400000.0625,-400000.0625
28.74313521385193,-7315.68017578125,-18484.830078125,-2581.1201171875,-400000.0625,-400000.0625,-400000.0625,-400000.0625,-400000.0625
28.754380464553833,-7328.89013671875,-18504.33984375,-2597.3798828125,-400000.0625,-400000.0625,-400000.0625,-400000.0625,-400000.0625
28.763089895248413,-7314.72998046875,-18486.359375,-2577.830078125,-400000.0625,-400000.0625,-400000.0625,-400000.0625,-400000.0625
28.775701761245728,-7289.1201171875,-18464.279296875,-2552.4599609375,-400000.0625,-400000.0625,-400000.0625,-400000.0625,-400000.0625
28.78712010383606,-7285.5,-18464.470703125,-2554.0400390625,-400000.0625,-400000.0625,-400000.0625,-400000.0625,-400000.0625
28.794936418533325,-7320.7900390625,-18490.41015625,-2583.070068359375,-400000.0625,-400000.0625,-400000.0625,-400000.0625,-400000.0625
28.801963090896606,-7340.240234375,-18497.560546875,-2594.280029296875,-400000.0625,-400000.0625,-400000.0625,-400000.0625,-400000.0625
28.808515310287476,-7315.4501953125,-18482.16015625,-2575.8701171875,-400000.0625,-400000.0625,-400000.0625,-400000.0625,-400000.0625
28.81890320777893,-7286.169921875,-18461.75,-2548.31005859375,-400000.0625,-400000.0625,-400000.0625,-400000.0625,-400000.0625
28.836353063583374,-7291.3701171875,-18460.609375,-2545.8798828125,-400000.0625,-400000.0625,-400000.0625,-400000.0625,-400000.0625
28.84612011909485,-7310.72998046875,-18484.359375,-2577.969970703125,-400000.0625,-400000.0625,-400000.0625,-400000.0625,-400000.0625
28.858328819274902,-7333.22998046875,-18501.619140625,-2602.14990234375,-400000.0625,-400000.0625,-400000.0625,-400000.0625,-400000.0625
28.86761474609375,-7314.43994140625,-18486.7890625,-2581.070068359375,-400000.0625,-400000.0625,-400000.0625,-400000.0625,-400000.0625
28.87885284423828,-7280.919921875,-18465.0390625,-2551.219970703125,-400000.0625,-400000.0625,-400000.0625,-400000.0625,-400000.0625
28.88762927055359,-7283.77978515625,-18460.369140625,-2551.219970703125,-400000.0625,-400000.0625,-400000.0625,-400000.0625,-400000.0625
28.9010169506073,-7314.58984375,-18486.599609375,-2581.639892578125,-400000.0625,-400000.0625,-400000.0625,-400000.0625,-400000.0625
28.914350986480713,-7328.83984375,-18499.330078125,-2594.280029296875,-400000.0625,-400000.0625,-400000.0625,-400000.0625,-400000.0625
28.923927783966064,-7311.8701171875,-18476.349609375,-2570.10009765625,-400000.0625,-400000.0625,-400000.0625,-400000.0625,-400000.0625
28.94063401222229,-7277.2001953125,-18450.359375,-2541.5400390625,-400000.0625,-400000.0625,-400000.0625,-400000.0625,-400000.0625
28.95228862762451,-7284.97998046875,-18457.509765625,-2550.080078125,-400000.0625,-400000.0625,-400000.0625,-400000.0625,-400000.0625
28.962327241897583,-7322.35986328125,-18489.26953125,-2586.080078125,-400000.0625,-400000.0625,-400000.0625,-400000.0625,-400000.0625
28.973626852035522,-7333.08984375,-18501.810546875,-2602.389892578125,-400000.0625,-400000.0625,-400000.0625,-400000.0625,-400000.0625
28.984243154525757,-7311.77001953125,-18479.5390625,-2578.070068359375,-400000.0625,-400000.0625,-400000.0625,-400000.0625,-400000.0625
28.991628646850586,-7280.68017578125,-18452.220703125,-2545.830078125,-400000.0625,-400000.0625,-400000.0625,-400000.0625,-400000.0625
29.00257897377014,-7286.22021484375,-18454.98046875,-2546.260009765625,-400000.0625,-400000.0625,-400000.0625,-400000.0625,-400000.0625
29.010838985443115,-7318.68994140625,-18483.2109375,-2579.39990234375,-400000.0625,-400000.0625,-400000.0625,-400000.0625,-400000.0625
29.022329807281494,-7333.7998046875,-18495.509765625,-2595.330078125,-400000.0625,-400000.0625,-400000.0625,-400000.0625,-400000.0625
29.041866064071655,-7312.81982421875,-18479.2109375,-2573.43994140625,-400000.0625,-400000.0625,-400000.0625,-400000.0625,-400000.0625
29.05484700202942,-7281.35009765625,-18455.3203125,-2546.739990234375,-400000.0625,-400000.0625,-400000.0625,-400000.0625,-400000.0625
29.0685818195343,-7283.97021484375,-18457.75,-2551.1298828125,-400000.0625,-400000.0625,-400000.0625,-400000.0625,-400000.0625
29.080302476882935,-7319.97998046875,-18482.0703125,-2578.35009765625,-400000.0625,-400000.0625,-400000.0625,-400000.0625,-400000.0625
29.094085216522217,-7336.47021484375,-18513.630859375,-2599.0,-400000.0625,-400000.0625,-400000.0625,-400000.0625,-400000.0625
29.10505771636963,-7319.740234375,-18518.640625,-2580.830078125,-400000.0625,-400000.0625,-400000.0625,-400000.0625,-400000.0625
29.114654064178467,-7292.22021484375,-18492.080078125,-2554.989990234375,-400000.0625,-400000.0625,-400000.0625,-400000.0625,-400000.0625
29.12582015991211,-7295.509765625,-18489.939453125,-2558.989990234375,-400000.0625,-400000.0625,-400000.0625,-400000.0625,-400000.0625
29.142137050628662,-7330.1298828125,-18517.2109375,-2597.330078125,-400000.0625,-400000.0625,-400000.0625,-400000.0625,-400000.0625
29.151132822036743,-7358.64990234375,-18541.150390625,-2621.360107421875,-400000.0625,-400000.0625,-400000.0625,-400000.0625,-400000.0625
29.16256046295166,-7339.56982421875,-18538.51953125,-2602.010009765625,-400000.0625,-400000.0625,-400000.0625,-400000.0625,-400000.0625
29.17486023902893,-7319.64013671875,-18532.330078125,-2579.39990234375,-400000.0625,-400000.0625,-400000.0625,-400000.0625,-400000.0625
29.189270496368408,-7328.60986328125,-18552.109375,-2592.22998046875,-400000.0625,-400000.0625,-400000.0625,-400000.0625,-400000.0625
29.202800035476685,-7368.27978515625,-18590.44921875,-2626.85009765625,-400000.0625,-400000.0625,-400000.0625,-400000.0625,-400000.0625
29.214199781417847,-7396.080078125,-18609.5703125,-2649.39990234375,-400000.0625,-400000.0625,-400000.0625,-400000.0625,-400000.0625
29.22499966621399,-7376.52978515625,-18612.240234375,-2628.659912109375,-400000.0625,-400000.0625,-400000.0625,-400000.0625,-400000.0625
29.239611625671387,-7353.259765625,-18598.80078125,-2606.679931640625,-400000.0625,-400000.0625,-400000.0625,-400000.0625,-400000.0625
29.252161264419556,-7364.3701171875,-18605.759765625,-2615.2099609375,-400000.0625,-400000.0625,-400000.0625,-400000.0625,-400000.0625
29.264332056045532,-7400.47021484375,-18642.48046875,-2650.830078125,-400000.0625,-400000.0625,-400000.0625,-400000.0625,-400000.0625
29.27265954017639,-7423.58984375,-18660.830078125,-2674.679931640625,-400000.0625,-400000.0625,-400000.0625,-400000.0625,-400000.0625
29.286452293395996,-7399.31982421875,-18658.01953125,-2655.7900390625,-400000.0625,-400000.0625,-400000.0625,-400000.0625,-400000.0625
29.29615545272827,-7375.56982421875,-18633.890625,-2629.610107421875,-400000.0625,-400000.0625,-400000.0625,-400000.0625,-400000.0625
29.30918550491333,-7383.5400390625,-18641.94921875,-2633.7099609375,-400000.0625,-400000.0625,-400000.0625,-400000.0625,-400000.0625
29.317702770233154,-7412.14990234375,-18681.48046875,-2668.18994140625,-400000.0625,-400000.0625,-400000.0625,-400000.0625,-400000.0625
29.33378505706787,-7427.5,-18693.5,-2678.110107421875,-400000.0625,-400000.0625,-400000.0625,-400000.0625,-400000.0625
29.34484887123108,-7408.10009765625,-18672.1796875,-2654.510009765625,-400000.0625,-400000.0625,-400000.0625,-400000.0625,-400000.0625
29.35861587524414,-7372.81005859375,-18649.869140625,-2627.419921875,-400000.0625,-400000.0625,-400000.0625,-400000.0625,-400000.0625
29.371066331863403,-7375.0498046875,-18648.580078125,-2628.090087890625,-400000.0625,-400000.0625,-400000.0625,-400000.0625,-400000.0625
29.383400440216064,-7408.18994140625,-18669.560546875,-2658.320068359375,-400000.0625,-400000.0625,-400000.0625,-400000.0625,-400000.0625
29.395604372024536,-7419.6298828125,-18686.19921875,-2676.389892578125,-400000.0625,-400000.0625,-400000.0625,-400000.0625,-400000.0625
29.40800452232361,-7395.60009765625,-18664.080078125,-2650.2099609375,-400000.0625,-400000.0625,-400000.0625,-400000.0625,-400000.0625
29.417948484420776,-7370.22998046875,-18643.140625,-2622.800048828125,-400000.0625,-400000.0625,-400000.0625,-400000.0625,-400000.0625
29.436321258544922,-7373.0498046875,-18641.759765625,-2623.989990234375,-400000.0625,-400000.0625,-400000.0625,-400000.0625,-400000.0625
29.447211503982544,-7402.08984375,-18668.69921875,-2654.929931640625,-400000.0625,-400000.0625,-400000.0625,-400000.0625,-400000.0625
29.458536386489868,-7424.77978515625,-18686.869140625,-2674.909912109375,-400000.0625,-400000.0625,-400000.0625,-400000.0625,-400000.0625
29.470885038375854,-7408.240234375,-18672.609375,-2656.169921875,-400000.0625,-400000.0625,-400000.0625,-400000.0625,-400000.0625
29.486446142196655,-7374.81005859375,-18649.25,-2626.1298828125,-400000.0625,-400000.0625,-400000.0625,-400000.0625,-400000.0625
29.49776530265808,-7377.47998046875,-18647.76953125,-2626.510009765625,-400000.0625,-400000.0625,-400000.0625,-400000.0625,-400000.0625
29.51111674308777,-7411.669921875,-18670.080078125,-2656.409912109375,-400000.0625,-400000.0625,-400000.0625,-400000.0625,-400000.0625
29.524194717407227,-7421.68994140625,-18680.150390625,-2669.18994140625,-400000.0625,-400000.0625,-400000.0625,-400000.0625,-400000.0625
29.541944980621338,-7396.41015625,-18663.26953125,-2646.489990234375,-400000.0625,-400000.0625,-400000.0625,-400000.0625,-400000.0625
29.553713083267212,-7370.759765625,-18638.900390625,-2617.449951171875,-400000.0625,-400000.0625,-400000.0625,-400000.0625,-400000.0625
29.564433336257935,-7374.81005859375,-18642.51953125,-2624.0400390625,-400000.0625,-400000.0625,-400000.0625,-400000.0625,-400000.0625
29.577879905700684,-7406.81005859375,-18668.419921875,-2654.889892578125,-400000.0625,-400000.0625,-400000.0625,-400000.0625,-400000.0625
29.588244438171387,-7421.10986328125,-18678.51953125,-2671.050048828125,-400000.0625,-400000.0625,-400000.0625,-400000.0625,-400000.0625
29.59871816635132,-7400.89990234375,-18662.740234375,-2648.68994140625,-400000.0625,-400000.0625,-400000.0625,-400000.0625,-400000.0625
29.60860276222229,-7371.0,-18643.94921875,-2621.97998046875,-400000.0625,-400000.0625,-400000.0625,-400000.0625,-400000.0625
29.621755838394165,-7376.2900390625,-18649.19921875,-2630.760009765625,-400000.0625,-400000.0625,-400000.0625,-400000.0625,-400000.0625
29.63967990875244,-7408.240234375,-18673.279296875,-2658.800048828125,-400000.0625,-400000.0625,-400000.0625,-400000.0625,-400000.0625
29.652321815490723,-7422.5400390625,-18685.919921875,-2678.590087890625,-400000.0625,-400000.0625,-400000.0625,-400000.0625,-400000.0625
29.663949966430664,-7398.18017578125,-18670.560546875,-2657.56005859375,-400000.0625,-400000.0625,-400000.0625,-400000.0625,-400000.0625
29.67691659927368,-7369.9501953125,-18651.5390625,-2626.93994140625,-400000.0625,-400000.0625,-400000.0625,-400000.0625,-400000.0625
29.68559455871582,-7378.25,-18651.109375,-2632.760009765625,-400000.0625,-400000.0625,-400000.0625,-400000.0625,-400000.0625
29.697911977767944,-7407.3798828125,-18674.810546875,-2662.949951171875,-400000.0625,-400000.0625,-400000.0625,-400000.0625,-400000.0625
29.706610441207886,-7423.5,-18690.109375,-2678.969970703125,-400000.0625,-400000.0625,-400000.0625,-400000.0625,-400000.0625
29.72040104866028,-7406.56982421875,-18673.66015625,-2658.080078125,-400000.0625,-400000.0625,-400000.0625,-400000.0625,-400000.0625
29.73460030555725,-7376.669921875,-18651.19921875,-2627.280029296875,-400000.0625,-400000.0625,-400000.0625,-400000.0625,-400000.0625
29.743711233139038,-7378.47998046875,-18646.529296875,-2626.7099609375,-400000.0625,-400000.0625,-400000.0625,-400000.0625,-400000.0625
29.759936571121216,-7406.85986328125,-18671.08984375,-2656.889892578125,-400000.0625,-400000.0625,-400000.0625,-400000.0625,-400000.0625
29.76806926727295,-7428.1201171875,-18692.2109375,-2679.780029296875,-400000.0625,-400000.0625,-400000.0625,-400000.0625,-400000.0625
29.780256032943726,-7410.77001953125,-18675.900390625,-2657.60009765625,-400000.0625,-400000.0625,-400000.0625,-400000.0625,-400000.0625
29.789381742477417,-7377.43017578125,-18647.8203125,-2626.89990234375,-400000.0625,-400000.0625,-400000.0625,-400000.0625,-400000.0625
29.800582885742188,-7384.10986328125,-18653.439453125,-2634.139892578125,-400000.0625,-400000.0625,-400000.0625,-400000.0625,-400000.0625
29.812300443649292,-7415.2998046875,-18677.279296875,-2664.659912109375,-400000.0625,-400000.0625,-400000.0625,-400000.0625,-400000.0625
29.8204927444458,-7427.169921875,-18691.2109375,-2681.2099609375,-400000.0625,-400000.0625,-400000.0625,-400000.0625,-400000.0625
29.83678126335144,-7412.10009765625,-18671.939453125,-2657.75,-400000.0625,-400000.0625,-400000.0625,-400000.0625,-400000.0625
29.84936785697937,-7382.10986328125,-18647.48046875,-2627.3701171875,-400000.0625,-400000.0625,-400000.0625,-400000.0625,-400000.0625
29.858669996261597,-7387.10986328125,-18653.25,-2633.239990234375,-400000.0625,-400000.0625,-400000.0625,-400000.0625,-400000.0625
29.868037700653076,-7419.16015625,-18677.48046875,-2663.949951171875,-400000.0625,-400000.0625,-400000.0625,-400000.0625,-400000.0625
29.878657817840576,-7430.60009765625,-18689.970703125,-2682.5400390625,-400000.0625,-400000.0625,-400000.0625,-400000.0625,-400000.0625
29.89154362678528,-7409.759765625,-18675.619140625,-2659.75,-400000.0625,-400000.0625,-400000.0625,-400000.0625,-400000.0625
29.90168857574463,-7379.2900390625,-18647.009765625,-2628.85009765625,-400000.0625,-400000.0625,-400000.0625,-400000.0625,-400000.0625
29.913896799087524,-7380.919921875,-18654.25,-2634.6201171875,-400000.0625,-400000.0625,-400000.0625,-400000.0625,-400000.0625
29.925246477127075,-7412.33984375,-18677.08984375,-2659.75,-400000.0625,-400000.0625,-400000.0625,-400000.0625,-400000.0625
29.942698001861572,-7428.02978515625,-18685.490234375,-2676.110107421875,-400000.0625,-400000.0625,-400000.0625,-400000.0625,-400000.0625
29.954384088516235,-7405.08984375,-18664.26953125,-2655.219970703125,-400000.0625,-400000.0625,-400000.0625,-400000.0625,-400000.0625
29.96572494506836,-7378.43994140625,-18643.51953125,-2626.7099609375,-400000.0625,-400000.0625,-400000.0625,-400000.0625,-400000.0625
29.979517936706543,-7385.02001953125,-18650.099609375,-2635.6201171875,-400000.0625,-400000.0625,-400000.0625,-400000.0625,-400000.0625
29.989166259765625,-7417.25,-18676.0390625,-2668.7099609375,-400000.0625,-400000.0625,-400000.0625,-400000.0625,-400000.0625
30.001444816589355,-7432.509765625,-18690.5390625,-2682.300048828125,-400000.0625,-400000.0625,-400000.0625,-400000.0625,-400000.0625
30.017070770263672,-7413.2900390625,-18676.4296875,-2661.800048828125,-400000.0625,-400000.0625,-400000.0625,-400000.0625,-400000.0625
30.037684440612793,-7383.5400390625,-18653.919921875,-2635.18994140625,-400000.0625,-400000.0625,-400000.0625,-400000.0625,-400000.0625
30.048357725143433,-7390.31005859375,-18658.830078125,-2644.110107421875,-400000.0625,-400000.0625,-400000.0625,-400000.0625,-400000.0625
30.06007957458496,-7420.4501953125,-18681.9609375,-2672.47998046875,-400000.0625,-400000.0625,-400000.0625,-400000.0625,-400000.0625
30.072885990142822,-7438.0400390625,-18695.689453125,-2690.4599609375,-400000.0625,-400000.0625,-400000.0625,-400000.0625,-400000.0625
30.08649182319641,-7418.919921875,-18677.94921875,-2672.860107421875,-400000.0625,-400000.0625,-400000.0625,-400000.0625,-400000.0625
30.100030183792114,-7390.5498046875,-18664.55078125,-2648.68994140625,-400000.0625,-400000.0625,-400000.0625,-400000.0625,-400000.0625
30.11413288116455,-7403.419921875,-18677.08984375,-2658.699951171875,-400000.0625,-400000.0625,-400000.0625,-400000.0625,-400000.0625
30.12535262107849,-7435.66015625,-18695.9296875,-2688.97998046875,-400000.0625,-400000.0625,-400000.0625,-400000.0625,-400000.0625
30.139835834503174,-7444.330078125,-18706.1796875,-2700.469970703125,-400000.0625,-400000.0625,-400000.0625,-400000.0625,-400000.0625
30.151732683181763,-7417.72998046875,-18687.439453125,-2675.43994140625,-400000.0625,-400000.0625,-400000.0625,-400000.0625,-400000.0625
30.16427707672119,-7372.7099609375,-18649.390625,-2627.989990234375,-400000.0625,-400000.0625,-400000.0625,-400000.0625,-400000.0625
30.176851987838745,-7363.75,-18636.08984375,-2614.830078125,-400000.0625,-400000.0625,-400000.0625,-400000.0625,-400000.0625
30.186925411224365,-7390.35986328125,-18652.6796875,-2639.820068359375,-400000.0625,-400000.0625,-400000.0625,-400000.0625,-400000.0625
30.199424505233765,-7408.56982421875,-18663.119140625,-2657.699951171875,-400000.0625,-400000.0625,-400000.0625,-400000.0625,-400000.0625
30.211727380752563,-7401.22998046875,-18661.880859375,-2650.39990234375,-400000.0625,-400000.0625,-400000.0625,-400000.0625,-400000.0625
30.224623680114746,-7383.2001953125,-18656.5390625,-2634.949951171875,-400000.0625,-400000.0625,-400000.0625,-400000.0625,-400000.0625
30.238919496536255,-7387.259765625,-18658.349609375,-2643.780029296875,-400000.0625,-400000.0625,-400000.0625,-400000.0625,-400000.0625
30.24909257888794,-7419.6298828125,-18682.240234375,-2671.669921875,-400000.0625,-400000.0625,-400000.0625,-400000.0625,-400000.0625
30.26131796836853,-7440.89990234375,-18703.890625,-2693.699951171875,-400000.0625,-400000.0625,-400000.0625,-400000.0625,-400000.0625
30.272794723510742,-7428.06982421875,-18691.58984375,-2677.5400390625,-400000.0625,-400000.0625,-400000.0625,-400000.0625,-400000.0625
30.283344984054565,-7405.89990234375,-18669.69921875,-2652.360107421875,-400000.0625,-400000.0625,-400000.0625,-400000.0625,-400000.0625
30.297499895095825,-7409.81005859375,-18671.08984375,-2656.510009765625,-400000.0625,-400000.0625,-400000.0625,-400000.0625,-400000.0625
30.31520438194275,-7428.35986328125,-18692.400390625,-2679.679931640625,-400000.0625,-400000.0625,-400000.0625,-400000.0625,-400000.0625
30.323715209960938,-7440.7099609375,-18700.650390625,-2692.4599609375,-400000.0625,-400000.0625,-400000.0625,-400000.0625,-400000.0625
30.3445246219635,-7422.5,-18685.720703125,-2672.389892578125,-400000.0625,-400000.0625,-400000.0625,-400000.0625,-400000.0625
30.356783390045166,-7398.509765625,-18664.4609375,-2646.590087890625,-400000.0625,-400000.0625,-400000.0625,-400000.0625,-400000.0625
30.36928915977478,-7393.7900390625,-18656.44921875,-2641.300048828125,-400000.0625,-400000.0625,-400000.0625,-400000.0625,-400000.0625
30.380672454833984,-7407.9501953125,-18666.4609375,-2657.800048828125,-400000.0625,-400000.0625,-400000.0625,-400000.0625,-400000.0625
30.392722606658936,-7419.39990234375,-18675.140625,-2668.47998046875,-400000.0625,-400000.0625,-400000.0625,-400000.0625,-400000.0625
30.40312361717224,-7408.85986328125,-18666.83984375,-2651.8798828125,-400000.0625,-400000.0625,-400000.0625,-400000.0625,-400000.0625
30.41810965538025,-7386.8798828125,-18649.529296875,-2632.090087890625,-400000.0625,-400000.0625,-400000.0625,-400000.0625,-400000.0625
30.43314027786255,-7390.4501953125,-18650.580078125,-2634.47998046875,-400000.0625,-400000.0625,-400000.0625,-400000.0625,-400000.0625
30.446940898895264,-7406.240234375,-18664.359375,-2652.169921875,-400000.0625,-400000.0625,-400000.0625,-400000.0625,-400000.0625
30.45540452003479,-7410.85986328125,-18676.380859375,-2659.85009765625,-400000.0625,-400000.0625,-400000.0625,-400000.0625,-400000.0625
30.46843194961548,-7397.83984375,-18684.9609375,-2639.14990234375,-400000.0625,-400000.0625,-400000.0625,-400000.0625,-400000.0625
30.47874355316162,-7364.93994140625,-18654.6796875,-2607.43994140625,-400000.0625,-400000.0625,-400000.0625,-400000.0625,-400000.0625
30.491756916046143,-7377.33984375,-18660.01953125,-2625.510009765625,-400000.0625,-400000.0625,-400000.0625,-400000.0625,-400000.0625
30.50468111038208,-7412.33984375,-18680.76953125,-2667.860107421875,-400000.0625,-400000.0625,-400000.0625,-400000.0625,-400000.0625
30.51335859298706,-7425.35986328125,-18690.30078125,-2669.530029296875,-400000.0625,-400000.0625,-400000.0625,-400000.0625,-400000.0625
30.524300813674927,-7396.27001953125,-18669.75,-2619.7900390625,-400000.0625,-400000.0625,-400000.0625,-400000.0625,-400000.0625
30.539824962615967,-7388.16015625,-18679.91015625,-2607.35009765625,-400000.0625,-400000.0625,-400000.0625,-400000.0625,-400000.0625
30.555298328399658,-7401.66015625,-18672.369140625,-2610.8701171875,-400000.0625,-400000.0625,-400000.0625,-400000.0625,-400000.0625
30.56742787361145,-7452.2998046875,-18672.419921875,-2638.820068359375,-400000.0625,-400000.0625,-400000.0625,-400000.0625,-400000.0625
30.581106901168823,-7492.77978515625,-18685.490234375,-2632.239990234375,-400000.0625,-400000.0625,-400000.0625,-400000.0625,-400000.0625
30.595836400985718,-7496.1201171875,-18694.0703125,-2616.409912109375,-400000.0625,-400000.0625,-400000.0625,-400000.0625,-400000.0625
30.605509042739868,-7503.1298828125,-18699.220703125,-2615.070068359375,-400000.0625,-400000.0625,-400000.0625,-400000.0625,-400000.0625
30.618224620819092,-7523.16015625,-18714.859375,-2601.909912109375,-400000.0625,-400000.0625,-400000.0625,-400000.0625,-400000.0625
30.63556432723999,-7558.43994140625,-18741.470703125,-2619.219970703125,-400000.0625,-400000.0625,-400000.0625,-400000.0625,-400000.0625
30.6473548412323,-7601.2099609375,-18773.509765625,-2641.8701171875,-400000.0625,-400000.0625,-400000.0625,-400000.0625,-400000.0625
30.660173892974854,-7606.5498046875,-18772.369140625,-2620.7900390625,-400000.0625,-400000.0625,-400000.0625,-400000.0625,-400000.0625
30.668869018554688,-7597.2998046875,-18765.640625,-2605.300048828125,-400000.0625,-400000.0625,-400000.0625,-400000.0625,-400000.0625
30.680400133132935,-7596.77978515625,-18774.1796875,-2606.679931640625,-400000.0625,-400000.0625,-400000.0625,-400000.0625,-400000.0625
30.694893836975098,-7624.81982421875,-18826.919921875,-2629.89990234375,-400000.0625,-400000.0625,-400000.0625,-400000.0625,-400000.0625
30.705780506134033,-7645.7001953125,-18848.470703125,-2639.820068359375,-400000.0625,-400000.0625,-400000.0625,-400000.0625,-400000.0625
30.719213485717773,-7650.419921875,-18866.73046875,-2634.81005859375,-400000.0625,-400000.0625,-400000.0625,-400000.0625,-400000.0625
30.735838413238525,-7629.97021484375,-18864.439453125,-2632.330078125,-400000.0625,-400000.0625,-400000.0625,-400000.0625,-400000.0625
30.746092319488525,-7633.4501953125,-18882.369140625,-2641.9599609375,-400000.0625,-400000.0625,-400000.0625,-400000.0625,-400000.0625
30.758224487304688,-7655.56982421875,-18915.1796875,-2663.7099609375,-400000.0625,-400000.0625,-400000.0625,-400000.0625,-400000.0625
30.767765998840332,-7662.68017578125,-18942.359375,-2680.830078125,-400000.0625,-400000.0625,-400000.0625,-400000.0625,-400000.0625
30.780636310577393,-7646.3701171875,-18941.740234375,-2674.47998046875,-400000.0625,-400000.0625,-400000.0625,-400000.0625,-400000.0625
30.79353380203247,-7626.33984375,-18916.0390625,-2651.409912109375,-400000.0625,-400000.0625,-400000.0625,-400000.0625,-400000.0625
30.807060480117798,-7633.5400390625,-18918.94921875,-2655.4599609375,-400000.0625,-400000.0625,-400000.0625,-400000.0625,-400000.0625
30.816867113113403,-7658.669921875,-18944.689453125,-2676.300048828125,-400000.0625,-400000.0625,-400000.0625,-400000.0625,-400000.0625
30.85146951675415,-7475.9501953125,-18671.419921875,-2661.419921875,-400000.0625,-400000.0625,-400000.0625,-400000.0625,-400000.0625
30.923247575759888,-7424.06982421875,-18624.640625,-2610.25,-400000.0625,-400000.0625,-400000.0625,-400000.0625,-400000.0625
31.010013580322266,-7425.5,-18628.5,-2611.02001953125,-400000.0625,-400000.0625,-400000.0625,-400000.0625,-400000.0625
31.0658700466156,-7394.080078125,-18607.08984375,-2584.699951171875,-400000.0625,-400000.0625,-400000.0625,-400000.0625,-400000.0625
31.17288875579834,-7478.669921875,-18706.509765625,-2692.1298828125,-400000.0625,-400000.0625,-400000.0625,-400000.0625,-400000.0625
31.31598973274231,-7467.56005859375,-18705.66015625,-2679.780029296875,-400000.0625,-400000.0625,-400000.0625,-400000.0625,-400000.0625
31.36335587501526,-7398.4599609375,-18636.66015625,-2604.530029296875,-400000.0625,-400000.0625,-400000.0625,-400000.0625,-400000.0625
31.44872546195984,-7440.52001953125,-18673.849609375,-2646.39990234375,-400000.0625,-400000.0625,-400000.0625,-400000.0625,-400000.0625
31.567283868789673,-7418.43994140625,-18639.849609375,-2611.2099609375,-400000.0625,-400000.0625,-400000.0625,-400000.0625,-400000.0625
31.623884201049805,-7390.7900390625,-18617.919921875,-2596.570068359375,-400000.0625,-400000.0625,-400000.0625,-400000.0625,-400000.0625
31.768517017364502,-7429.93017578125,-18654.830078125,-2628.610107421875,-400000.0625,-400000.0625,-400000.0625,-400000.0625,-400000.0625
31.813547372817993,-7395.5498046875,-18633.890625,-2606.06005859375,-400000.0625,-400000.0625,-400000.0625,-400000.0625,-400000.0625
31.964512825012207,-7417.6298828125,-18636.80078125,-2615.02001953125,-400000.0625,-400000.0625,-400000.0625,-400000.0625,-400000.0625
32.00961089134216,-7464.02978515625,-18665.169921875,-2652.68994140625,-400000.0625,-400000.0625,-400000.0625,-400000.0625,-400000.0625
32.202319622039795,-7424.5,-18631.029296875,-2603.340087890625,-400000.0625,-400000.0625,-400000.0625,-400000.0625,-400000.0625
32.32742118835449,-7426.7900390625,-18628.55078125,-2591.75,-400000.0625,-400000.0625,-400000.0625,-400000.0625,-400000.0625
32.46449065208435,-7448.9599609375,-18636.1796875,-2607.6298828125,-400000.0625,-400000.0625,-400000.0625,-400000.0625,-400000.0625
32.523067235946655,-7416.580078125,-18608.669921875,-2565.570068359375,-400000.0625,-400000.0625,-400000.0625,-400000.0625,-400000.0625
32.61452102661133,-7414.14990234375,-18609.810546875,-2563.6201171875,-400000.0625,-400000.0625,-400000.0625,-400000.0625,-400000.0625
32.662200689315796,-7437.52001953125,-18638.470703125,-2587.320068359375,-400000.0625,-400000.0625,-400000.0625,-400000.0625,-400000.0625
32.74605369567871,-7456.2998046875,-18651.30078125,-2598.239990234375,-400000.0625,-400000.0625,-400000.0625,-400000.0625,-400000.0625
32.77602696418762,-7448.6298828125,-18652.009765625,-2594.7099609375,-400000.0625,-400000.0625,-400000.0625,-400000.0625,-400000.0625
32.83692145347595,-7416.580078125,-18626.55078125,-2561.52001953125,-400000.0625,-400000.0625,-400000.0625,-400000.0625,-400000.0625
32.90580177307129,-7416.2998046875,-18630.220703125,-2562.280029296875,-400000.0625,-400000.0625,-400000.0625,-400000.0625,-400000.0625
33.054114818573,-7446.0,-18669.69921875,-2601.239990234375,-400000.0625,-400000.0625,-400000.0625,-400000.0625,-400000.0625
33.15584683418274,-7408.2900390625,-18641.140625,-2567.9599609375,-400000.0625,-400000.0625,-400000.0625,-400000.0625,-400000.0625
33.30349588394165,-7399.990234375,-18629.69921875,-2558.22998046875,-400000.0625,-400000.0625,-400000.0625,-400000.0625,-400000.0625
33.35994029045105,-7437.7998046875,-18659.640625,-2589.93994140625,-400000.0625,-400000.0625,-400000.0625,-400000.0625,-400000.0625
33.423381090164185,-7406.47021484375,-18636.509765625,-2554.0400390625,-400000.0625,-400000.0625,-400000.0625,-400000.0625,-400000.0625
33.47931385040283,-7430.509765625,-18649.150390625,-2569.25,-400000.0625,-400000.0625,-400000.0625,-400000.0625,-400000.0625
33.56494331359863,-7407.56982421875,-18625.310546875,-2548.080078125,-400000.0625,-400000.0625,-400000.0625,-400000.0625,-400000.0625
33.67150664329529,-7424.31005859375,-18651.19921875,-2570.919921875,-400000.0625,-400000.0625,-400000.0625,-400000.0625,-400000.0625
33.799798011779785,-7395.35986328125,-18635.470703125,-2540.830078125,-400000.0625,-400000.0625,-400000.0625,-400000.0625,-400000.0625
33.8611524105072,-7414.2900390625,-18662.310546875,-2565.719970703125,-400000.0625,-400000.0625,-400000.0625,-400000.0625,-400000.0625
33.93760824203491,-7417.490234375,-18657.5,-2560.469970703125,-400000.0625,-400000.0625,-400000.0625,-400000.0625,-400000.0625
34.007004261016846,-7429.5498046875,-18668.990234375,-2572.010009765625,-400000.0625,-400000.0625,-400000.0625,-400000.0625,-400000.0625
34.06705689430237,-7409.52978515625,-18664.41015625,-2559.52001953125,-400000.0625,-400000.0625,-400000.0625,-400000.0625,-400000.0625
34.11463499069214,-7412.39013671875,-18662.55078125,-2561.760009765625,-400000.0625,-400000.0625,-400000.0625,-400000.0625,-400000.0625
34.24843668937683,-7252.259765625,-18765.5,-2682.8798828125,-400000.0625,-400000.0625,-400000.0625,-400000.0625,-400000.0625
34.30750226974487,-7143.5498046875,-18846.560546875,-2784.780029296875,-400000.0625,-400000.0625,-400000.0625,-400000.0625,-400000.0625
34.41493272781372,-7144.7900390625,-18815.900390625,-2767.52001953125,-400000.0625,-400000.0625,-400000.0625,-400000.0625,-400000.0625
34.44808888435364,-7125.66015625,-18783.810546875,-2746.530029296875,-400000.0625,-400000.0625,-400000.0625,-400000.0625,-400000.0625
34.51818323135376,-7115.7001953125,-18767.650390625,-2737.139892578125,-400000.0625,-400000.0625,-400000.0625,-400000.0625,-400000.0625
34.56249165534973,-7134.81982421875,-18778.94921875,-2749.199951171875,-400000.0625,-400000.0625,-400000.0625,-400000.0625,-400000.0625
34.64773392677307,-7137.25,-18780.66015625,-2749.5400390625,-400000.0625,-400000.0625,-400000.0625,-400000.0625,-400000.0625
34.69687032699585,-7140.77978515625,-18774.130859375,-2749.43994140625,-400000.0625,-400000.0625,-400000.0625,-400000.0625,-400000.0625
34.88975715637207,-7140.64013671875,-18789.099609375,-2762.510009765625,-400000.0625,-400000.0625,-400000.0625,-400000.0625,-400000.0625
34.98057579994202,-7137.97021484375,-18793.439453125,-2757.5,-400000.0625,-400000.0625,-400000.0625,-400000.0625,-400000.0625
35.01202940940857,-7116.3701171875,-18785.529296875,-2751.2099609375,-400000.0625,-400000.0625,-400000.0625,-400000.0625,-400000.0625
35.09934401512146,-7108.5498046875,-18784.4296875,-2751.5400390625,-400000.0625,-400000.0625,-400000.0625,-400000.0625,-400000.0625
35.148510456085205,-7125.66015625,-18814.140625,-2778.9599609375,-400000.0625,-400000.0625,-400000.0625,-400000.0625,-400000.0625
35.2171950340271,-7114.97998046875,-18802.740234375,-2764.75,-400000.0625,-400000.0625,-400000.0625,-400000.0625,-400000.0625
35.34631609916687,-7088.85009765625,-18766.44921875,-2735.0,-400000.0625,-400000.0625,-400000.0625,-400000.0625,-400000.0625
35.406978368759155,-7096.9599609375,-18778.609375,-2749.969970703125,-400000.0625,-400000.0625,-400000.0625,-400000.0625,-400000.0625
35.52606749534607,-7131.77001953125,-18799.310546875,-2778.47998046875,-400000.0625,-400000.0625,-400000.0625,-400000.0625,-400000.0625
35.59708118438721,-7129.52978515625,-18797.01953125,-2779.530029296875,-400000.0625,-400000.0625,-400000.0625,-400000.0625,-400000.0625
35.722015142440796,-7103.2099609375,-18785.33984375,-2755.449951171875,-400000.0625,-400000.0625,-400000.0625,-400000.0625,-400000.0625
35.7822630405426,-7112.89013671875,-18800.5,-2779.389892578125,-400000.0625,-400000.0625,-400000.0625,-400000.0625,-400000.0625
35.917054176330566,-7131.240234375,-18812.849609375,-2799.22998046875,-400000.0625,-400000.0625,-400000.0625,-400000.0625,-400000.0625
35.97605037689209,-7114.4599609375,-18800.7890625,-2787.969970703125,-400000.0625,-400000.0625,-400000.0625,-400000.0625,-400000.0625
36.047393560409546,-7095.39013671875,-18790.529296875,-2769.570068359375,-400000.0625,-400000.0625,-400000.0625,-400000.0625,-400000.0625
