time,ch1,ch2,ch3,ch4,ch5,ch6,ch7,ch8
118.59019112586975,-400000.0625,-42478.66015625,-28398.369140625,-400000.0625,-28429.4609375,-400000.0625,-26969.390625,-400000.0625
118.59470415115356,-400000.0625,-42469.94140625,-28389.69921875,-400000.0625,-28427.220703125,-400000.0625,-26963.669921875,-400000.0625
118.59471368789673,-400000.0625,-42482.7109375,-28402.05078125,-400000.0625,-28440.720703125,-400000.0625,-26975.060546875,-400000.0625
118.59471869468689,-400000.0625,-42499.171875,-28417.5,-400000.0625,-28451.6796875,-400000.0625,-26990.0390625,-400000.0625
118.59472274780273,-400000.0625,-42499.640625,-28415.779296875,-400000.0625,-28445.6796875,-400000.0625,-26986.41015625,-400000.0625
118.59472703933716,-400000.0625,-42486.71875,-28400.0,-400000.0625,-28431.0390625,-400000.0625,-26970.580078125,-400000.0625
118.59473204612732,-400000.0625,-42480.19140625,-28392.990234375,-400000.0625,-28430.560546875,-400000.0625,-26964.0,-400000.0625
118.59473586082458,-400000.0625,-42485.671875,-28402.140625,-400000.0625,-28439.619140625,-400000.0625,-26972.919921875,-400000.0625
118.59473943710327,-400000.0625,-42503.30859375,-28419.310546875,-400000.0625,-28453.0703125,-400000.0625,-26986.599609375,-400000.0625
118.5947437286377,-400000.0625,-42504.171875,-28418.779296875,-400000.0625,-28449.58984375,-400000.0625,-26985.220703125,-400000.0625
118.59474778175354,-400000.0625,-42486.01171875,-28401.330078125,-400000.0625,-28431.279296875,-400000.0625,-26967.529296875,-400000.0625
118.5947515964508,-400000.0625,-42478.80078125,-28394.609375,-400000.0625,-28431.130859375,-400000.0625,-26961.0,-400000.0625
118.59475517272949,-400000.0625,-42487.71875,-28404.0,-400000.0625,-28442.720703125,-400000.0625,-26972.150390625,-400000.0625
118.5947585105896,-400000.0625,-42502.9296875,-28419.970703125,-400000.0625,-28453.880859375,-400000.0625,-26986.69921875,-400000.0625
118.59476208686829,-400000.0625,-42507.26953125,-28421.2109375,-400000.0625,-28450.779296875,-400000.0625,-26982.98046875,-400000.0625
118.5947654247284,-400000.0625,-42489.6796875,-28402.51953125,-400000.0625,-28431.509765625,-400000.0625,-26964.05078125,-400000.0625
118.59476947784424,-400000.0625,-42481.76171875,-28396.560546875,-400000.0625,-28429.80078125,-400000.0625,-26960.5703125,-400000.0625
118.59477353096008,-400000.0625,-42492.48828125,-28406.48046875,-400000.0625,-28446.439453125,-400000.0625,-26972.869140625,-400000.0625
118.59477734565735,-400000.0625,-42505.6015625,-28420.7890625,-400000.0625,-28458.83984375,-400000.0625,-26989.609375,-400000.0625
118.59478092193604,-400000.0625,-42506.55859375,-28421.689453125,-400000.0625,-28451.16015625,-400000.0625,-26985.359375,-400000.0625
118.59478497505188,-400000.0625,-42490.33984375,-28401.810546875,-400000.0625,-28431.609375,-400000.0625,-26968.33984375,-400000.0625
118.59478855133057,-400000.0625,-42479.0,-28393.4609375,-400000.0625,-28431.939453125,-400000.0625,-26962.330078125,-400000.0625
118.59479260444641,-400000.0625,-42486.91015625,-28404.759765625,-400000.0625,-28444.150390625,-400000.0625,-26968.19921875,-400000.0625
118.59479665756226,-400000.0625,-42508.98828125,-28424.169921875,-400000.0625,-28455.2109375,-400000.0625,-26985.41015625,-400000.0625
118.59480047225952,-400000.0625,-42513.328125,-28422.689453125,-400000.0625,-28448.439453125,-400000.0625,-26991.470703125,-400000.0625
118.5948052406311,-400000.0625,-42494.78125,-28402.279296875,-400000.0625,-28430.419921875,-400000.0625,-26972.25,-400000.0625
118.59480881690979,-400000.0625,-42486.71875,-28397.609375,-400000.0625,-28430.66015625,-400000.0625,-26965.720703125,-400000.0625
118.59481239318848,-400000.0625,-42494.58984375,-28408.240234375,-400000.0625,-28443.05078125,-400000.0625,-26976.490234375,-400000.0625
118.59481596946716,-400000.0625,-42514.28125,-28424.4609375,-400000.0625,-28454.640625,-400000.0625,-26992.849609375,-400000.0625
118.59481954574585,-400000.0625,-42514.421875,-28421.599609375,-400000.0625,-28450.919921875,-400000.0625,-26994.900390625,-400000.0625
118.59482336044312,-400000.0625,-42497.5,-28406.0,-400000.0625,-28436.0390625,-400000.0625,-26974.30078125,-400000.0625
118.62807512283325,-400000.0625,-42489.71875,-28399.0390625,-400000.0625,-28431.419921875,-400000.0625,-26968.48046875,-400000.0625
118.63427352905273,-400000.0625,-42494.16015625,-28406.4296875,-400000.0625,-28440.240234375,-400000.0625,-26980.44921875,-400000.0625
118.64019751548767,-400000.0625,-42510.3203125,-28423.310546875,-400000.0625,-28454.970703125,-400000.0625,-26993.7109375,-400000.0625
118.65201473236084,-400000.0625,-42511.421875,-28422.599609375,-400000.0625,-28450.58984375,-400000.0625,-26995.380859375,-400000.0625
118.65756034851074,-400000.0625,-42492.8203125,-28404.669921875,-400000.0625,-28429.3203125,-400000.0625,-26976.2109375,-400000.0625
118.66217803955078,-400000.0625,-42487.859375,-28399.609375,-400000.0625,-28427.939453125,-400000.0625,-26969.91015625,-400000.0625
118.66218709945679,-400000.0625,-42499.12109375,-28410.150390625,-400000.0625,-28438.859375,-400000.0625,-26982.98046875,-400000.0625
118.66219186782837,-400000.0625,-42515.80859375,-28425.55078125,-400000.0625,-28451.490234375,-400000.0625,-26996.619140625,-400000.0625
118.66219592094421,-400000.0625,-42513.0390625,-28423.9296875,-400000.0625,-28449.439453125,-400000.0625,-26994.470703125,-400000.0625
118.66219973564148,-400000.0625,-42492.05859375,-28403.7109375,-400000.0625,-28428.990234375,-400000.0625,-26975.919921875,-400000.0625
118.66220355033875,-400000.0625,-42485.1015625,-28396.80078125,-400000.0625,-28426.220703125,-400000.0625,-26966.4296875,-400000.0625
118.66220736503601,-400000.0625,-42495.87890625,-28407.390625,-400000.0625,-28439.720703125,-400000.0625,-26975.25,-400000.0625
118.6622109413147,-400000.0625,-42509.421875,-28421.830078125,-400000.0625,-28452.919921875,-400000.0625,-26991.0390625,-400000.0625
118.66221475601196,-400000.0625,-42511.421875,-28422.220703125,-400000.0625,-28448.970703125,-400000.0625,-26987.130859375,-400000.0625
118.66221809387207,-400000.0625,-42493.3984375,-28403.4296875,-400000.0625,-28432.279296875,-400000.0625,-26969.529296875,-400000.0625
118.66222190856934,-400000.0625,-42484.0,-28395.990234375,-400000.0625,-28428.75,-400000.0625,-26966.189453125,-400000.0625
118.69779419898987,-400000.0625,-42494.05859375,-28407.76953125,-400000.0625,-28437.900390625,-400000.0625,-26975.919921875,-400000.0625
118.70297741889954,-400000.0625,-42511.75,-28424.890625,-400000.0625,-28454.119140625,-400000.0625,-26993.23046875,-400000.0625
118.7082097530365,-400000.0625,-42509.609375,-28423.9296875,-400000.0625,-28452.30078125,-400000.0625,-26994.80078125,-400000.0625
118.71262431144714,-400000.0625,-42489.87109375,-28404.099609375,-400000.0625,-28430.470703125,-400000.0625,-26977.830078125,-400000.0625
118.71263241767883,-400000.0625,-42483.671875,-28398.23046875,-400000.0625,-28429.609375,-400000.0625,-26964.759765625,-400000.0625
118.712637424469,-400000.0625,-42492.01171875,-28410.25,-400000.0625,-28444.580078125,-400000.0625,-26967.05078125,-400000.0625
118.71264171600342,-400000.0625,-42503.73828125,-28423.169921875,-400000.0625,-28458.55078125,-400000.0625,-26980.44921875,-400000.0625
118.71264553070068,-400000.0625,-42505.4609375,-28425.169921875,-400000.0625,-28456.9296875,-400000.0625,-26977.490234375,-400000.0625
118.71264910697937,-400000.0625,-42483.671875,-28404.5703125,-400000.0625,-28440.099609375,-400000.0625,-26958.1796875,-400000.0625
118.71265268325806,-400000.0625,-42470.3203125,-28392.69921875,-400000.0625,-28434.5703125,-400000.0625,-26949.029296875,-400000.0625
118.71265649795532,-400000.0625,-42475.3203125,-28402.619140625,-400000.0625,-28447.869140625,-400000.0625,-26953.369140625,-400000.0625
118.71265983581543,-400000.0625,-42491.921875,-28418.44921875,-400000.0625,-28459.359375,-400000.0625,-26972.390625,-400000.0625
118.71266341209412,-400000.0625,-42495.109375,-28418.779296875,-400000.0625,-28452.400390625,-400000.0625,-26972.109375,-400000.0625
118.7126669883728,-400000.0625,-42473.94140625,-28398.990234375,-400000.0625,-28434.140625,-400000.0625,-26952.169921875,-400000.0625
118.71267056465149,-400000.0625,-42465.41015625,-28391.26953125,-400000.0625,-28432.1796875,-400000.0625,-26946.01953125,-400000.0625
118.71267414093018,-400000.0625,-42476.0390625,-28402.619140625,-400000.0625,-28447.73046875,-400000.0625,-26956.75,-400000.0625
118.78416919708252,-400000.0625,-42488.01171875,-28416.73046875,-400000.0625,-28460.98046875,-400000.0625,-26972.73046875,-400000.0625
118.79381036758423,-400000.0625,-42488.44140625,-28416.6796875,-400000.0625,-28454.830078125,-400000.0625,-26973.490234375,-400000.0625
118.79871869087219,-400000.0625,-42471.69921875,-28398.23046875,-400000.0625,-28434.609375,-400000.0625,-26950.890625,-400000.0625
118.79872822761536,-400000.0625,-42460.96875,-28389.83984375,-400000.0625,-28429.26953125,-400000.0625,-26944.2109375,-400000.0625
118.79873251914978,-400000.0625,-42471.83984375,-28398.990234375,-400000.0625,-28442.240234375,-400000.0625,-26956.419921875,-400000.0625
118.79873609542847,-400000.0625,-42486.390625,-28414.109375,-400000.0625,-28458.740234375,-400000.0625,-26973.25,-400000.0625
118.79873991012573,-400000.0625,-42485.578125,-28413.009765625,-400000.0625,-28456.259765625,-400000.0625,-26970.529296875,-400000.0625
118.79874396324158,-400000.0625,-42464.5,-28394.3203125,-400000.0625,-28436.4296875,-400000.0625,-26950.9296875,-400000.0625
118.79874753952026,-400000.0625,-42458.30078125,-28388.4609375,-400000.0625,-28432.900390625,-400000.0625,-26949.119140625,-400000.0625
118.79875135421753,-400000.0625,-42470.51171875,-28400.279296875,-400000.0625,-28445.76953125,-400000.0625,-26959.140625,-400000.0625
118.79875469207764,-400000.0625,-42486.71875,-28416.259765625,-400000.0625,-28458.119140625,-400000.0625,-26972.150390625,-400000.0625
118.7987585067749,-400000.0625,-42485.33984375,-28415.25,-400000.0625,-28450.349609375,-400000.0625,-26970.720703125,-400000.0625
118.79876184463501,-400000.0625,-42468.26953125,-28398.140625,-400000.0625,-28437.08984375,-400000.0625,-26954.890625,-400000.0625
118.7987654209137,-400000.0625,-42457.109375,-28390.4609375,-400000.0625,-28434.759765625,-400000.0625,-26948.740234375,-400000.0625
118.79877018928528,-400000.0625,-42467.6484375,-28399.23046875,-400000.0625,-28446.25,-400000.0625,-26956.80078125,-400000.0625
118.79877400398254,-400000.0625,-42485.91015625,-28416.109375,-400000.0625,-28458.220703125,-400000.0625,-26973.30078125,-400000.0625
118.81929206848145,-400000.0625,-42490.30078125,-28418.2109375,-400000.0625,-28456.5,-400000.0625,-26975.2109375,-400000.0625
118.8245017528534,-400000.0625,-42471.94140625,-28399.5703125,-400000.0625,-28435.5703125,-400000.0625,-26955.69921875,-400000.0625
118.82886028289795,-400000.0625,-42465.55078125,-28394.75,-400000.0625,-28436.470703125,-400000.0625,-26950.359375,-400000.0625
118.82886838912964,-400000.0625,-42476.75,-28405.76953125,-400000.0625,-28448.6796875,-400000.0625,-26963.140625,-400000.0625
118.82887244224548,-400000.0625,-42492.48828125,-28421.740234375,-400000.0625,-28461.41015625,-400000.0625,-26980.310546875,-400000.0625
118.82887601852417,-400000.0625,-42492.25,-28422.599609375,-400000.0625,-28458.220703125,-400000.0625,-26977.779296875,-400000.0625
118.82887959480286,-400000.0625,-42472.3203125,-28403.669921875,-400000.0625,-28439.5703125,-400000.0625,-26958.66015625,-400000.0625
118.82888317108154,-400000.0625,-42465.26171875,-28395.369140625,-400000.0625,-28434.380859375,-400000.0625,-26953.890625,-400000.0625
118.82888698577881,-400000.0625,-42474.890625,-28404.189453125,-400000.0625,-28447.8203125,-400000.0625,-26959.94921875,-400000.0625
118.8288905620575,-400000.0625,-42490.9609375,-28419.44921875,-400000.0625,-28460.359375,-400000.0625,-26977.01953125,-400000.0625
118.82889461517334,-400000.0625,-42491.3515625,-28420.55078125,-400000.0625,-28458.169921875,-400000.0625,-26978.5,-400000.0625
118.82889795303345,-400000.0625,-42473.12890625,-28402.94921875,-400000.0625,-28438.91015625,-400000.0625,-26960.0390625,-400000.0625
118.82890152931213,-400000.0625,-42460.87890625,-28394.849609375,-400000.0625,-28434.7109375,-400000.0625,-26952.560546875,-400000.0625
118.82890510559082,-400000.0625,-42467.98046875,-28402.51953125,-400000.0625,-28450.439453125,-400000.0625,-26960.759765625,-400000.0625
118.82890963554382,-400000.0625,-42485.33984375,-28418.9296875,-400000.0625,-28462.560546875,-400000.0625,-26977.830078125,-400000.0625
118.82891368865967,-400000.0625,-42491.921875,-28423.310546875,-400000.0625,-28460.650390625,-400000.0625,-26976.349609375,-400000.0625
118.91287446022034,-400000.0625,-42476.75,-28404.240234375,-400000.0625,-28439.2890625,-400000.0625,-26957.470703125,-400000.0625
118.92333197593689,-400000.0625,-42465.87890625,-28393.369140625,-400000.0625,-28431.66015625,-400000.0625,-26949.5,-400000.0625
118.92775440216064,-400000.0625,-42473.23046875,-28403.94921875,-400000.0625,-28446.529296875,-400000.0625,-26960.330078125,-400000.0625
118.92776298522949,-400000.0625,-42489.921875,-28418.830078125,-400000.0625,-28460.69921875,-400000.0625,-26978.259765625,-400000.0625
118.92776727676392,-400000.0625,-42495.96875,-28421.98046875,-400000.0625,-28461.939453125,-400000.0625,-26977.779296875,-400000.0625
118.92777132987976,-400000.0625,-42476.08984375,-28403.240234375,-400000.0625,-28441.2890625,-400000.0625,-26959.849609375,-400000.0625
118.92777490615845,-400000.0625,-42463.87890625,-28393.080078125,-400000.0625,-28432.990234375,-400000.0625,-26952.26953125,-400000.0625
118.92777872085571,-400000.0625,-42475.66015625,-28402.900390625,-400000.0625,-28444.099609375,-400000.0625,-26960.7109375,-400000.0625
118.9277822971344,-400000.0625,-42505.55859375,-28426.83984375,-400000.0625,-28461.560546875,-400000.0625,-26982.880859375,-400000.0625
118.92778611183167,-400000.0625,-42521.19921875,-28431.66015625,-400000.0625,-28463.69921875,-400000.0625,-26990.75,-400000.0625
118.92778968811035,-400000.0625,-42504.890625,-28414.25,-400000.0625,-28441.810546875,-400000.0625,-26974.970703125,-400000.0625
118.92779326438904,-400000.0625,-42493.25,-28409.439453125,-400000.0625,-28433.609375,-400000.0625,-26962.619140625,-400000.0625
118.92779684066772,-400000.0625,-42509.890625,-28427.650390625,-400000.0625,-28442.0,-400000.0625,-26972.9609375,-400000.0625
118.92780041694641,-400000.0625,-42540.26953125,-28454.349609375,-400000.0625,-28453.58984375,-400000.0625,-26995.609375,-400000.0625
118.927805185318,-400000.0625,-42565.87890625,-28466.23046875,-400000.0625,-28447.8203125,-400000.0625,-27009.349609375,-400000.0625
118.92780876159668,-400000.0625,-42563.73046875,-28456.119140625,-400000.0625,-28428.509765625,-400000.0625,-26994.80078125,-400000.0625
118.95056939125061,-400000.0625,-42564.44140625,-28459.119140625,-400000.0625,-28422.169921875,-400000.0625,-26994.759765625,-400000.0625
118.9556577205658,-400000.0625,-42595.921875,-28481.6796875,-400000.0625,-28434.900390625,-400000.0625,-27016.740234375,-400000.0625
118.96054530143738,-400000.0625,-42620.4296875,-28505.470703125,-400000.0625,-28447.919921875,-400000.0625,-27038.8203125,-400000.0625
118.96055340766907,-400000.0625,-42623.328125,-28509.94921875,-400000.0625,-28442.48046875,-400000.0625,-27045.73046875,-400000.0625
118.96055769920349,-400000.0625,-42618.46875,-28495.080078125,-400000.0625,-28421.9296875,-400000.0625,-27034.380859375,-400000.0625
118.96056270599365,-400000.0625,-42621.4296875,-28491.01953125,-400000.0625,-28418.259765625,-400000.0625,-27025.419921875,-400000.0625
118.96056652069092,-400000.0625,-42633.62890625,-28506.849609375,-400000.0625,-28433.08984375,-400000.0625,-27036.150390625,-400000.0625
118.96057057380676,-400000.0625,-42650.55859375,-28522.830078125,-400000.0625,-28444.390625,-400000.0625,-27060.890625,-400000.0625
118.96057415008545,-400000.0625,-42657.2890625,-28522.919921875,-400000.0625,-28442.0,-400000.0625,-27058.890625,-400000.0625
118.96057772636414,-400000.0625,-42640.171875,-28506.470703125,-400000.0625,-28425.7890625,-400000.0625,-27036.5703125,-400000.0625
118.96058106422424,-400000.0625,-42630.1484375,-28495.509765625,-400000.0625,-28422.44921875,-400000.0625,-27032.0,-400000.0625
118.96058464050293,-400000.0625,-42639.69140625,-28501.75,-400000.0625,-28435.0390625,-400000.0625,-27041.919921875,-400000.0625
118.96058797836304,-400000.0625,-42651.98828125,-28512.76953125,-400000.0625,-28441.619140625,-400000.0625,-27055.740234375,-400000.0625
118.96059155464172,-400000.0625,-42651.7109375,-28514.529296875,-400000.0625,-28437.7109375,-400000.0625,-27053.220703125,-400000.0625
118.96059560775757,-400000.0625,-42634.16015625,-28496.55078125,-400000.0625,-28427.890625,-400000.0625,-27032.08984375,-400000.0625
118.96059966087341,-400000.0625,-42622.19140625,-28485.30078125,-400000.0625,-28422.44921875,-400000.0625,-27024.990234375,-400000.0625
119.0254487991333,-400000.0625,-42630.87109375,-28496.55078125,-400000.0625,-28434.279296875,-400000.0625,-27033.7109375,-400000.0625
119.03523373603821,-400000.0625,-42648.1796875,-28512.390625,-400000.0625,-28445.91015625,-400000.0625,-27052.689453125,-400000.0625
119.04012775421143,-400000.0625,-42652.8515625,-28513.2890625,-400000.0625,-28444.580078125,-400000.0625,-27053.880859375,-400000.0625
119.0401382446289,-400000.0625,-42640.26171875,-28495.220703125,-400000.0625,-28426.98046875,-400000.0625,-27035.099609375,-400000.0625
119.04014277458191,-400000.0625,-42640.640625,-28488.16015625,-400000.0625,-28424.55078125,-400000.0625,-27033.330078125,-400000.0625
119.04014682769775,-400000.0625,-42647.6484375,-28497.169921875,-400000.0625,-28439.810546875,-400000.0625,-27040.439453125,-400000.0625
119.0401508808136,-400000.0625,-42656.08984375,-28516.009765625,-400000.0625,-28445.869140625,-400000.0625,-27050.779296875,-400000.0625
119.04015517234802,-400000.0625,-42663.671875,-28524.2109375,-400000.0625,-28441.150390625,-400000.0625,-27056.220703125,-400000.0625
119.04015874862671,-400000.0625,-42656.5703125,-28514.720703125,-400000.0625,-28425.7890625,-400000.0625,-27044.16015625,-400000.0625
119.04016208648682,-400000.0625,-42652.28125,-28509.099609375,-400000.0625,-28418.400390625,-400000.0625,-27038.05078125,-400000.0625
119.04016613960266,-400000.0625,-42668.05859375,-28521.400390625,-400000.0625,-28430.560546875,-400000.0625,-27048.349609375,-400000.0625
119.04016971588135,-400000.0625,-42687.66015625,-28540.279296875,-400000.0625,-28447.009765625,-400000.0625,-27061.419921875,-400000.0625
119.04017305374146,-400000.0625,-42698.25,-28544.720703125,-400000.0625,-28448.630859375,-400000.0625,-27064.23046875,-400000.0625
119.04017663002014,-400000.0625,-42679.41015625,-28524.01953125,-400000.0625,-28432.23046875,-400000.0625,-27049.2109375,-400000.0625
119.04018020629883,-400000.0625,-42664.33984375,-28514.9609375,-400000.0625,-28425.169921875,-400000.0625,-27043.30078125,-400000.0625
119.04018354415894,-400000.0625,-42673.9296875,-28527.689453125,-400000.0625,-28437.619140625,-400000.0625,-27050.310546875,-400000.0625
119.08135223388672,-400000.0625,-42690.62109375,-28542.5703125,-400000.0625,-28448.6796875,-400000.0625,-27063.369140625,-400000.0625
119.08645963668823,-400000.0625,-42692.8984375,-28542.51953125,-400000.0625,-28445.869140625,-400000.0625,-27065.759765625,-400000.0625
119.0911238193512,-400000.0625,-42676.30859375,-28523.640625,-400000.0625,-28425.26953125,-400000.0625,-27044.919921875,-400000.0625
119.0911340713501,-400000.0625,-42664.87109375,-28512.91015625,-400000.0625,-28421.0703125,-400000.0625,-27036.619140625,-400000.0625
119.09113883972168,-400000.0625,-42673.55078125,-28520.640625,-400000.0625,-28434.419921875,-400000.0625,-27048.109375,-400000.0625
119.09114265441895,-400000.0625,-42690.5703125,-28536.609375,-400000.0625,-28448.16015625,-400000.0625,-27063.94921875,-400000.0625
119.09114789962769,-400000.0625,-42690.66015625,-28536.66015625,-400000.0625,-28444.390625,-400000.0625,-27064.849609375,-400000.0625
119.09115195274353,-400000.0625,-42672.16015625,-28518.5390625,-400000.0625,-28426.83984375,-400000.0625,-27045.779296875,-400000.0625
119.09115552902222,-400000.0625,-42665.8203125,-28511.91015625,-400000.0625,-28424.359375,-400000.0625,-27037.810546875,-400000.0625
119.09115958213806,-400000.0625,-42673.640625,-28519.73046875,-400000.0625,-28435.419921875,-400000.0625,-27046.01953125,-400000.0625
119.09116339683533,-400000.0625,-42686.66015625,-28536.0390625,-400000.0625,-28444.630859375,-400000.0625,-27057.029296875,-400000.0625
119.09116673469543,-400000.0625,-42689.8984375,-28539.51953125,-400000.0625,-28444.630859375,-400000.0625,-27057.75,-400000.0625
119.0911705493927,-400000.0625,-42668.44140625,-28518.009765625,-400000.0625,-28428.4609375,-400000.0625,-27041.720703125,-400000.0625
119.09117388725281,-400000.0625,-42661.8203125,-28509.669921875,-400000.0625,-28425.3203125,-400000.0625,-27035.189453125,-400000.0625
119.09117722511292,-400000.0625,-42673.640625,-28520.439453125,-400000.0625,-28438.240234375,-400000.0625,-27046.060546875,-400000.0625
119.09118103981018,-400000.0625,-42690.62109375,-28536.509765625,-400000.0625,-28450.109375,-400000.0625,-27057.83984375,-400000.0625
119.13667106628418,-400000.0625,-42691.05078125,-28536.990234375,-400000.0625,-28444.8203125,-400000.0625,-27059.080078125,-400000.0625
119.14615082740784,-400000.0625,-42672.3515625,-28516.580078125,-400000.0625,-28424.359375,-400000.0625,-27041.8203125,-400000.0625
119.15129971504211,-400000.0625,-42663.91015625,-28506.470703125,-400000.0625,-28421.44921875,-400000.0625,-27031.5703125,-400000.0625
119.15577936172485,-400000.0625,-42672.87890625,-28518.30078125,-400000.0625,-28438.140625,-400000.0625,-27039.859375,-400000.0625
119.15578937530518,-400000.0625,-42684.3203125,-28530.310546875,-400000.0625,-28447.6796875,-400000.0625,-27055.4609375,-400000.0625
119.15579390525818,-400000.0625,-42689.140625,-28530.55078125,-400000.0625,-28441.9609375,-400000.0625,-27054.5,-400000.0625
119.15579795837402,-400000.0625,-42675.55078125,-28516.869140625,-400000.0625,-28426.69921875,-400000.0625,-27038.91015625,-400000.0625
119.15580177307129,-400000.0625,-42670.921875,-28509.05078125,-400000.0625,-28423.029296875,-400000.0625,-27035.4296875,-400000.0625
119.15580534934998,-400000.0625,-42682.55859375,-28520.439453125,-400000.0625,-28437.08984375,-400000.0625,-27041.150390625,-400000.0625
119.15580892562866,-400000.0625,-42693.2890625,-28542.810546875,-400000.0625,-28454.830078125,-400000.0625,-27043.76953125,-400000.0625
119.15581226348877,-400000.0625,-42698.671875,-28553.19921875,-400000.0625,-28454.779296875,-400000.0625,-27039.390625,-400000.0625
119.15581583976746,-400000.0625,-42687.46875,-28538.66015625,-400000.0625,-28436.66015625,-400000.0625,-27025.1796875,-400000.0625
119.15581941604614,-400000.0625,-42686.55859375,-28534.509765625,-400000.0625,-28432.419921875,-400000.0625,-27010.779296875,-400000.0625
119.15582323074341,-400000.0625,-42699.76953125,-28550.720703125,-400000.0625,-28444.630859375,-400000.0625,-27014.16015625,-400000.0625
119.15582799911499,-400000.0625,-42713.4609375,-28570.26953125,-400000.0625,-28457.5,-400000.0625,-27024.939453125,-400000.0625
119.15583181381226,-400000.0625,-42717.3203125,-28572.849609375,-400000.0625,-28452.689453125,-400000.0625,-27024.69921875,-400000.0625
119.20255875587463,-400000.0625,-42700.76953125,-28555.349609375,-400000.0625,-28433.66015625,-400000.0625,-27008.349609375,-400000.0625
119.20784330368042,-400000.0625,-42690.62109375,-28545.05078125,-400000.0625,-28425.7890625,-400000.0625,-27001.720703125,-400000.0625
119.21216416358948,-400000.0625,-42695.80859375,-28554.400390625,-400000.0625,-28435.5703125,-400000.0625,-27012.44921875,-400000.0625
119.21217179298401,-400000.0625,-42711.98046875,-28569.560546875,-400000.0625,-28453.779296875,-400000.0625,-27028.990234375,-400000.0625
119.21217584609985,-400000.0625,-42712.69140625,-28570.080078125,-400000.0625,-28453.640625,-400000.0625,-27031.08984375,-400000.0625
119.21218037605286,-400000.0625,-42699.25,-28556.2109375,-400000.0625,-28437.0,-400000.0625,-27013.109375,-400000.0625
119.21218395233154,-400000.0625,-42687.75,-28546.76953125,-400000.0625,-28427.650390625,-400000.0625,-27003.9609375,-400000.0625
119.21218752861023,-400000.0625,-42695.19140625,-28551.8203125,-400000.0625,-28437.189453125,-400000.0625,-27013.880859375,-400000.0625
119.21219110488892,-400000.0625,-42713.73828125,-28567.3203125,-400000.0625,-28450.58984375,-400000.0625,-27025.3203125,-400000.0625
119.21219491958618,-400000.0625,-42713.83984375,-28568.560546875,-400000.0625,-28449.5390625,-400000.0625,-27026.75,-400000.0625
119.21219825744629,-400000.0625,-42694.53125,-28550.439453125,-400000.0625,-28432.609375,-400000.0625,-27009.73046875,-400000.0625
119.2122015953064,-400000.0625,-42686.51953125,-28543.330078125,-400000.0625,-28429.609375,-400000.0625,-26999.759765625,-400000.0625
119.21220517158508,-400000.0625,-42695.1484375,-28553.19921875,-400000.0625,-28440.4296875,-400000.0625,-27009.58984375,-400000.0625
119.21220850944519,-400000.0625,-42712.12109375,-28567.69921875,-400000.0625,-28452.400390625,-400000.0625,-27023.69921875,-400000.0625
119.21221208572388,-400000.0625,-42711.9296875,-28567.509765625,-400000.0625,-28451.2109375,-400000.0625,-27024.509765625,-400000.0625
119.21221566200256,-400000.0625,-42693.94921875,-28547.810546875,-400000.0625,-28432.849609375,-400000.0625,-27006.009765625,-400000.0625
119.29808259010315,-400000.0625,-42685.12890625,-28540.330078125,-400000.0625,-28432.130859375,-400000.0625,-26998.619140625,-400000.0625
119.30903959274292,-400000.0625,-42694.91015625,-28551.060546875,-400000.0625,-28443.099609375,-400000.0625,-27007.76953125,-400000.0625
119.3141188621521,-400000.0625,-42710.828125,-28565.9296875,-400000.0625,-28454.740234375,-400000.0625,-27022.3203125,-400000.0625
119.31898045539856,-400000.0625,-42711.640625,-28563.83984375,-400000.0625,-28451.490234375,-400000.0625,-27023.1796875,-400000.0625
119.3189902305603,-400000.0625,-42690.0,-28542.330078125,-400000.0625,-28429.23046875,-400000.0625,-27006.25,-400000.0625
119.31899428367615,-400000.0625,-42684.12890625,-28538.900390625,-400000.0625,-28427.890625,-400000.0625,-26997.51953125,-400000.0625
119.31899905204773,-400000.0625,-42694.62109375,-28549.2890625,-400000.0625,-28441.4296875,-400000.0625,-27006.19921875,-400000.0625
119.31900358200073,-400000.0625,-42707.9296875,-28562.9296875,-400000.0625,-28454.44921875,-400000.0625,-27023.26953125,-400000.0625
119.31900715827942,-400000.0625,-42706.73046875,-28563.7890625,-400000.0625,-28450.109375,-400000.0625,-27024.80078125,-400000.0625
119.31901097297668,-400000.0625,-42692.671875,-28546.4296875,-400000.0625,-28432.08984375,-400000.0625,-27005.869140625,-400000.0625
119.31901574134827,-400000.0625,-42682.26953125,-28538.609375,-400000.0625,-28427.69921875,-400000.0625,-26998.08984375,-400000.0625
119.31901955604553,-400000.0625,-42689.76171875,-28548.529296875,-400000.0625,-28440.669921875,-400000.0625,-27003.4296875,-400000.0625
119.3190233707428,-400000.0625,-42706.0703125,-28565.83984375,-400000.0625,-28453.16015625,-400000.0625,-27021.359375,-400000.0625
119.31902718544006,-400000.0625,-42709.0703125,-28568.69921875,-400000.0625,-28448.6796875,-400000.0625,-27029.470703125,-400000.0625
119.31903076171875,-400000.0625,-42691.19140625,-28549.2890625,-400000.0625,-28433.560546875,-400000.0625,-27007.109375,-400000.0625
119.31903409957886,-400000.0625,-42681.6484375,-28542.94921875,-400000.0625,-28429.560546875,-400000.0625,-26999.4296875,-400000.0625
119.34034252166748,-400000.0625,-42693.1015625,-28554.25,-400000.0625,-28439.330078125,-400000.0625,-27008.19921875,-400000.0625
119.34552645683289,-400000.0625,-42710.44921875,-28570.849609375,-400000.0625,-28455.119140625,-400000.0625,-27022.69921875,-400000.0625
119.35038447380066,-400000.0625,-42712.98046875,-28571.1796875,-400000.0625,-28454.880859375,-400000.0625,-27026.279296875,-400000.0625
119.35039591789246,-400000.0625,-42692.8984375,-28549.390625,-400000.0625,-28432.66015625,-400000.0625,-27007.8203125,-400000.0625
119.35040020942688,-400000.0625,-42686.3203125,-28542.859375,-400000.0625,-28429.69921875,-400000.0625,-26996.5703125,-400000.0625
119.3504045009613,-400000.0625,-42691.62109375,-28548.529296875,-400000.0625,-28441.380859375,-400000.0625,-27006.099609375,-400000.0625
119.35040831565857,-400000.0625,-42702.48828125,-28562.169921875,-400000.0625,-28452.970703125,-400000.0625,-27021.3203125,-400000.0625
119.35041308403015,-400000.0625,-42707.109375,-28567.220703125,-400000.0625,-28451.109375,-400000.0625,-27024.3203125,-400000.0625
119.35041666030884,-400000.0625,-42694.9609375,-28551.19921875,-400000.0625,-28436.240234375,-400000.0625,-27010.30078125,-400000.0625
119.3504204750061,-400000.0625,-42685.23046875,-28543.0,-400000.0625,-28434.279296875,-400000.0625,-27001.05078125,-400000.0625
119.35042476654053,-400000.0625,-42689.0390625,-28549.869140625,-400000.0625,-28444.439453125,-400000.0625,-27008.25,-400000.0625
119.35042810440063,-400000.0625,-42701.87109375,-28562.83984375,-400000.0625,-28453.16015625,-400000.0625,-27024.83984375,-400000.0625
119.35043168067932,-400000.0625,-42704.921875,-28566.169921875,-400000.0625,-28450.060546875,-400000.0625,-27029.80078125,-400000.0625
119.35043525695801,-400000.0625,-42689.19140625,-28550.630859375,-400000.0625,-28436.66015625,-400000.0625,-27011.6796875,-400000.0625
119.3504388332367,-400000.0625,-42681.171875,-28541.66015625,-400000.0625,-28434.380859375,-400000.0625,-27001.5703125,-400000.0625
119.35044240951538,-400000.0625,-42686.66015625,-28549.630859375,-400000.0625,-28443.529296875,-400000.0625,-27007.060546875,-400000.0625
119.39810681343079,-400000.0625,-42706.109375,-28566.169921875,-400000.0625,-28456.55078125,-400000.0625,-27022.26953125,-400000.0625
119.40737342834473,-400000.0625,-42706.109375,-28564.650390625,-400000.0625,-28452.2109375,-400000.0625,-27026.0390625,-400000.0625
119.4116907119751,-400000.0625,-42686.75,-28547.48046875,-400000.0625,-28434.609375,-400000.0625,-27008.8203125,-400000.0625
119.41169857978821,-400000.0625,-42680.078125,-28539.369140625,-400000.0625,-28434.419921875,-400000.0625,-27002.859375,-400000.0625
119.41170287132263,-400000.0625,-42691.8984375,-28550.2890625,-400000.0625,-28447.439453125,-400000.0625,-27010.58984375,-400000.0625
119.4117066860199,-400000.0625,-42706.44921875,-28564.890625,-400000.0625,-28460.4609375,-400000.0625,-27027.1796875,-400000.0625
119.41171073913574,-400000.0625,-42712.21875,-28565.69921875,-400000.0625,-28459.119140625,-400000.0625,-27031.23046875,-400000.0625
119.41171455383301,-400000.0625,-42695.0,-28547.4296875,-400000.0625,-28444.25,-400000.0625,-27012.01953125,-400000.0625
119.4117181301117,-400000.0625,-42668.3515625,-28528.310546875,-400000.0625,-28429.029296875,-400000.0625,-27009.19921875,-400000.0625
119.41172170639038,-400000.0625,-42667.25,-28529.69921875,-400000.0625,-28431.75,-400000.0625,-27025.80078125,-400000.0625
119.41172647476196,-400000.0625,-42674.171875,-28535.890625,-400000.0625,-28441.9609375,-400000.0625,-27049.349609375,-400000.0625
119.41173005104065,-400000.0625,-42663.671875,-28527.359375,-400000.0625,-28440.099609375,-400000.0625,-27056.55078125,-400000.0625
119.41173362731934,-400000.0625,-42640.87890625,-28498.990234375,-400000.0625,-28420.7890625,-400000.0625,-27047.2109375,-400000.0625
119.41173696517944,-400000.0625,-42628.48046875,-28481.19921875,-400000.0625,-28415.01953125,-400000.0625,-27048.16015625,-400000.0625
119.41174054145813,-400000.0625,-42621.80859375,-28478.669921875,-400000.0625,-28421.01953125,-400000.0625,-27064.759765625,-400000.0625
119.41174411773682,-400000.0625,-42630.76953125,-28488.73046875,-400000.0625,-28429.69921875,-400000.0625,-27090.509765625,-400000.0625
119.45539879798889,-400000.0625,-42639.01953125,-28487.5390625,-400000.0625,-28427.650390625,-400000.0625,-27098.470703125,-400000.0625
119.46067261695862,-400000.0625,-42618.37890625,-28464.990234375,-400000.0625,-28410.91015625,-400000.0625,-27082.30078125,-400000.0625
119.46508812904358,-400000.0625,-42607.03125,-28455.259765625,-400000.0625,-28406.48046875,-400000.0625,-27074.48046875,-400000.0625
119.4650981426239,-400000.0625,-42615.28125,-28463.609375,-400000.0625,-28416.58984375,-400000.0625,-27083.640625,-400000.0625
119.46510219573975,-400000.0625,-42628.8203125,-28476.529296875,-400000.0625,-28430.1796875,-400000.0625,-27100.759765625,-400000.0625
119.46510696411133,-400000.0625,-42632.8203125,-28478.2890625,-400000.0625,-28427.939453125,-400000.0625,-27100.0390625,-400000.0625
119.4651107788086,-400000.0625,-42616.08984375,-28460.169921875,-400000.0625,-28410.390625,-400000.0625,-27081.830078125,-400000.0625
119.46511459350586,-400000.0625,-42609.3203125,-28449.8203125,-400000.0625,-28404.529296875,-400000.0625,-27072.05078125,-400000.0625
119.4651186466217,-400000.0625,-42621.19140625,-28460.599609375,-400000.0625,-28417.779296875,-400000.0625,-27077.439453125,-400000.0625
119.46512246131897,-400000.0625,-42634.87109375,-28474.140625,-400000.0625,-28428.83984375,-400000.0625,-27093.1796875,-400000.0625
119.46512603759766,-400000.0625,-42635.87890625,-28473.140625,-400000.0625,-28425.7890625,-400000.0625,-27096.130859375,-400000.0625
119.46512961387634,-400000.0625,-42621.19140625,-28458.359375,-400000.0625,-28410.869140625,-400000.0625,-27081.060546875,-400000.0625
119.46513295173645,-400000.0625,-42610.69921875,-28449.6796875,-400000.0625,-28405.669921875,-400000.0625,-27071.099609375,-400000.0625
119.46513652801514,-400000.0625,-42619.609375,-28456.01953125,-400000.0625,-28415.6796875,-400000.0625,-27077.919921875,-400000.0625
119.46513986587524,-400000.0625,-42636.58984375,-28470.759765625,-400000.0625,-28425.69921875,-400000.0625,-27095.990234375,-400000.0625
119.46514320373535,-400000.0625,-42638.2109375,-28473.619140625,-400000.0625,-28426.3203125,-400000.0625,-27097.66015625,-400000.0625
119.53682351112366,-400000.0625,-42620.51953125,-28456.259765625,-400000.0625,-28411.9609375,-400000.0625,-27080.58984375,-400000.0625
119.54574680328369,-400000.0625,-42612.41015625,-28447.109375,-400000.0625,-28407.76953125,-400000.0625,-27070.380859375,-400000.0625
119.55055332183838,-400000.0625,-42621.671875,-28455.359375,-400000.0625,-28416.58984375,-400000.0625,-27078.25,-400000.0625
119.55056285858154,-400000.0625,-42635.3984375,-28469.1796875,-400000.0625,-28428.75,-400000.0625,-27095.849609375,-400000.0625
119.55056715011597,-400000.0625,-42637.9296875,-28471.4296875,-400000.0625,-28427.7890625,-400000.0625,-27100.279296875,-400000.0625
119.55057120323181,-400000.0625,-42626.33984375,-28456.740234375,-400000.0625,-28412.150390625,-400000.0625,-27080.73046875,-400000.0625
119.5505747795105,-400000.0625,-42613.69921875,-28445.9609375,-400000.0625,-28406.240234375,-400000.0625,-27074.76953125,-400000.0625
119.55057859420776,-400000.0625,-42619.140625,-28454.640625,-400000.0625,-28416.349609375,-400000.0625,-27081.6796875,-400000.0625
119.55058217048645,-400000.0625,-42637.69140625,-28471.759765625,-400000.0625,-28430.66015625,-400000.0625,-27098.990234375,-400000.0625
119.55058598518372,-400000.0625,-42642.6484375,-28476.150390625,-400000.0625,-28430.509765625,-400000.0625,-27102.279296875,-400000.0625
119.55058932304382,-400000.0625,-42623.328125,-28458.41015625,-400000.0625,-28411.009765625,-400000.0625,-27082.640625,-400000.0625
119.55059289932251,-400000.0625,-42611.6484375,-28447.73046875,-400000.0625,-28406.099609375,-400000.0625,-27073.390625,-400000.0625
119.55059671401978,-400000.0625,-42622.19140625,-28456.98046875,-400000.0625,-28418.58984375,-400000.0625,-27080.73046875,-400000.0625
119.55060029029846,-400000.0625,-42637.87890625,-28472.279296875,-400000.0625,-28430.890625,-400000.0625,-27094.69921875,-400000.0625
119.55060505867004,-400000.0625,-42635.30078125,-28471.810546875,-400000.0625,-28426.75,-400000.0625,-27097.419921875,-400000.0625
119.55060863494873,-400000.0625,-42619.94921875,-28453.880859375,-400000.0625,-28411.109375,-400000.0625,-27079.390625,-400000.0625
119.64784622192383,-400000.0625,-42613.078125,-28446.8203125,-400000.0625,-28407.720703125,-400000.0625,-27068.5703125,-400000.0625
119.65733909606934,-400000.0625,-42620.19140625,-28456.310546875,-400000.0625,-28420.119140625,-400000.0625,-27078.25,-400000.0625
119.66166853904724,-400000.0625,-42638.30859375,-28473.0,-400000.0625,-28436.279296875,-400000.0625,-27093.75,-400000.0625
119.66167640686035,-400000.0625,-42643.41015625,-28475.0,-400000.0625,-28430.26953125,-400000.0625,-27096.369140625,-400000.0625
119.66168093681335,-400000.0625,-42621.671875,-28456.9296875,-400000.0625,-28408.009765625,-400000.0625,-27080.73046875,-400000.0625
119.66168475151062,-400000.0625,-42612.890625,-28450.439453125,-400000.0625,-28407.669921875,-400000.0625,-27072.9609375,-400000.0625
119.66168856620789,-400000.0625,-42622.5703125,-28457.9296875,-400000.0625,-28420.880859375,-400000.0625,-27081.30078125,-400000.0625
119.66169238090515,-400000.0625,-42637.5390625,-28470.23046875,-400000.0625,-28433.279296875,-400000.0625,-27096.609375,-400000.0625
119.66169595718384,-400000.0625,-42639.98046875,-28473.669921875,-400000.0625,-28430.990234375,-400000.0625,-27100.380859375,-400000.0625
119.6616997718811,-400000.0625,-42620.7109375,-28454.830078125,-400000.0625,-28410.529296875,-400000.0625,-27082.830078125,-400000.0625
119.66170382499695,-400000.0625,-42612.41015625,-28445.6796875,-400000.0625,-28408.580078125,-400000.0625,-27072.619140625,-400000.0625
119.66170716285706,-400000.0625,-42619.37890625,-28455.44921875,-400000.0625,-28421.41015625,-400000.0625,-27082.060546875,-400000.0625
119.66171097755432,-400000.0625,-42636.48828125,-28473.189453125,-400000.0625,-28432.900390625,-400000.0625,-27096.080078125,-400000.0625
119.66171455383301,-400000.0625,-42640.828125,-28474.669921875,-400000.0625,-28429.3203125,-400000.0625,-27099.419921875,-400000.0625
119.6617181301117,-400000.0625,-42622.94921875,-28457.0703125,-400000.0625,-28411.919921875,-400000.0625,-27081.349609375,-400000.0625
119.66172194480896,-400000.0625,-42616.421875,-28448.349609375,-400000.0625,-28411.8203125,-400000.0625,-27073.009765625,-400000.0625
119.66172575950623,-400000.0625,-42625.37890625,-28455.310546875,-400000.0625,-28422.83984375,-400000.0625,-27080.830078125,-400000.0625
119.66172981262207,-400000.0625,-42641.6015625,-28474.330078125,-400000.0625,-28435.189453125,-400000.0625,-27094.3203125,-400000.0625
119.66173362731934,-400000.0625,-42645.171875,-28478.099609375,-400000.0625,-28434.140625,-400000.0625,-27098.130859375,-400000.0625
119.66173720359802,-400000.0625,-42622.37890625,-28458.880859375,-400000.0625,-28413.970703125,-400000.0625,-27084.16015625,-400000.0625
119.66174077987671,-400000.0625,-42612.3203125,-28449.009765625,-400000.0625,-28406.4296875,-400000.0625,-27074.19921875,-400000.0625
119.6617443561554,-400000.0625,-42625.2890625,-28457.599609375,-400000.0625,-28420.830078125,-400000.0625,-27081.5390625,-400000.0625
119.66174817085266,-400000.0625,-42642.30859375,-28474.0,-400000.0625,-28435.759765625,-400000.0625,-27094.419921875,-400000.0625
119.66175198554993,-400000.0625,-42645.3203125,-28478.05078125,-400000.0625,-28434.94921875,-400000.0625,-27096.560546875,-400000.0625
119.66175556182861,-400000.0625,-42627.859375,-28457.599609375,-400000.0625,-28415.349609375,-400000.0625,-27079.869140625,-400000.0625
119.66175889968872,-400000.0625,-42620.0,-28447.73046875,-400000.0625,-28408.8203125,-400000.0625,-27070.189453125,-400000.0625
119.66176247596741,-400000.0625,-42627.71875,-28459.599609375,-400000.0625,-28422.7890625,-400000.0625,-27080.109375,-400000.0625
119.6617660522461,-400000.0625,-42641.87890625,-28474.619140625,-400000.0625,-28435.189453125,-400000.0625,-27097.66015625,-400000.0625
119.66176962852478,-400000.0625,-42648.421875,-28477.8203125,-400000.0625,-28434.380859375,-400000.0625,-27100.380859375,-400000.0625
119.66177296638489,-400000.0625,-42628.76953125,-28459.650390625,-400000.0625,-28414.490234375,-400000.0625,-27081.44921875,-400000.0625
119.66177654266357,-400000.0625,-42620.80859375,-28451.109375,-400000.0625,-28409.009765625,-400000.0625,-27072.720703125,-400000.0625
119.66178011894226,-400000.0625,-42633.58984375,-28460.3203125,-400000.0625,-28423.650390625,-400000.0625,-27079.869140625,-400000.0625
119.7242865562439,-400000.0625,-42649.37109375,-28477.150390625,-400000.0625,-28434.900390625,-400000.0625,-27095.3203125,-400000.0625
119.72937202453613,-400000.0625,-42653.76171875,-28479.76953125,-400000.0625,-28432.900390625,-400000.0625,-27101.94921875,-400000.0625
119.7340157032013,-400000.0625,-42638.73828125,-28459.5,-400000.0625,-28415.58984375,-400000.0625,-27082.779296875,-400000.0625
119.73402571678162,-400000.0625,-42633.8203125,-28450.970703125,-400000.0625,-28408.33984375,-400000.0625,-27074.8203125,-400000.0625
119.73403024673462,-400000.0625,-42648.26953125,-28452.16015625,-400000.0625,-28420.7890625,-400000.0625,-27084.400390625,-400000.0625
119.73403477668762,-400000.0625,-42671.78125,-28468.990234375,-400000.0625,-28432.419921875,-400000.0625,-27093.41015625,-400000.0625
119.73404002189636,-400000.0625,-42669.58984375,-28461.029296875,-400000.0625,-28420.880859375,-400000.0625,-27087.9296875,-400000.0625
119.7340440750122,-400000.0625,-42657.19140625,-28457.119140625,-400000.0625,-28402.5703125,-400000.0625,-27084.880859375,-400000.0625
119.7340476512909,-400000.0625,-42640.01953125,-28470.849609375,-400000.0625,-28399.759765625,-400000.0625,-27088.029296875,-400000.0625
119.73405122756958,-400000.0625,-42648.98828125,-28472.05078125,-400000.0625,-28406.0,-400000.0625,-27098.419921875,-400000.0625
119.73405456542969,-400000.0625,-42677.87890625,-28464.849609375,-400000.0625,-28403.4296875,-400000.0625,-27099.990234375,-400000.0625
119.73405814170837,-400000.0625,-42703.62890625,-28463.3203125,-400000.0625,-28384.259765625,-400000.0625,-27103.08984375,-400000.0625
119.73406147956848,-400000.0625,-42689.8984375,-28478.669921875,-400000.0625,-28362.94921875,-400000.0625,-27106.76953125,-400000.0625
119.73406505584717,-400000.0625,-42687.8984375,-28487.970703125,-400000.0625,-28354.55078125,-400000.0625,-27112.33984375,-400000.0625
119.73406863212585,-400000.0625,-42699.6796875,-28489.119140625,-400000.0625,-28347.349609375,-400000.0625,-27130.369140625,-400000.0625
119.73407244682312,-400000.0625,-42744.828125,-28510.189453125,-400000.0625,-28343.970703125,-400000.0625,-27151.779296875,-400000.0625
119.78071594238281,-400000.0625,-42773.19921875,-28518.30078125,-400000.0625,-28329.0390625,-400000.0625,-27159.98046875,-400000.0625
119.79014945030212,-400000.0625,-42778.44921875,-28507.380859375,-400000.0625,-28292.51953125,-400000.0625,-27154.640625,-400000.0625
119.79439735412598,-400000.0625,-42792.08984375,-28509.51953125,-400000.0625,-28271.869140625,-400000.0625,-27163.990234375,-400000.0625
119.79440546035767,-400000.0625,-42812.640625,-28523.970703125,-400000.0625,-28270.919921875,-400000.0625,-27188.970703125,-400000.0625
119.79440975189209,-400000.0625,-42850.0703125,-28542.94921875,-400000.0625,-28279.779296875,-400000.0625,-27211.91015625,-400000.0625
119.79441380500793,-400000.0625,-42867.140625,-28549.9609375,-400000.0625,-28271.009765625,-400000.0625,-27220.109375,-400000.0625
119.79441809654236,-400000.0625,-42859.51171875,-28535.130859375,-400000.0625,-28249.41015625,-400000.0625,-27207.0,-400000.0625
119.7944221496582,-400000.0625,-42859.26953125,-28525.2109375,-400000.0625,-28239.109375,-400000.0625,-27206.7109375,-400000.0625
119.79442596435547,-400000.0625,-42867.140625,-28529.26953125,-400000.0625,-28248.26953125,-400000.0625,-27215.91015625,-400000.0625
119.79443001747131,-400000.0625,-42876.1484375,-28541.66015625,-400000.0625,-28260.0390625,-400000.0625,-27230.650390625,-400000.0625
119.79443430900574,-400000.0625,-42881.5390625,-28544.05078125,-400000.0625,-28268.669921875,-400000.0625,-27237.66015625,-400000.0625
119.79443836212158,-400000.0625,-42868.91015625,-28525.44921875,-400000.0625,-28258.279296875,-400000.0625,-27222.30078125,-400000.0625
119.79444193840027,-400000.0625,-42852.9296875,-28515.529296875,-400000.0625,-28256.23046875,-400000.0625,-27211.2890625,-400000.0625
119.79444551467896,-400000.0625,-42854.26953125,-28522.109375,-400000.0625,-28273.16015625,-400000.0625,-27219.630859375,-400000.0625
119.79444909095764,-400000.0625,-42858.26953125,-28536.470703125,-400000.0625,-28291.66015625,-400000.0625,-27232.130859375,-400000.0625
119.79445314407349,-400000.0625,-42850.0703125,-28538.560546875,-400000.0625,-28296.900390625,-400000.0625,-27228.359375,-400000.0625
119.84294724464417,-400000.0625,-42824.80078125,-28517.19921875,-400000.0625,-28285.4609375,-400000.0625,-27202.470703125,-400000.0625
119.84789395332336,-400000.0625,-42801.71875,-28502.849609375,-400000.0625,-28285.939453125,-400000.0625,-27190.0703125,-400000.0625
119.84790349006653,-400000.0625,-42802.19921875,-28509.51953125,-400000.0625,-28307.109375,-400000.0625,-27193.220703125,-400000.0625
119.84790825843811,-400000.0625,-42809.2109375,-28522.30078125,-400000.0625,-28326.23046875,-400000.0625,-27205.759765625,-400000.0625
119.84791231155396,-400000.0625,-42796.94921875,-28520.73046875,-400000.0625,-28327.75,-400000.0625,-27206.5703125,-400000.0625
119.84791684150696,-400000.0625,-42770.1484375,-28502.419921875,-400000.0625,-28313.779296875,-400000.0625,-27184.919921875,-400000.0625
119.8479208946228,-400000.0625,-42752.03125,-28488.830078125,-400000.0625,-28312.640625,-400000.0625,-27171.470703125,-400000.0625
119.84792470932007,-400000.0625,-42753.6484375,-28492.880859375,-400000.0625,-28331.240234375,-400000.0625,-27176.189453125,-400000.0625
119.84792828559875,-400000.0625,-42760.421875,-28505.5703125,-400000.0625,-28350.880859375,-400000.0625,-27190.779296875,-400000.0625
119.84793210029602,-400000.0625,-42756.51171875,-28507.05078125,-400000.0625,-28354.119140625,-400000.0625,-27189.01953125,-400000.0625
119.8479356765747,-400000.0625,-42731.390625,-28486.109375,-400000.0625,-28342.16015625,-400000.0625,-27164.41015625,-400000.0625
119.84793972969055,-400000.0625,-42712.69140625,-28473.0,-400000.0625,-28344.58984375,-400000.0625,-27149.5390625,-400000.0625
119.84794354438782,-400000.0625,-42711.69140625,-28479.91015625,-400000.0625,-28357.80078125,-400000.0625,-27155.0703125,-400000.0625
119.84794759750366,-400000.0625,-42723.328125,-28493.259765625,-400000.0625,-28374.25,-400000.0625,-27167.369140625,-400000.0625
119.8479516506195,-400000.0625,-42716.890625,-28491.310546875,-400000.0625,-28378.5390625,-400000.0625,-27163.369140625,-400000.0625
119.84795546531677,-400000.0625,-42692.4296875,-28472.140625,-400000.0625,-28361.419921875,-400000.0625,-27139.7109375,-400000.0625
119.91445088386536,-400000.0625,-42677.4609375,-28459.310546875,-400000.0625,-28356.169921875,-400000.0625,-27128.560546875,-400000.0625
119.92526030540466,-400000.0625,-42673.87890625,-28461.029296875,-400000.0625,-28368.51953125,-400000.0625,-27135.5703125,-400000.0625
119.9299521446228,-400000.0625,-42686.66015625,-28474.48046875,-400000.0625,-28386.640625,-400000.0625,-27145.439453125,-400000.0625
119.92996072769165,-400000.0625,-42685.80078125,-28476.810546875,-400000.0625,-28393.4609375,-400000.0625,-27146.390625,-400000.0625
119.92996525764465,-400000.0625,-42663.578125,-28457.259765625,-400000.0625,-28378.109375,-400000.0625,-27128.509765625,-400000.0625
119.92996954917908,-400000.0625,-42649.55859375,-28445.6796875,-400000.0625,-28374.2890625,-400000.0625,-27114.349609375,-400000.0625
119.92997360229492,-400000.0625,-42652.51953125,-28451.830078125,-400000.0625,-28389.080078125,-400000.0625,-27119.970703125,-400000.0625
119.92997813224792,-400000.0625,-42666.921875,-28466.66015625,-400000.0625,-28402.279296875,-400000.0625,-27132.849609375,-400000.0625
119.92998218536377,-400000.0625,-42663.87109375,-28464.1796875,-400000.0625,-28401.189453125,-400000.0625,-27134.990234375,-400000.0625
119.92998600006104,-400000.0625,-42641.69140625,-28446.630859375,-400000.0625,-28383.0703125,-400000.0625,-27115.869140625,-400000.0625
119.92998957633972,-400000.0625,-42629.48828125,-28438.05078125,-400000.0625,-28382.880859375,-400000.0625,-27103.380859375,-400000.0625
119.92999315261841,-400000.0625,-42630.33984375,-28442.33984375,-400000.0625,-28397.849609375,-400000.0625,-27113.349609375,-400000.0625
119.92999696731567,-400000.0625,-42645.41015625,-28457.029296875,-400000.0625,-28412.76953125,-400000.0625,-27126.41015625,-400000.0625
119.93000054359436,-400000.0625,-42643.03125,-28456.599609375,-400000.0625,-28412.19921875,-400000.0625,-27126.890625,-400000.0625
119.93000411987305,-400000.0625,-42620.8984375,-28436.0,-400000.0625,-28396.7109375,-400000.0625,-27107.150390625,-400000.0625
119.93000841140747,-400000.0625,-42610.078125,-28422.9296875,-400000.0625,-28392.220703125,-400000.0625,-27094.650390625,-400000.0625
120.0168821811676,-400000.0625,-42611.94140625,-28428.890625,-400000.0625,-28403.51953125,-400000.0625,-27102.51953125,-400000.0625
120.02619910240173,-400000.0625,-42628.8203125,-28447.76953125,-400000.0625,-28418.970703125,-400000.0625,-27118.970703125,-400000.0625
120.0309956073761,-400000.0625,-42631.01171875,-28451.490234375,-400000.0625,-28416.73046875,-400000.0625,-27123.259765625,-400000.0625
120.03100609779358,-400000.0625,-42613.609375,-28433.759765625,-400000.0625,-28401.140625,-400000.0625,-27103.619140625,-400000.0625
120.03101062774658,-400000.0625,-42603.828125,-28424.41015625,-400000.0625,-28399.23046875,-400000.0625,-27094.220703125,-400000.0625
120.03101587295532,-400000.0625,-42608.12109375,-28432.900390625,-400000.0625,-28407.859375,-400000.0625,-27101.380859375,-400000.0625
120.03102040290833,-400000.0625,-42622.2890625,-28449.919921875,-400000.0625,-28420.640625,-400000.0625,-27115.009765625,-400000.0625
120.03102445602417,-400000.0625,-42623.48046875,-28448.919921875,-400000.0625,-28420.55078125,-400000.0625,-27116.5390625,-400000.0625
120.03102898597717,-400000.0625,-42601.5390625,-28427.599609375,-400000.0625,-28405.05078125,-400000.0625,-27097.3203125,-400000.0625
120.03103303909302,-400000.0625,-42592.44140625,-28416.970703125,-400000.0625,-28398.609375,-400000.0625,-27087.0703125,-400000.0625
120.03103709220886,-400000.0625,-42597.3515625,-28422.359375,-400000.0625,-28409.529296875,-400000.0625,-27094.890625,-400000.0625
120.03104090690613,-400000.0625,-42611.4609375,-28438.2890625,-400000.0625,-28422.83984375,-400000.0625,-27110.099609375,-400000.0625
120.0310447216034,-400000.0625,-42618.28125,-28443.580078125,-400000.0625,-28422.310546875,-400000.0625,-27113.630859375,-400000.0625
120.03104829788208,-400000.0625,-42597.30078125,-28424.359375,-400000.0625,-28407.91015625,-400000.0625,-27100.0390625,-400000.0625
120.03105235099792,-400000.0625,-42585.80859375,-28414.6796875,-400000.0625,-28404.810546875,-400000.0625,-27086.0703125,-400000.0625
120.03105616569519,-400000.0625,-42594.390625,-28422.740234375,-400000.0625,-28411.25,-400000.0625,-27090.310546875,-400000.0625
120.03241634368896,-400000.0625,-42608.98046875,-28438.94921875,-400000.0625,-28424.55078125,-400000.0625,-27106.48046875,-400000.0625
120.03743577003479,-400000.0625,-42611.7890625,-28441.099609375,-400000.0625,-28425.41015625,-400000.0625,-27108.240234375,-400000.0625
120.0419762134552,-400000.0625,-42593.62890625,-28422.310546875,-400000.0625,-28406.76953125,-400000.0625,-27089.169921875,-400000.0625
120.04198670387268,-400000.0625,-42582.1796875,-28408.91015625,-400000.0625,-28397.900390625,-400000.0625,-27079.970703125,-400000.0625
120.04199123382568,-400000.0625,-42586.4296875,-28416.109375,-400000.0625,-28410.390625,-400000.0625,-27089.83984375,-400000.0625
120.041996717453,-400000.0625,-42602.3984375,-28432.08984375,-400000.0625,-28423.5,-400000.0625,-27107.0,-400000.0625
120.04200100898743,-400000.0625,-42605.73828125,-28434.330078125,-400000.0625,-28422.44921875,-400000.0625,-27112.630859375,-400000.0625
120.04200577735901,-400000.0625,-42590.48046875,-28420.400390625,-400000.0625,-28409.48046875,-400000.0625,-27093.26953125,-400000.0625
120.04200983047485,-400000.0625,-42582.94921875,-28412.439453125,-400000.0625,-28401.810546875,-400000.0625,-27082.259765625,-400000.0625
120.04201412200928,-400000.0625,-42587.4296875,-28420.169921875,-400000.0625,-28413.16015625,-400000.0625,-27094.3203125,-400000.0625
120.0420184135437,-400000.0625,-42604.3984375,-28438.0,-400000.0625,-28426.83984375,-400000.0625,-27104.08984375,-400000.0625
120.04202246665955,-400000.0625,-42610.26953125,-28448.439453125,-400000.0625,-28431.08984375,-400000.0625,-27095.849609375,-400000.0625
120.04202675819397,-400000.0625,-42595.76953125,-28436.759765625,-400000.0625,-28415.640625,-400000.0625,-27078.30078125,-400000.0625
120.04203081130981,-400000.0625,-42585.80859375,-28425.509765625,-400000.0625,-28404.720703125,-400000.0625,-27069.4296875,-400000.0625
120.04203534126282,-400000.0625,-42594.578125,-28431.990234375,-400000.0625,-28412.439453125,-400000.0625,-27072.580078125,-400000.0625
120.04203939437866,-400000.0625,-42612.890625,-28451.970703125,-400000.0625,-28429.029296875,-400000.0625,-27086.9296875,-400000.0625
120.09556698799133,-400000.0625,-42614.51171875,-28457.259765625,-400000.0625,-28430.080078125,-400000.0625,-27087.01953125,-400000.0625
120.10099506378174,-400000.0625,-42595.44140625,-28438.4296875,-400000.0625,-28412.6796875,-400000.0625,-27072.0,-400000.0625
120.10542249679565,-400000.0625,-42582.46875,-28427.560546875,-400000.0625,-28406.189453125,-400000.0625,-27060.80078125,-400000.0625
120.10553622245789,-400000.0625,-42588.5703125,-28435.279296875,-400000.0625,-28416.490234375,-400000.0625,-27064.369140625,-400000.0625
120.10554051399231,-400000.0625,-42602.828125,-28449.73046875,-400000.0625,-28431.3203125,-400000.0625,-27079.73046875,-400000.0625
120.10554456710815,-400000.0625,-42609.03125,-28455.310546875,-400000.0625,-28431.23046875,-400000.0625,-27086.119140625,-400000.0625
120.10554838180542,-400000.0625,-42593.578125,-28438.859375,-400000.0625,-28412.19921875,-400000.0625,-27069.7109375,-400000.0625
120.10555171966553,-400000.0625,-42580.0390625,-28427.560546875,-400000.0625,-28406.619140625,-400000.0625,-27062.0390625,-400000.0625
120.10555529594421,-400000.0625,-42590.33984375,-28435.380859375,-400000.0625,-28418.970703125,-400000.0625,-27068.5703125,-400000.0625
120.1055588722229,-400000.0625,-42605.44921875,-28449.630859375,-400000.0625,-28436.0390625,-400000.0625,-27083.01953125,-400000.0625
120.10556316375732,-400000.0625,-42607.03125,-28450.2109375,-400000.0625,-28428.4609375,-400000.0625,-27086.5,-400000.0625
120.10556650161743,-400000.0625,-42591.1484375,-28433.849609375,-400000.0625,-28406.669921875,-400000.0625,-27068.51953125,-400000.0625
120.10557007789612,-400000.0625,-42580.1796875,-28426.560546875,-400000.0625,-28405.48046875,-400000.0625,-27054.98046875,-400000.0625
120.1055736541748,-400000.0625,-42587.05078125,-28431.560546875,-400000.0625,-28419.0703125,-400000.0625,-27065.279296875,-400000.0625
120.10557723045349,-400000.0625,-42602.3515625,-28445.9609375,-400000.0625,-28430.890625,-400000.0625,-27081.400390625,-400000.0625
120.10558080673218,-400000.0625,-42609.03125,-28453.9296875,-400000.0625,-28428.990234375,-400000.0625,-27084.5,-400000.0625
120.17295455932617,-400000.0625,-42589.71875,-28436.849609375,-400000.0625,-28411.8203125,-400000.0625,-27066.51953125,-400000.0625
120.1824004650116,-400000.0625,-42580.421875,-28427.83984375,-400000.0625,-28405.529296875,-400000.0625,-27055.69921875,-400000.0625
120.18706107139587,-400000.0625,-42589.80859375,-28435.23046875,-400000.0625,-28415.779296875,-400000.0625,-27063.849609375,-400000.0625
120.18707132339478,-400000.0625,-42603.78125,-28448.439453125,-400000.0625,-28428.83984375,-400000.0625,-27080.73046875,-400000.0625
120.18707633018494,-400000.0625,-42607.41015625,-28452.01953125,-400000.0625,-28431.939453125,-400000.0625,-27084.5390625,-400000.0625
120.18708062171936,-400000.0625,-42593.671875,-28437.7109375,-400000.0625,-28420.01953125,-400000.0625,-27067.94921875,-400000.0625
120.1870846748352,-400000.0625,-42583.66015625,-28430.23046875,-400000.0625,-28409.19921875,-400000.0625,-27062.0390625,-400000.0625
120.18709135055542,-400000.0625,-42589.859375,-28436.140625,-400000.0625,-28419.44921875,-400000.0625,-27068.240234375,-400000.0625
120.18709540367126,-400000.0625,-42605.30859375,-28448.390625,-400000.0625,-28436.08984375,-400000.0625,-27081.30078125,-400000.0625
120.18709897994995,-400000.0625,-42612.26953125,-28452.259765625,-400000.0625,-28436.810546875,-400000.0625,-27083.44921875,-400000.0625
120.18710279464722,-400000.0625,-42595.01171875,-28436.240234375,-400000.0625,-28416.919921875,-400000.0625,-27063.900390625,-400000.0625
120.18710684776306,-400000.0625,-42584.8515625,-28426.220703125,-400000.0625,-28406.189453125,-400000.0625,-27055.4609375,-400000.0625
120.18711066246033,-400000.0625,-42589.48046875,-28432.23046875,-400000.0625,-28416.880859375,-400000.0625,-27062.609375,-400000.0625
120.18711423873901,-400000.0625,-42605.2109375,-28449.490234375,-400000.0625,-28434.94921875,-400000.0625,-27078.8203125,-400000.0625
120.1871178150177,-400000.0625,-42613.421875,-28454.2109375,-400000.0625,-28433.759765625,-400000.0625,-27083.73046875,-400000.0625
120.18712139129639,-400000.0625,-42595.05859375,-28434.94921875,-400000.0625,-28416.919921875,-400000.0625,-27066.900390625,-400000.0625
120.2254524230957,-400000.0625,-42581.23046875,-28424.220703125,-400000.0625,-28411.109375,-400000.0625,-27055.359375,-400000.0625
120.23053216934204,-400000.0625,-42589.19140625,-28431.80078125,-400000.0625,-28419.55078125,-400000.0625,-27060.69921875,-400000.0625
120.23515558242798,-400000.0625,-42606.21875,-28450.2109375,-400000.0625,-28438.189453125,-400000.0625,-27072.859375,-400000.0625
120.23516583442688,-400000.0625,-42609.55078125,-28452.01953125,-400000.0625,-28436.140625,-400000.0625,-27079.779296875,-400000.0625
120.23517060279846,-400000.0625,-42587.5703125,-28433.369140625,-400000.0625,-28411.580078125,-400000.0625,-27061.75,-400000.0625
120.23517537117004,-400000.0625,-42575.94140625,-28423.5,-400000.0625,-28405.380859375,-400000.0625,-27050.740234375,-400000.0625
120.23517918586731,-400000.0625,-42582.55859375,-28428.029296875,-400000.0625,-28415.970703125,-400000.0625,-27056.98046875,-400000.0625
120.23518300056458,-400000.0625,-42599.5390625,-28443.720703125,-400000.0625,-28429.369140625,-400000.0625,-27070.810546875,-400000.0625
120.23518657684326,-400000.0625,-42604.12109375,-28448.630859375,-400000.0625,-28429.029296875,-400000.0625,-27073.580078125,-400000.0625
120.23518991470337,-400000.0625,-42589.2890625,-28432.369140625,-400000.0625,-28413.009765625,-400000.0625,-27059.609375,-400000.0625
120.23519349098206,-400000.0625,-42578.55859375,-28422.169921875,-400000.0625,-28409.869140625,-400000.0625,-27049.9296875,-400000.0625
120.23519706726074,-400000.0625,-42579.609375,-28426.3203125,-400000.0625,-28417.970703125,-400000.0625,-27054.98046875,-400000.0625
120.23520064353943,-400000.0625,-42590.05078125,-28439.380859375,-400000.0625,-28428.509765625,-400000.0625,-27070.05078125,-400000.0625
120.23520421981812,-400000.0625,-42600.30078125,-28448.25,-400000.0625,-28432.130859375,-400000.0625,-27074.76953125,-400000.0625
120.23520755767822,-400000.0625,-42585.5703125,-28430.890625,-400000.0625,-28414.30078125,-400000.0625,-27058.650390625,-400000.0625
120.23521137237549,-400000.0625,-42572.4609375,-28419.55078125,-400000.0625,-28410.630859375,-400000.0625,-27049.970703125,-400000.0625
120.29805755615234,-400000.0625,-42584.28125,-28428.75,-400000.0625,-28423.029296875,-400000.0625,-27055.83984375,-400000.0625
120.30790996551514,-400000.0625,-42609.359375,-28447.580078125,-400000.0625,-28438.140625,-400000.0625,-27072.189453125,-400000.0625
120.31231880187988,-400000.0625,-42608.03125,-28447.25,-400000.0625,-28437.900390625,-400000.0625,-27073.390625,-400000.0625
120.31232762336731,-400000.0625,-42574.41015625,-28425.119140625,-400000.0625,-28411.109375,-400000.0625,-27055.740234375,-400000.0625
120.31233239173889,-400000.0625,-42561.109375,-28411.8203125,-400000.0625,-28399.1796875,-400000.0625,-27054.119140625,-400000.0625
120.31233716011047,-400000.0625,-42569.9296875,-28416.44921875,-400000.0625,-28410.390625,-400000.0625,-27069.189453125,-400000.0625
120.31234097480774,-400000.0625,-42590.4296875,-28430.75,-400000.0625,-28430.0390625,-400000.0625,-27085.5,-400000.0625
120.31234574317932,-400000.0625,-42589.671875,-28430.1796875,-400000.0625,-28424.98046875,-400000.0625,-27094.1796875,-400000.0625
120.31234955787659,-400000.0625,-42566.828125,-28409.580078125,-400000.0625,-28403.94921875,-400000.0625,-27078.8203125,-400000.0625
120.31235408782959,-400000.0625,-42556.71875,-28401.619140625,-400000.0625,-28404.810546875,-400000.0625,-27067.759765625,-400000.0625
120.31235909461975,-400000.0625,-42563.78125,-28407.76953125,-400000.0625,-28415.640625,-400000.0625,-27074.630859375,-400000.0625
120.3123631477356,-400000.0625,-42579.55859375,-28421.98046875,-400000.0625,-28427.650390625,-400000.0625,-27095.4609375,-400000.0625
120.31236720085144,-400000.0625,-42591.05078125,-28430.890625,-400000.0625,-28431.0390625,-400000.0625,-27097.66015625,-400000.0625
120.31237149238586,-400000.0625,-42574.6015625,-28413.490234375,-400000.0625,-28413.490234375,-400000.0625,-27080.349609375,-400000.0625
120.31237554550171,-400000.0625,-42562.58984375,-28400.0390625,-400000.0625,-28403.619140625,-400000.0625,-27071.0,-400000.0625
120.31237936019897,-400000.0625,-42570.30859375,-28408.099609375,-400000.0625,-28412.630859375,-400000.0625,-27075.33984375,-400000.0625
120.38540530204773,-400000.0625,-42582.37109375,-28423.41015625,-400000.0625,-28426.599609375,-400000.0625,-27086.98046875,-400000.0625
120.39170098304749,-400000.0625,-42586.859375,-28427.080078125,-400000.0625,-28427.4609375,-400000.0625,-27092.029296875,-400000.0625
120.39645576477051,-400000.0625,-42573.078125,-28409.8203125,-400000.0625,-28410.630859375,-400000.0625,-27076.25,-400000.0625
120.39646553993225,-400000.0625,-42559.6796875,-28396.66015625,-400000.0625,-28404.759765625,-400000.0625,-27067.140625,-400000.0625
120.39647054672241,-400000.0625,-42562.78125,-28402.7109375,-400000.0625,-28408.9609375,-400000.0625,-27075.19921875,-400000.0625
120.39647507667542,-400000.0625,-42580.08984375,-28420.400390625,-400000.0625,-28423.55078125,-400000.0625,-27088.44921875,-400000.0625
120.39647912979126,-400000.0625,-42582.328125,-28423.220703125,-400000.0625,-28425.55078125,-400000.0625,-27097.75,-400000.0625
120.39648294448853,-400000.0625,-42567.58984375,-28406.4296875,-400000.0625,-28409.439453125,-400000.0625,-27079.6796875,-400000.0625
120.39648675918579,-400000.0625,-42558.05859375,-28396.08984375,-400000.0625,-28399.7109375,-400000.0625,-27068.189453125,-400000.0625
120.3964912891388,-400000.0625,-42563.3984375,-28402.759765625,-400000.0625,-28412.349609375,-400000.0625,-27076.439453125,-400000.0625
120.3964958190918,-400000.0625,-42579.69921875,-28419.9296875,-400000.0625,-28428.1796875,-400000.0625,-27091.650390625,-400000.0625
120.39650011062622,-400000.0625,-42584.0390625,-28423.740234375,-400000.0625,-28426.4609375,-400000.0625,-27093.939453125,-400000.0625
120.39650416374207,-400000.0625,-42566.78125,-28406.099609375,-400000.0625,-28406.91015625,-400000.0625,-27077.9609375,-400000.0625
120.39650845527649,-400000.0625,-42551.62109375,-28391.220703125,-400000.0625,-28400.7109375,-400000.0625,-27066.330078125,-400000.0625
120.39651250839233,-400000.0625,-42558.25,-28399.80078125,-400000.0625,-28414.30078125,-400000.0625,-27070.099609375,-400000.0625
120.39651656150818,-400000.0625,-42577.078125,-28417.5390625,-400000.0625,-28427.080078125,-400000.0625,-27084.689453125,-400000.0625
120.42066287994385,-400000.0625,-42580.08984375,-28420.259765625,-400000.0625,-28422.650390625,-400000.0625,-27091.55078125,-400000.0625
120.43093252182007,-400000.0625,-42560.921875,-28401.759765625,-400000.0625,-28404.810546875,-400000.0625,-27076.490234375,-400000.0625
120.43593072891235,-400000.0625,-42550.8984375,-28393.80078125,-400000.0625,-28395.849609375,-400000.0625,-27065.08984375,-400000.0625
120.4359438419342,-400000.0625,-42560.30078125,-28402.859375,-400000.0625,-28410.009765625,-400000.0625,-27070.669921875,-400000.0625
120.43594813346863,-400000.0625,-42576.6015625,-28415.970703125,-400000.0625,-28428.75,-400000.0625,-27087.640625,-400000.0625
120.44050669670105,-400000.0625,-42581.66015625,-28421.310546875,-400000.0625,-28428.609375,-400000.0625,-27092.080078125,-400000.0625
120.44051694869995,-400000.0625,-42567.5,-28406.76953125,-400000.0625,-28414.6796875,-400000.0625,-27075.009765625,-400000.0625
120.44052171707153,-400000.0625,-42554.91015625,-28394.029296875,-400000.0625,-28406.580078125,-400000.0625,-27063.80078125,-400000.0625
120.4405255317688,-400000.0625,-42556.859375,-28400.619140625,-400000.0625,-28413.009765625,-400000.0625,-27068.4296875,-400000.0625
120.4405288696289,-400000.0625,-42576.41015625,-28418.970703125,-400000.0625,-28430.509765625,-400000.0625,-27086.830078125,-400000.0625
120.44053220748901,-400000.0625,-42584.19140625,-28424.41015625,-400000.0625,-28428.939453125,-400000.0625,-27092.3203125,-400000.0625
120.44053602218628,-400000.0625,-42564.73046875,-28405.380859375,-400000.0625,-28408.580078125,-400000.0625,-27079.19921875,-400000.0625
120.44053912162781,-400000.0625,-42555.48046875,-28394.080078125,-400000.0625,-28405.099609375,-400000.0625,-27067.759765625,-400000.0625
120.44054293632507,-400000.0625,-42567.69140625,-28401.4296875,-400000.0625,-28413.8203125,-400000.0625,-27075.6796875,-400000.0625
120.4405472278595,-400000.0625,-42584.8515625,-28417.880859375,-400000.0625,-28427.83984375,-400000.0625,-27084.689453125,-400000.0625
120.4405505657196,-400000.0625,-42591.1484375,-28434.51953125,-400000.0625,-28438.810546875,-400000.0625,-27075.630859375,-400000.0625
120.47924208641052,-400000.0625,-42576.890625,-28428.369140625,-400000.0625,-28421.359375,-400000.0625,-27053.41015625,-400000.0625
120.48462271690369,-400000.0625,-42577.41015625,-28426.939453125,-400000.0625,-28415.439453125,-400000.0625,-27034.619140625,-400000.0625
120.48927855491638,-400000.0625,-42584.94921875,-28442.150390625,-400000.0625,-28424.5,-400000.0625,-27029.5703125,-400000.0625
120.4892897605896,-400000.0625,-42607.03125,-28471.66015625,-400000.0625,-28440.099609375,-400000.0625,-27039.05078125,-400000.0625
120.4892942905426,-400000.0625,-42620.140625,-28486.6796875,-400000.0625,-28443.76953125,-400000.0625,-27038.9609375,-400000.0625
120.48929953575134,-400000.0625,-42610.890625,-28480.8203125,-400000.0625,-28428.369140625,-400000.0625,-27007.76953125,-400000.0625
120.48930430412292,-400000.0625,-42606.12109375,-28482.630859375,-400000.0625,-28421.98046875,-400000.0625,-26985.4609375,-400000.0625
120.48930883407593,-400000.0625,-42615.28125,-28496.359375,-400000.0625,-28435.189453125,-400000.0625,-26988.4609375,-400000.0625
120.48931312561035,-400000.0625,-42635.48828125,-28514.869140625,-400000.0625,-28452.2109375,-400000.0625,-27004.669921875,-400000.0625
120.48931789398193,-400000.0625,-42642.12109375,-28525.310546875,-400000.0625,-28452.58984375,-400000.0625,-27006.9609375,-400000.0625
120.4893217086792,-400000.0625,-42622.05078125,-28506.94921875,-400000.0625,-28435.189453125,-400000.0625,-26988.650390625,-400000.0625
120.48932576179504,-400000.0625,-42612.03125,-28494.080078125,-400000.0625,-28427.1796875,-400000.0625,-26977.970703125,-400000.0625
120.48932981491089,-400000.0625,-42615.66015625,-28502.08984375,-400000.0625,-28436.66015625,-400000.0625,-26984.41015625,-400000.0625
120.48933410644531,-400000.0625,-42630.33984375,-28519.73046875,-400000.0625,-28452.5390625,-400000.0625,-26997.66015625,-400000.0625
120.48933792114258,-400000.0625,-42638.12109375,-28524.58984375,-400000.0625,-28454.01953125,-400000.0625,-27003.720703125,-400000.0625
120.489342212677,-400000.0625,-42620.8515625,-28507.810546875,-400000.0625,-28435.7109375,-400000.0625,-26987.169921875,-400000.0625
120.54530310630798,-400000.0625,-42606.87890625,-28493.83984375,-400000.0625,-28423.029296875,-400000.0625,-26975.970703125,-400000.0625
120.55466866493225,-400000.0625,-42611.83984375,-28499.509765625,-400000.0625,-28432.419921875,-400000.0625,-26983.220703125,-400000.0625
120.55921649932861,-400000.0625,-42631.48828125,-28516.439453125,-400000.0625,-28453.44921875,-400000.0625,-26998.48046875,-400000.0625
120.55922675132751,-400000.0625,-42638.828125,-28521.6796875,-400000.0625,-28454.400390625,-400000.0625,-27003.150390625,-400000.0625
120.5592315196991,-400000.0625,-42617.98828125,-28503.23046875,-400000.0625,-28436.0390625,-400000.0625,-26984.689453125,-400000.0625
120.55923628807068,-400000.0625,-42609.6484375,-28494.41015625,-400000.0625,-28430.75,-400000.0625,-26976.01953125,-400000.0625
120.5592405796051,-400000.0625,-42617.0390625,-28500.4609375,-400000.0625,-28438.94921875,-400000.0625,-26981.01953125,-400000.0625
120.55924558639526,-400000.0625,-42636.30078125,-28515.76953125,-400000.0625,-28455.44921875,-400000.0625,-26995.23046875,-400000.0625
120.55924963951111,-400000.0625,-42641.21875,-28520.640625,-400000.0625,-28457.029296875,-400000.0625,-27000.5703125,-400000.0625
120.55925345420837,-400000.0625,-42623.71875,-28505.849609375,-400000.0625,-28438.140625,-400000.0625,-26980.44921875,-400000.0625
120.55925917625427,-400000.0625,-42614.609375,-28496.220703125,-400000.0625,-28431.470703125,-400000.0625,-26970.2890625,-400000.0625
120.55926370620728,-400000.0625,-42619.19140625,-28502.80078125,-400000.0625,-28445.009765625,-400000.0625,-26979.01953125,-400000.0625
120.55926775932312,-400000.0625,-42640.98046875,-28520.16015625,-400000.0625,-28459.740234375,-400000.0625,-26994.279296875,-400000.0625
120.5592713356018,-400000.0625,-42647.69921875,-28527.55078125,-400000.0625,-28459.169921875,-400000.0625,-26999.759765625,-400000.0625
120.55927515029907,-400000.0625,-42626.71875,-28509.330078125,-400000.0625,-28440.669921875,-400000.0625,-26982.640625,-400000.0625
120.55927920341492,-400000.0625,-42616.55859375,-28497.939453125,-400000.0625,-28431.75,-400000.0625,-26972.490234375,-400000.0625
120.6312997341156,-400000.0625,-42621.51953125,-28500.990234375,-400000.0625,-28439.240234375,-400000.0625,-26977.830078125,-400000.0625
120.63666009902954,-400000.0625,-42634.96875,-28514.630859375,-400000.0625,-28450.869140625,-400000.0625,-26989.609375,-400000.0625
120.64150977134705,-400000.0625,-42642.4609375,-28521.400390625,-400000.0625,-28453.779296875,-400000.0625,-26995.08984375,-400000.0625
120.64151978492737,-400000.0625,-42624.76171875,-28504.23046875,-400000.0625,-28437.7109375,-400000.0625,-26982.359375,-400000.0625
120.64152407646179,-400000.0625,-42616.1796875,-28495.119140625,-400000.0625,-28429.75,-400000.0625,-26969.9609375,-400000.0625
120.64152812957764,-400000.0625,-42623.51953125,-28503.279296875,-400000.0625,-28438.05078125,-400000.0625,-26980.16015625,-400000.0625
120.64153218269348,-400000.0625,-42640.2109375,-28518.73046875,-400000.0625,-28453.5,-400000.0625,-26996.7109375,-400000.0625
120.64153575897217,-400000.0625,-42647.3203125,-28522.349609375,-400000.0625,-28452.689453125,-400000.0625,-27002.189453125,-400000.0625
120.64153957366943,-400000.0625,-42628.62890625,-28504.330078125,-400000.0625,-28434.1796875,-400000.0625,-26984.359375,-400000.0625
120.6415433883667,-400000.0625,-42617.98828125,-28492.640625,-400000.0625,-28428.130859375,-400000.0625,-26975.2109375,-400000.0625
120.64154696464539,-400000.0625,-42624.5703125,-28500.0390625,-400000.0625,-28438.189453125,-400000.0625,-26983.740234375,-400000.0625
120.64155054092407,-400000.0625,-42638.9296875,-28516.390625,-400000.0625,-28453.73046875,-400000.0625,-26996.619140625,-400000.0625
120.64155411720276,-400000.0625,-42645.98046875,-28522.689453125,-400000.0625,-28455.310546875,-400000.0625,-27002.859375,-400000.0625
120.64155793190002,-400000.0625,-42630.62890625,-28505.5703125,-400000.0625,-28432.990234375,-400000.0625,-26987.990234375,-400000.0625
120.64156198501587,-400000.0625,-42618.421875,-28491.880859375,-400000.0625,-28421.119140625,-400000.0625,-26976.5390625,-400000.0625
120.64156556129456,-400000.0625,-42622.19140625,-28498.4609375,-400000.0625,-28433.369140625,-400000.0625,-26981.7890625,-400000.0625
120.7149965763092,-400000.0625,-42642.12109375,-28518.25,-400000.0625,-28452.2109375,-400000.0625,-26996.380859375,-400000.0625
120.7249436378479,-400000.0625,-42646.51171875,-28523.5,-400000.0625,-28452.58984375,-400000.0625,-27003.4296875,-400000.0625
120.72978568077087,-400000.0625,-42632.390625,-28507.189453125,-400000.0625,-28430.80078125,-400000.0625,-26989.1796875,-400000.0625
120.72979474067688,-400000.0625,-42623.859375,-28497.41015625,-400000.0625,-28429.80078125,-400000.0625,-26977.880859375,-400000.0625
120.72979950904846,-400000.0625,-42626.48046875,-28504.23046875,-400000.0625,-28438.759765625,-400000.0625,-26984.0703125,-400000.0625
120.72980403900146,-400000.0625,-42641.69140625,-28518.630859375,-400000.0625,-28446.630859375,-400000.0625,-27000.759765625,-400000.0625
120.72980785369873,-400000.0625,-42646.37109375,-28524.16015625,-400000.0625,-28450.400390625,-400000.0625,-27006.529296875,-400000.0625
120.729811668396,-400000.0625,-42633.3984375,-28509.240234375,-400000.0625,-28439.05078125,-400000.0625,-26990.990234375,-400000.0625
120.72981524467468,-400000.0625,-42623.2890625,-28496.83984375,-400000.0625,-28430.26953125,-400000.0625,-26977.0703125,-400000.0625
120.72981882095337,-400000.0625,-42625.91015625,-28500.849609375,-400000.0625,-28438.05078125,-400000.0625,-26982.169921875,-400000.0625
120.72982239723206,-400000.0625,-42643.41015625,-28519.25,-400000.0625,-28454.119140625,-400000.0625,-27001.5703125,-400000.0625
120.72982621192932,-400000.0625,-42652.0390625,-28525.640625,-400000.0625,-28453.16015625,-400000.0625,-27008.109375,-400000.0625
120.72982978820801,-400000.0625,-42636.58984375,-28507.470703125,-400000.0625,-28433.849609375,-400000.0625,-26991.900390625,-400000.0625
120.7298333644867,-400000.0625,-42627.71875,-28499.650390625,-400000.0625,-28426.890625,-400000.0625,-26980.44921875,-400000.0625
120.7298367023468,-400000.0625,-42633.25,-28508.05078125,-400000.0625,-28439.0,-400000.0625,-26985.7890625,-400000.0625
120.72984027862549,-400000.0625,-42650.8984375,-28523.0703125,-400000.0625,-28452.30078125,-400000.0625,-27001.5703125,-400000.0625
120.77937579154968,-400000.0625,-42652.421875,-28526.5,-400000.0625,-28451.30078125,-400000.0625,-27009.5390625,-400000.0625
120.78474760055542,-400000.0625,-42639.12109375,-28513.669921875,-400000.0625,-28437.669921875,-400000.0625,-26992.80078125,-400000.0625
120.78981876373291,-400000.0625,-42626.4296875,-28502.0390625,-400000.0625,-28430.470703125,-400000.0625,-26982.689453125,-400000.0625
120.79412889480591,-400000.0625,-42632.44140625,-28505.419921875,-400000.0625,-28439.669921875,-400000.0625,-26989.83984375,-400000.0625
120.79413723945618,-400000.0625,-42647.41015625,-28518.630859375,-400000.0625,-28453.880859375,-400000.0625,-27007.30078125,-400000.0625
120.79414176940918,-400000.0625,-42653.66015625,-28524.58984375,-400000.0625,-28453.9296875,-400000.0625,-27011.060546875,-400000.0625
120.79414534568787,-400000.0625,-42638.0703125,-28507.5703125,-400000.0625,-28436.330078125,-400000.0625,-26994.140625,-400000.0625
120.79414939880371,-400000.0625,-42628.390625,-28499.3203125,-400000.0625,-28428.26953125,-400000.0625,-26987.26953125,-400000.0625
120.7941529750824,-400000.0625,-42645.83984375,-28509.810546875,-400000.0625,-28440.619140625,-400000.0625,-26998.140625,-400000.0625
120.79415678977966,-400000.0625,-42668.25,-28523.970703125,-400000.0625,-28452.349609375,-400000.0625,-27017.55078125,-400000.0625
120.79416060447693,-400000.0625,-42669.16015625,-28531.130859375,-400000.0625,-28457.7890625,-400000.0625,-27015.55078125,-400000.0625
120.79416418075562,-400000.0625,-42647.80078125,-28523.73046875,-400000.0625,-28438.94921875,-400000.0625,-26990.130859375,-400000.0625
120.7941677570343,-400000.0625,-42642.359375,-28519.490234375,-400000.0625,-28430.80078125,-400000.0625,-26975.439453125,-400000.0625
120.79417157173157,-400000.0625,-42660.1015625,-28532.369140625,-400000.0625,-28441.48046875,-400000.0625,-26988.369140625,-400000.0625
120.79417514801025,-400000.0625,-42683.6484375,-28550.25,-400000.0625,-28455.7890625,-400000.0625,-27004.33984375,-400000.0625
120.79417896270752,-400000.0625,-42690.37890625,-28559.400390625,-400000.0625,-28455.740234375,-400000.0625,-27002.669921875,-400000.0625
120.80239510536194,-400000.0625,-42674.58984375,-28546.150390625,-400000.0625,-28439.140625,-400000.0625,-26989.080078125,-400000.0625
120.80809116363525,-400000.0625,-42663.62890625,-28535.80078125,-400000.0625,-28433.66015625,-400000.0625,-26983.0703125,-400000.0625
120.81238079071045,-400000.0625,-42671.96875,-28540.94921875,-400000.0625,-28443.91015625,-400000.0625,-26984.029296875,-400000.0625
120.81238770484924,-400000.0625,-42688.08984375,-28556.400390625,-400000.0625,-28456.880859375,-400000.0625,-26998.669921875,-400000.0625
120.81239175796509,-400000.0625,-42693.4296875,-28561.44921875,-400000.0625,-28454.880859375,-400000.0625,-27004.669921875,-400000.0625
120.81239604949951,-400000.0625,-42678.30859375,-28546.380859375,-400000.0625,-28437.4296875,-400000.0625,-26985.4609375,-400000.0625
120.81239986419678,-400000.0625,-42665.53125,-28536.130859375,-400000.0625,-28431.939453125,-400000.0625,-26973.8203125,-400000.0625
120.81240391731262,-400000.0625,-42668.05859375,-28540.380859375,-400000.0625,-28439.2890625,-400000.0625,-26977.779296875,-400000.0625
120.81240749359131,-400000.0625,-42683.1796875,-28555.25,-400000.0625,-28453.9296875,-400000.0625,-26995.380859375,-400000.0625
120.81241130828857,-400000.0625,-42691.19140625,-28561.310546875,-400000.0625,-28460.4609375,-400000.0625,-27001.4296875,-400000.0625
120.81241512298584,-400000.0625,-42675.69140625,-28543.48046875,-400000.0625,-28441.240234375,-400000.0625,-26986.509765625,-400000.0625
120.81241869926453,-400000.0625,-42661.2890625,-28530.359375,-400000.0625,-28432.1796875,-400000.0625,-26976.869140625,-400000.0625
120.81242227554321,-400000.0625,-42667.73046875,-28536.509765625,-400000.0625,-28442.8203125,-400000.0625,-26981.169921875,-400000.0625
120.8124258518219,-400000.0625,-42681.6015625,-28552.390625,-400000.0625,-28456.55078125,-400000.0625,-26997.0390625,-400000.0625
120.81242966651917,-400000.0625,-42689.8515625,-28557.01953125,-400000.0625,-28455.880859375,-400000.0625,-27000.380859375,-400000.0625
120.81243324279785,-400000.0625,-42673.87890625,-28540.189453125,-400000.0625,-28434.419921875,-400000.0625,-26981.7890625,-400000.0625
120.88084077835083,-400000.0625,-42660.53125,-28526.7890625,-400000.0625,-28427.69921875,-400000.0625,-26974.8203125,-400000.0625
120.8902816772461,-400000.0625,-42665.62890625,-28532.130859375,-400000.0625,-28441.76953125,-400000.0625,-26980.830078125,-400000.0625
120.89469814300537,-400000.0625,-42681.26953125,-28548.19921875,-400000.0625,-28456.2109375,-400000.0625,-26995.380859375,-400000.0625
120.89470553398132,-400000.0625,-42688.08984375,-28555.01953125,-400000.0625,-28458.259765625,-400000.0625,-27000.5703125,-400000.0625
120.89471054077148,-400000.0625,-42671.01953125,-28539.5703125,-400000.0625,-28441.529296875,-400000.0625,-26984.0703125,-400000.0625
120.89471411705017,-400000.0625,-42658.23828125,-28525.0703125,-400000.0625,-28431.7109375,-400000.0625,-26974.490234375,-400000.0625
120.89471793174744,-400000.0625,-42664.1015625,-28529.599609375,-400000.0625,-28443.91015625,-400000.0625,-26977.400390625,-400000.0625
120.89472126960754,-400000.0625,-42680.359375,-28545.720703125,-400000.0625,-28454.400390625,-400000.0625,-26995.5703125,-400000.0625
120.89472460746765,-400000.0625,-42683.80078125,-28552.109375,-400000.0625,-28458.55078125,-400000.0625,-27000.669921875,-400000.0625
120.89472842216492,-400000.0625,-42670.30078125,-28535.560546875,-400000.0625,-28441.859375,-400000.0625,-26986.130859375,-400000.0625
120.89473223686218,-400000.0625,-42661.48046875,-28528.029296875,-400000.0625,-28434.7109375,-400000.0625,-26975.2109375,-400000.0625
120.89473557472229,-400000.0625,-42668.6796875,-28536.279296875,-400000.0625,-28443.669921875,-400000.0625,-26977.58984375,-400000.0625
120.89473915100098,-400000.0625,-42684.078125,-28549.439453125,-400000.0625,-28456.169921875,-400000.0625,-26997.380859375,-400000.0625
120.89474248886108,-400000.0625,-42683.98828125,-28553.109375,-400000.0625,-28455.98046875,-400000.0625,-27003.099609375,-400000.0625
120.89474630355835,-400000.0625,-42670.5390625,-28539.51953125,-400000.0625,-28443.05078125,-400000.0625,-26986.3203125,-400000.0625
120.89474964141846,-400000.0625,-42663.390625,-28529.5,-400000.0625,-28439.099609375,-400000.0625,-26975.6796875,-400000.0625
120.93220520019531,-400000.0625,-42664.578125,-28532.41015625,-400000.0625,-28446.150390625,-400000.0625,-26982.55078125,-400000.0625
120.93783140182495,-400000.0625,-42679.9296875,-28547.76953125,-400000.0625,-28463.1796875,-400000.0625,-26994.51953125,-400000.0625
120.94232821464539,-400000.0625,-42690.8515625,-28553.779296875,-400000.0625,-28459.119140625,-400000.0625,-27001.4296875,-400000.0625
120.94233798980713,-400000.0625,-42673.01953125,-28536.609375,-400000.0625,-28439.2890625,-400000.0625,-26984.650390625,-400000.0625
120.94234228134155,-400000.0625,-42661.1484375,-28528.98046875,-400000.0625,-28434.609375,-400000.0625,-26972.109375,-400000.0625
120.94234609603882,-400000.0625,-42670.3515625,-28538.140625,-400000.0625,-28449.73046875,-400000.0625,-26979.119140625,-400000.0625
120.9423496723175,-400000.0625,-42685.3203125,-28553.109375,-400000.0625,-28462.169921875,-400000.0625,-26995.140625,-400000.0625
120.94235348701477,-400000.0625,-42692.08984375,-28557.640625,-400000.0625,-28463.1796875,-400000.0625,-27000.859375,-400000.0625
120.94235682487488,-400000.0625,-42675.01953125,-28539.759765625,-400000.0625,-28445.8203125,-400000.0625,-26983.689453125,-400000.0625
120.9423611164093,-400000.0625,-42661.91015625,-28526.599609375,-400000.0625,-28434.849609375,-400000.0625,-26974.009765625,-400000.0625
120.94236516952515,-400000.0625,-42666.05859375,-28532.3203125,-400000.0625,-28444.630859375,-400000.0625,-26979.259765625,-400000.0625
120.94236850738525,-400000.0625,-42682.75,-28549.2890625,-400000.0625,-28462.939453125,-400000.0625,-26996.470703125,-400000.0625
120.94237208366394,-400000.0625,-42693.328125,-28556.73046875,-400000.0625,-28460.41015625,-400000.0625,-27003.2890625,-400000.0625
120.9423758983612,-400000.0625,-42676.0703125,-28541.66015625,-400000.0625,-28443.009765625,-400000.0625,-26984.7890625,-400000.0625
120.94237947463989,-400000.0625,-42661.2890625,-28528.7890625,-400000.0625,-28436.279296875,-400000.0625,-26973.109375,-400000.0625
120.94238328933716,-400000.0625,-42667.25,-28533.75,-400000.0625,-28445.060546875,-400000.0625,-26977.490234375,-400000.0625
120.9930465221405,-400000.0625,-42682.98828125,-28548.009765625,-400000.0625,-28457.44921875,-400000.0625,-26995.609375,-400000.0625
121.0064914226532,-400000.0625,-42687.28125,-28553.439453125,-400000.0625,-28457.83984375,-400000.0625,-27003.390625,-400000.0625
121.01127099990845,-400000.0625,-42672.3984375,-28534.75,-400000.0625,-28438.05078125,-400000.0625,-26983.310546875,-400000.0625
121.01127791404724,-400000.0625,-42656.62109375,-28521.44921875,-400000.0625,-28426.26953125,-400000.0625,-26972.490234375,-400000.0625
121.0112817287445,-400000.0625,-42663.44140625,-28531.169921875,-400000.0625,-28438.330078125,-400000.0625,-26977.970703125,-400000.0625
121.01128625869751,-400000.0625,-42679.41015625,-28547.91015625,-400000.0625,-28457.98046875,-400000.0625,-26991.560546875,-400000.0625
121.01128935813904,-400000.0625,-42690.5703125,-28552.869140625,-400000.0625,-28457.55078125,-400000.0625,-27002.529296875,-400000.0625
121.01129269599915,-400000.0625,-42686.08984375,-28536.66015625,-400000.0625,-28438.51953125,-400000.0625,-26995.08984375,-400000.0625
121.01129603385925,-400000.0625,-42670.5390625,-28524.640625,-400000.0625,-28427.990234375,-400000.0625,-26979.01953125,-400000.0625
121.01129913330078,-400000.0625,-42665.53125,-28533.990234375,-400000.0625,-28437.279296875,-400000.0625,-26969.2890625,-400000.0625
121.01130223274231,-400000.0625,-42692.859375,-28558.830078125,-400000.0625,-28451.01953125,-400000.0625,-26989.890625,-400000.0625
121.01130557060242,-400000.0625,-42714.9296875,-28572.990234375,-400000.0625,-28455.01953125,-400000.0625,-27002.240234375,-400000.0625
121.01130890846252,-400000.0625,-42708.3515625,-28565.310546875,-400000.0625,-28438.140625,-400000.0625,-26985.119140625,-400000.0625
121.01131200790405,-400000.0625,-42701.48828125,-28560.2109375,-400000.0625,-28431.470703125,-400000.0625,-26970.099609375,-400000.0625
121.01131510734558,-400000.0625,-42723.51953125,-28577.330078125,-400000.0625,-28440.91015625,-400000.0625,-26976.16015625,-400000.0625
121.01131844520569,-400000.0625,-42752.83984375,-28603.650390625,-400000.0625,-28458.119140625,-400000.0625,-26994.470703125,-400000.0625
121.08154940605164,-400000.0625,-42764.91015625,-28620.390625,-400000.0625,-28458.41015625,-400000.0625,-26998.48046875,-400000.0625
121.08678793907166,-400000.0625,-42766.859375,-28615.05078125,-400000.0625,-28437.08984375,-400000.0625,-26987.130859375,-400000.0625
121.09151363372803,-400000.0625,-42770.1484375,-28611.330078125,-400000.0625,-28429.939453125,-400000.0625,-26978.9296875,-400000.0625
121.09152150154114,-400000.0625,-42780.2109375,-28625.25,-400000.0625,-28438.08984375,-400000.0625,-26983.029296875,-400000.0625
121.09152579307556,-400000.0625,-42815.87890625,-28650.240234375,-400000.0625,-28452.349609375,-400000.0625,-27004.33984375,-400000.0625
121.09153056144714,-400000.0625,-42828.0390625,-28665.0703125,-400000.0625,-28454.830078125,-400000.0625,-27013.73046875,-400000.0625
121.09153485298157,-400000.0625,-42815.5,-28655.529296875,-400000.0625,-28436.08984375,-400000.0625,-26996.279296875,-400000.0625
121.09153890609741,-400000.0625,-42821.75,-28655.009765625,-400000.0625,-28429.080078125,-400000.0625,-26988.3203125,-400000.0625
121.0915424823761,-400000.0625,-42839.62890625,-28669.220703125,-400000.0625,-28432.900390625,-400000.0625,-26998.05078125,-400000.0625
121.09154629707336,-400000.0625,-42863.76171875,-28690.099609375,-400000.0625,-28447.6796875,-400000.0625,-27016.9296875,-400000.0625
121.09154987335205,-400000.0625,-42876.05859375,-28700.310546875,-400000.0625,-28453.310546875,-400000.0625,-27017.83984375,-400000.0625
121.09155344963074,-400000.0625,-42871.62109375,-28691.150390625,-400000.0625,-28432.80078125,-400000.0625,-27009.5390625,-400000.0625
121.09155702590942,-400000.0625,-42851.98046875,-28680.08984375,-400000.0625,-28426.509765625,-400000.0625,-26995.51953125,-400000.0625
121.09156084060669,-400000.0625,-42859.890625,-28688.720703125,-400000.0625,-28438.380859375,-400000.0625,-27002.2890625,-400000.0625
121.09156441688538,-400000.0625,-42887.55078125,-28705.029296875,-400000.0625,-28452.5,-400000.0625,-27023.990234375,-400000.0625
121.09156799316406,-400000.0625,-42889.55078125,-28707.359375,-400000.0625,-28451.640625,-400000.0625,-27027.560546875,-400000.0625
121.12158179283142,-400000.0625,-42868.94921875,-28688.2890625,-400000.0625,-28433.330078125,-400000.0625,-27008.16015625,-400000.0625
121.13088607788086,-400000.0625,-42856.4609375,-28677.3203125,-400000.0625,-28425.029296875,-400000.0625,-26995.08984375,-400000.0625
121.13560700416565,-400000.0625,-42859.23046875,-28682.0390625,-400000.0625,-28433.369140625,-400000.0625,-26999.5703125,-400000.0625
121.13561797142029,-400000.0625,-42873.23828125,-28696.970703125,-400000.0625,-28447.8203125,-400000.0625,-27016.119140625,-400000.0625
121.13562273979187,-400000.0625,-42881.6796875,-28702.359375,-400000.0625,-28455.119140625,-400000.0625,-27021.83984375,-400000.0625
121.1356270313263,-400000.0625,-42865.80859375,-28685.2890625,-400000.0625,-28439.05078125,-400000.0625,-27003.91015625,-400000.0625
121.13563084602356,-400000.0625,-42851.828125,-28670.220703125,-400000.0625,-28425.69921875,-400000.0625,-26988.83984375,-400000.0625
121.13563442230225,-400000.0625,-42854.171875,-28674.890625,-400000.0625,-28433.279296875,-400000.0625,-26992.470703125,-400000.0625
121.13563871383667,-400000.0625,-42868.94921875,-28691.8203125,-400000.0625,-28449.970703125,-400000.0625,-27008.439453125,-400000.0625
121.13564348220825,-400000.0625,-42875.05859375,-28698.2109375,-400000.0625,-28450.400390625,-400000.0625,-27018.119140625,-400000.0625
121.13564825057983,-400000.0625,-42862.0390625,-28679.330078125,-400000.0625,-28426.98046875,-400000.0625,-27001.48046875,-400000.0625
121.13565182685852,-400000.0625,-42850.0703125,-28670.55078125,-400000.0625,-28421.359375,-400000.0625,-26988.80078125,-400000.0625
121.1356554031372,-400000.0625,-42852.87890625,-28675.419921875,-400000.0625,-28435.140625,-400000.0625,-26990.560546875,-400000.0625
121.13565921783447,-400000.0625,-42870.1015625,-28691.529296875,-400000.0625,-28450.01953125,-400000.0625,-27009.73046875,-400000.0625
121.13566279411316,-400000.0625,-42878.19921875,-28699.310546875,-400000.0625,-28453.0703125,-400000.0625,-27012.880859375,-400000.0625
121.13566660881042,-400000.0625,-42861.3203125,-28682.330078125,-400000.0625,-28436.619140625,-400000.0625,-26999.669921875,-400000.0625
121.182870388031,-400000.0625,-42847.5390625,-28669.4609375,-400000.0625,-28427.650390625,-400000.0625,-26988.939453125,-400000.0625
121.18802976608276,-400000.0625,-42860.3203125,-28677.279296875,-400000.0625,-28434.1796875,-400000.0625,-26996.4296875,-400000.0625
121.19242286682129,-400000.0625,-42879.3515625,-28692.919921875,-400000.0625,-28449.970703125,-400000.0625,-27014.689453125,-400000.0625
121.19243097305298,-400000.0625,-42872.48046875,-28696.400390625,-400000.0625,-28447.73046875,-400000.0625,-27015.44921875,-400000.0625
121.1924352645874,-400000.0625,-42854.171875,-28680.609375,-400000.0625,-28431.849609375,-400000.0625,-27000.240234375,-400000.0625
121.19243931770325,-400000.0625,-42849.78125,-28673.990234375,-400000.0625,-28424.55078125,-400000.0625,-26989.990234375,-400000.0625
121.19244313240051,-400000.0625,-42865.0390625,-28684.08984375,-400000.0625,-28432.419921875,-400000.0625,-26996.4296875,-400000.0625
121.1924467086792,-400000.0625,-42882.73046875,-28698.779296875,-400000.0625,-28448.869140625,-400000.0625,-27011.58984375,-400000.0625
121.19245028495789,-400000.0625,-42893.609375,-28707.220703125,-400000.0625,-28451.5390625,-400000.0625,-27015.779296875,-400000.0625
121.19245409965515,-400000.0625,-42874.48046875,-28691.099609375,-400000.0625,-28434.380859375,-400000.0625,-27001.150390625,-400000.0625
121.19245743751526,-400000.0625,-42860.8515625,-28677.900390625,-400000.0625,-28426.83984375,-400000.0625,-26983.7890625,-400000.0625
121.19246125221252,-400000.0625,-42861.98828125,-28679.900390625,-400000.0625,-28433.94921875,-400000.0625,-26987.990234375,-400000.0625
121.19246459007263,-400000.0625,-42875.19921875,-28695.779296875,-400000.0625,-28451.2109375,-400000.0625,-27003.48046875,-400000.0625
121.19246816635132,-400000.0625,-42883.2109375,-28703.0703125,-400000.0625,-28453.400390625,-400000.0625,-27012.30078125,-400000.0625
121.19247221946716,-400000.0625,-42871.671875,-28689.150390625,-400000.0625,-28434.94921875,-400000.0625,-26997.66015625,-400000.0625
121.19247603416443,-400000.0625,-42858.4609375,-28676.990234375,-400000.0625,-28425.41015625,-400000.0625,-26984.98046875,-400000.0625
121.24999666213989,-400000.0625,-42862.94140625,-28681.08984375,-400000.0625,-28432.130859375,-400000.0625,-26987.75,-400000.0625
121.26090741157532,-400000.0625,-42878.3515625,-28697.060546875,-400000.0625,-28447.19921875,-400000.0625,-27008.25,-400000.0625
121.26595711708069,-400000.0625,-42886.30859375,-28705.5,-400000.0625,-28449.25,-400000.0625,-27015.259765625,-400000.0625
121.27083802223206,-400000.0625,-42866.8984375,-28688.48046875,-400000.0625,-28427.220703125,-400000.0625,-26998.240234375,-400000.0625
121.27084755897522,-400000.0625,-42856.078125,-28677.7109375,-400000.0625,-28423.880859375,-400000.0625,-26987.080078125,-400000.0625
121.27085304260254,-400000.0625,-42866.140625,-28684.48046875,-400000.0625,-28434.51953125,-400000.0625,-26994.1796875,-400000.0625
121.27085709571838,-400000.0625,-42878.62890625,-28698.16015625,-400000.0625,-28445.9609375,-400000.0625,-27010.109375,-400000.0625
121.27086091041565,-400000.0625,-42884.828125,-28704.26953125,-400000.0625,-28450.640625,-400000.0625,-27017.5,-400000.0625
121.27086567878723,-400000.0625,-42871.1015625,-28688.2890625,-400000.0625,-28432.1796875,-400000.0625,-27000.5703125,-400000.0625
121.2708694934845,-400000.0625,-42855.171875,-28673.4609375,-400000.0625,-28421.640625,-400000.0625,-26989.220703125,-400000.0625
121.27087306976318,-400000.0625,-42857.51171875,-28679.369140625,-400000.0625,-28432.419921875,-400000.0625,-26991.75,-400000.0625
121.27087688446045,-400000.0625,-42877.25,-28696.640625,-400000.0625,-28448.5390625,-400000.0625,-27009.73046875,-400000.0625
121.27088117599487,-400000.0625,-42889.41015625,-28701.880859375,-400000.0625,-28450.060546875,-400000.0625,-27018.599609375,-400000.0625
121.27088475227356,-400000.0625,-42870.62109375,-28687.099609375,-400000.0625,-28434.7109375,-400000.0625,-27006.390625,-400000.0625
121.27088832855225,-400000.0625,-42857.51171875,-28675.3203125,-400000.0625,-28423.98046875,-400000.0625,-26995.5703125,-400000.0625
121.27089214324951,-400000.0625,-42864.140625,-28678.51953125,-400000.0625,-28433.849609375,-400000.0625,-27000.48046875,-400000.0625
121.34928059577942,-400000.0625,-42875.390625,-28691.630859375,-400000.0625,-28443.669921875,-400000.0625,-27014.880859375,-400000.0625
121.3542263507843,-400000.0625,-42882.26171875,-28699.9296875,-400000.0625,-28446.580078125,-400000.0625,-27022.220703125,-400000.0625
121.35870695114136,-400000.0625,-42869.62109375,-28685.380859375,-400000.0625,-28429.419921875,-400000.0625,-27005.25,-400000.0625
121.36325311660767,-400000.0625,-42857.94140625,-28674.609375,-400000.0625,-28423.740234375,-400000.0625,-26996.189453125,-400000.0625
121.36326265335083,-400000.0625,-42865.140625,-28680.94921875,-400000.0625,-28433.51953125,-400000.0625,-27000.189453125,-400000.0625
121.36326670646667,-400000.0625,-42884.2109375,-28699.970703125,-400000.0625,-28449.630859375,-400000.0625,-27019.26953125,-400000.0625
121.36327052116394,-400000.0625,-42889.359375,-28706.650390625,-400000.0625,-28454.640625,-400000.0625,-27025.26953125,-400000.0625
121.36327409744263,-400000.0625,-42873.76953125,-28690.19921875,-400000.0625,-28437.759765625,-400000.0625,-27007.060546875,-400000.0625
121.36327815055847,-400000.0625,-42862.66015625,-28677.419921875,-400000.0625,-28425.359375,-400000.0625,-26993.80078125,-400000.0625
121.36328172683716,-400000.0625,-42866.19140625,-28684.759765625,-400000.0625,-28432.23046875,-400000.0625,-26998.189453125,-400000.0625
121.36328554153442,-400000.0625,-42880.87109375,-28701.310546875,-400000.0625,-28450.490234375,-400000.0625,-27013.970703125,-400000.0625
121.36328935623169,-400000.0625,-42888.03125,-28702.9296875,-400000.0625,-28448.439453125,-400000.0625,-27018.98046875,-400000.0625
121.36329293251038,-400000.0625,-42874.87109375,-28688.33984375,-400000.0625,-28431.990234375,-400000.0625,-27004.2890625,-400000.0625
121.36329650878906,-400000.0625,-42865.23046875,-28677.3203125,-400000.0625,-28425.98046875,-400000.0625,-26995.470703125,-400000.0625
121.36330008506775,-400000.0625,-42866.80859375,-28682.66015625,-400000.0625,-28434.330078125,-400000.0625,-27000.380859375,-400000.0625
121.36330366134644,-400000.0625,-42882.26171875,-28699.01953125,-400000.0625,-28450.25,-400000.0625,-27015.0703125,-400000.0625
121.38160729408264,-400000.0625,-42890.890625,-28705.5,-400000.0625,-28453.2109375,-400000.0625,-27021.220703125,-400000.0625
121.38731098175049,-400000.0625,-42876.19921875,-28691.6796875,-400000.0625,-28439.529296875,-400000.0625,-27004.869140625,-400000.0625
121.39199829101562,-400000.0625,-42863.1796875,-28677.990234375,-400000.0625,-28429.029296875,-400000.0625,-26990.509765625,-400000.0625
121.3920087814331,-400000.0625,-42863.80078125,-28680.23046875,-400000.0625,-28434.330078125,-400000.0625,-26999.51953125,-400000.0625
121.39201307296753,-400000.0625,-42881.58984375,-28696.25,-400000.0625,-28449.6796875,-400000.0625,-27014.0703125,-400000.0625
121.3920168876648,-400000.0625,-42888.359375,-28702.9296875,-400000.0625,-28453.0703125,-400000.0625,-27019.599609375,-400000.0625
121.39202046394348,-400000.0625,-42873.05078125,-28685.810546875,-400000.0625,-28437.0,-400000.0625,-27005.630859375,-400000.0625
121.39202404022217,-400000.0625,-42857.94140625,-28671.220703125,-400000.0625,-28423.98046875,-400000.0625,-26993.609375,-400000.0625
121.39202737808228,-400000.0625,-42860.75,-28677.509765625,-400000.0625,-28435.0390625,-400000.0625,-26998.0,-400000.0625
121.39203095436096,-400000.0625,-42876.578125,-28693.630859375,-400000.0625,-28452.44921875,-400000.0625,-27013.349609375,-400000.0625
121.39203476905823,-400000.0625,-42882.3984375,-28698.44921875,-400000.0625,-28448.6796875,-400000.0625,-27017.7890625,-400000.0625
121.39203834533691,-400000.0625,-42867.28125,-28678.330078125,-400000.0625,-28430.69921875,-400000.0625,-27000.669921875,-400000.0625
121.3920419216156,-400000.0625,-42853.171875,-28666.7890625,-400000.0625,-28428.83984375,-400000.0625,-26989.26953125,-400000.0625
121.39204525947571,-400000.0625,-42862.37109375,-28677.66015625,-400000.0625,-28438.4296875,-400000.0625,-26996.759765625,-400000.0625
121.3920488357544,-400000.0625,-42880.2109375,-28695.970703125,-400000.0625,-28453.73046875,-400000.0625,-27011.44921875,-400000.0625
121.39205241203308,-400000.0625,-42886.359375,-28701.830078125,-400000.0625,-28457.259765625,-400000.0625,-27022.509765625,-400000.0625
121.4827868938446,-400000.0625,-42868.80859375,-28684.48046875,-400000.0625,-28434.94921875,-400000.0625,-27007.5390625,-400000.0625
121.49225807189941,-400000.0625,-42851.6015625,-28669.599609375,-400000.0625,-28420.7890625,-400000.0625,-26990.609375,-400000.0625
121.49695253372192,-400000.0625,-42855.94140625,-28675.75,-400000.0625,-28430.939453125,-400000.0625,-26996.5703125,-400000.0625
121.49696063995361,-400000.0625,-42876.53125,-28694.19921875,-400000.0625,-28447.8203125,-400000.0625,-27014.689453125,-400000.0625
121.49696469306946,-400000.0625,-42886.7890625,-28702.640625,-400000.0625,-28452.830078125,-400000.0625,-27022.650390625,-400000.0625
121.49696826934814,-400000.0625,-42868.48046875,-28687.580078125,-400000.0625,-28437.4296875,-400000.0625,-27005.76953125,-400000.0625
121.49697232246399,-400000.0625,-42854.5,-28676.849609375,-400000.0625,-28426.4609375,-400000.0625,-26990.130859375,-400000.0625
121.49697589874268,-400000.0625,-42863.37109375,-28683.51953125,-400000.0625,-28439.48046875,-400000.0625,-26998.189453125,-400000.0625
121.49697947502136,-400000.0625,-42878.8203125,-28699.01953125,-400000.0625,-28453.44921875,-400000.0625,-27015.16015625,-400000.0625
121.49698305130005,-400000.0625,-42879.48828125,-28702.310546875,-400000.0625,-28453.830078125,-400000.0625,-27021.939453125,-400000.0625
121.49698686599731,-400000.0625,-42867.19140625,-28688.390625,-400000.0625,-28435.5703125,-400000.0625,-27003.390625,-400000.0625
121.49699068069458,-400000.0625,-42854.26953125,-28678.0390625,-400000.0625,-28429.4609375,-400000.0625,-26991.66015625,-400000.0625
121.49699449539185,-400000.0625,-42855.94140625,-28679.80078125,-400000.0625,-28436.94921875,-400000.0625,-26999.859375,-400000.0625
121.49699807167053,-400000.0625,-42873.48046875,-28695.400390625,-400000.0625,-28453.2109375,-400000.0625,-27012.689453125,-400000.0625
121.4970018863678,-400000.0625,-42880.48828125,-28701.55078125,-400000.0625,-28457.359375,-400000.0625,-27018.359375,-400000.0625
121.49700570106506,-400000.0625,-42866.23828125,-28689.150390625,-400000.0625,-28442.8203125,-400000.0625,-27005.099609375,-400000.0625
121.51426482200623,-400000.0625,-42855.55078125,-28676.990234375,-400000.0625,-28432.08984375,-400000.0625,-26991.470703125,-400000.0625
121.51929974555969,-400000.0625,-42853.6484375,-28676.849609375,-400000.0625,-28437.330078125,-400000.0625,-26996.0,-400000.0625
121.52351450920105,-400000.0625,-42857.75,-28685.619140625,-400000.0625,-28449.73046875,-400000.0625,-27014.44921875,-400000.0625
121.52352476119995,-400000.0625,-42861.7109375,-28694.009765625,-400000.0625,-28458.41015625,-400000.0625,-27022.7890625,-400000.0625
121.5235288143158,-400000.0625,-42837.05078125,-28669.169921875,-400000.0625,-28437.5703125,-400000.0625,-27014.349609375,-400000.0625
121.5235333442688,-400000.0625,-42815.359375,-28646.0390625,-400000.0625,-28424.169921875,-400000.0625,-27002.150390625,-400000.0625
121.5235366821289,-400000.0625,-42808.30078125,-28639.890625,-400000.0625,-28433.849609375,-400000.0625,-27006.869140625,-400000.0625
121.52353978157043,-400000.0625,-42804.2890625,-28643.75,-400000.0625,-28451.16015625,-400000.0625,-27022.509765625,-400000.0625
121.52354335784912,-400000.0625,-42782.5,-28634.740234375,-400000.0625,-28449.400390625,-400000.0625,-27035.189453125,-400000.0625
121.52354669570923,-400000.0625,-42744.69140625,-28601.599609375,-400000.0625,-28426.939453125,-400000.0625,-27020.650390625,-400000.0625
121.5235526561737,-400000.0625,-42714.078125,-28574.419921875,-400000.0625,-28416.349609375,-400000.0625,-27005.48046875,-400000.0625
121.52355575561523,-400000.0625,-42698.53125,-28569.1796875,-400000.0625,-28435.5703125,-400000.0625,-27007.869140625,-400000.0625
121.52355909347534,-400000.0625,-42689.28125,-28569.80078125,-400000.0625,-28449.490234375,-400000.0625,-27025.369140625,-400000.0625
121.52356243133545,-400000.0625,-42680.21875,-28565.98046875,-400000.0625,-28450.2109375,-400000.0625,-27034.94921875,-400000.0625
121.52356576919556,-400000.0625,-42651.46875,-28542.330078125,-400000.0625,-28433.140625,-400000.0625,-27020.080078125,-400000.0625
121.52356910705566,-400000.0625,-42626.671875,-28518.6796875,-400000.0625,-28424.26953125,-400000.0625,-27006.76953125,-400000.0625
121.5818178653717,-400000.0625,-42622.19140625,-28518.779296875,-400000.0625,-28433.1796875,-400000.0625,-27009.779296875,-400000.0625
121.5870008468628,-400000.0625,-42622.19140625,-28526.640625,-400000.0625,-28447.76953125,-400000.0625,-27023.26953125,-400000.0625
121.59574604034424,-400000.0625,-42623.80859375,-28529.98046875,-400000.0625,-28448.390625,-400000.0625,-27032.810546875,-400000.0625
121.60060429573059,-400000.0625,-42613.3203125,-28514.580078125,-400000.0625,-28433.0390625,-400000.0625,-27013.310546875,-400000.0625
121.60061597824097,-400000.0625,-42605.5,-28502.75,-400000.0625,-28427.650390625,-400000.0625,-26998.859375,-400000.0625
121.60062098503113,-400000.0625,-42606.83984375,-28507.189453125,-400000.0625,-28437.900390625,-400000.0625,-27003.48046875,-400000.0625
121.60062551498413,-400000.0625,-42625.1484375,-28525.01953125,-400000.0625,-28449.869140625,-400000.0625,-27018.650390625,-400000.0625
121.60063004493713,-400000.0625,-42637.44921875,-28531.359375,-400000.0625,-28450.6796875,-400000.0625,-27023.69921875,-400000.0625
121.60063362121582,-400000.0625,-42622.328125,-28514.720703125,-400000.0625,-28435.279296875,-400000.0625,-27013.58984375,-400000.0625
121.60063743591309,-400000.0625,-42611.4609375,-28504.1796875,-400000.0625,-28428.69921875,-400000.0625,-27001.669921875,-400000.0625
121.60064148902893,-400000.0625,-42616.66015625,-28510.529296875,-400000.0625,-28437.140625,-400000.0625,-27004.669921875,-400000.0625
121.6006453037262,-400000.0625,-42630.19921875,-28523.109375,-400000.0625,-28445.150390625,-400000.0625,-27019.220703125,-400000.0625
121.60064911842346,-400000.0625,-42640.0703125,-28528.0703125,-400000.0625,-28446.529296875,-400000.0625,-27025.419921875,-400000.0625
121.60065293312073,-400000.0625,-42626.578125,-28513.4296875,-400000.0625,-28431.279296875,-400000.0625,-27009.970703125,-400000.0625
121.600656747818,-400000.0625,-42612.6484375,-28501.470703125,-400000.0625,-28424.26953125,-400000.0625,-26996.330078125,-400000.0625
121.60066056251526,-400000.0625,-42618.421875,-28508.0,-400000.0625,-28438.4296875,-400000.0625,-27001.4296875,-400000.0625
121.6367256641388,-400000.0625,-42634.3515625,-28521.919921875,-400000.0625,-28447.580078125,-400000.0625,-27018.83984375,-400000.0625
121.642014503479,-400000.0625,-42644.55078125,-28529.220703125,-400000.0625,-28448.390625,-400000.0625,-27028.66015625,-400000.0625
121.64653611183167,-400000.0625,-42632.30078125,-28514.2890625,-400000.0625,-28434.330078125,-400000.0625,-27011.2109375,-400000.0625
121.64654612541199,-400000.0625,-42617.609375,-28500.369140625,-400000.0625,-28425.890625,-400000.0625,-27000.189453125,-400000.0625
121.64655065536499,-400000.0625,-42624.48046875,-28507.810546875,-400000.0625,-28438.140625,-400000.0625,-27006.060546875,-400000.0625
121.64655494689941,-400000.0625,-42640.69140625,-28523.16015625,-400000.0625,-28449.8203125,-400000.0625,-27022.599609375,-400000.0625
121.64655900001526,-400000.0625,-42649.23046875,-28531.41015625,-400000.0625,-28447.919921875,-400000.0625,-27031.279296875,-400000.0625
121.64673519134521,-400000.0625,-42637.16015625,-28518.30078125,-400000.0625,-28433.470703125,-400000.0625,-27014.58984375,-400000.0625
121.64673948287964,-400000.0625,-42626.4296875,-28506.849609375,-400000.0625,-28429.419921875,-400000.0625,-27000.91015625,-400000.0625
121.6467432975769,-400000.0625,-42628.9609375,-28511.720703125,-400000.0625,-28433.990234375,-400000.0625,-27006.919921875,-400000.0625
121.64674758911133,-400000.0625,-42643.73828125,-28526.98046875,-400000.0625,-28446.630859375,-400000.0625,-27021.69921875,-400000.0625
121.64675116539001,-400000.0625,-42654.8515625,-28534.4609375,-400000.0625,-28450.060546875,-400000.0625,-27032.94921875,-400000.0625
121.64675450325012,-400000.0625,-42641.359375,-28519.8203125,-400000.0625,-28431.470703125,-400000.0625,-27018.359375,-400000.0625
121.64675784111023,-400000.0625,-42628.9609375,-28504.849609375,-400000.0625,-28420.400390625,-400000.0625,-27003.859375,-400000.0625
121.64676141738892,-400000.0625,-42629.76953125,-28506.189453125,-400000.0625,-28430.0390625,-400000.0625,-27010.869140625,-400000.0625
121.64676475524902,-400000.0625,-42644.359375,-28524.349609375,-400000.0625,-28448.8203125,-400000.0625,-27027.849609375,-400000.0625
121.69548845291138,-400000.0625,-42655.0390625,-28534.609375,-400000.0625,-28454.119140625,-400000.0625,-27036.76953125,-400000.0625
121.7045967578888,-400000.0625,-42638.73828125,-28518.5390625,-400000.0625,-28433.609375,-400000.0625,-27021.890625,-400000.0625
121.70934247970581,-400000.0625,-42627.62890625,-28503.94921875,-400000.0625,-28419.830078125,-400000.0625,-27003.91015625,-400000.0625
121.7093505859375,-400000.0625,-42632.19921875,-28508.900390625,-400000.0625,-28425.599609375,-400000.0625,-27008.970703125,-400000.0625
121.70935463905334,-400000.0625,-42649.1796875,-28527.119140625,-400000.0625,-28441.76953125,-400000.0625,-27027.80078125,-400000.0625
121.70935845375061,-400000.0625,-42657.7109375,-28534.1796875,-400000.0625,-28445.720703125,-400000.0625,-27035.91015625,-400000.0625
121.70936179161072,-400000.0625,-42643.9296875,-28517.580078125,-400000.0625,-28431.08984375,-400000.0625,-27019.55078125,-400000.0625
121.70936560630798,-400000.0625,-42628.578125,-28501.75,-400000.0625,-28421.119140625,-400000.0625,-27004.91015625,-400000.0625
121.70936894416809,-400000.0625,-42632.390625,-28506.7109375,-400000.0625,-28426.75,-400000.0625,-27010.5390625,-400000.0625
121.70937252044678,-400000.0625,-42643.98046875,-28521.400390625,-400000.0625,-28443.19921875,-400000.0625,-27027.939453125,-400000.0625
121.70937609672546,-400000.0625,-42652.46875,-28531.599609375,-400000.0625,-28446.869140625,-400000.0625,-27032.279296875,-400000.0625
121.70937943458557,-400000.0625,-42637.3984375,-28517.919921875,-400000.0625,-28431.609375,-400000.0625,-27023.1796875,-400000.0625
121.70938324928284,-400000.0625,-42623.140625,-28501.900390625,-400000.0625,-28423.169921875,-400000.0625,-27009.6796875,-400000.0625
121.70938682556152,-400000.0625,-42628.390625,-28501.470703125,-400000.0625,-28428.990234375,-400000.0625,-27008.919921875,-400000.0625
121.70939087867737,-400000.0625,-42634.48828125,-28508.94921875,-400000.0625,-28438.240234375,-400000.0625,-27023.26953125,-400000.0625
121.70939493179321,-400000.0625,-42633.73046875,-28514.669921875,-400000.0625,-28445.490234375,-400000.0625,-27027.7109375,-400000.0625
121.77305340766907,-400000.0625,-42606.44921875,-28494.169921875,-400000.0625,-28422.9296875,-400000.0625,-27015.740234375,-400000.0625
121.77884435653687,-400000.0625,-42592.05078125,-28478.2890625,-400000.0625,-28409.6796875,-400000.0625,-27005.2890625,-400000.0625
121.78362011909485,-400000.0625,-42600.6796875,-28480.580078125,-400000.0625,-28421.01953125,-400000.0625,-27005.33984375,-400000.0625
121.78363037109375,-400000.0625,-42604.3984375,-28492.169921875,-400000.0625,-28439.0,-400000.0625,-27020.169921875,-400000.0625
121.78363513946533,-400000.0625,-42606.26171875,-28499.75,-400000.0625,-28445.009765625,-400000.0625,-27028.369140625,-400000.0625
121.78363990783691,-400000.0625,-42596.73046875,-28488.01953125,-400000.0625,-28433.140625,-400000.0625,-27012.880859375,-400000.0625
121.78364372253418,-400000.0625,-42580.8984375,-28474.099609375,-400000.0625,-28421.740234375,-400000.0625,-26997.759765625,-400000.0625
121.78364777565002,-400000.0625,-42587.80859375,-28477.580078125,-400000.0625,-28428.4609375,-400000.0625,-27001.669921875,-400000.0625
121.78365159034729,-400000.0625,-42607.83984375,-28494.220703125,-400000.0625,-28447.19921875,-400000.0625,-27020.26953125,-400000.0625
121.78365540504456,-400000.0625,-42613.03125,-28499.849609375,-400000.0625,-28449.8203125,-400000.0625,-27026.130859375,-400000.0625
121.78365921974182,-400000.0625,-42595.6796875,-28482.73046875,-400000.0625,-28433.900390625,-400000.0625,-27007.869140625,-400000.0625
121.78366279602051,-400000.0625,-42581.51953125,-28469.7109375,-400000.0625,-28423.740234375,-400000.0625,-26997.240234375,-400000.0625
121.7836663722992,-400000.0625,-42590.23828125,-28475.380859375,-400000.0625,-28430.26953125,-400000.0625,-27003.150390625,-400000.0625
121.78366994857788,-400000.0625,-42606.171875,-28493.310546875,-400000.0625,-28448.8203125,-400000.0625,-27020.740234375,-400000.0625
121.78367328643799,-400000.0625,-42611.890625,-28498.26953125,-400000.0625,-28451.830078125,-400000.0625,-27029.609375,-400000.0625
121.78367686271667,-400000.0625,-42601.2109375,-28485.01953125,-400000.0625,-28435.279296875,-400000.0625,-27015.55078125,-400000.0625
121.85428404808044,-400000.0625,-42587.5703125,-28473.240234375,-400000.0625,-28424.310546875,-400000.0625,-27003.19921875,-400000.0625
121.86427879333496,-400000.0625,-42589.33984375,-28476.76953125,-400000.0625,-28431.0390625,-400000.0625,-27008.30078125,-400000.0625
121.86952328681946,-400000.0625,-42607.9296875,-28491.44921875,-400000.0625,-28447.869140625,-400000.0625,-27020.55078125,-400000.0625
121.8740508556366,-400000.0625,-42614.55859375,-28496.55078125,-400000.0625,-28453.779296875,-400000.0625,-27026.69921875,-400000.0625
121.87406158447266,-400000.0625,-42597.19921875,-28480.580078125,-400000.0625,-28435.419921875,-400000.0625,-27007.439453125,-400000.0625
121.8740656375885,-400000.0625,-42585.37890625,-28469.279296875,-400000.0625,-28421.9296875,-400000.0625,-26993.94921875,-400000.0625
121.87406969070435,-400000.0625,-42588.53125,-28474.859375,-400000.0625,-28434.51953125,-400000.0625,-27003.8203125,-400000.0625
121.87407350540161,-400000.0625,-42605.41015625,-28492.689453125,-400000.0625,-28451.349609375,-400000.0625,-27018.880859375,-400000.0625
121.8740770816803,-400000.0625,-42614.12890625,-28501.130859375,-400000.0625,-28448.58984375,-400000.0625,-27029.369140625,-400000.0625
121.87408065795898,-400000.0625,-42597.25,-28482.30078125,-400000.0625,-28428.029296875,-400000.0625,-27012.44921875,-400000.0625
121.87408423423767,-400000.0625,-42589.37890625,-28470.08984375,-400000.0625,-28420.98046875,-400000.0625,-27000.05078125,-400000.0625
121.87408781051636,-400000.0625,-42590.671875,-28474.189453125,-400000.0625,-28435.94921875,-400000.0625,-27005.33984375,-400000.0625
121.87409138679504,-400000.0625,-42604.30859375,-28492.599609375,-400000.0625,-28449.25,-400000.0625,-27017.640625,-400000.0625
121.87409496307373,-400000.0625,-42612.6484375,-28498.990234375,-400000.0625,-28449.73046875,-400000.0625,-27024.4609375,-400000.0625
121.874098777771,-400000.0625,-42596.01171875,-28480.150390625,-400000.0625,-28429.23046875,-400000.0625,-27007.009765625,-400000.0625
121.87410235404968,-400000.0625,-42586.140625,-28469.0390625,-400000.0625,-28423.9296875,-400000.0625,-26994.419921875,-400000.0625
121.89807963371277,-400000.0625,-42589.37890625,-28474.380859375,-400000.0625,-28429.80078125,-400000.0625,-26998.48046875,-400000.0625
121.90350270271301,-400000.0625,-42605.01953125,-28491.2109375,-400000.0625,-28446.150390625,-400000.0625,-27014.2109375,-400000.0625
121.90872645378113,-400000.0625,-42614.421875,-28499.4609375,-400000.0625,-28448.779296875,-400000.0625,-27025.23046875,-400000.0625
121.91317892074585,-400000.0625,-42600.01953125,-28485.640625,-400000.0625,-28432.51953125,-400000.0625,-27007.73046875,-400000.0625
121.91319012641907,-400000.0625,-42584.37890625,-28471.900390625,-400000.0625,-28424.5,-400000.0625,-26992.849609375,-400000.0625
121.91319465637207,-400000.0625,-42586.4296875,-28476.4296875,-400000.0625,-28430.560546875,-400000.0625,-26998.279296875,-400000.0625
121.91319870948792,-400000.0625,-42603.828125,-28492.740234375,-400000.0625,-28446.390625,-400000.0625,-27012.16015625,-400000.0625
121.91320276260376,-400000.0625,-42611.4609375,-28496.599609375,-400000.0625,-28446.529296875,-400000.0625,-27020.080078125,-400000.0625
121.91320633888245,-400000.0625,-42601.44921875,-28484.439453125,-400000.0625,-28431.509765625,-400000.0625,-27004.390625,-400000.0625
121.91321015357971,-400000.0625,-42591.71875,-28474.759765625,-400000.0625,-28426.029296875,-400000.0625,-26993.1796875,-400000.0625
121.91321444511414,-400000.0625,-42592.48046875,-28476.91015625,-400000.0625,-28432.609375,-400000.0625,-27000.810546875,-400000.0625
121.91321802139282,-400000.0625,-42605.640625,-28490.7890625,-400000.0625,-28447.8203125,-400000.0625,-27017.740234375,-400000.0625
121.91322374343872,-400000.0625,-42612.26953125,-28498.029296875,-400000.0625,-28449.060546875,-400000.0625,-27024.220703125,-400000.0625
121.91322755813599,-400000.0625,-42598.44140625,-28483.919921875,-400000.0625,-28429.80078125,-400000.0625,-27006.76953125,-400000.0625
121.91323351860046,-400000.0625,-42581.8515625,-28469.279296875,-400000.0625,-28416.919921875,-400000.0625,-26991.75,-400000.0625
121.91323733329773,-400000.0625,-42584.140625,-28470.94921875,-400000.0625,-28423.26953125,-400000.0625,-26997.51953125,-400000.0625
121.98157858848572,-400000.0625,-42600.58984375,-28488.310546875,-400000.0625,-28440.189453125,-400000.0625,-27013.0703125,-400000.0625
121.99175691604614,-400000.0625,-42608.359375,-28494.55078125,-400000.0625,-28443.33984375,-400000.0625,-27019.4609375,-400000.0625
121.99625873565674,-400000.0625,-42593.1484375,-28476.380859375,-400000.0625,-28427.4609375,-400000.0625,-27004.8203125,-400000.0625
121.99626803398132,-400000.0625,-42581.1796875,-28464.939453125,-400000.0625,-28420.310546875,-400000.0625,-26994.66015625,-400000.0625
121.99627256393433,-400000.0625,-42584.140625,-28470.0390625,-400000.0625,-28428.41015625,-400000.0625,-27001.9609375,-400000.0625
121.99627637863159,-400000.0625,-42602.3984375,-28484.58984375,-400000.0625,-28439.099609375,-400000.0625,-27014.349609375,-400000.0625
121.99628019332886,-400000.0625,-42612.12890625,-28492.83984375,-400000.0625,-28441.91015625,-400000.0625,-27021.509765625,-400000.0625
121.99628400802612,-400000.0625,-42596.578125,-28477.859375,-400000.0625,-28426.4609375,-400000.0625,-27008.25,-400000.0625
121.99628782272339,-400000.0625,-42581.0390625,-28463.220703125,-400000.0625,-28413.970703125,-400000.0625,-26995.94921875,-400000.0625
121.99629211425781,-400000.0625,-42582.55859375,-28469.1796875,-400000.0625,-28423.5,-400000.0625,-26998.5703125,-400000.0625
121.99629592895508,-400000.0625,-42600.44921875,-28485.109375,-400000.0625,-28440.189453125,-400000.0625,-27014.0703125,-400000.0625
121.99629950523376,-400000.0625,-42609.26953125,-28492.83984375,-400000.0625,-28444.580078125,-400000.0625,-27021.599609375,-400000.0625
121.99630331993103,-400000.0625,-42591.23828125,-28476.240234375,-400000.0625,-28426.359375,-400000.0625,-27004.630859375,-400000.0625
121.99630737304688,-400000.0625,-42578.4609375,-28460.220703125,-400000.0625,-28412.73046875,-400000.0625,-26988.560546875,-400000.0625
121.99631094932556,-400000.0625,-42585.7109375,-28466.23046875,-400000.0625,-28419.689453125,-400000.0625,-26991.80078125,-400000.0625
121.99631476402283,-400000.0625,-42597.3515625,-28481.8203125,-400000.0625,-28439.240234375,-400000.0625,-27011.73046875,-400000.0625
122.0330650806427,-400000.0625,-42605.98046875,-28490.400390625,-400000.0625,-28443.240234375,-400000.0625,-27019.890625,-400000.0625
122.03878402709961,-400000.0625,-42591.53125,-28472.7109375,-400000.0625,-28421.119140625,-400000.0625,-27003.859375,-400000.0625
122.0434799194336,-400000.0625,-42576.6484375,-28459.9296875,-400000.0625,-28409.6796875,-400000.0625,-26987.509765625,-400000.0625
122.04348993301392,-400000.0625,-42582.23046875,-28465.80078125,-400000.0625,-28422.44921875,-400000.0625,-26989.3203125,-400000.0625
122.04349422454834,-400000.0625,-42596.87109375,-28477.619140625,-400000.0625,-28434.0390625,-400000.0625,-27005.390625,-400000.0625
122.04349875450134,-400000.0625,-42601.30078125,-28483.919921875,-400000.0625,-28436.7109375,-400000.0625,-27013.779296875,-400000.0625
122.04350256919861,-400000.0625,-42589.53125,-28472.619140625,-400000.0625,-28420.880859375,-400000.0625,-26998.7109375,-400000.0625
122.0435061454773,-400000.0625,-42576.890625,-28460.26953125,-400000.0625,-28411.009765625,-400000.0625,-26990.26953125,-400000.0625
122.04350972175598,-400000.0625,-42581.7109375,-28465.470703125,-400000.0625,-28419.349609375,-400000.0625,-26995.140625,-400000.0625
122.04351329803467,-400000.0625,-42601.30078125,-28484.6796875,-400000.0625,-28435.0,-400000.0625,-27011.25,-400000.0625
122.04351711273193,-400000.0625,-42611.69921875,-28492.740234375,-400000.0625,-28432.849609375,-400000.0625,-27022.220703125,-400000.0625
122.04352068901062,-400000.0625,-42599.921875,-28478.76953125,-400000.0625,-28418.259765625,-400000.0625,-27007.76953125,-400000.0625
122.04352450370789,-400000.0625,-42586.8984375,-28466.0390625,-400000.0625,-28411.9609375,-400000.0625,-26993.23046875,-400000.0625
122.04352807998657,-400000.0625,-42588.4296875,-28469.330078125,-400000.0625,-28420.689453125,-400000.0625,-26996.7109375,-400000.0625
122.04353857040405,-400000.0625,-42605.98046875,-28485.58984375,-400000.0625,-28438.669921875,-400000.0625,-27013.109375,-400000.0625
122.04354214668274,-400000.0625,-42615.98828125,-28493.119140625,-400000.0625,-28438.759765625,-400000.0625,-27021.83984375,-400000.0625
122.08538842201233,-400000.0625,-42600.58984375,-28478.630859375,-400000.0625,-28420.9296875,-400000.0625,-27006.580078125,-400000.0625
122.09641599655151,-400000.0625,-42585.7109375,-28465.419921875,-400000.0625,-28413.19921875,-400000.0625,-26992.990234375,-400000.0625
122.10189461708069,-400000.0625,-42590.19140625,-28470.7109375,-400000.0625,-28421.55078125,-400000.0625,-26998.0,-400000.0625
122.10707974433899,-400000.0625,-42607.5,-28484.73046875,-400000.0625,-28433.900390625,-400000.0625,-27013.58984375,-400000.0625
