time,ch1,ch2,ch3,ch4,ch5,ch6,ch7,ch8
0.0334622859954834,-400000.0625,-39718.6796875,-25912.0,-400000.0625,-17055.939453125,-400000.0625,-26304.060546875,-400000.0625
0.033573150634765625,-400000.0625,-39675.9609375,-25868.509765625,-400000.0625,-17033.91015625,-400000.0625,-26264.669921875,-400000.0625
0.033583641052246094,-400000.0625,-39682.109375,-25873.189453125,-400000.0625,-17043.689453125,-400000.0625,-26262.619140625,-400000.0625
0.03358936309814453,-400000.0625,-39708.91015625,-25899.599609375,-400000.0625,-17104.009765625,-400000.0625,-26289.419921875,-400000.0625
0.03359413146972656,-400000.0625,-39728.55078125,-25918.630859375,-400000.0625,-17149.880859375,-400000.0625,-26305.009765625,-400000.0625
0.033599138259887695,-400000.0625,-39720.640625,-25907.23046875,-400000.0625,-17170.150390625,-400000.0625,-26289.0390625,-400000.0625
0.03360342979431152,-400000.0625,-39681.6796875,-25866.4609375,-400000.0625,-17169.330078125,-400000.0625,-26252.23046875,-400000.0625
0.03360795974731445,-400000.0625,-39681.30078125,-25864.220703125,-400000.0625,-17207.91015625,-400000.0625,-26248.119140625,-400000.0625
0.03361201286315918,-400000.0625,-39710.1015625,-25891.740234375,-400000.0625,-17268.51953125,-400000.0625,-26271.919921875,-400000.0625
0.03361630439758301,-400000.0625,-39723.01953125,-25905.560546875,-400000.0625,-17303.51953125,-400000.0625,-26281.359375,-400000.0625
0.033620357513427734,-400000.0625,-39705.0,-25884.009765625,-400000.0625,-17302.130859375,-400000.0625,-26259.470703125,-400000.0625
0.03362441062927246,-400000.0625,-39673.859375,-25853.259765625,-400000.0625,-17290.58984375,-400000.0625,-26226.330078125,-400000.0625
0.03363037109375,-400000.0625,-39672.5703125,-25852.16015625,-400000.0625,-17330.69921875,-400000.0625,-26224.900390625,-400000.0625
0.03363466262817383,-400000.0625,-39702.66015625,-25879.580078125,-400000.0625,-17400.7890625,-400000.0625,-26252.369140625,-400000.0625
0.03363919258117676,-400000.0625,-39725.828125,-25899.650390625,-400000.0625,-17449.05078125,-400000.0625,-26266.91015625,-400000.0625
0.03364300727844238,-400000.0625,-39701.421875,-25874.470703125,-400000.0625,-17451.150390625,-400000.0625,-26249.98046875,-400000.0625
0.09976959228515625,-400000.0625,-39659.69921875,-25833.419921875,-400000.0625,-17442.509765625,-400000.0625,-26228.33984375,-400000.0625
0.09987330436706543,-400000.0625,-39652.26171875,-25825.41015625,-400000.0625,-17463.44921875,-400000.0625,-26227.619140625,-400000.0625
0.09987878799438477,-400000.0625,-39674.2890625,-25846.630859375,-400000.0625,-17510.029296875,-400000.0625,-26250.080078125,-400000.0625
0.0998842716217041,-400000.0625,-39686.05859375,-25858.55078125,-400000.0625,-17550.66015625,-400000.0625,-26262.330078125,-400000.0625
0.09988808631896973,-400000.0625,-39661.26953125,-25831.990234375,-400000.0625,-17552.330078125,-400000.0625,-26243.640625,-400000.0625
0.09989404678344727,-400000.0625,-39626.55859375,-25793.029296875,-400000.0625,-17551.849609375,-400000.0625,-26203.5390625,-400000.0625
0.09990453720092773,-400000.0625,-39618.3515625,-25789.44921875,-400000.0625,-17575.4609375,-400000.0625,-26199.529296875,-400000.0625
0.09990906715393066,-400000.0625,-39654.44921875,-25823.7890625,-400000.0625,-17627.240234375,-400000.0625,-26231.009765625,-400000.0625
0.09991335868835449,-400000.0625,-39677.578125,-25840.810546875,-400000.0625,-17670.439453125,-400000.0625,-26246.5,-400000.0625
0.09991908073425293,-400000.0625,-39662.69921875,-25823.98046875,-400000.0625,-17675.58984375,-400000.0625,-26230.91015625,-400000.0625
0.09992313385009766,-400000.0625,-39630.80078125,-25790.4609375,-400000.0625,-17666.630859375,-400000.0625,-26193.9609375,-400000.0625
0.09992814064025879,-400000.0625,-39624.5,-25784.109375,-400000.0625,-17686.69921875,-400000.0625,-26186.140625,-400000.0625
0.09993243217468262,-400000.0625,-39653.58984375,-25810.630859375,-400000.0625,-17737.060546875,-400000.0625,-26209.689453125,-400000.0625
0.09993624687194824,-400000.0625,-39672.859375,-25829.130859375,-400000.0625,-17779.2109375,-400000.0625,-26222.51953125,-400000.0625
0.09994101524353027,-400000.0625,-39647.3515625,-25802.189453125,-400000.0625,-17781.310546875,-400000.0625,-26195.91015625,-400000.0625
0.0999448299407959,-400000.0625,-39618.44921875,-25770.91015625,-400000.0625,-17773.8203125,-400000.0625,-26169.5390625,-400000.0625
0.21711349487304688,-400000.0625,-39622.9296875,-25775.05078125,-400000.0625,-17795.7109375,-400000.0625,-26164.490234375,-400000.0625
0.22063779830932617,-400000.0625,-39649.96875,-25804.51953125,-400000.0625,-17845.6796875,-400000.0625,-26189.140625,-400000.0625
0.22102594375610352,-400000.0625,-39668.28125,-25822.5,-400000.0625,-17898.1796875,-400000.0625,-26207.779296875,-400000.0625
0.22103118896484375,-400000.0625,-39656.7890625,-25806.140625,-400000.0625,-17909.859375,-400000.0625,-26186.849609375,-400000.0625
0.22103524208068848,-400000.0625,-39621.0703125,-25768.619140625,-400000.0625,-17887.400390625,-400000.0625,-26151.849609375,-400000.0625
0.2210390567779541,-400000.0625,-39617.828125,-25767.23046875,-400000.0625,-17909.91015625,-400000.0625,-26149.7109375,-400000.0625
0.22104263305664062,-400000.0625,-39652.2109375,-25797.3203125,-400000.0625,-17963.69921875,-400000.0625,-26174.740234375,-400000.0625
0.22104620933532715,-400000.0625,-39664.8515625,-25808.2890625,-400000.0625,-17995.5,-400000.0625,-26185.560546875,-400000.0625
0.22104978561401367,-400000.0625,-39638.328125,-25783.58984375,-400000.0625,-17996.119140625,-400000.0625,-26160.240234375,-400000.0625
0.2210536003112793,-400000.0625,-39607.05078125,-25750.2109375,-400000.0625,-17983.9609375,-400000.0625,-26124.33984375,-400000.0625
0.22105741500854492,-400000.0625,-39597.08984375,-25740.9609375,-400000.0625,-17998.359375,-400000.0625,-26117.759765625,-400000.0625
0.22106075286865234,-400000.0625,-39633.55859375,-25776.8203125,-400000.0625,-18061.58984375,-400000.0625,-26150.08984375,-400000.0625
0.22106599807739258,-400000.0625,-39658.9296875,-25799.900390625,-400000.0625,-18099.5,-400000.0625,-26166.16015625,-400000.0625
0.2210695743560791,-400000.0625,-39643.390625,-25781.73046875,-400000.0625,-18095.779296875,-400000.0625,-26144.41015625,-400000.0625
0.22107315063476562,-400000.0625,-39596.75,-25735.5703125,-400000.0625,-18070.80078125,-400000.0625,-26093.529296875,-400000.0625
0.22107672691345215,-400000.0625,-39588.30859375,-25728.1796875,-400000.0625,-18089.009765625,-400000.0625,-26083.330078125,-400000.0625
0.22571444511413574,-400000.0625,-39616.87890625,-25755.029296875,-400000.0625,-18149.380859375,-400000.0625,-26108.4609375,-400000.0625
0.22580432891845703,-400000.0625,-39644.91015625,-25781.009765625,-400000.0625,-18186.0,-400000.0625,-26131.009765625,-400000.0625
0.22580957412719727,-400000.0625,-39631.23046875,-25766.7109375,-400000.0625,-18176.609375,-400000.0625,-26115.470703125,-400000.0625
0.225813627243042,-400000.0625,-39591.83984375,-25735.099609375,-400000.0625,-18148.0,-400000.0625,-26076.83984375,-400000.0625
0.22581720352172852,-400000.0625,-39605.62109375,-25744.779296875,-400000.0625,-18187.099609375,-400000.0625,-26089.669921875,-400000.0625
0.22582077980041504,-400000.0625,-39664.51171875,-25782.73046875,-400000.0625,-18245.169921875,-400000.0625,-26136.9296875,-400000.0625
0.22582554817199707,-400000.0625,-39706.76171875,-25803.94921875,-400000.0625,-18263.060546875,-400000.0625,-26160.529296875,-400000.0625
0.2258291244506836,-400000.0625,-39698.55859375,-25793.080078125,-400000.0625,-18265.109375,-400000.0625,-26137.740234375,-400000.0625
0.22583270072937012,-400000.0625,-39650.3984375,-25768.66015625,-400000.0625,-18240.55078125,-400000.0625,-26110.75,-400000.0625
0.22583603858947754,-400000.0625,-39664.078125,-25780.16015625,-400000.0625,-18240.310546875,-400000.0625,-26138.9296875,-400000.0625
0.22584295272827148,-400000.0625,-39730.6015625,-25827.890625,-400000.0625,-18295.240234375,-400000.0625,-26191.94921875,-400000.0625
0.225846529006958,-400000.0625,-39754.3984375,-25851.8203125,-400000.0625,-18333.720703125,-400000.0625,-26224.08984375,-400000.0625
0.22585010528564453,-400000.0625,-39777.5703125,-25858.689453125,-400000.0625,-18332.439453125,-400000.0625,-26241.2109375,-400000.0625
0.22585368156433105,-400000.0625,-39781.62109375,-25854.44921875,-400000.0625,-18335.109375,-400000.0625,-26244.98046875,-400000.0625
0.22585725784301758,-400000.0625,-39835.26953125,-25907.810546875,-400000.0625,-18389.80078125,-400000.0625,-26313.880859375,-400000.0625
0.2258608341217041,-400000.0625,-39939.83984375,-25997.5,-400000.0625,-18498.08984375,-400000.0625,-26404.720703125,-400000.0625
0.29083943367004395,-400000.0625,-40004.58984375,-26059.8203125,-400000.0625,-18571.279296875,-400000.0625,-26467.51953125,-400000.0625
0.3490920066833496,-400000.0625,-40036.640625,-26086.91015625,-400000.0625,-18602.369140625,-400000.0625,-26500.7109375,-400000.0625
0.359053373336792,-400000.0625,-40058.46875,-26102.310546875,-400000.0625,-18629.26953125,-400000.0625,-26511.390625,-400000.0625
0.3642854690551758,-400000.0625,-40091.8984375,-26139.41015625,-400000.0625,-18681.720703125,-400000.0625,-26547.859375,-400000.0625
0.36872363090515137,-400000.0625,-40182.6015625,-26223.380859375,-400000.0625,-18785.76953125,-400000.0625,-26629.0703125,-400000.0625
0.3687319755554199,-400000.0625,-40260.03125,-26294.849609375,-400000.0625,-18870.58984375,-400000.0625,-26698.400390625,-400000.0625
0.36873698234558105,-400000.0625,-40313.6796875,-26345.16015625,-400000.0625,-18934.58984375,-400000.0625,-26747.560546875,-400000.0625
0.368741512298584,-400000.0625,-40369.37109375,-26398.51953125,-400000.0625,-19018.75,-400000.0625,-26801.490234375,-400000.0625
0.36874938011169434,-400000.0625,-40463.69140625,-26488.970703125,-400000.0625,-19138.2890625,-400000.0625,-26897.19921875,-400000.0625
0.36875367164611816,-400000.0625,-40587.53125,-26614.619140625,-400000.0625,-19269.609375,-400000.0625,-27018.650390625,-400000.0625
0.3687574863433838,-400000.0625,-40696.671875,-26723.9609375,-400000.0625,-19393.349609375,-400000.0625,-27123.41015625,-400000.0625
0.3687620162963867,-400000.0625,-40789.69921875,-26814.26953125,-400000.0625,-19503.359375,-400000.0625,-27209.619140625,-400000.0625
0.36876606941223145,-400000.0625,-40873.71875,-26896.33984375,-400000.0625,-19606.16015625,-400000.0625,-27288.76953125,-400000.0625
0.3687713146209717,-400000.0625,-41001.28125,-27024.4609375,-400000.0625,-19750.169921875,-400000.0625,-27418.859375,-400000.0625
0.3687753677368164,-400000.0625,-41174.98828125,-27198.83984375,-400000.0625,-19943.05078125,-400000.0625,-27587.75,-400000.0625
0.36877918243408203,-400000.0625,-41352.12890625,-27372.939453125,-400000.0625,-20140.26953125,-400000.0625,-27763.419921875,-400000.0625
0.3784315586090088,-400000.0625,-41509.6796875,-27526.669921875,-400000.0625,-20314.890625,-400000.0625,-27915.4296875,-400000.0625
0.38971853256225586,-400000.0625,-41659.9296875,-27676.490234375,-400000.0625,-20481.259765625,-400000.0625,-28062.970703125,-400000.0625
0.39466309547424316,-400000.0625,-41861.96875,-27876.810546875,-400000.0625,-20694.44921875,-400000.0625,-28260.279296875,-400000.0625
0.3946723937988281,-400000.0625,-42090.28125,-28108.080078125,-400000.0625,-20939.44921875,-400000.0625,-28487.919921875,-400000.0625
0.39467716217041016,-400000.0625,-42318.73046875,-28333.859375,-400000.0625,-21184.16015625,-400000.0625,-28712.23046875,-400000.0625
0.394681453704834,-400000.0625,-42544.66015625,-28555.73046875,-400000.0625,-21419.4296875,-400000.0625,-28933.669921875,-400000.0625
0.39469242095947266,-400000.0625,-42762.80859375,-28776.98046875,-400000.0625,-21655.08984375,-400000.0625,-29150.6796875,-400000.0625
0.3946969509124756,-400000.0625,-43035.12890625,-29047.970703125,-400000.0625,-21951.150390625,-400000.0625,-29422.529296875,-400000.0625
0.3947010040283203,-400000.0625,-43351.0390625,-29359.73046875,-400000.0625,-22274.830078125,-400000.0625,-29736.94921875,-400000.0625
0.39470481872558594,-400000.0625,-43688.58984375,-29695.7109375,-400000.0625,-22620.8203125,-400000.0625,-30065.349609375,-400000.0625
0.39470863342285156,-400000.0625,-44017.51171875,-30022.05078125,-400000.0625,-22948.41015625,-400000.0625,-30392.3203125,-400000.0625
0.3947126865386963,-400000.0625,-44349.1484375,-30355.5,-400000.0625,-23293.16015625,-400000.0625,-30721.619140625,-400000.0625
0.3947165012359619,-400000.0625,-44727.859375,-30738.359375,-400000.0625,-23685.029296875,-400000.0625,-31096.1796875,-400000.0625
0.39472222328186035,-400000.0625,-45147.328125,-31154.16015625,-400000.0625,-24109.75,-400000.0625,-31513.5,-400000.0625
0.403545618057251,-400000.0625,-45567.8515625,-31572.6796875,-400000.0625,-24532.509765625,-400000.0625,-31930.359375,-400000.0625
0.4081394672393799,-400000.0625,-45954.8984375,-31963.919921875,-400000.0625,-24944.169921875,-400000.0625,-32318.880859375,-400000.0625
0.41654157638549805,-400000.0625,-46313.1484375,-32321.5,-400000.0625,-25301.939453125,-400000.0625,-32670.55078125,-400000.0625
0.4220244884490967,-400000.0625,-46694.7109375,-32700.30078125,-400000.0625,-25683.01953125,-400000.0625,-33051.2109375,-400000.0625
0.42891979217529297,-400000.0625,-47094.640625,-33097.890625,-400000.0625,-26079.279296875,-400000.0625,-33447.3203125,-400000.0625
0.4344000816345215,-400000.0625,-47474.33984375,-33472.828125,-400000.0625,-26449.73046875,-400000.0625,-33818.48828125,-400000.0625
0.44083571434020996,-400000.0625,-47817.51953125,-33812.5703125,-400000.0625,-26777.75,-400000.0625,-34156.8984375,-400000.0625
0.4454689025878906,-400000.0625,-48139.91015625,-34132.25,-400000.0625,-27091.080078125,-400000.0625,-34472.94921875,-400000.0625
0.445483922958374,-400000.0625,-48470.73828125,-34463.73828125,-400000.0625,-27405.0703125,-400000.0625,-34805.25,-400000.0625
0.4454915523529053,-400000.0625,-48814.48828125,-34809.44921875,-400000.0625,-27729.369140625,-400000.0625,-35150.33984375,-400000.0625
0.4454977512359619,-400000.0625,-49130.16015625,-35121.73046875,-400000.0625,-28020.0,-400000.0625,-35457.421875,-400000.0625
0.44550371170043945,-400000.0625,-49410.3984375,-35401.3984375,-400000.0625,-28285.7890625,-400000.0625,-35735.66015625,-400000.0625
0.4455101490020752,-400000.0625,-49682.23828125,-35672.2890625,-400000.0625,-28528.650390625,-400000.0625,-36008.078125,-400000.0625
0.44551610946655273,-400000.0625,-49969.30078125,-35960.76953125,-400000.0625,-28776.69921875,-400000.0625,-36294.66015625,-400000.0625
0.4455220699310303,-400000.0625,-50272.37890625,-36262.55859375,-400000.0625,-29032.7109375,-400000.0625,-36590.05859375,-400000.0625
0.4455299377441406,-400000.0625,-50549.69921875,-36536.98046875,-400000.0625,-29253.30078125,-400000.0625,-36861.8515625,-400000.0625
0.44553613662719727,-400000.0625,-50787.73828125,-36776.44921875,-400000.0625,-29436.5,-400000.0625,-37101.23046875,-400000.0625
0.4455423355102539,-400000.0625,-51010.328125,-36999.80078125,-400000.0625,-29593.470703125,-400000.0625,-37325.9609375,-400000.0625
0.5048766136169434,-400000.0625,-51237.44921875,-37225.44140625,-400000.0625,-29737.08984375,-400000.0625,-37546.26171875,-400000.0625
0.5185251235961914,-400000.0625,-51476.71875,-37462.328125,-400000.0625,-29881.4296875,-400000.0625,-37780.05078125,-400000.0625
0.5238323211669922,-400000.0625,-51698.9296875,-37686.16015625,-400000.0625,-30014.7109375,-400000.0625,-38000.5390625,-400000.0625
0.5287787914276123,-400000.0625,-51889.66015625,-37878.140625,-400000.0625,-30093.669921875,-400000.0625,-38190.69921875,-400000.0625
0.5287864208221436,-400000.0625,-52070.71875,-38055.94921875,-400000.0625,-30157.140625,-400000.0625,-38368.609375,-400000.0625
0.5287909507751465,-400000.0625,-52266.21875,-38251.55078125,-400000.0625,-30257.66015625,-400000.0625,-38562.30078125,-400000.0625
0.5287952423095703,-400000.0625,-52473.41015625,-38458.58984375,-400000.0625,-30351.01953125,-400000.0625,-38766.01171875,-400000.0625
0.5287997722625732,-400000.0625,-52656.51171875,-38639.83984375,-400000.0625,-30401.08984375,-400000.0625,-38944.76953125,-400000.0625
0.528803825378418,-400000.0625,-52800.5703125,-38786.12890625,-400000.0625,-30425.890625,-400000.0625,-39088.640625,-400000.0625
0.5288076400756836,-400000.0625,-52933.26953125,-38919.30859375,-400000.0625,-30435.279296875,-400000.0625,-39229.05859375,-400000.0625
0.5288114547729492,-400000.0625,-53099.5,-39083.2890625,-400000.0625,-30465.990234375,-400000.0625,-39391.859375,-400000.0625
0.528815507888794,-400000.0625,-53262.33984375,-39247.46875,-400000.0625,-30480.529296875,-400000.0625,-39550.7890625,-400000.0625
0.5288193225860596,-400000.0625,-53436.328125,-39418.98828125,-400000.0625,-30481.2890625,-400000.0625,-39722.640625,-400000.0625
0.5288233757019043,-400000.0625,-53563.7890625,-39543.05859375,-400000.0625,-30395.419921875,-400000.0625,-39851.19140625,-400000.0625
0.5288283824920654,-400000.0625,-53675.80078125,-39653.640625,-400000.0625,-30275.919921875,-400000.0625,-39963.3515625,-400000.0625
0.5288324356079102,-400000.0625,-53811.21875,-39790.828125,-400000.0625,-30155.51953125,-400000.0625,-40094.94921875,-400000.0625
0.5818912982940674,-400000.0625,-53956.46875,-39933.96875,-400000.0625,-30038.689453125,-400000.0625,-40237.859375,-400000.0625
0.5897326469421387,-400000.0625,-54085.5,-40062.05078125,-400000.0625,-29895.310546875,-400000.0625,-40369.23046875,-400000.0625
0.594362735748291,-400000.0625,-54199.4609375,-40175.19921875,-400000.0625,-29725.890625,-400000.0625,-40479.76171875,-400000.0625
0.5943717956542969,-400000.0625,-54299.21875,-40273.80859375,-400000.0625,-29527.330078125,-400000.0625,-40582.80078125,-400000.0625
0.594376802444458,-400000.0625,-54418.19140625,-40391.78125,-400000.0625,-29358.919921875,-400000.0625,-40706.16015625,-400000.0625
0.59438157081604,-400000.0625,-54553.94140625,-40523.33984375,-400000.0625,-29209.189453125,-400000.0625,-40834.5703125,-400000.0625
0.5943853855133057,-400000.0625,-54664.5703125,-40634.01953125,-400000.0625,-29033.94921875,-400000.0625,-40942.1484375,-400000.0625
0.5943894386291504,-400000.0625,-54748.96875,-40721.94921875,-400000.0625,-28850.130859375,-400000.0625,-41026.7890625,-400000.0625
0.594393253326416,-400000.0625,-54831.4609375,-40800.76953125,-400000.0625,-28684.91015625,-400000.0625,-41104.98828125,-400000.0625
0.5943973064422607,-400000.0625,-54926.58984375,-40893.75,-400000.0625,-28543.279296875,-400000.0625,-41194.109375,-400000.0625
0.5944008827209473,-400000.0625,-55026.48828125,-40990.44921875,-400000.0625,-28449.869140625,-400000.0625,-41292.62109375,-400000.0625
0.5944046974182129,-400000.0625,-55122.4296875,-41086.5390625,-400000.0625,-28385.58984375,-400000.0625,-41384.421875,-400000.0625
0.5944085121154785,-400000.0625,-55191.48046875,-41163.87890625,-400000.0625,-28319.119140625,-400000.0625,-41445.2109375,-400000.0625
0.5944125652313232,-400000.0625,-55257.421875,-41228.58984375,-400000.0625,-28260.849609375,-400000.0625,-41498.37890625,-400000.0625
0.594416618347168,-400000.0625,-55356.69921875,-41319.37890625,-400000.0625,-28269.9609375,-400000.0625,-41583.87890625,-400000.0625
0.5944204330444336,-400000.0625,-55443.33984375,-41408.26171875,-400000.0625,-28288.69921875,-400000.0625,-41666.3203125,-400000.0625
0.6122934818267822,-400000.0625,-55522.44921875,-41488.75,-400000.0625,-28287.029296875,-400000.0625,-41737.078125,-400000.0625
0.6247680187225342,-400000.0625,-55564.6015625,-41534.0,-400000.0625,-28273.779296875,-400000.0625,-41783.48046875,-400000.0625
0.6293442249298096,-400000.0625,-55610.8515625,-41579.30078125,-400000.0625,-28268.2890625,-400000.0625,-41827.44921875,-400000.0625
0.6293525695800781,-400000.0625,-55673.1796875,-41642.23828125,-400000.0625,-28296.279296875,-400000.0625,-41885.2890625,-400000.0625
0.6293573379516602,-400000.0625,-55732.01953125,-41705.76171875,-400000.0625,-28333.5703125,-400000.0625,-41948.1796875,-400000.0625
0.6293618679046631,-400000.0625,-55794.53125,-41768.37109375,-400000.0625,-28388.55078125,-400000.0625,-42010.26171875,-400000.0625
0.6293656826019287,-400000.0625,-55827.76953125,-41800.0703125,-400000.0625,-28448.16015625,-400000.0625,-42036.25,-400000.0625
0.6293697357177734,-400000.0625,-55849.98828125,-41818.48046875,-400000.0625,-28493.650390625,-400000.0625,-42051.6484375,-400000.0625
0.62937331199646,-400000.0625,-55903.01171875,-41875.21875,-400000.0625,-28578.94921875,-400000.0625,-42103.1015625,-400000.0625
0.6293773651123047,-400000.0625,-55958.328125,-41930.01171875,-400000.0625,-28684.669921875,-400000.0625,-42156.6484375,-400000.0625
0.6293809413909912,-400000.0625,-55990.75,-41960.05078125,-400000.0625,-28759.05078125,-400000.0625,-42186.4609375,-400000.0625
0.629385232925415,-400000.0625,-56007.48828125,-41977.4609375,-400000.0625,-28823.859375,-400000.0625,-42207.1484375,-400000.0625
0.6293890476226807,-400000.0625,-56032.80859375,-41999.05859375,-400000.0625,-28905.009765625,-400000.0625,-42224.078125,-400000.0625
0.6293928623199463,-400000.0625,-56067.51953125,-42035.16015625,-400000.0625,-29001.0,-400000.0625,-42259.03125,-400000.0625
0.6293971538543701,-400000.0625,-56102.23046875,-42070.44140625,-400000.0625,-29107.4296875,-400000.0625,-42298.98828125,-400000.0625
0.6294007301330566,-400000.0625,-56128.078125,-42094.5703125,-400000.0625,-29209.330078125,-400000.0625,-42319.01953125,-400000.0625
0.6722676753997803,-400000.0625,-56137.62109375,-42103.1015625,-400000.0625,-29289.76953125,-400000.0625,-42331.26953125,-400000.0625
0.6775336265563965,-400000.0625,-56135.51953125,-42101.25,-400000.0625,-29375.130859375,-400000.0625,-42325.83984375,-400000.0625
0.6844651699066162,-400000.0625,-56134.421875,-42101.1015625,-400000.0625,-29460.619140625,-400000.0625,-42321.2109375,-400000.0625
0.6901791095733643,-400000.0625,-56152.16015625,-42119.078125,-400000.0625,-29560.619140625,-400000.0625,-42344.05078125,-400000.0625
0.6947402954101562,-400000.0625,-56149.390625,-42116.6015625,-400000.0625,-29643.349609375,-400000.0625,-42335.46875,-400000.0625
0.6947500705718994,-400000.0625,-56112.73046875,-42076.26171875,-400000.0625,-29703.4296875,-400000.0625,-42291.69140625,-400000.0625
0.6947546005249023,-400000.0625,-56064.76171875,-42025.23828125,-400000.0625,-29748.6796875,-400000.0625,-42244.1484375,-400000.0625
0.6947586536407471,-400000.0625,-56025.12890625,-41991.671875,-400000.0625,-29800.849609375,-400000.0625,-42209.44140625,-400000.0625
0.6952407360076904,-400000.0625,-55992.8984375,-41955.37890625,-400000.0625,-29854.630859375,-400000.0625,-42171.8203125,-400000.0625
0.700646162033081,-400000.0625,-55931.80859375,-41895.01171875,-400000.0625,-29892.2109375,-400000.0625,-42106.78125,-400000.0625
0.7049651145935059,-400000.0625,-55845.21875,-41804.75,-400000.0625,-29897.310546875,-400000.0625,-42012.21875,-400000.0625
0.7049729824066162,-400000.0625,-55744.12890625,-41701.12890625,-400000.0625,-29897.5,-400000.0625,-41912.421875,-400000.0625
0.7049775123596191,-400000.0625,-55667.6484375,-41623.5,-400000.0625,-29924.439453125,-400000.0625,-41833.41015625,-400000.0625
0.7049825191497803,-400000.0625,-55592.87890625,-41551.98046875,-400000.0625,-29950.91015625,-400000.0625,-41759.2109375,-400000.0625
0.704986572265625,-400000.0625,-55508.51953125,-41467.0,-400000.0625,-29971.98046875,-400000.0625,-41674.0,-400000.0625
0.7049903869628906,-400000.0625,-55401.4296875,-41351.46875,-400000.0625,-29960.6796875,-400000.0625,-41558.6015625,-400000.0625
0.7360069751739502,-400000.0625,-55266.859375,-41215.8515625,-400000.0625,-29927.259765625,-400000.0625,-41422.7109375,-400000.0625
0.7497365474700928,-400000.0625,-55178.21875,-41120.578125,-400000.0625,-29943.330078125,-400000.0625,-41329.390625,-400000.0625
0.7547826766967773,-400000.0625,-55107.4609375,-41042.2890625,-400000.0625,-29984.189453125,-400000.0625,-41249.328125,-400000.0625
0.760143518447876,-400000.0625,-54998.3984375,-40956.359375,-400000.0625,-30012.130859375,-400000.0625,-41142.1796875,-400000.0625
0.7654542922973633,-400000.0625,-54916.25,-40870.53125,-400000.0625,-30022.720703125,-400000.0625,-41047.578125,-400000.0625
0.7727923393249512,-400000.0625,-54833.3203125,-40779.30859375,-400000.0625,-30030.779296875,-400000.0625,-40947.05859375,-400000.0625
0.7778525352478027,-400000.0625,-54759.078125,-40709.0703125,-400000.0625,-30061.490234375,-400000.0625,-40875.48828125,-400000.0625
0.7847676277160645,-400000.0625,-54711.73046875,-40664.1484375,-400000.0625,-30125.619140625,-400000.0625,-40831.05078125,-400000.0625
0.7892987728118896,-400000.0625,-54661.08984375,-40608.03125,-400000.0625,-30173.5,-400000.0625,-40767.44140625,-400000.0625
0.7893085479736328,-400000.0625,-54595.2890625,-40537.359375,-400000.0625,-30199.630859375,-400000.0625,-40694.48046875,-400000.0625
0.789313554763794,-400000.0625,-54520.80078125,-40462.69140625,-400000.0625,-30214.169921875,-400000.0625,-40617.51953125,-400000.0625
0.7893176078796387,-400000.0625,-54463.5390625,-40403.1796875,-400000.0625,-30244.9296875,-400000.0625,-40554.71875,-400000.0625
0.7893216609954834,-400000.0625,-54421.19140625,-40361.41015625,-400000.0625,-30287.4609375,-400000.0625,-40507.75,-400000.0625
0.789325475692749,-400000.0625,-54375.12890625,-40316.73046875,-400000.0625,-30342.580078125,-400000.0625,-40466.9296875,-400000.0625
0.7893295288085938,-400000.0625,-54308.46875,-40247.78125,-400000.0625,-30372.189453125,-400000.0625,-40395.7890625,-400000.0625
0.7893335819244385,-400000.0625,-54234.1796875,-40172.19921875,-400000.0625,-30375.439453125,-400000.0625,-40322.87890625,-400000.0625
0.8009376525878906,-400000.0625,-54189.5,-40127.46875,-400000.0625,-30400.5703125,-400000.0625,-40273.05078125,-400000.0625
0.806964635848999,-400000.0625,-54165.69921875,-40101.25,-400000.0625,-30440.380859375,-400000.0625,-40246.44140625,-400000.0625
0.8113212585449219,-400000.0625,-54128.98828125,-40063.19921875,-400000.0625,-30465.26953125,-400000.0625,-40209.6796875,-400000.0625
0.8113288879394531,-400000.0625,-54070.62109375,-40004.26171875,-400000.0625,-30451.439453125,-400000.0625,-40147.12109375,-400000.0625
0.8113336563110352,-400000.0625,-53999.76171875,-39933.73046875,-400000.0625,-30431.23046875,-400000.0625,-40077.2109375,-400000.0625
0.8113377094268799,-400000.0625,-53947.12109375,-39884.140625,-400000.0625,-30437.4296875,-400000.0625,-40031.05859375,-400000.0625
0.8113415241241455,-400000.0625,-53938.25,-39873.83984375,-400000.0625,-30479.19921875,-400000.0625,-40022.328125,-400000.0625
0.8113453388214111,-400000.0625,-53917.83984375,-39851.23828125,-400000.0625,-30499.1796875,-400000.0625,-39995.44140625,-400000.0625
0.8113491535186768,-400000.0625,-53857.91015625,-39794.5,-400000.0625,-30477.0,-400000.0625,-39939.21875,-400000.0625
0.8113536834716797,-400000.0625,-53817.328125,-39753.30078125,-400000.0625,-30487.640625,-400000.0625,-39897.01953125,-400000.0625
0.8113577365875244,-400000.0625,-53805.0703125,-39741.08984375,-400000.0625,-30516.91015625,-400000.0625,-39887.9609375,-400000.0625
0.8113613128662109,-400000.0625,-53795.44140625,-39731.83984375,-400000.0625,-30543.240234375,-400000.0625,-39879.51953125,-400000.0625
0.8113648891448975,-400000.0625,-53771.6015625,-39707.140625,-400000.0625,-30563.599609375,-400000.0625,-39851.53125,-400000.0625
0.8113687038421631,-400000.0625,-53716.859375,-39653.96875,-400000.0625,-30544.7109375,-400000.0625,-39799.890625,-400000.0625
0.8113722801208496,-400000.0625,-53649.76953125,-39587.0703125,-400000.0625,-30511.720703125,-400000.0625,-39735.8515625,-400000.0625
0.8113760948181152,-400000.0625,-53612.76171875,-39548.73828125,-400000.0625,-30510.0,-400000.0625,-39699.6484375,-400000.0625
0.8759450912475586,-400000.0625,-53601.4609375,-39536.9609375,-400000.0625,-30526.5,-400000.0625,-39689.87890625,-400000.0625
0.8875081539154053,-400000.0625,-53572.94921875,-39506.9609375,-400000.0625,-30523.109375,-400000.0625,-39660.55078125,-400000.0625
0.8930025100708008,-400000.0625,-53520.96875,-39454.51171875,-400000.0625,-30502.939453125,-400000.0625,-39606.1015625,-400000.0625
0.8984272480010986,-400000.0625,-53465.80078125,-39400.76953125,-400000.0625,-30472.94921875,-400000.0625,-39551.7890625,-400000.0625
0.9047539234161377,-400000.0625,-53430.1796875,-39363.91015625,-400000.0625,-30469.470703125,-400000.0625,-39521.03125,-400000.0625
0.909247636795044,-400000.0625,-53413.58984375,-39350.8515625,-400000.0625,-30485.19921875,-400000.0625,-39506.87109375,-400000.0625
0.9092557430267334,-400000.0625,-53392.51171875,-39330.390625,-400000.0625,-30495.98046875,-400000.0625,-39481.69140625,-400000.0625
0.9092605113983154,-400000.0625,-53342.01171875,-39277.26953125,-400000.0625,-30472.140625,-400000.0625,-39427.37890625,-400000.0625
0.9092648029327393,-400000.0625,-53280.41015625,-39214.19140625,-400000.0625,-30436.849609375,-400000.0625,-39362.859375,-400000.0625
0.909268856048584,-400000.0625,-53247.73828125,-39182.37890625,-400000.0625,-30427.26953125,-400000.0625,-39333.62890625,-400000.0625
0.9092726707458496,-400000.0625,-53239.30078125,-39176.8984375,-400000.0625,-30447.060546875,-400000.0625,-39329.33984375,-400000.0625
0.9092764854431152,-400000.0625,-53218.94140625,-39155.5390625,-400000.0625,-30448.76953125,-400000.0625,-39307.4609375,-400000.0625
0.90928053855896,-400000.0625,-53164.6796875,-39100.51171875,-400000.0625,-30421.55078125,-400000.0625,-39252.19140625,-400000.0625
0.9092848300933838,-400000.0625,-53105.4609375,-39044.1484375,-400000.0625,-30386.7890625,-400000.0625,-39192.19921875,-400000.0625
0.9092891216278076,-400000.0625,-53072.73828125,-39013.33984375,-400000.0625,-30379.25,-400000.0625,-39159.87109375,-400000.0625
0.9092931747436523,-400000.0625,-53062.78125,-39004.328125,-400000.0625,-30397.470703125,-400000.0625,-39151.2890625,-400000.0625
0.937244176864624,-400000.0625,-53041.078125,-38981.87109375,-400000.0625,-30398.08984375,-400000.0625,-39133.9296875,-400000.0625
0.9432210922241211,-400000.0625,-52998.26171875,-38936.23828125,-400000.0625,-30370.5703125,-400000.0625,-39087.8203125,-400000.0625
0.9490771293640137,-400000.0625,-52937.75,-38878.3984375,-400000.0625,-30340.6796875,-400000.0625,-39027.078125,-400000.0625
0.9562602043151855,-400000.0625,-52910.671875,-38852.078125,-400000.0625,-30328.849609375,-400000.0625,-39003.140625,-400000.0625
0.9604990482330322,-400000.0625,-52899.6484375,-38840.16015625,-400000.0625,-30336.669921875,-400000.0625,-38994.12890625,-400000.0625
0.9605064392089844,-400000.0625,-52878.578125,-38823.69921875,-400000.0625,-30340.009765625,-400000.0625,-38973.859375,-400000.0625
0.9605112075805664,-400000.0625,-52836.421875,-38782.41015625,-400000.0625,-30311.16015625,-400000.0625,-38932.51953125,-400000.0625
0.9605154991149902,-400000.0625,-52775.19921875,-38722.51953125,-400000.0625,-30278.880859375,-400000.0625,-38873.53125,-400000.0625
0.9605193138122559,-400000.0625,-52743.30078125,-38692.2890625,-400000.0625,-30277.0703125,-400000.0625,-38837.19921875,-400000.0625
0.9605238437652588,-400000.0625,-52737.9609375,-38686.94921875,-400000.0625,-30287.3203125,-400000.0625,-38833.80859375,-400000.0625
0.9605278968811035,-400000.0625,-52717.73828125,-38667.640625,-400000.0625,-30279.5390625,-400000.0625,-38814.26171875,-400000.0625
0.9605317115783691,-400000.0625,-52666.53125,-38617.76171875,-400000.0625,-30247.41015625,-400000.0625,-38758.8515625,-400000.0625
0.9605355262756348,-400000.0625,-52616.4609375,-38565.26171875,-400000.0625,-30226.0390625,-400000.0625,-38710.9296875,-400000.0625
0.9605395793914795,-400000.0625,-52594.1015625,-38542.55859375,-400000.0625,-30218.80078125,-400000.0625,-38692.53125,-400000.0625
0.9605433940887451,-400000.0625,-52585.890625,-38533.30859375,-400000.0625,-30223.08984375,-400000.0625,-38689.5703125,-400000.0625
0.9605472087860107,-400000.0625,-52563.9609375,-38515.37890625,-400000.0625,-30222.75,-400000.0625,-38672.87890625,-400000.0625
0.9922316074371338,-400000.0625,-52529.1484375,-38476.28125,-400000.0625,-30195.4296875,-400000.0625,-38633.26171875,-400000.0625
1.0055863857269287,-400000.0625,-52484.46875,-38424.5,-400000.0625,-30160.2890625,-400000.0625,-38590.48046875,-400000.0625
1.0107731819152832,-400000.0625,-52455.62109375,-38398.41015625,-400000.0625,-30154.5703125,-400000.0625,-38554.01171875,-400000.0625
1.017427682876587,-400000.0625,-52450.46875,-38402.421875,-400000.0625,-30171.490234375,-400000.0625,-38533.98046875,-400000.0625
1.0228056907653809,-400000.0625,-52444.6484375,-38402.12890625,-400000.0625,-30178.41015625,-400000.0625,-38510.421875,-400000.0625
1.0323970317840576,-400000.0625,-52406.83984375,-38364.609375,-400000.0625,-30145.119140625,-400000.0625,-38460.2109375,-400000.0625
1.0383920669555664,-400000.0625,-52352.1015625,-38312.5390625,-400000.0625,-30104.16015625,-400000.0625,-38393.83984375,-400000.0625
1.0426602363586426,-400000.0625,-52336.6015625,-38299.51953125,-400000.0625,-30100.5390625,-400000.0625,-38360.03125,-400000.0625
1.0426690578460693,-400000.0625,-52341.12890625,-38310.76953125,-400000.0625,-30115.26953125,-400000.0625,-38348.25,-400000.0625
1.0426735877990723,-400000.0625,-52335.4609375,-38306.48046875,-400000.0625,-30124.619140625,-400000.0625,-38327.55859375,-400000.0625
1.042677640914917,-400000.0625,-52299.55078125,-38271.71875,-400000.0625,-30097.8203125,-400000.0625,-38271.859375,-400000.0625
1.0426814556121826,-400000.0625,-52257.73046875,-38230.609375,-400000.0625,-30065.970703125,-400000.0625,-38223.69921875,-400000.0625
1.0426855087280273,-400000.0625,-52230.94140625,-38208.44140625,-400000.0625,-30057.859375,-400000.0625,-38203.05078125,-400000.0625
1.042689561843872,-400000.0625,-52225.171875,-38204.05078125,-400000.0625,-30077.169921875,-400000.0625,-38195.80859375,-400000.0625
1.0426933765411377,-400000.0625,-52210.33984375,-38191.12890625,-400000.0625,-30074.650390625,-400000.0625,-38181.828125,-400000.0625
1.0426971912384033,-400000.0625,-52171.671875,-38151.7890625,-400000.0625,-30050.810546875,-400000.0625,-38144.3515625,-400000.0625
1.0736830234527588,-400000.0625,-52119.30859375,-38101.44140625,-400000.0625,-30010.419921875,-400000.0625,-38094.1015625,-400000.0625
1.0796239376068115,-400000.0625,-52090.03125,-38074.12109375,-400000.0625,-29999.0703125,-400000.0625,-38063.76953125,-400000.0625
1.0871434211730957,-400000.0625,-52089.3203125,-38075.0703125,-400000.0625,-30017.4296875,-400000.0625,-38062.8203125,-400000.0625
1.092149257659912,-400000.0625,-52071.91015625,-38058.328125,-400000.0625,-30012.939453125,-400000.0625,-38048.69921875,-400000.0625
1.0984904766082764,-400000.0625,-52027.1796875,-38013.21875,-400000.0625,-29978.1796875,-400000.0625,-37999.73046875,-400000.0625
1.1094653606414795,-400000.0625,-51983.26953125,-37968.44921875,-400000.0625,-29950.099609375,-400000.0625,-37958.05078125,-400000.0625
1.1153693199157715,-400000.0625,-51961.08984375,-37946.98828125,-400000.0625,-29955.009765625,-400000.0625,-37938.41015625,-400000.0625
1.1200170516967773,-400000.0625,-51964.2890625,-37951.76171875,-400000.0625,-29968.359375,-400000.0625,-37934.78125,-400000.0625
1.120028018951416,-400000.0625,-51953.12890625,-37939.6484375,-400000.0625,-29969.55078125,-400000.0625,-37927.78125,-400000.0625
1.120032787322998,-400000.0625,-51920.0390625,-37906.94140625,-400000.0625,-29952.2890625,-400000.0625,-37892.01171875,-400000.0625
1.1200370788574219,-400000.0625,-51873.73828125,-37859.78125,-400000.0625,-29914.91015625,-400000.0625,-37846.28125,-400000.0625
1.1200413703918457,-400000.0625,-51848.3203125,-37830.7890625,-400000.0625,-29897.740234375,-400000.0625,-37818.87109375,-400000.0625
1.1200451850891113,-400000.0625,-51845.94140625,-37832.87890625,-400000.0625,-29919.009765625,-400000.0625,-37822.921875,-400000.0625
1.1200509071350098,-400000.0625,-51846.21875,-37834.51171875,-400000.0625,-29931.259765625,-400000.0625,-37827.26171875,-400000.0625
1.1200544834136963,-400000.0625,-51808.51171875,-37794.171875,-400000.0625,-29900.509765625,-400000.0625,-37784.6796875,-400000.0625
1.120058536529541,-400000.0625,-51758.01171875,-37741.140625,-400000.0625,-29862.259765625,-400000.0625,-37736.3203125,-400000.0625
1.1262843608856201,-400000.0625,-51736.55078125,-37724.12109375,-400000.0625,-29856.16015625,-400000.0625,-37715.1484375,-400000.0625
1.1318590641021729,-400000.0625,-51740.26953125,-37730.94140625,-400000.0625,-29879.33984375,-400000.0625,-37719.44140625,-400000.0625
1.1378731727600098,-400000.0625,-51724.9609375,-37715.48828125,-400000.0625,-29868.75,-400000.0625,-37706.8984375,-400000.0625
1.1421997547149658,-400000.0625,-51684.80859375,-37673.37890625,-400000.0625,-29842.810546875,-400000.0625,-37664.26953125,-400000.0625
1.1422085762023926,-400000.0625,-51640.66015625,-37626.41015625,-400000.0625,-29808.48046875,-400000.0625,-37616.5,-400000.0625
1.1422133445739746,-400000.0625,-51623.2109375,-37607.71875,-400000.0625,-29810.76953125,-400000.0625,-37602.91015625,-400000.0625
1.1422176361083984,-400000.0625,-51632.51171875,-37616.69140625,-400000.0625,-29826.44921875,-400000.0625,-37610.73046875,-400000.0625
1.1422216892242432,-400000.0625,-51622.96875,-37608.87109375,-400000.0625,-29827.220703125,-400000.0625,-37597.46875,-400000.0625
1.142225742340088,-400000.0625,-51580.62890625,-37567.4296875,-400000.0625,-29797.080078125,-400000.0625,-37551.73828125,-400000.0625
1.1422297954559326,-400000.0625,-51538.51953125,-37522.75,-400000.0625,-29767.470703125,-400000.0625,-37509.921875,-400000.0625
1.1422338485717773,-400000.0625,-51525.0703125,-37508.921875,-400000.0625,-29768.0390625,-400000.0625,-37499.1484375,-400000.0625
1.142237663269043,-400000.0625,-51534.7109375,-37517.171875,-400000.0625,-29783.630859375,-400000.0625,-37505.76953125,-400000.0625
1.1422414779663086,-400000.0625,-51528.55859375,-37509.16015625,-400000.0625,-29787.970703125,-400000.0625,-37498.5703125,-400000.0625
1.1422452926635742,-400000.0625,-51492.4609375,-37474.2109375,-400000.0625,-29767.94921875,-400000.0625,-37464.53125,-400000.0625
1.1422498226165771,-400000.0625,-51445.96875,-37424.140625,-400000.0625,-29730.23046875,-400000.0625,-37415.6015625,-400000.0625
1.1422536373138428,-400000.0625,-51425.078125,-37403.30078125,-400000.0625,-29721.98046875,-400000.0625,-37397.19921875,-400000.0625
1.183811902999878,-400000.0625,-51428.80078125,-37410.98046875,-400000.0625,-29742.76953125,-400000.0625,-37402.01171875,-400000.0625
1.189002275466919,-400000.0625,-51429.75,-37413.55078125,-400000.0625,-29750.060546875,-400000.0625,-37401.62890625,-400000.0625
1.1939713954925537,-400000.0625,-51390.4609375,-37371.3515625,-400000.0625,-29717.740234375,-400000.0625,-37355.5703125,-400000.0625
1.1939811706542969,-400000.0625,-51346.9296875,-37327.25,-400000.0625,-29685.310546875,-400000.0625,-37311.609375,-400000.0625
1.1939857006072998,-400000.0625,-51340.3984375,-37315.1796875,-400000.0625,-29688.4609375,-400000.0625,-37301.3515625,-400000.0625
1.1939899921417236,-400000.0625,-51352.21875,-37325.8203125,-400000.0625,-29715.16015625,-400000.0625,-37315.66015625,-400000.0625
1.1939940452575684,-400000.0625,-51337.05859375,-37314.28125,-400000.0625,-29717.779296875,-400000.0625,-37321.19140625,-400000.0625
1.1939983367919922,-400000.0625,-51283.3203125,-37267.0703125,-400000.0625,-29681.400390625,-400000.0625,-37295.19921875,-400000.0625
1.194016933441162,-400000.0625,-51218.609375,-37208.94140625,-400000.0625,-29637.48046875,-400000.0625,-37256.19921875,-400000.0625
1.1999919414520264,-400000.0625,-51189.94921875,-37176.23046875,-400000.0625,-29627.279296875,-400000.0625,-37245.23046875,-400000.0625
1.2100677490234375,-400000.0625,-51188.23828125,-37173.1796875,-400000.0625,-29644.25,-400000.0625,-37263.921875,-400000.0625
1.2152869701385498,-400000.0625,-51179.4609375,-37164.0703125,-400000.0625,-29655.080078125,-400000.0625,-37278.75,-400000.0625
1.2226531505584717,-400000.0625,-51141.3203125,-37123.44921875,-400000.0625,-29632.51953125,-400000.0625,-37256.53125,-400000.0625
1.2275066375732422,-400000.0625,-51081.8515625,-37066.51171875,-400000.0625,-29589.509765625,-400000.0625,-37223.19921875,-400000.0625
1.227515459060669,-400000.0625,-51048.0,-37032.94140625,-400000.0625,-29573.73046875,-400000.0625,-37202.9296875,-400000.0625
1.22752046585083,-400000.0625,-51058.16015625,-37041.62109375,-400000.0625,-29597.330078125,-400000.0625,-37213.19140625,-400000.0625
1.2719824314117432,-400000.0625,-51063.87890625,-37047.1015625,-400000.0625,-29614.7890625,-400000.0625,-37217.33984375,-400000.0625
1.2774252891540527,-400000.0625,-51033.21875,-37015.62890625,-400000.0625,-29592.759765625,-400000.0625,-37186.91015625,-400000.0625
1.2828466892242432,-400000.0625,-50983.578125,-36963.80078125,-400000.0625,-29553.990234375,-400000.0625,-37137.609375,-400000.0625
1.2876720428466797,-400000.0625,-50959.2109375,-36939.1484375,-400000.0625,-29547.5,-400000.0625,-37115.01171875,-400000.0625
1.2876806259155273,-400000.0625,-50978.328125,-36955.4609375,-400000.0625,-29575.400390625,-400000.0625,-37130.4609375,-400000.0625
1.2876865863800049,-400000.0625,-50993.78125,-36968.5703125,-400000.0625,-29590.7109375,-400000.0625,-37139.8984375,-400000.0625
1.2876906394958496,-400000.0625,-50960.640625,-36935.48046875,-400000.0625,-29563.05078125,-400000.0625,-37108.8515625,-400000.0625
1.2876944541931152,-400000.0625,-50913.19921875,-36885.078125,-400000.0625,-29522.51953125,-400000.0625,-37059.83984375,-400000.0625
1.2876982688903809,-400000.0625,-50898.890625,-36870.33984375,-400000.0625,-29516.26953125,-400000.0625,-37038.37890625,-400000.0625
1.2877018451690674,-400000.0625,-50908.140625,-36878.109375,-400000.0625,-29544.0703125,-400000.0625,-37049.48828125,-400000.0625
1.287705421447754,-400000.0625,-50908.05078125,-36876.16015625,-400000.0625,-29552.130859375,-400000.0625,-37048.33984375,-400000.0625
1.2877089977264404,-400000.0625,-50885.87109375,-36853.171875,-400000.0625,-29536.630859375,-400000.0625,-37022.69140625,-400000.0625
1.2877130508422852,-400000.0625,-50840.671875,-36807.16015625,-400000.0625,-29498.869140625,-400000.0625,-36979.44140625,-400000.0625
1.2877166271209717,-400000.0625,-50820.171875,-36789.609375,-400000.0625,-29489.759765625,-400000.0625,-36958.6484375,-400000.0625
1.2877202033996582,-400000.0625,-50830.55859375,-36800.8203125,-400000.0625,-29511.689453125,-400000.0625,-36966.328125,-400000.0625
1.2877237796783447,-400000.0625,-50834.37890625,-36804.44140625,-400000.0625,-29524.380859375,-400000.0625,-36966.5703125,-400000.0625
1.3184380531311035,-400000.0625,-50802.671875,-36772.5390625,-400000.0625,-29498.439453125,-400000.0625,-36934.62109375,-400000.0625
1.3306400775909424,-400000.0625,-50759.69921875,-36726.80859375,-400000.0625,-29458.140625,-400000.0625,-36884.12109375,-400000.0625
1.3358447551727295,-400000.0625,-50734.859375,-36703.01953125,-400000.0625,-29450.279296875,-400000.0625,-36862.5703125,-400000.0625
1.3424112796783447,-400000.0625,-50748.9296875,-36716.98828125,-400000.0625,-29478.69921875,-400000.0625,-36874.87109375,-400000.0625
1.3482415676116943,-400000.0625,-50759.94140625,-36727.2890625,-400000.0625,-29501.30078125,-400000.0625,-36881.3984375,-400000.0625
1.3558287620544434,-400000.0625,-50726.98828125,-36694.48046875,-400000.0625,-29466.919921875,-400000.0625,-36849.83984375,-400000.0625
1.3607418537139893,-400000.0625,-50688.55859375,-36654.05078125,-400000.0625,-29433.01953125,-400000.0625,-36816.3203125,-400000.0625
1.360750675201416,-400000.0625,-50673.19921875,-36637.30859375,-400000.0625,-29434.640625,-400000.0625,-36799.05078125,-400000.0625
1.3607556819915771,-400000.0625,-50677.87890625,-36642.83984375,-400000.0625,-29451.0390625,-400000.0625,-36804.44140625,-400000.0625
1.36076021194458,-400000.0625,-50681.26171875,-36647.75,-400000.0625,-29457.189453125,-400000.0625,-36805.87109375,-400000.0625
1.3607640266418457,-400000.0625,-50654.8515625,-36622.0,-400000.0625,-29430.8203125,-400000.0625,-36774.640625,-400000.0625
1.3607680797576904,-400000.0625,-50613.171875,-36574.890625,-400000.0625,-29401.5390625,-400000.0625,-36728.578125,-400000.0625
1.3607730865478516,-400000.0625,-50595.71875,-36559.87109375,-400000.0625,-29410.650390625,-400000.0625,-36712.51171875,-400000.0625
1.3607771396636963,-400000.0625,-50611.83984375,-36574.6484375,-400000.0625,-29425.33984375,-400000.0625,-36726.80859375,-400000.0625
1.360781192779541,-400000.0625,-50616.21875,-36579.66015625,-400000.0625,-29430.25,-400000.0625,-36727.76953125,-400000.0625
1.3607852458953857,-400000.0625,-50588.8984375,-36550.48046875,-400000.0625,-29408.650390625,-400000.0625,-36699.44140625,-400000.0625
1.3823816776275635,-400000.0625,-50544.26953125,-36507.0390625,-400000.0625,-29367.55078125,-400000.0625,-36659.2890625,-400000.0625
1.389681339263916,-400000.0625,-50524.80859375,-36491.73046875,-400000.0625,-29368.9296875,-400000.0625,-36639.55078125,-400000.0625
1.3944590091705322,-400000.0625,-50535.16015625,-36502.171875,-400000.0625,-29393.529296875,-400000.0625,-36647.1796875,-400000.0625
1.394468069076538,-400000.0625,-50551.7109375,-36514.94921875,-400000.0625,-29400.44921875,-400000.0625,-36661.19921875,-400000.0625
1.394472599029541,-400000.0625,-50528.8203125,-36489.96875,-400000.0625,-29388.529296875,-400000.0625,-36640.6015625,-400000.0625
1.394477128982544,-400000.0625,-50492.01171875,-36444.94921875,-400000.0625,-29359.390625,-400000.0625,-36595.6796875,-400000.0625
1.3944814205169678,-400000.0625,-50476.41015625,-36426.7890625,-400000.0625,-29345.330078125,-400000.0625,-36575.80078125,-400000.0625
1.3944871425628662,-400000.0625,-50485.23828125,-36432.4609375,-400000.0625,-29359.439453125,-400000.0625,-36580.0390625,-400000.0625
1.3944909572601318,-400000.0625,-50512.03125,-36440.80859375,-400000.0625,-29372.26953125,-400000.0625,-36591.8203125,-400000.0625
1.3944950103759766,-400000.0625,-50495.01171875,-36401.23046875,-400000.0625,-29345.23046875,-400000.0625,-36547.62109375,-400000.0625
1.3944988250732422,-400000.0625,-50465.26171875,-36352.26171875,-400000.0625,-29301.26953125,-400000.0625,-36500.7890625,-400000.0625
1.394502878189087,-400000.0625,-50432.78125,-36352.58984375,-400000.0625,-29294.259765625,-400000.0625,-36494.01953125,-400000.0625
1.3945066928863525,-400000.0625,-50424.44140625,-36382.96875,-400000.0625,-29321.009765625,-400000.0625,-36452.109375,-400000.0625
1.3945107460021973,-400000.0625,-50451.859375,-36374.71875,-400000.0625,-29316.05078125,-400000.0625,-36440.94921875,-400000.0625
1.394515037536621,-400000.0625,-50435.12109375,-36358.6015625,-400000.0625,-29290.109375,-400000.0625,-36477.76171875,-400000.0625
1.3945188522338867,-400000.0625,-50410.98828125,-36366.421875,-400000.0625,-29249.189453125,-400000.0625,-36439.76171875,-400000.0625
1.4434497356414795,-400000.0625,-50440.171875,-36368.94921875,-400000.0625,-29233.650390625,-400000.0625,-36377.9609375,-400000.0625
1.4591119289398193,-400000.0625,-50504.30859375,-36409.4296875,-400000.0625,-29238.75,-400000.0625,-36390.3984375,-400000.0625
1.4671249389648438,-400000.0625,-50589.28125,-36436.98828125,-400000.0625,-29232.359375,-400000.0625,-36413.8203125,-400000.0625
1.4737939834594727,-400000.0625,-50593.71875,-36430.6484375,-400000.0625,-29193.359375,-400000.0625,-36388.2109375,-400000.0625
1.479423999786377,-400000.0625,-50569.05859375,-36424.26171875,-400000.0625,-29142.189453125,-400000.0625,-36367.23046875,-400000.0625
1.4884262084960938,-400000.0625,-50573.26171875,-36402.94921875,-400000.0625,-29115.349609375,-400000.0625,-36331.46875,-400000.0625
1.493335485458374,-400000.0625,-50627.05078125,-36425.171875,-400000.0625,-29122.880859375,-400000.0625,-36303.48046875,-400000.0625
1.4933440685272217,-400000.0625,-50617.55859375,-36456.3984375,-400000.0625,-29140.05078125,-400000.0625,-36289.55078125,-400000.0625
1.4933488368988037,-400000.0625,-50586.421875,-36405.328125,-400000.0625,-29111.060546875,-400000.0625,-36222.83984375,-400000.0625
1.4933528900146484,-400000.0625,-50574.55078125,-36368.28125,-400000.0625,-29065.330078125,-400000.0625,-36156.51953125,-400000.0625
1.4933569431304932,-400000.0625,-50530.25,-36366.66015625,-400000.0625,-29055.310546875,-400000.0625,-36120.55859375,-400000.0625
1.4933607578277588,-400000.0625,-50581.6484375,-36395.51171875,-400000.0625,-29074.76953125,-400000.0625,-36091.76171875,-400000.0625
1.4933648109436035,-400000.0625,-50589.19140625,-36388.3984375,-400000.0625,-29081.73046875,-400000.0625,-36046.6015625,-400000.0625
1.4933688640594482,-400000.0625,-50568.5390625,-36355.2109375,-400000.0625,-29045.060546875,-400000.0625,-35980.75,-400000.0625
1.4933726787567139,-400000.0625,-50484.8984375,-36314.58984375,-400000.0625,-29012.25,-400000.0625,-35882.19140625,-400000.0625
1.4933767318725586,-400000.0625,-50464.2109375,-36311.1484375,-400000.0625,-29004.580078125,-400000.0625,-35820.5390625,-400000.0625
1.5045652389526367,-400000.0625,-50479.1796875,-36326.12890625,-400000.0625,-29026.990234375,-400000.0625,-35800.3203125,-400000.0625
1.5107691287994385,-400000.0625,-50475.171875,-36323.7890625,-400000.0625,-29030.08984375,-400000.0625,-35744.2890625,-400000.0625
1.5174663066864014,-400000.0625,-50435.69140625,-36289.078125,-400000.0625,-28996.900390625,-400000.0625,-35662.75,-400000.0625
1.5233979225158691,-400000.0625,-50384.80859375,-36241.19921875,-400000.0625,-28965.94921875,-400000.0625,-35585.21875,-400000.0625
1.5282111167907715,-400000.0625,-50373.609375,-36242.62890625,-400000.0625,-28979.349609375,-400000.0625,-35574.19921875,-400000.0625
1.5282204151153564,-400000.0625,-50380.5703125,-36256.6484375,-400000.0625,-29006.099609375,-400000.0625,-35586.21875,-400000.0625
1.5282251834869385,-400000.0625,-50383.05078125,-36267.94921875,-400000.0625,-29016.44921875,-400000.0625,-35601.37890625,-400000.0625
1.5282294750213623,-400000.0625,-50352.2890625,-36244.3515625,-400000.0625,-28995.759765625,-400000.0625,-35596.94921875,-400000.0625
1.528233289718628,-400000.0625,-50288.2109375,-36184.03125,-400000.0625,-28947.169921875,-400000.0625,-35581.5,-400000.0625
1.5282373428344727,-400000.0625,-50256.96875,-36149.94140625,-400000.0625,-28938.439453125,-400000.0625,-35588.078125,-400000.0625
1.5282413959503174,-400000.0625,-50259.98046875,-36146.6015625,-400000.0625,-28971.91015625,-400000.0625,-35638.859375,-400000.0625
1.528245210647583,-400000.0625,-50270.80078125,-36153.69921875,-400000.0625,-28993.66015625,-400000.0625,-35689.83984375,-400000.0625
1.5282492637634277,-400000.0625,-50253.73046875,-36132.76953125,-400000.0625,-28975.58984375,-400000.0625,-35719.58984375,-400000.0625
1.5282530784606934,-400000.0625,-50204.94921875,-36082.55859375,-400000.0625,-28949.359375,-400000.0625,-35716.58984375,-400000.0625
1.528257131576538,-400000.0625,-50165.37109375,-36053.1796875,-400000.0625,-28945.779296875,-400000.0625,-35724.0703125,-400000.0625
1.5282609462738037,-400000.0625,-50158.078125,-36057.5703125,-400000.0625,-28977.6796875,-400000.0625,-35758.7890625,-400000.0625
1.582021951675415,-400000.0625,-50157.55078125,-36065.76953125,-400000.0625,-29002.9609375,-400000.0625,-35793.26171875,-400000.0625
1.5939233303070068,-400000.0625,-50131.80078125,-36043.26953125,-400000.0625,-28995.140625,-400000.0625,-35790.828125,-400000.0625
1.6011128425598145,-400000.0625,-50062.46875,-35988.53125,-400000.0625,-28970.33984375,-400000.0625,-35761.30859375,-400000.0625
1.6089532375335693,-400000.0625,-50023.12890625,-35960.390625,-400000.0625,-28973.869140625,-400000.0625,-35761.83984375,-400000.0625
1.6142210960388184,-400000.0625,-50029.76171875,-35973.51171875,-400000.0625,-29018.5,-400000.0625,-35791.69140625,-400000.0625
1.621108055114746,-400000.0625,-50031.859375,-35982.7109375,-400000.0625,-29038.529296875,-400000.0625,-35816.8203125,-400000.0625
1.6257421970367432,-400000.0625,-49991.23046875,-35953.71875,-400000.0625,-29030.470703125,-400000.0625,-35805.51953125,-400000.0625
1.6257507801055908,-400000.0625,-49927.76953125,-35895.640625,-400000.0625,-29006.2890625,-400000.0625,-35764.4609375,-400000.0625
1.6257553100585938,-400000.0625,-49902.87109375,-35879.08984375,-400000.0625,-29016.55078125,-400000.0625,-35763.51171875,-400000.0625
1.6257596015930176,-400000.0625,-49908.6015625,-35892.16015625,-400000.0625,-29059.83984375,-400000.0625,-35783.76953125,-400000.0625
1.6257634162902832,-400000.0625,-49908.30859375,-35894.73046875,-400000.0625,-29077.19921875,-400000.0625,-35795.21875,-400000.0625
1.6257672309875488,-400000.0625,-49874.98046875,-35863.73828125,-400000.0625,-29067.140625,-400000.0625,-35778.1484375,-400000.0625
1.6257715225219727,-400000.0625,-49816.140625,-35808.76171875,-400000.0625,-29042.9609375,-400000.0625,-35730.1796875,-400000.0625
1.6257753372192383,-400000.0625,-49785.328125,-35785.01171875,-400000.0625,-29043.33984375,-400000.0625,-35716.921875,-400000.0625
1.625779151916504,-400000.0625,-49795.3515625,-35796.9296875,-400000.0625,-29076.390625,-400000.0625,-35733.51171875,-400000.0625
1.6257829666137695,-400000.0625,-49804.26171875,-35803.0390625,-400000.0625,-29091.7890625,-400000.0625,-35748.33984375,-400000.0625
1.7087597846984863,-400000.0625,-49770.30859375,-35771.8515625,-400000.0625,-29076.869140625,-400000.0625,-35724.01953125,-400000.0625
1.7229347229003906,-400000.0625,-49718.578125,-35725.69140625,-400000.0625,-29051.16015625,-400000.0625,-35677.48046875,-400000.0625
1.731191873550415,-400000.0625,-49693.58984375,-35707.53125,-400000.0625,-29044.869140625,-400000.0625,-35664.98828125,-400000.0625
1.736579179763794,-400000.0625,-49697.359375,-35716.8203125,-400000.0625,-29078.6796875,-400000.0625,-35677.05859375,-400000.0625
1.7437496185302734,-400000.0625,-49696.26171875,-35717.78125,-400000.0625,-29087.5,-400000.0625,-35681.05859375,-400000.0625
1.7522265911102295,-400000.0625,-49668.03125,-35690.6484375,-400000.0625,-29072.5703125,-400000.0625,-35656.890625,-400000.0625
1.757253885269165,-400000.0625,-49623.58984375,-35648.25,-400000.0625,-29051.259765625,-400000.0625,-35617.78125,-400000.0625
1.761730670928955,-400000.0625,-49596.6015625,-35627.55859375,-400000.0625,-29045.19921875,-400000.0625,-35607.76953125,-400000.0625
1.7617392539978027,-400000.0625,-49601.8515625,-35637.4296875,-400000.0625,-29077.19921875,-400000.0625,-35620.55078125,-400000.0625
1.7617435455322266,-400000.0625,-49603.28125,-35640.4296875,-400000.0625,-29090.689453125,-400000.0625,-35621.69140625,-400000.0625
1.7617473602294922,-400000.0625,-49570.37890625,-35612.25,-400000.0625,-29063.560546875,-400000.0625,-35595.28125,-400000.0625
1.7617511749267578,-400000.0625,-49529.12890625,-35570.19921875,-400000.0625,-29042.580078125,-400000.0625,-35558.1796875,-400000.0625
1.7617549896240234,-400000.0625,-49516.2109375,-35557.078125,-400000.0625,-29045.16015625,-400000.0625,-35549.21875,-400000.0625
1.76175856590271,-400000.0625,-49528.98828125,-35572.1015625,-400000.0625,-29064.80078125,-400000.0625,-35565.19140625,-400000.0625
1.761763334274292,-400000.0625,-49534.94921875,-35580.2109375,-400000.0625,-29082.16015625,-400000.0625,-35571.53125,-400000.0625
1.7617671489715576,-400000.0625,-49509.71875,-35557.80078125,-400000.0625,-29065.7109375,-400000.0625,-35548.98046875,-400000.0625
1.7617707252502441,-400000.0625,-49467.19140625,-35515.12109375,-400000.0625,-29038.150390625,-400000.0625,-35503.25,-400000.0625
1.7617759704589844,-400000.0625,-49444.96875,-35494.37890625,-400000.0625,-29032.619140625,-400000.0625,-35485.83984375,-400000.0625
1.761779546737671,-400000.0625,-49459.078125,-35507.16015625,-400000.0625,-29054.83984375,-400000.0625,-35501.1015625,-400000.0625
1.7617833614349365,-400000.0625,-49463.55859375,-35513.98046875,-400000.0625,-29071.720703125,-400000.0625,-35508.5390625,-400000.0625
1.7617871761322021,-400000.0625,-49436.671875,-35483.83984375,-400000.0625,-29057.359375,-400000.0625,-35484.26953125,-400000.0625
1.7617907524108887,-400000.0625,-49397.80859375,-35443.359375,-400000.0625,-29025.1796875,-400000.0625,-35442.171875,-400000.0625
1.7617945671081543,-400000.0625,-49381.359375,-35429.9609375,-400000.0625,-29018.359375,-400000.0625,-35429.71875,-400000.0625
1.7617981433868408,-400000.0625,-49394.1796875,-35443.7890625,-400000.0625,-29041.9609375,-400000.0625,-35447.078125,-400000.0625
1.7618017196655273,-400000.0625,-49405.48828125,-35456.8515625,-400000.0625,-29064.849609375,-400000.0625,-35456.94921875,-400000.0625
1.7618052959442139,-400000.0625,-49385.51171875,-35434.3515625,-400000.0625,-29048.16015625,-400000.0625,-35438.921875,-400000.0625
1.7618088722229004,-400000.0625,-49350.69921875,-35393.76953125,-400000.0625,-29004.720703125,-400000.0625,-35403.3515625,-400000.0625
1.761812448501587,-400000.0625,-49326.80859375,-35376.83984375,-400000.0625,-29007.630859375,-400000.0625,-35379.4609375,-400000.0625
1.7618162631988525,-400000.0625,-49342.58984375,-35394.390625,-400000.0625,-29039.48046875,-400000.0625,-35397.44140625,-400000.0625
1.761819839477539,-400000.0625,-49364.23828125,-35412.6484375,-400000.0625,-29053.55078125,-400000.0625,-35420.98828125,-400000.0625
1.7618255615234375,-400000.0625,-49337.87109375,-35386.37890625,-400000.0625,-29029.470703125,-400000.0625,-35396.91015625,-400000.0625
1.7618296146392822,-400000.0625,-49292.4296875,-35340.41015625,-400000.0625,-28992.23046875,-400000.0625,-35353.328125,-400000.0625
1.7722089290618896,-400000.0625,-49275.26171875,-35325.87109375,-400000.0625,-28988.98046875,-400000.0625,-35340.890625,-400000.0625
1.7788965702056885,-400000.0625,-49290.421875,-35343.26953125,-400000.0625,-29017.119140625,-400000.0625,-35354.5703125,-400000.0625
1.7841877937316895,-400000.0625,-49303.25,-35353.140625,-400000.0625,-29034.0,-400000.0625,-35365.6796875,-400000.0625
1.7907812595367432,-400000.0625,-49288.23046875,-35335.3984375,-400000.0625,-29018.44921875,-400000.0625,-35351.51953125,-400000.0625
1.7953929901123047,-400000.0625,-49248.21875,-35295.109375,-400000.0625,-28987.939453125,-400000.0625,-35313.8984375,-400000.0625
1.795424461364746,-400000.0625,-49234.87109375,-35282.8984375,-400000.0625,-28985.4609375,-400000.0625,-35298.30078125,-400000.0625
1.7954366207122803,-400000.0625,-49250.46875,-35297.921875,-400000.0625,-29008.9609375,-400000.0625,-35312.28125,-400000.0625
1.795450210571289,-400000.0625,-49266.05859375,-35310.21875,-400000.0625,-29018.44921875,-400000.0625,-35331.05859375,-400000.0625
1.7954719066619873,-400000.0625,-49246.98046875,-35287.671875,-400000.0625,-29004.669921875,-400000.0625,-35306.69921875,-400000.0625
1.7954895496368408,-400000.0625,-49203.3984375,-35245.609375,-400000.0625,-28968.91015625,-400000.0625,-35265.69140625,-400000.0625
1.795508623123169,-400000.0625,-49190.9609375,-35232.359375,-400000.0625,-28965.91015625,-400000.0625,-35254.01171875,-400000.0625
1.795593023300171,-400000.0625,-49209.359375,-35248.5703125,-400000.0625,-28987.509765625,-400000.0625,-35266.359375,-400000.0625
1.7956006526947021,-400000.0625,-49222.28125,-35256.76953125,-400000.0625,-28997.0,-400000.0625,-35270.6015625,-400000.0625
1.7956128120422363,-400000.0625,-49220.8515625,-35246.23046875,-400000.0625,-28992.849609375,-400000.0625,-35252.578125,-400000.0625
1.7956280708312988,-400000.0625,-49182.80078125,-35213.859375,-400000.0625,-28973.76953125,-400000.0625,-35233.7890625,-400000.0625
1.7956409454345703,-400000.0625,-49170.55078125,-35203.6484375,-400000.0625,-28966.94921875,-400000.0625,-35229.2109375,-400000.0625
1.828582525253296,-400000.0625,-49183.5703125,-35221.33984375,-400000.0625,-28985.55078125,-400000.0625,-35236.55078125,-400000.0625
1.8434040546417236,-400000.0625,-49193.71875,-35231.69140625,-400000.0625,-28993.1796875,-400000.0625,-35243.7109375,-400000.0625
1.8510041236877441,-400000.0625,-49182.23046875,-35209.8515625,-400000.0625,-28969.8203125,-400000.0625,-35218.91015625,-400000.0625
1.8885667324066162,-400000.0625,-49303.62890625,-35238.12890625,-400000.0625,-28842.9296875,-400000.0625,-35111.80859375,-400000.0625
2.0845468044281006,-400000.0625,-48589.8984375,-34693.671875,-400000.0625,-28842.0703125,-400000.0625,-34556.6796875,-400000.0625
2.1434249877929688,-400000.0625,-48401.69921875,-34516.48046875,-400000.0625,-28875.779296875,-400000.0625,-34416.5390625,-400000.0625
2.4107284545898438,-400000.0625,-48037.30078125,-34158.23046875,-400000.0625,-28851.939453125,-400000.0625,-33900.69140625,-400000.0625
2.4805679321289062,-400000.0625,-47961.671875,-34076.26953125,-400000.0625,-28887.609375,-400000.0625,-33830.9296875,-400000.0625
2.532435417175293,-400000.0625,-47885.80859375,-33998.78125,-400000.0625,-28898.390625,-400000.0625,-33706.62109375,-400000.0625
2.5976216793060303,-400000.0625,-47913.41015625,-34026.2890625,-400000.0625,-28918.83984375,-400000.0625,-33560.0390625,-400000.0625
2.8517963886260986,-400000.0625,-47635.1796875,-33704.0,-400000.0625,-28968.810546875,-400000.0625,-33148.48046875,-400000.0625
2.948309898376465,-400000.0625,-47553.87890625,-33616.55078125,-400000.0625,-28980.2109375,-400000.0625,-33058.359375,-400000.0625
2.9816534519195557,-400000.0625,-47411.5390625,-33477.5,-400000.0625,-28960.51953125,-400000.0625,-32911.3984375,-400000.0625
3.14850115776062,-400000.0625,-47166.96875,-33269.69921875,-400000.0625,-29033.51953125,-400000.0625,-32806.0703125,-400000.0625
3.170764923095703,-400000.0625,-46870.8984375,-33013.921875,-400000.0625,-29036.91015625,-400000.0625,-32759.720703125,-400000.0625
3.298307418823242,-400000.0625,-46714.98046875,-32814.6015625,-400000.0625,-29036.720703125,-400000.0625,-32560.640625,-400000.0625
3.423508644104004,-400000.0625,-46579.078125,-32662.19921875,-400000.0625,-29090.650390625,-400000.0625,-32394.599609375,-400000.0625
3.6160969734191895,-400000.0625,-46380.1015625,-32443.720703125,-400000.0625,-29150.490234375,-400000.0625,-32154.330078125,-400000.0625
3.8109161853790283,-400000.0625,-46207.390625,-32260.23046875,-400000.0625,-29234.509765625,-400000.0625,-31944.7109375,-400000.0625
3.8821370601654053,-400000.0625,-46150.7890625,-32201.19921875,-400000.0625,-29248.76953125,-400000.0625,-31880.91015625,-400000.0625
4.014438152313232,-400000.0625,-46008.58984375,-32054.619140625,-400000.0625,-29271.419921875,-400000.0625,-31709.9609375,-400000.0625
4.279688835144043,-400000.0625,-45787.2890625,-31827.740234375,-400000.0625,-29326.009765625,-400000.0625,-31417.51953125,-400000.0625
4.33275032043457,-400000.0625,-45841.98828125,-31924.490234375,-400000.0625,-29392.6796875,-400000.0625,-31230.880859375,-400000.0625
4.523379325866699,-400000.0625,-45819.48046875,-31845.529296875,-400000.0625,-29464.19921875,-400000.0625,-31101.1796875,-400000.0625
4.78096079826355,-400000.0625,-45683.19921875,-31666.380859375,-400000.0625,-29510.9296875,-400000.0625,-30955.220703125,-400000.0625
4.9046220779418945,-400000.0625,-45564.3203125,-31547.359375,-400000.0625,-29507.400390625,-400000.0625,-30832.630859375,-400000.0625
4.9974188804626465,-400000.0625,-45512.8203125,-31501.150390625,-400000.0625,-29514.169921875,-400000.0625,-30773.44921875,-400000.0625
5.031466007232666,-400000.0625,-45505.0,-31488.80078125,-400000.0625,-29562.189453125,-400000.0625,-30762.91015625,-400000.0625
5.097160816192627,-400000.0625,-45475.62890625,-31461.859375,-400000.0625,-29570.76953125,-400000.0625,-30700.5390625,-400000.0625
5.230822324752808,-400000.0625,-45337.87109375,-31329.400390625,-400000.0625,-29554.69921875,-400000.0625,-30563.689453125,-400000.0625
5.2823779582977295,-400000.0625,-45303.16015625,-31286.9609375,-400000.0625,-29558.23046875,-400000.0625,-30513.859375,-400000.0625
5.502012491226196,-400000.0625,-45184.8984375,-31160.119140625,-400000.0625,-29577.58984375,-400000.0625,-30455.830078125,-400000.0625
5.547102451324463,-400000.0625,-45127.30078125,-31101.369140625,-400000.0625,-29561.94921875,-400000.0625,-30397.509765625,-400000.0625
5.709502458572388,-400000.0625,-45077.76171875,-31052.9296875,-400000.0625,-29592.470703125,-400000.0625,-30328.23046875,-400000.0625
5.729639291763306,-400000.0625,-45072.37109375,-31046.349609375,-400000.0625,-29624.0390625,-400000.0625,-30322.029296875,-400000.0625
5.7921295166015625,-400000.0625,-45021.6796875,-30989.26953125,-400000.0625,-29607.349609375,-400000.0625,-30251.130859375,-400000.0625
5.857975959777832,-400000.0625,-44964.4609375,-30935.669921875,-400000.0625,-29613.740234375,-400000.0625,-30190.189453125,-400000.0625
5.926898241043091,-400000.0625,-44953.5390625,-30925.279296875,-400000.0625,-29610.490234375,-400000.0625,-30183.41015625,-400000.0625
5.985702753067017,-400000.0625,-44949.109375,-30919.130859375,-400000.0625,-29634.150390625,-400000.0625,-30176.44921875,-400000.0625
6.08320689201355,-400000.0625,-44933.51953125,-30895.94921875,-400000.0625,-29635.529296875,-400000.0625,-30147.26953125,-400000.0625
6.382079839706421,-400000.0625,-44709.26171875,-30690.76953125,-400000.0625,-29634.669921875,-400000.0625,-30028.16015625,-400000.0625
6.447751760482788,-400000.0625,-44517.859375,-30530.359375,-400000.0625,-29619.7890625,-400000.0625,-30080.1796875,-400000.0625
6.50206184387207,-400000.0625,-44446.08984375,-30438.140625,-400000.0625,-29583.41015625,-400000.0625,-30026.25,-400000.0625
6.63445258140564,-400000.0625,-44420.578125,-30398.08984375,-400000.0625,-29596.140625,-400000.0625,-29986.619140625,-400000.0625
6.692121267318726,-400000.0625,-44428.87890625,-30403.330078125,-400000.0625,-29621.4609375,-400000.0625,-29977.900390625,-400000.0625
6.78847336769104,-400000.0625,-44300.46875,-30296.0390625,-400000.0625,-29582.169921875,-400000.0625,-29956.390625,-400000.0625
6.9432032108306885,-400000.0625,-44259.26953125,-30235.33984375,-400000.0625,-29592.849609375,-400000.0625,-29834.130859375,-400000.0625
7.028415203094482,-400000.0625,-44277.71875,-30239.439453125,-400000.0625,-29626.419921875,-400000.0625,-29837.80078125,-400000.0625
7.280686378479004,-400000.0625,-44179.73046875,-30123.380859375,-400000.0625,-29577.880859375,-400000.0625,-29743.48046875,-400000.0625
7.424361228942871,-400000.0625,-44190.359375,-30122.0,-400000.0625,-29586.599609375,-400000.0625,-29729.609375,-400000.0625
7.554777383804321,-400000.0625,-44161.08984375,-30088.0,-400000.0625,-29568.150390625,-400000.0625,-29636.150390625,-400000.0625
7.64879846572876,-400000.0625,-44176.44140625,-30102.5390625,-400000.0625,-29607.109375,-400000.0625,-29622.220703125,-400000.0625
7.724628210067749,-400000.0625,-44172.53125,-30098.8203125,-400000.0625,-29605.9609375,-400000.0625,-29608.5390625,-400000.0625
8.032016515731812,-400000.0625,-44102.53125,-30016.619140625,-400000.0625,-29609.640625,-400000.0625,-29526.279296875,-400000.0625
8.113691329956055,-400000.0625,-44037.3984375,-29944.279296875,-400000.0625,-29556.369140625,-400000.0625,-29482.23046875,-400000.0625
8.179549217224121,-400000.0625,-44009.171875,-29916.810546875,-400000.0625,-29551.560546875,-400000.0625,-29455.140625,-400000.0625
8.231979846954346,-400000.0625,-44002.8203125,-29902.599609375,-400000.0625,-29559.900390625,-400000.0625,-29465.19921875,-400000.0625
8.297224283218384,-400000.0625,-44022.0390625,-29913.759765625,-400000.0625,-29583.98046875,-400000.0625,-29480.41015625,-400000.0625
8.352211475372314,-400000.0625,-43980.03125,-29868.890625,-400000.0625,-29543.740234375,-400000.0625,-29457.189453125,-400000.0625
8.647711038589478,-400000.0625,-43801.83984375,-29597.330078125,-400000.0625,-29515.990234375,-400000.0625,-29593.330078125,-400000.0625
8.880627870559692,-400000.0625,-44148.58984375,-30035.830078125,-400000.0625,-29605.73046875,-400000.0625,-29237.80078125,-400000.0625
8.932076692581177,-400000.0625,-44167.328125,-30047.369140625,-400000.0625,-29613.689453125,-400000.0625,-29210.05078125,-400000.0625
9.057340383529663,-400000.0625,-44113.58984375,-29991.30078125,-400000.0625,-29574.109375,-400000.0625,-29172.759765625,-400000.0625
9.250927209854126,-400000.0625,-43838.03125,-29731.939453125,-400000.0625,-29557.990234375,-400000.0625,-29267.119140625,-400000.0625
9.353262424468994,-400000.0625,-43822.48046875,-29723.83984375,-400000.0625,-29555.23046875,-400000.0625,-29237.609375,-400000.0625
9.417648792266846,-400000.0625,-43792.73046875,-29696.80078125,-400000.0625,-29533.6796875,-400000.0625,-29189.58984375,-400000.0625
9.440909385681152,-400000.0625,-43783.48046875,-29683.880859375,-400000.0625,-29531.580078125,-400000.0625,-29175.330078125,-400000.0625
9.504342079162598,-400000.0625,-43794.3515625,-29697.369140625,-400000.0625,-29555.130859375,-400000.0625,-29171.66015625,-400000.0625
9.578357219696045,-400000.0625,-43792.109375,-29695.66015625,-400000.0625,-29546.689453125,-400000.0625,-29167.75,-400000.0625
9.637832880020142,-400000.0625,-43772.69921875,-29674.439453125,-400000.0625,-29526.189453125,-400000.0625,-29145.529296875,-400000.0625
9.695626497268677,-400000.0625,-43762.16015625,-29661.23046875,-400000.0625,-29519.69921875,-400000.0625,-29128.7890625,-400000.0625
9.75967788696289,-400000.0625,-43742.37890625,-29645.779296875,-400000.0625,-29517.83984375,-400000.0625,-29111.91015625,-400000.0625
9.83080005645752,-400000.0625,-43759.44921875,-29660.279296875,-400000.0625,-29536.6796875,-400000.0625,-29114.109375,-400000.0625
timestamp,ch7,ch2,ch3,ch5,is_pause
9.97991394996643,-400000.0625,-43735.890625,-29636.390625,-400000.0625,-29532.009765625,-400000.0625,-29096.890625,-400000.0625
9.991816520690918,-400000.0625,-43712.94921875,-29613.640625,-400000.0625,-29508.44921875,-400000.0625,-29072.720703125,-400000.0625
9.997828245162964,-400000.0625,-43702.69921875,-29602.099609375,-400000.0625,-29500.580078125,-400000.0625,-29060.130859375,-400000.0625
10.003134489059448,-400000.0625,-43717.87109375,-29616.55078125,-400000.0625,-29514.509765625,-400000.0625,-29074.48046875,-400000.0625
10.007859468460083,-400000.0625,-43739.94140625,-29637.529296875,-400000.0625,-29538.109375,-400000.0625,-29094.080078125,-400000.0625
10.00786828994751,-400000.0625,-43735.80078125,-29636.91015625,-400000.0625,-29531.19921875,-400000.0625,-29095.080078125,-400000.0625
10.007872581481934,-400000.0625,-43715.05078125,-29613.880859375,-400000.0625,-29504.44921875,-400000.0625,-29073.810546875,-400000.0625
10.007876873016357,-400000.0625,-43702.3203125,-29598.529296875,-400000.0625,-29496.720703125,-400000.0625,-29058.560546875,-400000.0625
10.007880210876465,-400000.0625,-43712.5703125,-29608.009765625,-400000.0625,-29511.9296875,-400000.0625,-29072.189453125,-400000.0625
10.007883787155151,-400000.0625,-43737.37109375,-29631.669921875,-400000.0625,-29530.619140625,-400000.0625,-29094.990234375,-400000.0625
10.007887601852417,-400000.0625,-43740.37109375,-29634.4296875,-400000.0625,-29530.240234375,-400000.0625,-29093.029296875,-400000.0625
10.007891178131104,-400000.0625,-43716.87109375,-29614.259765625,-400000.0625,-29510.880859375,-400000.0625,-29070.4296875,-400000.0625
10.00789475440979,-400000.0625,-43697.21875,-29597.240234375,-400000.0625,-29501.869140625,-400000.0625,-29058.7890625,-400000.0625
10.007898330688477,-400000.0625,-43707.8984375,-29603.91015625,-400000.0625,-29512.029296875,-400000.0625,-29068.0390625,-400000.0625
10.007901906967163,-400000.0625,-43728.6015625,-29621.990234375,-400000.0625,-29529.150390625,-400000.0625,-29085.9296875,-400000.0625
10.00790548324585,-400000.0625,-43729.6015625,-29623.560546875,-400000.0625,-29525.240234375,-400000.0625,-29090.119140625,-400000.0625
10.032106637954712,-400000.0625,-43711.859375,-29605.009765625,-400000.0625,-29515.080078125,-400000.0625,-29071.140625,-400000.0625
10.037129163742065,-400000.0625,-43697.83984375,-29590.75,-400000.0625,-29501.630859375,-400000.0625,-29057.55078125,-400000.0625
10.041294813156128,-400000.0625,-43701.890625,-29601.48046875,-400000.0625,-29509.169921875,-400000.0625,-29065.1796875,-400000.0625
10.041302680969238,-400000.0625,-43715.4296875,-29614.740234375,-400000.0625,-29518.939453125,-400000.0625,-29082.58984375,-400000.0625
10.041306972503662,-400000.0625,-43729.359375,-29623.1796875,-400000.0625,-29525.0,-400000.0625,-29087.9296875,-400000.0625
10.041311740875244,-400000.0625,-43705.328125,-29599.48046875,-400000.0625,-29499.390625,-400000.0625,-29061.939453125,-400000.0625
10.04131531715393,-400000.0625,-43687.73046875,-29583.98046875,-400000.0625,-29487.0390625,-400000.0625,-29049.349609375,-400000.0625
10.041319131851196,-400000.0625,-43702.94140625,-29600.189453125,-400000.0625,-29507.400390625,-400000.0625,-29065.0390625,-400000.0625
10.041324138641357,-400000.0625,-43721.5390625,-29620.41015625,-400000.0625,-29531.669921875,-400000.0625,-29085.01953125,-400000.0625
10.041327714920044,-400000.0625,-43725.01953125,-29622.130859375,-400000.0625,-29532.25,-400000.0625,-29085.310546875,-400000.0625
10.041331052780151,-400000.0625,-43702.1796875,-29597.810546875,-400000.0625,-29501.73046875,-400000.0625,-29064.609375,-400000.0625
10.041334629058838,-400000.0625,-43684.5390625,-29582.359375,-400000.0625,-29486.470703125,-400000.0625,-29048.919921875,-400000.0625
10.041337966918945,-400000.0625,-43698.41015625,-29595.0,-400000.0625,-29511.029296875,-400000.0625,-29060.080078125,-400000.0625
10.041341543197632,-400000.0625,-43720.5390625,-29615.55078125,-400000.0625,-29528.2890625,-400000.0625,-29079.25,-400000.0625
10.04134488105774,-400000.0625,-43721.5390625,-29619.359375,-400000.0625,-29526.330078125,-400000.0625,-29076.099609375,-400000.0625
10.041348457336426,-400000.0625,-43700.078125,-29597.330078125,-400000.0625,-29503.6796875,-400000.0625,-29055.689453125,-400000.0625
10.130457162857056,-400000.0625,-43688.828125,-29585.939453125,-400000.0625,-29495.4296875,-400000.0625,-29045.630859375,-400000.0625
10.139753103256226,-400000.0625,-43696.12109375,-29595.330078125,-400000.0625,-29502.919921875,-400000.0625,-29059.509765625,-400000.0625
10.143553733825684,-400000.0625,-43713.71875,-29611.30078125,-400000.0625,-29516.560546875,-400000.0625,-29076.390625,-400000.0625
10.143560886383057,-400000.0625,-43717.91015625,-29613.689453125,-400000.0625,-29518.990234375,-400000.0625,-29077.19921875,-400000.0625
10.143564701080322,-400000.0625,-43701.37109375,-29596.619140625,-400000.0625,-29497.669921875,-400000.0625,-29058.359375,-400000.0625
10.143568277359009,-400000.0625,-43690.640625,-29586.26953125,-400000.0625,-29490.08984375,-400000.0625,-29051.259765625,-400000.0625
10.143572092056274,-400000.0625,-43697.9296875,-29594.380859375,-400000.0625,-29507.01953125,-400000.0625,-29060.029296875,-400000.0625
10.143575429916382,-400000.0625,-43718.53125,-29614.01953125,-400000.0625,-29524.900390625,-400000.0625,-29082.5390625,-400000.0625
10.14357876777649,-400000.0625,-43725.44921875,-29620.359375,-400000.0625,-29528.5703125,-400000.0625,-29089.119140625,-400000.0625
10.143587350845337,-400000.0625,-43704.12890625,-29598.099609375,-400000.0625,-29502.009765625,-400000.0625,-29064.900390625,-400000.0625
10.143590688705444,-400000.0625,-43685.48828125,-29581.359375,-400000.0625,-29487.80078125,-400000.0625,-29050.5390625,-400000.0625
10.14359426498413,-400000.0625,-43695.171875,-29589.939453125,-400000.0625,-29504.400390625,-400000.0625,-29059.599609375,-400000.0625
10.143597602844238,-400000.0625,-43717.578125,-29611.73046875,-400000.0625,-29520.849609375,-400000.0625,-29079.490234375,-400000.0625
10.143600463867188,-400000.0625,-43719.6796875,-29616.7890625,-400000.0625,-29521.66015625,-400000.0625,-29081.16015625,-400000.0625
10.143603801727295,-400000.0625,-43695.171875,-29596.140625,-400000.0625,-29502.349609375,-400000.0625,-29056.890625,-400000.0625
10.143607378005981,-400000.0625,-43683.71875,-29582.83984375,-400000.0625,-29489.94921875,-400000.0625,-29046.6796875,-400000.0625
10.147385120391846,-400000.0625,-43690.640625,-29587.990234375,-400000.0625,-29496.33984375,-400000.0625,-29051.830078125,-400000.0625
10.152344942092896,-400000.0625,-43715.4296875,-29613.740234375,-400000.0625,-29522.7109375,-400000.0625,-29076.439453125,-400000.0625
10.15235447883606,-400000.0625,-43721.6796875,-29618.220703125,-400000.0625,-29516.560546875,-400000.0625,-29080.970703125,-400000.0625
10.152358293533325,-400000.0625,-43699.7890625,-29595.5703125,-400000.0625,-29498.390625,-400000.0625,-29055.41015625,-400000.0625
10.15236210823059,-400000.0625,-43682.33984375,-29579.119140625,-400000.0625,-29488.759765625,-400000.0625,-29039.9609375,-400000.0625
10.152365684509277,-400000.0625,-43690.5390625,-29590.08984375,-400000.0625,-29502.490234375,-400000.0625,-29059.3203125,-400000.0625
10.152369499206543,-400000.0625,-43715.578125,-29613.0703125,-400000.0625,-29521.51953125,-400000.0625,-29081.439453125,-400000.0625
10.152373313903809,-400000.0625,-43717.48046875,-29614.55078125,-400000.0625,-29523.470703125,-400000.0625,-29078.109375,-400000.0625
10.152377367019653,-400000.0625,-43699.6484375,-29595.140625,-400000.0625,-29503.490234375,-400000.0625,-29057.7890625,-400000.0625
10.15238094329834,-400000.0625,-43682.578125,-29577.349609375,-400000.0625,-29487.5703125,-400000.0625,-29046.73046875,-400000.0625
10.152384757995605,-400000.0625,-43688.3515625,-29585.7890625,-400000.0625,-29492.94921875,-400000.0625,-29055.26953125,-400000.0625
10.15238881111145,-400000.0625,-43711.1015625,-29609.060546875,-400000.0625,-29517.83984375,-400000.0625,-29072.859375,-400000.0625
10.152392387390137,-400000.0625,-43712.76171875,-29610.01953125,-400000.0625,-29517.80078125,-400000.0625,-29070.330078125,-400000.0625
10.152395963668823,-400000.0625,-43688.48828125,-29585.890625,-400000.0625,-29489.849609375,-400000.0625,-29044.8203125,-400000.0625
10.156637191772461,-400000.0625,-43675.671875,-29574.869140625,-400000.0625,-29481.69921875,-400000.0625,-29033.279296875,-400000.0625
10.156646490097046,-400000.0625,-43694.44921875,-29590.900390625,-400000.0625,-29497.9609375,-400000.0625,-29049.44921875,-400000.0625
10.208299398422241,-400000.0625,-43716.87109375,-29612.349609375,-400000.0625,-29523.5703125,-400000.0625,-29069.51953125,-400000.0625
10.212914943695068,-400000.0625,-43716.87109375,-29611.970703125,-400000.0625,-29523.7109375,-400000.0625,-29071.05078125,-400000.0625
10.2129225730896,-400000.0625,-43697.30859375,-29591.130859375,-400000.0625,-29496.529296875,-400000.0625,-29047.01953125,-400000.0625
10.212926864624023,-400000.0625,-43678.23828125,-29573.779296875,-400000.0625,-29479.3203125,-400000.0625,-29030.0390625,-400000.0625
10.212930679321289,-400000.0625,-43684.8203125,-29580.44921875,-400000.0625,-29488.51953125,-400000.0625,-29038.390625,-400000.0625
10.212934255599976,-400000.0625,-43710.8984375,-29603.33984375,-400000.0625,-29519.419921875,-400000.0625,-29060.4609375,-400000.0625
10.212938070297241,-400000.0625,-43719.5390625,-29611.349609375,-400000.0625,-29515.4609375,-400000.0625,-29062.369140625,-400000.0625
10.212943315505981,-400000.0625,-43696.0703125,-29587.419921875,-400000.0625,-29493.05078125,-400000.0625,-29036.5703125,-400000.0625
10.212946891784668,-400000.0625,-43679.671875,-29571.009765625,-400000.0625,-29476.83984375,-400000.0625,-29020.41015625,-400000.0625
10.212950468063354,-400000.0625,-43695.41015625,-29587.83984375,-400000.0625,-29494.150390625,-400000.0625,-29041.009765625,-400000.0625
10.212954044342041,-400000.0625,-43725.16015625,-29612.400390625,-400000.0625,-29514.55078125,-400000.0625,-29069.0,-400000.0625
10.212957859039307,-400000.0625,-43729.87890625,-29611.400390625,-400000.0625,-29517.990234375,-400000.0625,-29069.5703125,-400000.0625
10.212961435317993,-400000.0625,-43703.0390625,-29592.1796875,-400000.0625,-29501.439453125,-400000.0625,-29027.080078125,-400000.0625
10.2129647731781,-400000.0625,-43684.6796875,-29586.029296875,-400000.0625,-29484.080078125,-400000.0625,-29001.2890625,-400000.0625
10.212968587875366,-400000.0625,-43706.37109375,-29610.689453125,-400000.0625,-29500.439453125,-400000.0625,-29008.009765625,-400000.0625
10.212972402572632,-400000.0625,-43738.1796875,-29642.58984375,-400000.0625,-29521.7109375,-400000.0625,-29021.029296875,-400000.0625
10.28058385848999,-400000.0625,-43750.91015625,-29656.83984375,-400000.0625,-29526.330078125,-400000.0625,-29011.5390625,-400000.0625
10.29098105430603,-400000.0625,-43730.03125,-29644.5390625,-400000.0625,-29504.01953125,-400000.0625,-28981.310546875,-400000.0625
10.295454978942871,-400000.0625,-43721.87109375,-29639.529296875,-400000.0625,-29494.9609375,-400000.0625,-28959.94921875,-400000.0625
10.295461893081665,-400000.0625,-43744.5703125,-29664.66015625,-400000.0625,-29515.220703125,-400000.0625,-28970.25,-400000.0625
10.295466423034668,-400000.0625,-43768.51171875,-29688.890625,-400000.0625,-29531.669921875,-400000.0625,-28986.7890625,-400000.0625
10.29547119140625,-400000.0625,-43773.26953125,-29693.23046875,-400000.0625,-29530.099609375,-400000.0625,-28987.939453125,-400000.0625
10.295475006103516,-400000.0625,-43753.9609375,-29673.580078125,-400000.0625,-29506.0703125,-400000.0625,-28966.94921875,-400000.0625
10.295478820800781,-400000.0625,-43741.7109375,-29663.51953125,-400000.0625,-29496.630859375,-400000.0625,-28949.9296875,-400000.0625
10.295483589172363,-400000.0625,-43749.62109375,-29673.869140625,-400000.0625,-29512.220703125,-400000.0625,-28963.470703125,-400000.0625
10.29548716545105,-400000.0625,-43766.41015625,-29691.890625,-400000.0625,-29533.099609375,-400000.0625,-28983.7890625,-400000.0625
10.295490741729736,-400000.0625,-43771.37109375,-29697.419921875,-400000.0625,-29533.6796875,-400000.0625,-28983.44921875,-400000.0625
10.295494318008423,-400000.0625,-43747.140625,-29672.33984375,-400000.0625,-29504.30078125,-400000.0625,-28960.759765625,-400000.0625
10.29549789428711,-400000.0625,-43732.890625,-29657.890625,-400000.0625,-29494.0,-400000.0625,-28945.259765625,-400000.0625
10.295501470565796,-400000.0625,-43749.76953125,-29672.9609375,-400000.0625,-29519.990234375,-400000.0625,-28958.1796875,-400000.0625
10.295505285263062,-400000.0625,-43766.6484375,-29690.130859375,-400000.0625,-29539.779296875,-400000.0625,-28979.349609375,-400000.0625
10.295509099960327,-400000.0625,-43769.41015625,-29690.7890625,-400000.0625,-29534.6796875,-400000.0625,-28982.01953125,-400000.0625
10.33708643913269,-400000.0625,-43746.2890625,-29665.5703125,-400000.0625,-29509.400390625,-400000.0625,-28959.0390625,-400000.0625
10.342016696929932,-400000.0625,-43731.4609375,-29650.119140625,-400000.0625,-29495.099609375,-400000.0625,-28945.0703125,-400000.0625
10.342025756835938,-400000.0625,-43741.1796875,-29660.990234375,-400000.0625,-29508.0703125,-400000.0625,-28955.650390625,-400000.0625
10.342030048370361,-400000.0625,-43756.921875,-29679.490234375,-400000.0625,-29525.859375,-400000.0625,-28973.9609375,-400000.0625
10.342034101486206,-400000.0625,-43758.25,-29678.060546875,-400000.0625,-29523.94921875,-400000.0625,-28974.109375,-400000.0625
10.34203815460205,-400000.0625,-43745.76171875,-29660.419921875,-400000.0625,-29503.919921875,-400000.0625,-28952.890625,-400000.0625
10.342042446136475,-400000.0625,-43729.87890625,-29648.740234375,-400000.0625,-29487.609375,-400000.0625,-28942.6796875,-400000.0625
10.34204649925232,-400000.0625,-43737.23046875,-29657.83984375,-400000.0625,-29506.259765625,-400000.0625,-28952.55078125,-400000.0625
10.342050313949585,-400000.0625,-43761.58984375,-29679.2109375,-400000.0625,-29535.919921875,-400000.0625,-28973.5390625,-400000.0625
10.34205436706543,-400000.0625,-43769.21875,-29685.169921875,-400000.0625,-29532.720703125,-400000.0625,-28976.970703125,-400000.0625
10.342058181762695,-400000.0625,-43741.80078125,-29658.80078125,-400000.0625,-29501.009765625,-400000.0625,-28950.41015625,-400000.0625
10.342061758041382,-400000.0625,-43724.58984375,-29641.25,-400000.0625,-29491.240234375,-400000.0625,-28932.099609375,-400000.0625
10.342065572738647,-400000.0625,-43733.6484375,-29649.740234375,-400000.0625,-29503.439453125,-400000.0625,-28944.400390625,-400000.0625
10.342069387435913,-400000.0625,-43757.62890625,-29672.390625,-400000.0625,-29529.150390625,-400000.0625,-28966.759765625,-400000.0625
10.342073202133179,-400000.0625,-43764.12109375,-29680.490234375,-400000.0625,-29524.759765625,-400000.0625,-28971.91015625,-400000.0625
10.342077255249023,-400000.0625,-43745.37890625,-29660.1796875,-400000.0625,-29504.490234375,-400000.0625,-28951.83984375,-400000.0625
10.40211033821106,-400000.0625,-43728.359375,-29642.6796875,-400000.0625,-29490.810546875,-400000.0625,-28935.009765625,-400000.0625
10.411564111709595,-400000.0625,-43734.359375,-29648.689453125,-400000.0625,-29498.9609375,-400000.0625,-28943.16015625,-400000.0625
10.416791439056396,-400000.0625,-43750.9609375,-29665.08984375,-400000.0625,-29520.1796875,-400000.0625,-28959.330078125,-400000.0625
10.42111849784851,-400000.0625,-43757.96875,-29674.099609375,-400000.0625,-29525.900390625,-400000.0625,-28965.94921875,-400000.0625
10.421127319335938,-400000.0625,-43736.26953125,-29654.4609375,-400000.0625,-29495.91015625,-400000.0625,-28946.58984375,-400000.0625
10.421131610870361,-400000.0625,-43721.390625,-29640.009765625,-400000.0625,-29482.369140625,-400000.0625,-28929.189453125,-400000.0625
10.421136140823364,-400000.0625,-43733.078125,-29647.740234375,-400000.0625,-29493.859375,-400000.0625,-28942.16015625,-400000.0625
10.421140670776367,-400000.0625,-43754.6796875,-29668.669921875,-400000.0625,-29520.23046875,-400000.0625,-28960.80078125,-400000.0625
10.421144247055054,-400000.0625,-43759.3984375,-29675.8203125,-400000.0625,-29524.189453125,-400000.0625,-28962.279296875,-400000.0625
10.421147584915161,-400000.0625,-43738.890625,-29655.560546875,-400000.0625,-29505.0703125,-400000.0625,-28939.25,-400000.0625
10.421152114868164,-400000.0625,-43724.16015625,-29639.390625,-400000.0625,-29490.05078125,-400000.0625,-28924.94921875,-400000.0625
10.42115592956543,-400000.0625,-43730.73828125,-29646.5,-400000.0625,-29495.720703125,-400000.0625,-28930.619140625,-400000.0625
10.421159744262695,-400000.0625,-43751.01171875,-29669.2890625,-400000.0625,-29518.0390625,-400000.0625,-28953.650390625,-400000.0625
10.421163082122803,-400000.0625,-43765.12109375,-29679.16015625,-400000.0625,-29519.0390625,-400000.0625,-28969.2890625,-400000.0625
10.421167135238647,-400000.0625,-43749.53125,-29659.470703125,-400000.0625,-29497.33984375,-400000.0625,-28941.919921875,-400000.0625
10.421170473098755,-400000.0625,-43728.55078125,-29644.490234375,-400000.0625,-29483.1796875,-400000.0625,-28912.359375,-400000.0625
10.485828876495361,-400000.0625,-43738.1796875,-29662.470703125,-400000.0625,-29503.970703125,-400000.0625,-28918.369140625,-400000.0625
10.490911960601807,-400000.0625,-43766.55078125,-29692.890625,-400000.0625,-29526.5703125,-400000.0625,-28940.25,-400000.0625
10.49510145187378,-400000.0625,-43779.80859375,-29701.810546875,-400000.0625,-29528.189453125,-400000.0625,-28940.439453125,-400000.0625
10.49510908126831,-400000.0625,-43762.0703125,-29684.98046875,-400000.0625,-29504.830078125,-400000.0625,-28910.44921875,-400000.0625
10.495113372802734,-400000.0625,-43744.4296875,-29671.619140625,-400000.0625,-29487.1796875,-400000.0625,-28892.23046875,-400000.0625
10.495117425918579,-400000.0625,-43760.96875,-29686.7890625,-400000.0625,-29500.30078125,-400000.0625,-28907.349609375,-400000.0625
10.495120763778687,-400000.0625,-43786.2890625,-29708.33984375,-400000.0625,-29522.51953125,-400000.0625,-28928.810546875,-400000.0625
10.495124101638794,-400000.0625,-43789.33984375,-29714.73046875,-400000.0625,-29525.240234375,-400000.0625,-28932.05078125,-400000.0625
10.49512767791748,-400000.0625,-43763.87890625,-29692.029296875,-400000.0625,-29506.259765625,-400000.0625,-28911.5,-400000.0625
10.495131015777588,-400000.0625,-43746.48046875,-29672.91015625,-400000.0625,-29488.5703125,-400000.0625,-28891.279296875,-400000.0625
10.495134353637695,-400000.0625,-43752.9609375,-29681.5,-400000.0625,-29502.490234375,-400000.0625,-28896.669921875,-400000.0625
10.495137691497803,-400000.0625,-43778.0390625,-29706.76953125,-400000.0625,-29531.48046875,-400000.0625,-28922.419921875,-400000.0625
10.49514102935791,-400000.0625,-43787.578125,-29716.349609375,-400000.0625,-29529.859375,-400000.0625,-28928.0,-400000.0625
10.495144367218018,-400000.0625,-43765.12109375,-29693.939453125,-400000.0625,-29501.630859375,-400000.0625,-28902.8203125,-400000.0625
10.495147943496704,-400000.0625,-43744.28125,-29671.0,-400000.0625,-29489.5703125,-400000.0625,-28884.130859375,-400000.0625
10.495151281356812,-400000.0625,-43755.05859375,-29683.5,-400000.0625,-29503.5390625,-400000.0625,-28896.2890625,-400000.0625
10.530587911605835,-400000.0625,-43779.28125,-29710.009765625,-400000.0625,-29531.859375,-400000.0625,-28918.599609375,-400000.0625
10.540855646133423,-400000.0625,-43783.33984375,-29713.58984375,-400000.0625,-29530.390625,-400000.0625,-28923.279296875,-400000.0625
10.545124530792236,-400000.0625,-43756.58984375,-29685.9296875,-400000.0625,-29500.76953125,-400000.0625,-28897.0,-400000.0625
10.545132875442505,-400000.0625,-43741.46875,-29673.8203125,-400000.0625,-29489.810546875,-400000.0625,-28884.609375,-400000.0625
10.545137643814087,-400000.0625,-43753.76953125,-29686.41015625,-400000.0625,-29503.060546875,-400000.0625,-28894.669921875,-400000.0625
10.545141458511353,-400000.0625,-43776.66015625,-29708.6796875,-400000.0625,-29523.849609375,-400000.0625,-28914.55078125,-400000.0625
10.545145273208618,-400000.0625,-43778.140625,-29710.8203125,-400000.0625,-29525.4296875,-400000.0625,-28914.259765625,-400000.0625
10.5451500415802,-400000.0625,-43759.44921875,-29690.75,-400000.0625,-29507.119140625,-400000.0625,-28891.849609375,-400000.0625
10.545155048370361,-400000.0625,-43741.8515625,-29672.76953125,-400000.0625,-29503.16015625,-400000.0625,-28874.58984375,-400000.0625
10.545158624649048,-400000.0625,-43748.5703125,-29681.01953125,-400000.0625,-29509.359375,-400000.0625,-28883.509765625,-400000.0625
10.545162200927734,-400000.0625,-43776.5703125,-29704.4296875,-400000.0625,-29531.529296875,-400000.0625,-28909.689453125,-400000.0625
10.545165538787842,-400000.0625,-43783.37890625,-29710.73046875,-400000.0625,-29531.05078125,-400000.0625,-28913.9296875,-400000.0625
10.545169115066528,-400000.0625,-43755.01171875,-29683.58984375,-400000.0625,-29502.25,-400000.0625,-28884.130859375,-400000.0625
10.545172691345215,-400000.0625,-43735.21875,-29664.94921875,-400000.0625,-29485.990234375,-400000.0625,-28868.439453125,-400000.0625
10.545176267623901,-400000.0625,-43747.53125,-29676.060546875,-400000.0625,-29509.880859375,-400000.0625,-28879.0703125,-400000.0625
10.545179843902588,-400000.0625,-43775.98828125,-29703.330078125,-400000.0625,-29537.16015625,-400000.0625,-28904.779296875,-400000.0625
10.592193126678467,-400000.0625,-43781.05078125,-29709.19921875,-400000.0625,-29534.439453125,-400000.0625,-28909.349609375,-400000.0625
10.597517013549805,-400000.0625,-43755.73046875,-29685.7890625,-400000.0625,-29505.919921875,-400000.0625,-28884.80078125,-400000.0625
10.60231637954712,-400000.0625,-43740.328125,-29669.0,-400000.0625,-29497.529296875,-400000.0625,-28871.16015625,-400000.0625
10.602325201034546,-400000.0625,-43747.37890625,-29675.439453125,-400000.0625,-29509.400390625,-400000.0625,-28877.640625,-400000.0625
10.60232949256897,-400000.0625,-43770.75,-29697.140625,-400000.0625,-29532.150390625,-400000.0625,-28896.91015625,-400000.0625
10.602333307266235,-400000.0625,-43781.62109375,-29708.009765625,-400000.0625,-29531.669921875,-400000.0625,-28906.6796875,-400000.0625
10.60233736038208,-400000.0625,-43760.921875,-29688.599609375,-400000.0625,-29508.01953125,-400000.0625,-28879.7890625,-400000.0625
10.602340698242188,-400000.0625,-43747.37890625,-29671.150390625,-400000.0625,-29495.810546875,-400000.0625,-28862.810546875,-400000.0625
10.602344274520874,-400000.0625,-43761.640625,-29684.119140625,-400000.0625,-29514.650390625,-400000.0625,-28869.73046875,-400000.0625
10.60234785079956,-400000.0625,-43775.421875,-29696.51953125,-400000.0625,-29536.869140625,-400000.0625,-28894.810546875,-400000.0625
10.602351427078247,-400000.0625,-43763.26171875,-29690.509765625,-400000.0625,-29523.7109375,-400000.0625,-28913.44921875,-400000.0625
10.602354764938354,-400000.0625,-43729.21875,-29659.1796875,-400000.0625,-29489.470703125,-400000.0625,-28897.48046875,-400000.0625
10.602377891540527,-400000.0625,-43698.26953125,-29629.900390625,-400000.0625,-29474.0703125,-400000.0625,-28887.130859375,-400000.0625
10.602381467819214,-400000.0625,-43693.69140625,-29625.419921875,-400000.0625,-29487.990234375,-400000.0625,-28907.830078125,-400000.0625
10.6023850440979,-400000.0625,-43704.3203125,-29636.859375,-400000.0625,-29508.169921875,-400000.0625,-28942.919921875,-400000.0625
10.602388858795166,-400000.0625,-43705.37109375,-29634.9609375,-400000.0625,-29511.119140625,-400000.0625,-28964.140625,-400000.0625
10.674676418304443,-400000.0625,-43675.48046875,-29602.33984375,-400000.0625,-29494.099609375,-400000.0625,-28950.310546875,-400000.0625
10.687865972518921,-400000.0625,-43658.87890625,-29578.5,-400000.0625,-29474.44921875,-400000.0625,-28938.490234375,-400000.0625
10.692384481430054,-400000.0625,-43657.01953125,-29578.9296875,-400000.0625,-29480.4609375,-400000.0625,-28950.740234375,-400000.0625
10.692394018173218,-400000.0625,-43666.1796875,-29593.66015625,-400000.0625,-29493.859375,-400000.0625,-28975.109375,-400000.0625
10.692398309707642,-400000.0625,-43684.19921875,-29607.8203125,-400000.0625,-29509.599609375,-400000.0625,-28985.0703125,-400000.0625
10.692401885986328,-400000.0625,-43665.6484375,-29586.939453125,-400000.0625,-29483.369140625,-400000.0625,-28965.05078125,-400000.0625
10.692405700683594,-400000.0625,-43638.5703125,-29560.859375,-400000.0625,-29459.619140625,-400000.0625,-28943.109375,-400000.0625
10.692409038543701,-400000.0625,-43652.6796875,-29574.349609375,-400000.0625,-29474.119140625,-400000.0625,-28951.029296875,-400000.0625
10.692412614822388,-400000.0625,-43680.01171875,-29600.48046875,-400000.0625,-29498.76953125,-400000.0625,-28980.400390625,-400000.0625
10.692416191101074,-400000.0625,-43686.25,-29605.19921875,-400000.0625,-29505.2109375,-400000.0625,-28988.939453125,-400000.0625
10.69241976737976,-400000.0625,-43669.08984375,-29584.029296875,-400000.0625,-29483.890625,-400000.0625,-28963.330078125,-400000.0625
10.692423105239868,-400000.0625,-43643.2890625,-29562.859375,-400000.0625,-29465.109375,-400000.0625,-28943.58984375,-400000.0625
10.692426681518555,-400000.0625,-43649.30078125,-29567.91015625,-400000.0625,-29480.560546875,-400000.0625,-28950.7890625,-400000.0625
10.692430257797241,-400000.0625,-43676.671875,-29594.849609375,-400000.0625,-29504.869140625,-400000.0625,-28973.6796875,-400000.0625
10.692433834075928,-400000.0625,-43686.96875,-29604.009765625,-400000.0625,-29502.25,-400000.0625,-28981.2109375,-400000.0625
10.692437171936035,-400000.0625,-43664.12890625,-29580.55078125,-400000.0625,-29475.880859375,-400000.0625,-28957.69921875,-400000.0625
10.73056936264038,-400000.0625,-43640.671875,-29559.900390625,-400000.0625,-29458.91015625,-400000.0625,-28940.060546875,-400000.0625
10.735744714736938,-400000.0625,-43650.73046875,-29570.30078125,-400000.0625,-29472.259765625,-400000.0625,-28946.5,-400000.0625
10.740222454071045,-400000.0625,-43674.94921875,-29592.5703125,-400000.0625,-29501.73046875,-400000.0625,-28968.150390625,-400000.0625
10.740230560302734,-400000.0625,-43685.96875,-29599.859375,-400000.0625,-29504.01953125,-400000.0625,-28979.109375,-400000.0625
10.740234613418579,-400000.0625,-43663.4609375,-29577.880859375,-400000.0625,-29478.41015625,-400000.0625,-28955.1796875,-400000.0625
10.740238428115845,-400000.0625,-43639.19140625,-29557.849609375,-400000.0625,-29464.630859375,-400000.0625,-28933.9609375,-400000.0625
10.74024224281311,-400000.0625,-43646.53125,-29563.9609375,-400000.0625,-29473.2109375,-400000.0625,-28940.19921875,-400000.0625
10.740246057510376,-400000.0625,-43667.12890625,-29583.650390625,-400000.0625,-29497.05078125,-400000.0625,-28956.939453125,-400000.0625
10.740249633789062,-400000.0625,-43673.94921875,-29591.51953125,-400000.0625,-29499.009765625,-400000.0625,-28966.669921875,-400000.0625
10.740253210067749,-400000.0625,-43655.828125,-29572.30078125,-400000.0625,-29474.44921875,-400000.0625,-28948.359375,-400000.0625
10.740256786346436,-400000.0625,-43638.46875,-29552.080078125,-400000.0625,-29465.150390625,-400000.0625,-28928.759765625,-400000.0625
10.740260362625122,-400000.0625,-43650.44140625,-29562.669921875,-400000.0625,-29477.41015625,-400000.0625,-28940.009765625,-400000.0625
10.740263938903809,-400000.0625,-43676.859375,-29586.939453125,-400000.0625,-29503.349609375,-400000.0625,-28964.619140625,-400000.0625
10.740267276763916,-400000.0625,-43689.26171875,-29597.2890625,-400000.0625,-29507.119140625,-400000.0625,-28973.5390625,-400000.0625
10.740270853042603,-400000.0625,-43667.0390625,-29575.58984375,-400000.0625,-29480.7890625,-400000.0625,-28948.689453125,-400000.0625
10.74027419090271,-400000.0625,-43642.140625,-29555.900390625,-400000.0625,-29464.150390625,-400000.0625,-28930.140625,-400000.0625
10.786017894744873,-400000.0625,-43652.58984375,-29560.470703125,-400000.0625,-29472.400390625,-400000.0625,-28935.669921875,-400000.0625
10.795621395111084,-400000.0625,-43690.01953125,-29582.119140625,-400000.0625,-29491.7109375,-400000.0625,-28948.0703125,-400000.0625
10.800358533859253,-400000.0625,-43711.2890625,-29589.130859375,-400000.0625,-29493.380859375,-400000.0625,-28951.359375,-400000.0625
10.800367832183838,-400000.0625,-43686.30078125,-29565.390625,-400000.0625,-29471.830078125,-400000.0625,-28946.779296875,-400000.0625
10.800371885299683,-400000.0625,-43646.53125,-29518.509765625,-400000.0625,-29455.5703125,-400000.0625,-28913.119140625,-400000.0625
10.800377368927002,-400000.0625,-43670.12890625,-29562.619140625,-400000.0625,-29464.30078125,-400000.0625,-28910.970703125,-400000.0625
10.800381422042847,-400000.0625,-43752.01171875,-29600.099609375,-400000.0625,-29482.890625,-400000.0625,-28927.4296875,-400000.0625
10.800384998321533,-400000.0625,-43703.3203125,-29613.830078125,-400000.0625,-29467.439453125,-400000.0625,-28944.919921875,-400000.0625
10.800393342971802,-400000.0625,-43635.08984375,-29662.470703125,-400000.0625,-29427.630859375,-400000.0625,-28910.9296875,-400000.0625
10.800397157669067,-400000.0625,-43672.8515625,-29639.19921875,-400000.0625,-29414.130859375,-400000.0625,-28903.009765625,-400000.0625
10.800400972366333,-400000.0625,-43739.8984375,-29603.150390625,-400000.0625,-29408.169921875,-400000.0625,-28895.5703125,-400000.0625
10.80040454864502,-400000.0625,-43830.26171875,-29680.830078125,-400000.0625,-29424.619140625,-400000.0625,-28900.33984375,-400000.0625
10.800408124923706,-400000.0625,-43915.37109375,-29700.849609375,-400000.0625,-29388.859375,-400000.0625,-28908.349609375,-400000.0625
10.800411462783813,-400000.0625,-43918.7109375,-29703.0,-400000.0625,-29336.0703125,-400000.0625,-28850.4609375,-400000.0625
10.8004150390625,-400000.0625,-43861.3515625,-29711.439453125,-400000.0625,-29305.3203125,-400000.0625,-28803.30078125,-400000.0625
10.800418853759766,-400000.0625,-43890.578125,-29716.689453125,-400000.0625,-29302.41015625,-400000.0625,-28773.98046875,-400000.0625
10.862141132354736,-400000.0625,-43948.12890625,-29750.779296875,-400000.0625,-29316.0,-400000.0625,-28772.359375,-400000.0625
10.867697954177856,-400000.0625,-43945.26953125,-29753.970703125,-400000.0625,-29306.029296875,-400000.0625,-28741.220703125,-400000.0625
10.871821641921997,-400000.0625,-43924.53125,-29735.900390625,-400000.0625,-29268.4609375,-400000.0625,-28689.48046875,-400000.0625
10.871830940246582,-400000.0625,-43915.37109375,-29711.630859375,-400000.0625,-29241.330078125,-400000.0625,-28625.869140625,-400000.0625
10.871834993362427,-400000.0625,-43898.78125,-29718.58984375,-400000.0625,-29239.7109375,-400000.0625,-28622.19921875,-400000.0625
10.871839046478271,-400000.0625,-43939.87890625,-29752.689453125,-400000.0625,-29265.9296875,-400000.0625,-28627.73046875,-400000.0625
10.871843099594116,-400000.0625,-43911.3203125,-29775.380859375,-400000.0625,-29268.029296875,-400000.0625,-28643.990234375,-400000.0625
10.871846675872803,-400000.0625,-43888.1015625,-29748.30078125,-400000.0625,-29234.990234375,-400000.0625,-28610.94921875,-400000.0625
10.87185025215149,-400000.0625,-43856.44140625,-29726.69921875,-400000.0625,-29220.490234375,-400000.0625,-28587.009765625,-400000.0625
10.871853590011597,-400000.0625,-43849.19140625,-29728.3203125,-400000.0625,-29224.490234375,-400000.0625,-28599.689453125,-400000.0625
10.871857166290283,-400000.0625,-43854.9609375,-29744.91015625,-400000.0625,-29244.900390625,-400000.0625,-28625.919921875,-400000.0625
10.87186050415039,-400000.0625,-43852.71875,-29749.2109375,-400000.0625,-29247.380859375,-400000.0625,-28648.08984375,-400000.0625
10.871863842010498,-400000.0625,-43824.1484375,-29717.880859375,-400000.0625,-29229.01953125,-400000.0625,-28649.859375,-400000.0625
10.871867418289185,-400000.0625,-43797.78125,-29686.7890625,-400000.0625,-29201.83984375,-400000.0625,-28654.05078125,-400000.0625
10.871870994567871,-400000.0625,-43805.6484375,-29689.7890625,-400000.0625,-29233.220703125,-400000.0625,-28699.830078125,-400000.0625
10.871882677078247,-400000.0625,-43827.3515625,-29707.529296875,-400000.0625,-29268.69921875,-400000.0625,-28750.380859375,-400000.0625
10.924575090408325,-400000.0625,-43823.8203125,-29704.380859375,-400000.0625,-29274.560546875,-400000.0625,-28779.080078125,-400000.0625
10.9353346824646,-400000.0625,-43791.48828125,-29676.009765625,-400000.0625,-29251.150390625,-400000.0625,-28780.939453125,-400000.0625
10.940395593643188,-400000.0625,-43757.3984375,-29644.44921875,-400000.0625,-29241.08984375,-400000.0625,-28781.26953125,-400000.0625
10.944849014282227,-400000.0625,-43750.1015625,-29641.6796875,-400000.0625,-29265.220703125,-400000.0625,-28798.919921875,-400000.0625
10.944856405258179,-400000.0625,-43763.171875,-29659.369140625,-400000.0625,-29300.880859375,-400000.0625,-28837.16015625,-400000.0625
10.944860458374023,-400000.0625,-43760.921875,-29662.330078125,-400000.0625,-29333.169921875,-400000.0625,-28856.470703125,-400000.0625
10.944864273071289,-400000.0625,-43731.69140625,-29634.2890625,-400000.0625,-29311.94921875,-400000.0625,-28841.689453125,-400000.0625
10.944867849349976,-400000.0625,-43690.5,-29601.859375,-400000.0625,-29296.880859375,-400000.0625,-28829.76953125,-400000.0625
10.944871425628662,-400000.0625,-43684.19921875,-29606.5390625,-400000.0625,-29330.349609375,-400000.0625,-28839.0703125,-400000.0625
10.944875240325928,-400000.0625,-43696.171875,-29625.509765625,-400000.0625,-29366.830078125,-400000.0625,-28870.19921875,-400000.0625
10.944878578186035,-400000.0625,-43697.6484375,-29630.619140625,-400000.0625,-29382.1796875,-400000.0625,-28887.80078125,-400000.0625
10.944882154464722,-400000.0625,-43662.171875,-29604.390625,-400000.0625,-29371.26953125,-400000.0625,-28866.6796875,-400000.0625
10.944885969161987,-400000.0625,-43625.83984375,-29574.830078125,-400000.0625,-29363.640625,-400000.0625,-28842.310546875,-400000.0625
10.944889307022095,-400000.0625,-43623.640625,-29575.830078125,-400000.0625,-29378.69921875,-400000.0625,-28851.26953125,-400000.0625
10.944892883300781,-400000.0625,-43638.8984375,-29592.08984375,-400000.0625,-29410.3203125,-400000.0625,-28873.259765625,-400000.0625
10.944896459579468,-400000.0625,-43643.9609375,-29595.810546875,-400000.0625,-29417.80078125,-400000.0625,-28883.220703125,-400000.0625
10.980993032455444,-400000.0625,-43612.390625,-29566.76953125,-400000.0625,-29395.009765625,-400000.0625,-28860.240234375,-400000.0625
10.98612117767334,-400000.0625,-43584.69140625,-29542.259765625,-400000.0625,-29394.9609375,-400000.0625,-28834.6796875,-400000.0625
10.991032838821411,-400000.0625,-43580.390625,-29538.490234375,-400000.0625,-29414.470703125,-400000.0625,-28835.009765625,-400000.0625
10.991041898727417,-400000.0625,-43593.21875,-29556.419921875,-400000.0625,-29430.25,-400000.0625,-28860.669921875,-400000.0625
10.99104642868042,-400000.0625,-43601.421875,-29565.859375,-400000.0625,-29444.939453125,-400000.0625,-28873.30078125,-400000.0625
10.991050243377686,-400000.0625,-43574.1484375,-29539.109375,-400000.0625,-29428.150390625,-400000.0625,-28850.890625,-400000.0625
10.991053819656372,-400000.0625,-43543.48828125,-29511.7890625,-400000.0625,-29413.890625,-400000.0625,-28829.48046875,-400000.0625
10.991057395935059,-400000.0625,-43546.05859375,-29517.560546875,-400000.0625,-29420.7109375,-400000.0625,-28837.869140625,-400000.0625
10.991061210632324,-400000.0625,-43568.66015625,-29541.5,-400000.0625,-29445.220703125,-400000.0625,-28861.33984375,-400000.0625
10.991064548492432,-400000.0625,-43575.48046875,-29546.599609375,-400000.0625,-29456.2890625,-400000.0625,-28869.439453125,-400000.0625
10.991068124771118,-400000.0625,-43548.73046875,-29519.1796875,-400000.0625,-29438.119140625,-400000.0625,-28842.689453125,-400000.0625
10.991071701049805,-400000.0625,-43523.26953125,-29493.859375,-400000.0625,-29422.140625,-400000.0625,-28818.900390625,-400000.0625
10.991075038909912,-400000.0625,-43529.1796875,-29497.009765625,-400000.0625,-29431.630859375,-400000.0625,-28824.91015625,-400000.0625
10.991078615188599,-400000.0625,-43557.171875,-29523.810546875,-400000.0625,-29457.669921875,-400000.0625,-28852.419921875,-400000.0625
10.991082191467285,-400000.0625,-43563.94140625,-29532.25,-400000.0625,-29464.109375,-400000.0625,-28861.720703125,-400000.0625
10.991085529327393,-400000.0625,-43538.48046875,-29508.44921875,-400000.0625,-29447.1796875,-400000.0625,-28841.2109375,-400000.0625
11.039661407470703,-400000.0625,-43517.3984375,-29487.470703125,-400000.0625,-29425.33984375,-400000.0625,-28818.0390625,-400000.0625
11.048737525939941,-400000.0625,-43522.98046875,-29493.380859375,-400000.0625,-29440.9296875,-400000.0625,-28824.859375,-400000.0625
11.053285598754883,-400000.0625,-43549.109375,-29520.23046875,-400000.0625,-29469.919921875,-400000.0625,-28855.990234375,-400000.0625
11.053295135498047,-400000.0625,-43566.08984375,-29532.2890625,-400000.0625,-29472.119140625,-400000.0625,-28870.30078125,-400000.0625
11.05329942703247,-400000.0625,-43537.23828125,-29505.689453125,-400000.0625,-29448.69921875,-400000.0625,-28847.029296875,-400000.0625
11.053303956985474,-400000.0625,-43514.3984375,-29484.939453125,-400000.0625,-29430.439453125,-400000.0625,-28814.83984375,-400000.0625
11.05330753326416,-400000.0625,-43525.26953125,-29479.7890625,-400000.0625,-29436.310546875,-400000.0625,-28820.80078125,-400000.0625
11.053352355957031,-400000.0625,-43559.171875,-29500.009765625,-400000.0625,-29456.859375,-400000.0625,-28854.369140625,-400000.0625
11.05335783958435,-400000.0625,-43562.69921875,-29504.5390625,-400000.0625,-29454.900390625,-400000.0625,-28847.509765625,-400000.0625
11.053361415863037,-400000.0625,-43552.26171875,-29494.720703125,-400000.0625,-29430.25,-400000.0625,-28838.779296875,-400000.0625
11.05336594581604,-400000.0625,-43544.44140625,-29481.26953125,-400000.0625,-29414.849609375,-400000.0625,-28833.73046875,-400000.0625
11.053369760513306,-400000.0625,-43564.51953125,-29475.640625,-400000.0625,-29414.990234375,-400000.0625,-28837.6796875,-400000.0625
11.053373336791992,-400000.0625,-43604.140625,-29497.099609375,-400000.0625,-29430.349609375,-400000.0625,-28851.080078125,-400000.0625
11.0533766746521,-400000.0625,-43629.12890625,-29525.189453125,-400000.0625,-29436.689453125,-400000.0625,-28875.640625,-400000.0625
11.053380250930786,-400000.0625,-43588.359375,-29504.25,-400000.0625,-29393.9609375,-400000.0625,-28861.380859375,-400000.0625
11.053383827209473,-400000.0625,-43619.58984375,-29497.669921875,-400000.0625,-29368.44921875,-400000.0625,-28836.060546875,-400000.0625
11.104499340057373,-400000.0625,-43651.44140625,-29523.419921875,-400000.0625,-29372.41015625,-400000.0625,-28850.369140625,-400000.0625
11.10980749130249,-400000.0625,-43666.51171875,-29562.810546875,-400000.0625,-29374.7890625,-400000.0625,-28882.080078125,-400000.0625
11.114075899124146,-400000.0625,-43740.94921875,-29615.830078125,-400000.0625,-29356.19921875,-400000.0625,-28930.619140625,-400000.0625
11.114083766937256,-400000.0625,-43775.08984375,-29613.58984375,-400000.0625,-29317.240234375,-400000.0625,-28894.08984375,-400000.0625
11.11408805847168,-400000.0625,-43806.6484375,-29633.720703125,-400000.0625,-29261.2109375,-400000.0625,-28880.83984375,-400000.0625
11.114091873168945,-400000.0625,-43806.078125,-29686.310546875,-400000.0625,-29247.380859375,-400000.0625,-28863.4296875,-400000.0625
11.114095687866211,-400000.0625,-43850.140625,-29674.25,-400000.0625,-29277.470703125,-400000.0625,-28867.6796875,-400000.0625
11.114099264144897,-400000.0625,-43887.859375,-29725.650390625,-400000.0625,-29296.2109375,-400000.0625,-28853.51953125,-400000.0625
11.114103078842163,-400000.0625,-43879.08984375,-29707.150390625,-400000.0625,-29260.400390625,-400000.0625,-28776.220703125,-400000.0625
11.11410665512085,-400000.0625,-43861.390625,-29674.720703125,-400000.0625,-29227.689453125,-400000.0625,-28663.830078125,-400000.0625
11.114110231399536,-400000.0625,-43875.171875,-29696.279296875,-400000.0625,-29232.080078125,-400000.0625,-28649.4296875,-400000.0625
11.114116191864014,-400000.0625,-43877.421875,-29725.4609375,-400000.0625,-29245.810546875,-400000.0625,-28623.73046875,-400000.0625
11.114122152328491,-400000.0625,-43862.25,-29752.830078125,-400000.0625,-29249.76953125,-400000.0625,-28542.140625,-400000.0625
11.114125728607178,-400000.0625,-43808.890625,-29735.08984375,-400000.0625,-29223.919921875,-400000.0625,-28453.5,-400000.0625
11.114129543304443,-400000.0625,-43817.5703125,-29696.7109375,-400000.0625,-29189.73046875,-400000.0625,-28300.099609375,-400000.0625
11.114133358001709,-400000.0625,-43838.69921875,-29707.630859375,-400000.0625,-29203.0390625,-400000.0625,-28175.599609375,-400000.0625
11.172294855117798,-400000.0625,-43842.69921875,-29824.0703125,-400000.0625,-29229.83984375,-400000.0625,-28089.9609375,-400000.0625
11.181607961654663,-400000.0625,-43809.98828125,-29817.30078125,-400000.0625,-29216.8203125,-400000.0625,-28019.4296875,-400000.0625
11.18634843826294,-400000.0625,-43769.3203125,-29707.390625,-400000.0625,-29182.720703125,-400000.0625,-27871.1796875,-400000.0625
11.186357736587524,-400000.0625,-43742.51953125,-29674.150390625,-400000.0625,-29175.4296875,-400000.0625,-27678.2109375,-400000.0625
11.18636178970337,-400000.0625,-43713.1484375,-29703.240234375,-400000.0625,-29190.349609375,-400000.0625,-27480.75,-400000.0625
11.186365365982056,-400000.0625,-43693.171875,-29775.76953125,-400000.0625,-29198.69921875,-400000.0625,-27397.640625,-400000.0625
11.186368942260742,-400000.0625,-43696.03125,-29833.080078125,-400000.0625,-29205.66015625,-400000.0625,-27299.689453125,-400000.0625
11.186372756958008,-400000.0625,-43697.890625,-29661.94921875,-400000.0625,-29149.109375,-400000.0625,-27069.51953125,-400000.0625
11.186376333236694,-400000.0625,-43618.78125,-29606.6796875,-400000.0625,-29108.619140625,-400000.0625,-26785.380859375,-400000.0625
11.186379671096802,-400000.0625,-43582.6796875,-29621.4609375,-400000.0625,-29146.91015625,-400000.0625,-26571.66015625,-400000.0625
11.186383247375488,-400000.0625,-43615.390625,-29636.05078125,-400000.0625,-29152.439453125,-400000.0625,-26381.310546875,-400000.0625
11.186386823654175,-400000.0625,-43601.7109375,-29669.810546875,-400000.0625,-29135.900390625,-400000.0625,-26175.259765625,-400000.0625
11.186390161514282,-400000.0625,-43523.171875,-29642.439453125,-400000.0625,-29091.98046875,-400000.0625,-25907.279296875,-400000.0625
11.186393737792969,-400000.0625,-43421.1796875,-29571.869140625,-400000.0625,-29028.560546875,-400000.0625,-25631.9609375,-400000.0625
11.186397314071655,-400000.0625,-43425.5703125,-29565.150390625,-400000.0625,-28995.849609375,-400000.0625,-25418.810546875,-400000.0625
11.186400890350342,-400000.0625,-43418.69921875,-29582.310546875,-400000.0625,-28953.359375,-400000.0625,-25230.41015625,-400000.0625
11.281358242034912,-400000.0625,-43395.23828125,-29586.220703125,-400000.0625,-28899.009765625,-400000.0625,-25084.0703125,-400000.0625
11.290810823440552,-400000.0625,-43349.4609375,-29557.900390625,-400000.0625,-28822.0,-400000.0625,-24953.69921875,-400000.0625
11.295268297195435,-400000.0625,-43301.109375,-29532.05078125,-400000.0625,-28737.41015625,-400000.0625,-24895.669921875,-400000.0625
11.295276641845703,-400000.0625,-43280.3203125,-29539.5390625,-400000.0625,-28691.099609375,-400000.0625,-24922.470703125,-400000.0625
11.295280933380127,-400000.0625,-43274.12109375,-29559.5703125,-400000.0625,-28674.650390625,-400000.0625,-25013.16015625,-400000.0625
11.295284748077393,-400000.0625,-43273.01953125,-29573.009765625,-400000.0625,-28657.109375,-400000.0625,-25121.640625,-400000.0625
11.295288324356079,-400000.0625,-43238.98046875,-29542.0703125,-400000.0625,-28606.80078125,-400000.0625,-25210.669921875,-400000.0625
11.295292139053345,-400000.0625,-43189.859375,-29511.880859375,-400000.0625,-28586.8203125,-400000.0625,-25305.3203125,-400000.0625
11.295295715332031,-400000.0625,-43175.6484375,-29513.359375,-400000.0625,-28596.9296875,-400000.0625,-25438.55078125,-400000.0625
11.295299291610718,-400000.0625,-43201.3984375,-29539.5390625,-400000.0625,-28631.55078125,-400000.0625,-25607.640625,-400000.0625
11.295302867889404,-400000.0625,-43214.37109375,-29552.75,-400000.0625,-28659.349609375,-400000.0625,-25764.279296875,-400000.0625
11.295306205749512,-400000.0625,-43189.23828125,-29531.2890625,-400000.0625,-28650.529296875,-400000.0625,-25892.689453125,-400000.0625
11.295309782028198,-400000.0625,-43168.21875,-29508.9296875,-400000.0625,-28665.55078125,-400000.0625,-26021.48046875,-400000.0625
11.295313358306885,-400000.0625,-43174.26953125,-29518.419921875,-400000.0625,-28708.890625,-400000.0625,-26170.349609375,-400000.0625
11.295316934585571,-400000.0625,-43190.2890625,-29537.349609375,-400000.0625,-28767.2109375,-400000.0625,-26328.900390625,-400000.0625
11.295320749282837,-400000.0625,-43194.25,-29537.25,-400000.0625,-28813.560546875,-400000.0625,-26468.849609375,-400000.0625
11.30225944519043,-400000.0625,-43175.37109375,-29519.080078125,-400000.0625,-28831.099609375,-400000.0625,-26574.330078125,-400000.0625
11.307695388793945,-400000.0625,-43158.1484375,-29501.30078125,-400000.0625,-28849.26953125,-400000.0625,-26685.76953125,-400000.0625
11.312400102615356,-400000.0625,-43164.69140625,-29508.01953125,-400000.0625,-28900.580078125,-400000.0625,-26802.73046875,-400000.0625
11.31242823600769,-400000.0625,-43181.0390625,-29525.240234375,-400000.0625,-28956.369140625,-400000.0625,-26914.4609375,-400000.0625
11.312432765960693,-400000.0625,-43173.98828125,-29529.189453125,-400000.0625,-28985.359375,-400000.0625,-27009.060546875,-400000.0625
11.312437057495117,-400000.0625,-43156.87109375,-29507.119140625,-400000.0625,-29002.150390625,-400000.0625,-27071.810546875,-400000.0625
11.312440872192383,-400000.0625,-43141.66015625,-29480.26953125,-400000.0625,-29006.76953125,-400000.0625,-27134.140625,-400000.0625
11.31244444847107,-400000.0625,-43144.66015625,-29482.1796875,-400000.0625,-29036.94921875,-400000.0625,-27213.669921875,-400000.0625
11.312448978424072,-400000.0625,-43161.5390625,-29500.73046875,-400000.0625,-29079.349609375,-400000.0625,-27297.2109375,-400000.0625
11.312452554702759,-400000.0625,-43170.078125,-29506.01953125,-400000.0625,-29106.189453125,-400000.0625,-27358.009765625,-400000.0625
11.312455892562866,-400000.0625,-43147.328125,-29477.169921875,-400000.0625,-29101.7109375,-400000.0625,-27381.140625,-400000.0625
11.312459468841553,-400000.0625,-43125.48828125,-29452.330078125,-400000.0625,-29096.23046875,-400000.0625,-27403.880859375,-400000.0625
11.31246280670166,-400000.0625,-43131.87890625,-29454.279296875,-400000.0625,-29123.7890625,-400000.0625,-27447.849609375,-400000.0625
11.312466382980347,-400000.0625,-43160.6796875,-29477.890625,-400000.0625,-29160.0703125,-400000.0625,-27511.080078125,-400000.0625
11.312469720840454,-400000.0625,-43176.1796875,-29485.0390625,-400000.0625,-29177.2890625,-400000.0625,-27557.5703125,-400000.0625
11.312473058700562,-400000.0625,-43149.51953125,-29456.859375,-400000.0625,-29168.080078125,-400000.0625,-27561.759765625,-400000.0625
11.364898681640625,-400000.0625,-43119.76953125,-29427.91015625,-400000.0625,-29164.130859375,-400000.0625,-27562.0,-400000.0625
11.370011806488037,-400000.0625,-43124.5390625,-29433.779296875,-400000.0625,-29188.970703125,-400000.0625,-27598.240234375,-400000.0625
11.375162363052368,-400000.0625,-43145.0390625,-29455.51953125,-400000.0625,-29224.30078125,-400000.0625,-27644.109375,-400000.0625
11.37967324256897,-400000.0625,-43149.2890625,-29460.48046875,-400000.0625,-29240.470703125,-400000.0625,-27677.25,-400000.0625
11.379681825637817,-400000.0625,-43121.44140625,-29433.30078125,-400000.0625,-29223.01953125,-400000.0625,-27671.91015625,-400000.0625
11.379686117172241,-400000.0625,-43093.69140625,-29406.5,-400000.0625,-29211.759765625,-400000.0625,-27666.810546875,-400000.0625
11.379689931869507,-400000.0625,-43096.171875,-29410.3203125,-400000.0625,-29226.310546875,-400000.0625,-27693.3203125,-400000.0625
11.379693508148193,-400000.0625,-43120.578125,-29432.439453125,-400000.0625,-29262.01953125,-400000.0625,-27731.80078125,-400000.0625
11.37969708442688,-400000.0625,-43131.30859375,-29441.4609375,-400000.0625,-29277.419921875,-400000.0625,-27760.220703125,-400000.0625
11.379700660705566,-400000.0625,-43104.12890625,-29413.939453125,-400000.0625,-29253.580078125,-400000.0625,-27753.689453125,-400000.0625
11.379704236984253,-400000.0625,-43081.0,-29390.859375,-400000.0625,-29250.19921875,-400000.0625,-27743.580078125,-400000.0625
11.37970757484436,-400000.0625,-43086.87109375,-29395.390625,-400000.0625,-29262.58984375,-400000.0625,-27764.609375,-400000.0625
11.379711151123047,-400000.0625,-43103.890625,-29415.1796875,-400000.0625,-29287.060546875,-400000.0625,-27801.369140625,-400000.0625
11.379714488983154,-400000.0625,-43117.80859375,-29426.05078125,-400000.0625,-29299.44921875,-400000.0625,-27818.30078125,-400000.0625
11.37971806526184,-400000.0625,-43098.55078125,-29404.01953125,-400000.0625,-29272.75,-400000.0625,-27808.05078125,-400000.0625
11.379721879959106,-400000.0625,-43079.94921875,-29384.66015625,-400000.0625,-29262.359375,-400000.0625,-27805.140625,-400000.0625
11.42732310295105,-400000.0625,-43090.2109375,-29391.9609375,-400000.0625,-29281.669921875,-400000.0625,-27822.5,-400000.0625
11.438194751739502,-400000.0625,-43114.1015625,-29414.75,-400000.0625,-29306.26953125,-400000.0625,-27855.640625,-400000.0625
11.443227529525757,-400000.0625,-43120.76953125,-29419.4296875,-400000.0625,-29315.240234375,-400000.0625,-27875.279296875,-400000.0625
11.448602199554443,-400000.0625,-43101.51171875,-29394.109375,-400000.0625,-29295.259765625,-400000.0625,-27862.169921875,-400000.0625
11.453818321228027,-400000.0625,-43088.78125,-29376.650390625,-400000.0625,-29282.05078125,-400000.0625,-27854.490234375,-400000.0625
11.4590482711792,-400000.0625,-43097.359375,-29385.279296875,-400000.0625,-29295.970703125,-400000.0625,-27872.140625,-400000.0625
11.463539361953735,-400000.0625,-43117.2890625,-29407.69921875,-400000.0625,-29316.7109375,-400000.0625,-27900.26953125,-400000.0625
11.463549375534058,-400000.0625,-43124.390625,-29415.08984375,-400000.0625,-29329.970703125,-400000.0625,-27918.060546875,-400000.0625
11.46355390548706,-400000.0625,-43106.3203125,-29392.390625,-400000.0625,-29310.470703125,-400000.0625,-27907.900390625,-400000.0625
11.463557720184326,-400000.0625,-43087.62890625,-29371.599609375,-400000.0625,-29285.009765625,-400000.0625,-27894.2109375,-400000.0625
11.463561534881592,-400000.0625,-43099.12109375,-29379.470703125,-400000.0625,-29306.939453125,-400000.0625,-27907.5703125,-400000.0625
11.463565587997437,-400000.0625,-43122.01171875,-29401.119140625,-400000.0625,-29329.16015625,-400000.0625,-27938.990234375,-400000.0625
11.46357011795044,-400000.0625,-43139.3203125,-29416.7109375,-400000.0625,-29337.98046875,-400000.0625,-27961.16015625,-400000.0625
11.463574409484863,-400000.0625,-43116.33984375,-29393.490234375,-400000.0625,-29312.08984375,-400000.0625,-27945.279296875,-400000.0625
