time,ch1,ch2,ch3,ch4,ch5,ch6,ch7,ch8
154.7878293991089,-400000.0625,-42616.66015625,-28122.51953125,-400000.0625,-28023.2890625,-400000.0625,-26068.0703125,-400000.0625
154.80013370513916,-400000.0625,-42625.62109375,-28173.970703125,-400000.0625,-28035.599609375,-400000.0625,-26045.66015625,-400000.0625
154.80554246902466,-400000.0625,-42646.69921875,-28204.400390625,-400000.0625,-28051.0,-400000.0625,-25983.76953125,-400000.0625
154.81096076965332,-400000.0625,-42695.80859375,-28254.509765625,-400000.0625,-28052.91015625,-400000.0625,-25856.779296875,-400000.0625
154.8176622390747,-400000.0625,-42641.12109375,-28176.119140625,-400000.0625,-27995.640625,-400000.0625,-25751.689453125,-400000.0625
154.82281804084778,-400000.0625,-42598.16015625,-28178.080078125,-400000.0625,-27964.359375,-400000.0625,-25628.4296875,-400000.0625
154.82804131507874,-400000.0625,-42666.19921875,-28206.779296875,-400000.0625,-27978.189453125,-400000.0625,-25490.05078125,-400000.0625
154.83479118347168,-400000.0625,-42725.76171875,-28248.359375,-400000.0625,-28014.140625,-400000.0625,-25393.009765625,-400000.0625
154.84215903282166,-400000.0625,-42674.5,-28259.189453125,-400000.0625,-28005.130859375,-400000.0625,-25182.30078125,-400000.0625
154.84998488426208,-400000.0625,-42632.05859375,-28193.140625,-400000.0625,-27943.94921875,-400000.0625,-24986.4609375,-400000.0625
154.85821914672852,-400000.0625,-42587.5703125,-28193.669921875,-400000.0625,-27927.0703125,-400000.0625,-24810.4609375,-400000.0625
154.86512112617493,-400000.0625,-42585.4296875,-28227.05078125,-400000.0625,-27965.259765625,-400000.0625,-24661.16015625,-400000.0625
154.8719024658203,-400000.0625,-42653.609375,-28260.759765625,-400000.0625,-27980.619140625,-400000.0625,-24541.330078125,-400000.0625
154.87795495986938,-400000.0625,-42620.5703125,-28275.58984375,-400000.0625,-27959.830078125,-400000.0625,-24445.19921875,-400000.0625
154.88398599624634,-400000.0625,-42581.66015625,-28244.259765625,-400000.0625,-27916.669921875,-400000.0625,-24341.6796875,-400000.0625
154.88958930969238,-400000.0625,-42555.4296875,-28229.759765625,-400000.0625,-27899.599609375,-400000.0625,-24302.33984375,-400000.0625
154.90075254440308,-400000.0625,-42565.78125,-28250.98046875,-400000.0625,-27912.759765625,-400000.0625,-24323.80078125,-400000.0625
154.90743279457092,-400000.0625,-42575.6484375,-28274.009765625,-400000.0625,-27921.73046875,-400000.0625,-24376.919921875,-400000.0625
154.91310501098633,-400000.0625,-42565.921875,-28272.109375,-400000.0625,-27919.19921875,-400000.0625,-24427.130859375,-400000.0625
154.92194247245789,-400000.0625,-42535.828125,-28244.58984375,-400000.0625,-27890.16015625,-400000.0625,-24462.419921875,-400000.0625
154.92891359329224,-400000.0625,-42510.12890625,-28226.0,-400000.0625,-27888.25,-400000.0625,-24531.419921875,-400000.0625
154.93673729896545,-400000.0625,-42517.140625,-28239.060546875,-400000.0625,-27920.8203125,-400000.0625,-24647.5703125,-400000.0625
154.94319438934326,-400000.0625,-42529.921875,-28255.279296875,-400000.0625,-27947.48046875,-400000.0625,-24766.16015625,-400000.0625
154.95120906829834,-400000.0625,-42515.8984375,-28244.55078125,-400000.0625,-27954.33984375,-400000.0625,-24856.900390625,-400000.0625
154.95669031143188,-400000.0625,-42474.69921875,-28207.01953125,-400000.0625,-27927.830078125,-400000.0625,-24925.94921875,-400000.0625
154.9677131175995,-400000.0625,-42448.5703125,-28188.279296875,-400000.0625,-27929.640625,-400000.0625,-25004.009765625,-400000.0625
154.97561597824097,-400000.0625,-42452.76953125,-28204.640625,-400000.0625,-27980.140625,-400000.0625,-25111.009765625,-400000.0625
154.98421502113342,-400000.0625,-42475.1796875,-28229.720703125,-400000.0625,-28017.330078125,-400000.0625,-25230.740234375,-400000.0625
154.9906153678894,-400000.0625,-42465.30859375,-28224.759765625,-400000.0625,-28028.400390625,-400000.0625,-25307.0390625,-400000.0625
155.005295753479,-400000.0625,-42425.3515625,-28188.66015625,-400000.0625,-28007.69921875,-400000.0625,-25343.75,-400000.0625
155.0117700099945,-400000.0625,-42398.4609375,-28166.349609375,-400000.0625,-28013.189453125,-400000.0625,-25399.400390625,-400000.0625
155.02261400222778,-400000.0625,-42401.98828125,-28176.9296875,-400000.0625,-28056.099609375,-400000.0625,-25482.23046875,-400000.0625
155.03088808059692,-400000.0625,-42419.30078125,-28194.9609375,-400000.0625,-28100.060546875,-400000.0625,-25556.849609375,-400000.0625
155.0375816822052,-400000.0625,-42416.48046875,-28190.94921875,-400000.0625,-28117.849609375,-400000.0625,-25596.48046875,-400000.0625
155.04391360282898,-400000.0625,-42376.08984375,-28154.23046875,-400000.0625,-28096.630859375,-400000.0625,-25603.109375,-400000.0625
155.05242943763733,-400000.0625,-42347.71875,-28131.76953125,-400000.0625,-28092.150390625,-400000.0625,-25628.05078125,-400000.0625
155.06075191497803,-400000.0625,-42355.828125,-28142.41015625,-400000.0625,-28124.91015625,-400000.0625,-25678.919921875,-400000.0625
155.06846714019775,-400000.0625,-42379.71875,-28163.76953125,-400000.0625,-28165.529296875,-400000.0625,-25727.849609375,-400000.0625
155.07624220848083,-400000.0625,-42366.55859375,-28153.419921875,-400000.0625,-28162.8203125,-400000.0625,-25742.150390625,-400000.0625
155.08518505096436,-400000.0625,-42318.30078125,-28106.599609375,-400000.0625,-28134.2109375,-400000.0625,-25719.9296875,-400000.0625
155.09352135658264,-400000.0625,-42297.3203125,-28084.419921875,-400000.0625,-28130.9609375,-400000.0625,-25722.599609375,-400000.0625
155.1074573993683,-400000.0625,-42320.48828125,-28105.640625,-400000.0625,-28169.01953125,-400000.0625,-25761.0390625,-400000.0625
155.11524415016174,-400000.0625,-42345.80859375,-28128.439453125,-400000.0625,-28197.4296875,-400000.0625,-25801.0390625,-400000.0625
155.12298607826233,-400000.0625,-42332.8515625,-28116.900390625,-400000.0625,-28185.419921875,-400000.0625,-25804.810546875,-400000.0625
155.13399386405945,-400000.0625,-42293.21875,-28076.3203125,-400000.0625,-28155.849609375,-400000.0625,-25776.19921875,-400000.0625
155.14129543304443,-400000.0625,-42276.859375,-28058.009765625,-400000.0625,-28152.560546875,-400000.0625,-25771.720703125,-400000.0625
155.14911937713623,-400000.0625,-42294.69921875,-28079.3203125,-400000.0625,-28183.419921875,-400000.0625,-25807.240234375,-400000.0625
155.15654802322388,-400000.0625,-42317.25,-28102.259765625,-400000.0625,-28207.109375,-400000.0625,-25840.48046875,-400000.0625
155.16414165496826,-400000.0625,-42307.23828125,-28091.05078125,-400000.0625,-28201.19921875,-400000.0625,-25839.279296875,-400000.0625
155.1722538471222,-400000.0625,-42267.1796875,-28050.380859375,-400000.0625,-28170.6796875,-400000.0625,-25807.4296875,-400000.0625
155.17972493171692,-400000.0625,-42253.58984375,-28035.0703125,-400000.0625,-28165.060546875,-400000.0625,-25798.470703125,-400000.0625
155.1883668899536,-400000.0625,-42272.328125,-28055.33984375,-400000.0625,-28194.0,-400000.0625,-25830.3203125,-400000.0625
155.19642066955566,-400000.0625,-42296.21875,-28078.609375,-400000.0625,-28227.0,-400000.0625,-25859.169921875,-400000.0625
155.21092224121094,-400000.0625,-42288.171875,-28072.220703125,-400000.0625,-28222.609375,-400000.0625,-25858.5,-400000.0625
155.2176797389984,-400000.0625,-42257.6484375,-28037.7890625,-400000.0625,-28185.1796875,-400000.0625,-25828.080078125,-400000.0625
155.22505354881287,-400000.0625,-42241.19921875,-28020.810546875,-400000.0625,-28178.98046875,-400000.0625,-25819.830078125,-400000.0625
155.23482131958008,-400000.0625,-42256.6015625,-28039.83984375,-400000.0625,-28204.25,-400000.0625,-25843.720703125,-400000.0625
155.24245691299438,-400000.0625,-42281.8203125,-28066.73046875,-400000.0625,-28231.529296875,-400000.0625,-25869.900390625,-400000.0625
155.25123643875122,-400000.0625,-42278.44140625,-28057.859375,-400000.0625,-28224.0390625,-400000.0625,-25867.26953125,-400000.0625
155.259667634964,-400000.0625,-42241.62890625,-28019.240234375,-400000.0625,-28189.23046875,-400000.0625,-25836.759765625,-400000.0625
155.2691445350647,-400000.0625,-42223.4609375,-28004.359375,-400000.0625,-28177.9296875,-400000.0625,-25827.169921875,-400000.0625
155.277352809906,-400000.0625,-42243.05859375,-28026.630859375,-400000.0625,-28203.30078125,-400000.0625,-25849.630859375,-400000.0625
155.28390979766846,-400000.0625,-42269.76171875,-28053.48046875,-400000.0625,-28232.529296875,-400000.0625,-25877.150390625,-400000.0625
155.2920286655426,-400000.0625,-42271.51953125,-28048.08984375,-400000.0625,-28228.720703125,-400000.0625,-25877.240234375,-400000.0625
155.30057787895203,-400000.0625,-42244.30078125,-28013.80078125,-400000.0625,-28195.580078125,-400000.0625,-25845.009765625,-400000.0625
155.3175323009491,-400000.0625,-42231.1796875,-28000.55078125,-400000.0625,-28184.75,-400000.0625,-25835.609375,-400000.0625
155.32511639595032,-400000.0625,-42254.7890625,-28024.25,-400000.0625,-28210.98046875,-400000.0625,-25866.080078125,-400000.0625
155.3334801197052,-400000.0625,-42281.05859375,-28050.380859375,-400000.0625,-28238.5390625,-400000.0625,-25896.4609375,-400000.0625
155.34191966056824,-400000.0625,-42276.9609375,-28043.650390625,-400000.0625,-28230.240234375,-400000.0625,-25892.259765625,-400000.0625
155.35094356536865,-400000.0625,-42243.05859375,-28010.470703125,-400000.0625,-28193.51953125,-400000.0625,-25854.0703125,-400000.0625
155.35908389091492,-400000.0625,-42229.23046875,-27997.779296875,-400000.0625,-28179.4609375,-400000.0625,-25842.529296875,-400000.0625
155.36613607406616,-400000.0625,-42258.55078125,-28019.5703125,-400000.0625,-28207.349609375,-400000.0625,-25873.140625,-400000.0625
155.37388730049133,-400000.0625,-42289.2109375,-28047.900390625,-400000.0625,-28231.619140625,-400000.0625,-25899.560546875,-400000.0625
155.38168501853943,-400000.0625,-42284.58984375,-28043.560546875,-400000.0625,-28221.900390625,-400000.0625,-25894.44921875,-400000.0625
155.39072060585022,-400000.0625,-42249.73046875,-28009.470703125,-400000.0625,-28185.23046875,-400000.0625,-25862.3203125,-400000.0625
155.3975908756256,-400000.0625,-42240.2890625,-27998.44921875,-400000.0625,-28183.609375,-400000.0625,-25850.970703125,-400000.0625
155.40547108650208,-400000.0625,-42265.37109375,-28022.859375,-400000.0625,-28211.119140625,-400000.0625,-25878.580078125,-400000.0625
155.42012238502502,-400000.0625,-42294.078125,-28049.7109375,-400000.0625,-28227.4296875,-400000.0625,-25906.5703125,-400000.0625
155.42809104919434,-400000.0625,-42290.83984375,-28045.560546875,-400000.0625,-28219.560546875,-400000.0625,-25906.330078125,-400000.0625
155.43772077560425,-400000.0625,-42257.26953125,-28009.369140625,-400000.0625,-28185.1796875,-400000.0625,-25878.48046875,-400000.0625
155.44518399238586,-400000.0625,-42247.58984375,-28000.359375,-400000.0625,-28175.259765625,-400000.0625,-25868.23046875,-400000.0625
155.4522430896759,-400000.0625,-42271.80859375,-28025.30078125,-400000.0625,-28201.869140625,-400000.0625,-25893.259765625,-400000.0625
155.46086025238037,-400000.0625,-42302.46875,-28055.05078125,-400000.0625,-28225.380859375,-400000.0625,-25921.869140625,-400000.0625
155.4673638343811,-400000.0625,-42305.8984375,-28054.669921875,-400000.0625,-28220.419921875,-400000.0625,-25919.970703125,-400000.0625
155.47326374053955,-400000.0625,-42274.2890625,-28023.19921875,-400000.0625,-28191.94921875,-400000.0625,-25892.44921875,-400000.0625
155.4817099571228,-400000.0625,-42261.21875,-28007.4609375,-400000.0625,-28184.560546875,-400000.0625,-25878.810546875,-400000.0625
155.49007844924927,-400000.0625,-42285.0703125,-28032.689453125,-400000.0625,-28206.44921875,-400000.0625,-25902.66015625,-400000.0625
155.49765062332153,-400000.0625,-42309.1484375,-28057.91015625,-400000.0625,-28226.470703125,-400000.0625,-25934.3203125,-400000.0625
155.5048382282257,-400000.0625,-42304.08984375,-28052.619140625,-400000.0625,-28218.1796875,-400000.0625,-25926.16015625,-400000.0625
155.51439809799194,-400000.0625,-42275.390625,-28023.060546875,-400000.0625,-28189.51953125,-400000.0625,-25892.119140625,-400000.0625
155.53147315979004,-400000.0625,-42265.7109375,-28011.279296875,-400000.0625,-28179.9296875,-400000.0625,-25891.5,-400000.0625
155.53981375694275,-400000.0625,-42289.30859375,-28035.689453125,-400000.0625,-28207.640625,-400000.0625,-25915.2890625,-400000.0625
155.54830169677734,-400000.0625,-42315.87109375,-28063.490234375,-400000.0625,-28231.0,-400000.0625,-25939.609375,-400000.0625
155.55666780471802,-400000.0625,-42317.01171875,-28058.720703125,-400000.0625,-28225.849609375,-400000.0625,-25936.419921875,-400000.0625
155.5635964870453,-400000.0625,-42286.5,-28025.439453125,-400000.0625,-28197.859375,-400000.0625,-25905.08984375,-400000.0625
155.57348680496216,-400000.0625,-42268.94921875,-28010.900390625,-400000.0625,-28182.69921875,-400000.0625,-25890.830078125,-400000.0625
155.58340859413147,-400000.0625,-42289.640625,-28033.44921875,-400000.0625,-28203.630859375,-400000.0625,-25912.48046875,-400000.0625
155.59194660186768,-400000.0625,-42318.109375,-28062.919921875,-400000.0625,-28230.4296875,-400000.0625,-25940.470703125,-400000.0625
155.60025882720947,-400000.0625,-42313.53125,-28055.9609375,-400000.0625,-28221.7109375,-400000.0625,-25939.1796875,-400000.0625
155.61111116409302,-400000.0625,-42281.87109375,-28023.630859375,-400000.0625,-28190.4296875,-400000.0625,-25904.609375,-400000.0625
155.62013149261475,-400000.0625,-42269.4296875,-28012.849609375,-400000.0625,-28180.939453125,-400000.0625,-25894.599609375,-400000.0625
155.63538694381714,-400000.0625,-42294.6484375,-28035.98046875,-400000.0625,-28208.2109375,-400000.0625,-25918.6796875,-400000.0625
155.64206886291504,-400000.0625,-42323.7890625,-28064.5390625,-400000.0625,-28235.30078125,-400000.0625,-25948.619140625,-400000.0625
155.65111827850342,-400000.0625,-42321.3984375,-28060.529296875,-400000.0625,-28228.189453125,-400000.0625,-25944.5703125,-400000.0625
155.65800189971924,-400000.0625,-42287.44921875,-28024.150390625,-400000.0625,-28189.94921875,-400000.0625,-25907.900390625,-400000.0625
155.66693902015686,-400000.0625,-42271.48046875,-28010.0390625,-400000.0625,-28178.220703125,-400000.0625,-25895.9296875,-400000.0625
155.67426109313965,-400000.0625,-42294.6484375,-28033.310546875,-400000.0625,-28206.689453125,-400000.0625,-25920.970703125,-400000.0625
155.68103194236755,-400000.0625,-42325.7890625,-28060.869140625,-400000.0625,-28232.150390625,-400000.0625,-25949.0,-400000.0625
155.68920755386353,-400000.0625,-42322.828125,-28056.580078125,-400000.0625,-28221.939453125,-400000.0625,-25947.189453125,-400000.0625
155.6959671974182,-400000.0625,-42290.0703125,-28021.859375,-400000.0625,-28183.75,-400000.0625,-25914.4296875,-400000.0625
155.7068395614624,-400000.0625,-42276.9609375,-28008.4609375,-400000.0625,-28172.779296875,-400000.0625,-25900.69921875,-400000.0625
155.71515035629272,-400000.0625,-42297.55859375,-28030.2109375,-400000.0625,-28200.580078125,-400000.0625,-25926.9296875,-400000.0625
155.72111463546753,-400000.0625,-42330.51171875,-28064.109375,-400000.0625,-28232.529296875,-400000.0625,-25956.970703125,-400000.0625
155.7362027168274,-400000.0625,-42332.98828125,-28062.869140625,-400000.0625,-28230.859375,-400000.0625,-25956.5390625,-400000.0625
155.74494123458862,-400000.0625,-42299.98828125,-28028.439453125,-400000.0625,-28195.529296875,-400000.0625,-25925.5390625,-400000.0625
155.75336265563965,-400000.0625,-42285.3984375,-28015.140625,-400000.0625,-28183.560546875,-400000.0625,-25909.51953125,-400000.0625
155.7614176273346,-400000.0625,-42305.19140625,-28036.44921875,-400000.0625,-28207.259765625,-400000.0625,-25934.41015625,-400000.0625
155.76973509788513,-400000.0625,-42340.140625,-28065.830078125,-400000.0625,-28234.33984375,-400000.0625,-25961.44921875,-400000.0625
155.7794063091278,-400000.0625,-42337.7109375,-28061.919921875,-400000.0625,-28226.619140625,-400000.0625,-25956.16015625,-400000.0625
155.7901701927185,-400000.0625,-42303.140625,-28028.919921875,-400000.0625,-28192.5703125,-400000.0625,-25923.880859375,-400000.0625
155.79939723014832,-400000.0625,-42288.26171875,-28015.94921875,-400000.0625,-28179.509765625,-400000.0625,-25912.619140625,-400000.0625
155.80665588378906,-400000.0625,-42318.3515625,-28041.26953125,-400000.0625,-28200.73046875,-400000.0625,-25939.3203125,-400000.0625
155.81417202949524,-400000.0625,-42348.48828125,-28069.2109375,-400000.0625,-28225.94921875,-400000.0625,-25966.650390625,-400000.0625
155.8197512626648,-400000.0625,-42351.3515625,-28069.119140625,-400000.0625,-28222.419921875,-400000.0625,-25966.55078125,-400000.0625
155.827303647995,-400000.0625,-42321.44921875,-28036.83984375,-400000.0625,-28187.279296875,-400000.0625,-25937.1796875,-400000.0625
155.84144735336304,-400000.0625,-42306.94921875,-28023.580078125,-400000.0625,-28179.26953125,-400000.0625,-25923.830078125,-400000.0625
155.8491494655609,-400000.0625,-42326.41015625,-28047.609375,-400000.0625,-28205.259765625,-400000.0625,-25950.529296875,-400000.0625
155.8576784133911,-400000.0625,-42358.12109375,-28077.560546875,-400000.0625,-28234.099609375,-400000.0625,-25978.0390625,-400000.0625
155.8652744293213,-400000.0625,-42364.4609375,-28078.419921875,-400000.0625,-28229.91015625,-400000.0625,-25976.51953125,-400000.0625
155.87336921691895,-400000.0625,-42346.53125,-28045.990234375,-400000.0625,-28196.150390625,-400000.0625,-25957.109375,-400000.0625
155.88204884529114,-400000.0625,-42332.75,-28030.6796875,-400000.0625,-28183.26953125,-400000.0625,-25942.51953125,-400000.0625
155.89166975021362,-400000.0625,-42345.390625,-28057.630859375,-400000.0625,-28199.25,-400000.0625,-25951.669921875,-400000.0625
155.90079855918884,-400000.0625,-42383.1484375,-28096.630859375,-400000.0625,-28223.990234375,-400000.0625,-25983.05078125,-400000.0625
155.90905737876892,-400000.0625,-42394.26171875,-28098.73046875,-400000.0625,-28223.470703125,-400000.0625,-25986.48046875,-400000.0625
155.91783714294434,-400000.0625,-42364.03125,-28071.119140625,-400000.0625,-28187.609375,-400000.0625,-25947.759765625,-400000.0625
155.92545533180237,-400000.0625,-42370.75,-28072.0703125,-400000.0625,-28179.029296875,-400000.0625,-25935.939453125,-400000.0625
155.9337751865387,-400000.0625,-42415.91015625,-28109.69921875,-400000.0625,-28213.9296875,-400000.0625,-25961.58984375,-400000.0625
155.95168805122375,-400000.0625,-42459.01953125,-28154.380859375,-400000.0625,-28236.919921875,-400000.0625,-25988.529296875,-400000.0625
155.95913577079773,-400000.0625,-42475.421875,-28167.060546875,-400000.0625,-28235.869140625,-400000.0625,-25990.349609375,-400000.0625
155.97042036056519,-400000.0625,-42456.5390625,-28145.359375,-400000.0625,-28190.759765625,-400000.0625,-25953.73046875,-400000.0625
155.97866678237915,-400000.0625,-42456.5390625,-28142.689453125,-400000.0625,-28176.169921875,-400000.0625,-25943.189453125,-400000.0625
155.98968195915222,-400000.0625,-42501.21875,-28180.509765625,-400000.0625,-28208.259765625,-400000.0625,-25966.9296875,-400000.0625
156.00227284431458,-400000.0625,-42543.51171875,-28225.0390625,-400000.0625,-28238.490234375,-400000.0625,-25994.970703125,-400000.0625
156.0099115371704,-400000.0625,-42551.19140625,-28231.099609375,-400000.0625,-28234.439453125,-400000.0625,-25986.9609375,-400000.0625
156.01718878746033,-400000.0625,-42529.6796875,-28206.689453125,-400000.0625,-28196.2890625,-400000.0625,-25953.8203125,-400000.0625
156.02461671829224,-400000.0625,-42538.55078125,-28203.30078125,-400000.0625,-28181.990234375,-400000.0625,-25948.619140625,-400000.0625
156.03211402893066,-400000.0625,-42560.76953125,-28228.2890625,-400000.0625,-28199.630859375,-400000.0625,-25967.509765625,-400000.0625
156.04170393943787,-400000.0625,-42595.25,-28264.380859375,-400000.0625,-28230.150390625,-400000.0625,-25990.8203125,-400000.0625
156.05860447883606,-400000.0625,-42605.2109375,-28273.400390625,-400000.0625,-28228.48046875,-400000.0625,-25994.830078125,-400000.0625
156.0656111240387,-400000.0625,-42582.609375,-28244.310546875,-400000.0625,-28188.80078125,-400000.0625,-25957.2109375,-400000.0625
156.07409834861755,-400000.0625,-42567.0703125,-28232.8203125,-400000.0625,-28180.080078125,-400000.0625,-25938.470703125,-400000.0625
156.08220314979553,-400000.0625,-42593.01171875,-28265.099609375,-400000.0625,-28206.830078125,-400000.0625,-25965.7890625,-400000.0625
156.0892457962036,-400000.0625,-42636.640625,-28296.859375,-400000.0625,-28239.439453125,-400000.0625,-25994.970703125,-400000.0625
156.09617638587952,-400000.0625,-42630.44140625,-28288.609375,-400000.0625,-28228.0,-400000.0625,-25993.490234375,-400000.0625
156.10310864448547,-400000.0625,-42596.62890625,-28253.1796875,-400000.0625,-28194.2890625,-400000.0625,-25958.970703125,-400000.0625
156.1092345714569,-400000.0625,-42580.55859375,-28239.6796875,-400000.0625,-28184.419921875,-400000.0625,-25942.380859375,-400000.0625
156.11745357513428,-400000.0625,-42595.921875,-28260.23046875,-400000.0625,-28210.2109375,-400000.0625,-25959.779296875,-400000.0625
156.1247820854187,-400000.0625,-42618.51953125,-28285.83984375,-400000.0625,-28233.630859375,-400000.0625,-25985.91015625,-400000.0625
156.132807970047,-400000.0625,-42616.7109375,-28285.4609375,-400000.0625,-28232.529296875,-400000.0625,-25982.669921875,-400000.0625
156.14097785949707,-400000.0625,-42583.23046875,-28250.890625,-400000.0625,-28199.9609375,-400000.0625,-25952.25,-400000.0625
156.1484477519989,-400000.0625,-42561.62890625,-28229.720703125,-400000.0625,-28179.26953125,-400000.0625,-25939.3203125,-400000.0625
156.1630082130432,-400000.0625,-42585.328125,-28252.1796875,-400000.0625,-28210.119140625,-400000.0625,-25955.19921875,-400000.0625
156.1727170944214,-400000.0625,-42615.98828125,-28279.16015625,-400000.0625,-28237.25,-400000.0625,-25982.05078125,-400000.0625
156.18079662322998,-400000.0625,-42609.078125,-28274.400390625,-400000.0625,-28227.189453125,-400000.0625,-25981.48046875,-400000.0625
156.18911409378052,-400000.0625,-42577.12890625,-28242.2109375,-400000.0625,-28194.2890625,-400000.0625,-25946.240234375,-400000.0625
156.19728779792786,-400000.0625,-42562.30078125,-28227.759765625,-400000.0625,-28186.990234375,-400000.0625,-25933.4609375,-400000.0625
156.2073404788971,-400000.0625,-42584.51953125,-28250.359375,-400000.0625,-28207.5,-400000.0625,-25958.490234375,-400000.0625
156.2174301147461,-400000.0625,-42613.03125,-28275.349609375,-400000.0625,-28230.859375,-400000.0625,-25987.19921875,-400000.0625
156.22609496116638,-400000.0625,-42609.359375,-28269.720703125,-400000.0625,-28227.189453125,-400000.0625,-25988.76953125,-400000.0625
156.23479652404785,-400000.0625,-42578.890625,-28236.109375,-400000.0625,-28199.6796875,-400000.0625,-25953.8203125,-400000.0625
156.2429895401001,-400000.0625,-42559.19921875,-28220.75,-400000.0625,-28186.560546875,-400000.0625,-25937.560546875,-400000.0625
156.2521698474884,-400000.0625,-42584.140625,-28245.740234375,-400000.0625,-28212.259765625,-400000.0625,-25959.400390625,-400000.0625
156.26786041259766,-400000.0625,-42615.1796875,-28273.19921875,-400000.0625,-28240.25,-400000.0625,-25984.720703125,-400000.0625
156.2760751247406,-400000.0625,-42611.03125,-28270.529296875,-400000.0625,-28231.9609375,-400000.0625,-25982.099609375,-400000.0625
156.284517288208,-400000.0625,-42580.66015625,-28237.060546875,-400000.0625,-28198.2890625,-400000.0625,-25948.9609375,-400000.0625
156.2927074432373,-400000.0625,-42562.8203125,-28219.66015625,-400000.0625,-28183.69921875,-400000.0625,-25934.509765625,-400000.0625
156.2996380329132,-400000.0625,-42585.23046875,-28243.640625,-400000.0625,-28208.01953125,-400000.0625,-25959.01953125,-400000.0625
156.30668544769287,-400000.0625,-42612.41015625,-28270.529296875,-400000.0625,-28233.009765625,-400000.0625,-25989.9609375,-400000.0625
156.3136556148529,-400000.0625,-42612.75,-28270.099609375,-400000.0625,-28232.099609375,-400000.0625,-25986.9609375,-400000.0625
156.32221174240112,-400000.0625,-42577.69921875,-28235.9609375,-400000.0625,-28196.76953125,-400000.0625,-25958.060546875,-400000.0625
156.32993578910828,-400000.0625,-42563.87109375,-28221.990234375,-400000.0625,-28182.75,-400000.0625,-25939.939453125,-400000.0625
156.33889651298523,-400000.0625,-42585.4296875,-28245.640625,-400000.0625,-28205.779296875,-400000.0625,-25959.689453125,-400000.0625
156.34547805786133,-400000.0625,-42616.28125,-28273.30078125,-400000.0625,-28233.25,-400000.0625,-25989.109375,-400000.0625
156.35416841506958,-400000.0625,-42615.1796875,-28269.869140625,-400000.0625,-28226.900390625,-400000.0625,-25987.9609375,-400000.0625
156.36768293380737,-400000.0625,-42580.23046875,-28234.060546875,-400000.0625,-28192.619140625,-400000.0625,-25952.580078125,-400000.0625
156.37433695793152,-400000.0625,-42566.3515625,-28218.560546875,-400000.0625,-28177.55078125,-400000.0625,-25941.1796875,-400000.0625
156.38235759735107,-400000.0625,-42599.25,-28241.689453125,-400000.0625,-28203.6796875,-400000.0625,-25965.5,-400000.0625
156.38836312294006,-400000.0625,-42625.05078125,-28267.33984375,-400000.0625,-28233.33984375,-400000.0625,-25985.8203125,-400000.0625
156.39450478553772,-400000.0625,-42615.609375,-28271.30078125,-400000.0625,-28225.23046875,-400000.0625,-25971.990234375,-400000.0625
156.40215158462524,-400000.0625,-42589.76171875,-28247.359375,-400000.0625,-28192.140625,-400000.0625,-25930.0703125,-400000.0625
156.4088099002838,-400000.0625,-42579.94140625,-28244.830078125,-400000.0625,-28183.75,-400000.0625,-25910.189453125,-400000.0625
156.41424322128296,-400000.0625,-42617.66015625,-28278.16015625,-400000.0625,-28206.689453125,-400000.0625,-25933.890625,-400000.0625
156.4202754497528,-400000.0625,-42657.23828125,-28311.5390625,-400000.0625,-28234.91015625,-400000.0625,-25947.91015625,-400000.0625
156.42536544799805,-400000.0625,-42656.140625,-28320.080078125,-400000.0625,-28231.48046875,-400000.0625,-25931.029296875,-400000.0625
156.4317228794098,-400000.0625,-42624.71875,-28297.48046875,-400000.0625,-28202.390625,-400000.0625,-25885.919921875,-400000.0625
156.43956780433655,-400000.0625,-42607.12109375,-28286.169921875,-400000.0625,-28190.0,-400000.0625,-25865.650390625,-400000.0625
156.44626665115356,-400000.0625,-42638.16015625,-28312.73046875,-400000.0625,-28212.359375,-400000.0625,-25887.439453125,-400000.0625
156.45472812652588,-400000.0625,-42670.2109375,-28345.869140625,-400000.0625,-28245.640625,-400000.0625,-25908.4296875,-400000.0625
156.46739792823792,-400000.0625,-42668.16015625,-28347.109375,-400000.0625,-28243.55078125,-400000.0625,-25900.990234375,-400000.0625
156.47268867492676,-400000.0625,-42636.48828125,-28314.0703125,-400000.0625,-28207.5,-400000.0625,-25870.51953125,-400000.0625
156.47913026809692,-400000.0625,-42617.76171875,-28296.859375,-400000.0625,-28193.05078125,-400000.0625,-25859.5,-400000.0625
156.48640775680542,-400000.0625,-42634.640625,-28317.359375,-400000.0625,-28216.83984375,-400000.0625,-25877.810546875,-400000.0625
156.4932668209076,-400000.0625,-42667.19921875,-28348.5390625,-400000.0625,-28246.259765625,-400000.0625,-25902.3203125,-400000.0625
156.50115036964417,-400000.0625,-42664.1015625,-28345.640625,-400000.0625,-28241.970703125,-400000.0625,-25899.650390625,-400000.0625
156.50798678398132,-400000.0625,-42628.390625,-28312.01953125,-400000.0625,-28206.400390625,-400000.0625,-25865.130859375,-400000.0625
156.51325821876526,-400000.0625,-42614.66015625,-28298.240234375,-400000.0625,-28192.08984375,-400000.0625,-25849.919921875,-400000.0625
156.51920318603516,-400000.0625,-42634.73046875,-28320.939453125,-400000.0625,-28216.990234375,-400000.0625,-25873.380859375,-400000.0625
156.52433443069458,-400000.0625,-42665.05859375,-28351.259765625,-400000.0625,-28246.83984375,-400000.0625,-25900.69921875,-400000.0625
156.53000807762146,-400000.0625,-42667.8203125,-28351.259765625,-400000.0625,-28237.6796875,-400000.0625,-25902.890625,-400000.0625
156.5363268852234,-400000.0625,-42634.6796875,-28318.55078125,-400000.0625,-28205.44921875,-400000.0625,-25868.849609375,-400000.0625
156.54337072372437,-400000.0625,-42616.7109375,-28299.91015625,-400000.0625,-28195.580078125,-400000.0625,-25853.830078125,-400000.0625
156.5494782924652,-400000.0625,-42638.640625,-28320.75,-400000.0625,-28215.26953125,-400000.0625,-25873.7109375,-400000.0625
156.55477142333984,-400000.0625,-42669.48828125,-28352.310546875,-400000.0625,-28243.970703125,-400000.0625,-25899.26953125,-400000.0625
156.56738185882568,-400000.0625,-42669.48828125,-28351.2109375,-400000.0625,-28240.109375,-400000.0625,-25895.5,-400000.0625
156.57343077659607,-400000.0625,-42638.0703125,-28315.9296875,-400000.0625,-28204.779296875,-400000.0625,-25865.26953125,-400000.0625
156.5796844959259,-400000.0625,-42622.48046875,-28299.859375,-400000.0625,-28193.140625,-400000.0625,-25848.580078125,-400000.0625
156.58725905418396,-400000.0625,-42641.9296875,-28321.130859375,-400000.0625,-28217.4609375,-400000.0625,-25870.0390625,-400000.0625
156.59312868118286,-400000.0625,-42667.05859375,-28347.2109375,-400000.0625,-28241.490234375,-400000.0625,-25893.310546875,-400000.0625
156.59895372390747,-400000.0625,-42663.1484375,-28346.73046875,-400000.0625,-28238.8203125,-400000.0625,-25889.259765625,-400000.0625
156.60477328300476,-400000.0625,-42634.3515625,-28314.2109375,-400000.0625,-28209.55078125,-400000.0625,-25858.359375,-400000.0625
156.61082315444946,-400000.0625,-42619.5703125,-28299.0,-400000.0625,-28192.619140625,-400000.0625,-25847.529296875,-400000.0625
156.61723971366882,-400000.0625,-42637.44921875,-28320.3203125,-400000.0625,-28212.880859375,-400000.0625,-25867.3203125,-400000.0625
156.62311577796936,-400000.0625,-42669.3515625,-28350.880859375,-400000.0625,-28243.55078125,-400000.0625,-25894.740234375,-400000.0625
156.63198447227478,-400000.0625,-42671.921875,-28350.689453125,-400000.0625,-28239.6796875,-400000.0625,-25893.880859375,-400000.0625
156.63837218284607,-400000.0625,-42636.3515625,-28315.599609375,-400000.0625,-28204.30078125,-400000.0625,-25863.83984375,-400000.0625
156.6442904472351,-400000.0625,-42620.0390625,-28301.0,-400000.0625,-28193.5703125,-400000.0625,-25847.30078125,-400000.0625
156.65078616142273,-400000.0625,-42641.21875,-28325.75,-400000.0625,-28219.1796875,-400000.0625,-25867.69921875,-400000.0625
156.6580150127411,-400000.0625,-42669.3984375,-28353.41015625,-400000.0625,-28249.41015625,-400000.0625,-25896.69921875,-400000.0625
156.67040729522705,-400000.0625,-42675.0703125,-28352.310546875,-400000.0625,-28244.640625,-400000.0625,-25895.9296875,-400000.0625
156.6783537864685,-400000.0625,-42640.0703125,-28315.640625,-400000.0625,-28202.16015625,-400000.0625,-25865.029296875,-400000.0625
156.68532514572144,-400000.0625,-42623.859375,-28301.580078125,-400000.0625,-28188.990234375,-400000.0625,-25848.150390625,-400000.0625
156.69117712974548,-400000.0625,-42647.80078125,-28328.609375,-400000.0625,-28217.26953125,-400000.0625,-25871.470703125,-400000.0625
156.69737839698792,-400000.0625,-42678.83984375,-28356.169921875,-400000.0625,-28244.259765625,-400000.0625,-25901.849609375,-400000.0625
156.70461535453796,-400000.0625,-42679.41015625,-28353.359375,-400000.0625,-28236.919921875,-400000.0625,-25898.26953125,-400000.0625
156.7102072238922,-400000.0625,-42642.6015625,-28321.83984375,-400000.0625,-28203.109375,-400000.0625,-25861.9296875,-400000.0625
156.71633958816528,-400000.0625,-42627.62890625,-28309.009765625,-400000.0625,-28193.48046875,-400000.0625,-25849.76953125,-400000.0625
156.7242202758789,-400000.0625,-42648.75,-28331.7109375,-400000.0625,-28221.560546875,-400000.0625,-25873.619140625,-400000.0625
156.73133182525635,-400000.0625,-42676.6015625,-28360.080078125,-400000.0625,-28247.220703125,-400000.0625,-25898.650390625,-400000.0625
156.73919415473938,-400000.0625,-42678.98046875,-28361.609375,-400000.0625,-28246.83984375,-400000.0625,-25897.220703125,-400000.0625
156.74459671974182,-400000.0625,-42642.4609375,-28325.080078125,-400000.0625,-28207.259765625,-400000.0625,-25863.7890625,-400000.0625
156.75274395942688,-400000.0625,-42627.76953125,-28312.01953125,-400000.0625,-28194.529296875,-400000.0625,-25848.630859375,-400000.0625
156.75935578346252,-400000.0625,-42649.23046875,-28332.51953125,-400000.0625,-28217.80078125,-400000.0625,-25870.0390625,-400000.0625
156.77347111701965,-400000.0625,-42676.640625,-28357.650390625,-400000.0625,-28247.55078125,-400000.0625,-25899.220703125,-400000.0625
156.7835283279419,-400000.0625,-42673.78125,-28355.3203125,-400000.0625,-28242.2109375,-400000.0625,-25897.650390625,-400000.0625
156.79123163223267,-400000.0625,-42640.30859375,-28322.029296875,-400000.0625,-28201.060546875,-400000.0625,-25863.75,-400000.0625
156.7986445426941,-400000.0625,-42621.37890625,-28302.720703125,-400000.0625,-28188.900390625,-400000.0625,-25848.19921875,-400000.0625
156.80511713027954,-400000.0625,-42643.171875,-28327.51953125,-400000.0625,-28216.3203125,-400000.0625,-25871.08984375,-400000.0625
156.81061553955078,-400000.0625,-42677.03125,-28358.69921875,-400000.0625,-28244.0703125,-400000.0625,-25899.939453125,-400000.0625
156.81815004348755,-400000.0625,-42677.30859375,-28358.029296875,-400000.0625,-28239.060546875,-400000.0625,-25897.55078125,-400000.0625
156.82442665100098,-400000.0625,-42644.83984375,-28324.939453125,-400000.0625,-28210.0703125,-400000.0625,-25863.220703125,-400000.0625
156.82984566688538,-400000.0625,-42627.1484375,-28308.009765625,-400000.0625,-28194.140625,-400000.0625,-25848.19921875,-400000.0625
156.8353385925293,-400000.0625,-42645.94140625,-28329.380859375,-400000.0625,-28215.69921875,-400000.0625,-25869.470703125,-400000.0625
156.8411271572113,-400000.0625,-42674.01953125,-28355.98046875,-400000.0625,-28239.919921875,-400000.0625,-25899.029296875,-400000.0625
156.8462951183319,-400000.0625,-42677.6484375,-28356.029296875,-400000.0625,-28242.689453125,-400000.0625,-25898.130859375,-400000.0625
156.85486221313477,-400000.0625,-42637.16015625,-28319.650390625,-400000.0625,-28203.8203125,-400000.0625,-25866.1796875,-400000.0625
156.86424016952515,-400000.0625,-42621.19140625,-28304.720703125,-400000.0625,-28188.23046875,-400000.0625,-25850.109375,-400000.0625
156.8783187866211,-400000.0625,-42641.55078125,-28323.990234375,-400000.0625,-28221.23046875,-400000.0625,-25867.509765625,-400000.0625
156.88602018356323,-400000.0625,-42670.05859375,-28357.41015625,-400000.0625,-28253.1796875,-400000.0625,-25892.7890625,-400000.0625
156.89298605918884,-400000.0625,-42675.171875,-28355.4609375,-400000.0625,-28239.779296875,-400000.0625,-25896.220703125,-400000.0625
156.90053391456604,-400000.0625,-42640.5,-28321.7890625,-400000.0625,-28207.970703125,-400000.0625,-25862.169921875,-400000.0625
156.90695786476135,-400000.0625,-42625.671875,-28308.439453125,-400000.0625,-28195.48046875,-400000.0625,-25845.150390625,-400000.0625
156.91311120986938,-400000.0625,-42646.26953125,-28327.330078125,-400000.0625,-28211.640625,-400000.0625,-25868.1796875,-400000.0625
156.91967487335205,-400000.0625,-42666.5390625,-28352.310546875,-400000.0625,-28240.73046875,-400000.0625,-25890.2109375,-400000.0625
156.92656350135803,-400000.0625,-42663.44140625,-28346.58984375,-400000.0625,-28234.2890625,-400000.0625,-25883.390625,-400000.0625
156.93392276763916,-400000.0625,-42633.73046875,-28312.640625,-400000.0625,-28199.9609375,-400000.0625,-25851.16015625,-400000.0625
156.93948411941528,-400000.0625,-42616.37109375,-28303.720703125,-400000.0625,-28194.140625,-400000.0625,-25838.380859375,-400000.0625
156.94468450546265,-400000.0625,-42638.828125,-28325.3203125,-400000.0625,-28212.259765625,-400000.0625,-25861.4609375,-400000.0625
156.95212483406067,-400000.0625,-42672.44921875,-28356.26953125,-400000.0625,-28241.490234375,-400000.0625,-25892.740234375,-400000.0625
156.96044182777405,-400000.0625,-42669.87109375,-28353.41015625,-400000.0625,-28238.400390625,-400000.0625,-25891.349609375,-400000.0625
156.96876311302185,-400000.0625,-42638.16015625,-28319.26953125,-400000.0625,-28204.25,-400000.0625,-25856.0703125,-400000.0625
156.98352694511414,-400000.0625,-42617.28125,-28300.5703125,-400000.0625,-28187.23046875,-400000.0625,-25840.859375,-400000.0625
156.99047136306763,-400000.0625,-42633.44140625,-28319.98046875,-400000.0625,-28210.119140625,-400000.0625,-25865.650390625,-400000.0625
156.99615359306335,-400000.0625,-42667.01171875,-28353.169921875,-400000.0625,-28238.490234375,-400000.0625,-25892.0703125,-400000.0625
157.0052833557129,-400000.0625,-42667.3515625,-28354.26953125,-400000.0625,-28233.33984375,-400000.0625,-25887.490234375,-400000.0625
157.0131061077118,-400000.0625,-42626.9609375,-28315.259765625,-400000.0625,-28200.25,-400000.0625,-25851.919921875,-400000.0625
157.02019548416138,-400000.0625,-42610.03125,-28295.51953125,-400000.0625,-28183.3203125,-400000.0625,-25831.1796875,-400000.0625
157.0255868434906,-400000.0625,-42631.921875,-28320.359375,-400000.0625,-28208.16015625,-400000.0625,-25855.58984375,-400000.0625
157.03131222724915,-400000.0625,-42667.25,-28354.4609375,-400000.0625,-28246.7890625,-400000.0625,-25888.259765625,-400000.0625
157.0369417667389,-400000.0625,-42669.16015625,-28350.830078125,-400000.0625,-28235.109375,-400000.0625,-25887.5390625,-400000.0625
157.04237985610962,-400000.0625,-42630.62890625,-28315.169921875,-400000.0625,-28200.490234375,-400000.0625,-25851.439453125,-400000.0625
157.0496301651001,-400000.0625,-42613.23046875,-28301.76953125,-400000.0625,-28186.1796875,-400000.0625,-25840.94921875,-400000.0625
157.05668354034424,-400000.0625,-42635.2109375,-28325.0390625,-400000.0625,-28209.169921875,-400000.0625,-25861.69921875,-400000.0625
157.06203436851501,-400000.0625,-42659.140625,-28351.01953125,-400000.0625,-28236.580078125,-400000.0625,-25885.869140625,-400000.0625
157.07126903533936,-400000.0625,-42656.62109375,-28348.640625,-400000.0625,-28231.4296875,-400000.0625,-25885.16015625,-400000.0625
157.0841772556305,-400000.0625,-42628.71875,-28317.44921875,-400000.0625,-28201.9609375,-400000.0625,-25853.2109375,-400000.0625
157.09041118621826,-400000.0625,-42611.41015625,-28299.810546875,-400000.0625,-28190.0,-400000.0625,-25836.80078125,-400000.0625
157.09781670570374,-400000.0625,-42634.6796875,-28324.939453125,-400000.0625,-28217.75,-400000.0625,-25862.26953125,-400000.0625
157.10276865959167,-400000.0625,-42671.73046875,-28359.26953125,-400000.0625,-28250.98046875,-400000.0625,-25892.740234375,-400000.0625
157.10277938842773,-400000.0625,-42666.9609375,-28347.5390625,-400000.0625,-28238.400390625,-400000.0625,-25894.0703125,-400000.0625
157.10278344154358,-400000.0625,-42614.80078125,-28302.76953125,-400000.0625,-28192.189453125,-400000.0625,-25864.3203125,-400000.0625
157.10278749465942,-400000.0625,-42588.671875,-28283.7890625,-400000.0625,-28178.55078125,-400000.0625,-25850.439453125,-400000.0625
157.10279154777527,-400000.0625,-42608.55078125,-28304.390625,-400000.0625,-28202.8203125,-400000.0625,-25876.91015625,-400000.0625
157.1027956008911,-400000.0625,-42635.640625,-28327.51953125,-400000.0625,-28230.05078125,-400000.0625,-25904.66015625,-400000.0625
157.10279989242554,-400000.0625,-42632.8203125,-28324.69921875,-400000.0625,-28226.759765625,-400000.0625,-25904.990234375,-400000.0625
157.1028037071228,-400000.0625,-42595.01171875,-28289.849609375,-400000.0625,-28189.470703125,-400000.0625,-25872.810546875,-400000.0625
157.1028070449829,-400000.0625,-42574.69921875,-28272.73046875,-400000.0625,-28183.80078125,-400000.0625,-25861.4609375,-400000.0625
157.1028106212616,-400000.0625,-42597.390625,-28296.0390625,-400000.0625,-28208.44921875,-400000.0625,-25879.720703125,-400000.0625
157.10281419754028,-400000.0625,-42635.16015625,-28328.470703125,-400000.0625,-28239.490234375,-400000.0625,-25909.4296875,-400000.0625
157.1028184890747,-400000.0625,-42633.16015625,-28323.509765625,-400000.0625,-28229.05078125,-400000.0625,-25909.859375,-400000.0625
157.10282182693481,-400000.0625,-42596.1484375,-28289.080078125,-400000.0625,-28195.33984375,-400000.0625,-25875.380859375,-400000.0625
157.10282516479492,-400000.0625,-42586.46875,-28277.830078125,-400000.0625,-28187.23046875,-400000.0625,-25860.599609375,-400000.0625
157.10800743103027,-400000.0625,-42604.12109375,-28297.380859375,-400000.0625,-28205.490234375,-400000.0625,-25885.060546875,-400000.0625
157.11326456069946,-400000.0625,-42627.390625,-28322.509765625,-400000.0625,-28230.619140625,-400000.0625,-25914.240234375,-400000.0625
157.12099766731262,-400000.0625,-42629.44140625,-28321.650390625,-400000.0625,-28227.05078125,-400000.0625,-25910.08984375,-400000.0625
157.12752270698547,-400000.0625,-42599.640625,-28290.130859375,-400000.0625,-28195.580078125,-400000.0625,-25874.669921875,-400000.0625
157.13551139831543,-400000.0625,-42581.1796875,-28270.630859375,-400000.0625,-28183.419921875,-400000.0625,-25858.359375,-400000.0625
157.1426284313202,-400000.0625,-42597.8203125,-28290.849609375,-400000.0625,-28205.919921875,-400000.0625,-25876.669921875,-400000.0625
157.14917039871216,-400000.0625,-42629.91015625,-28321.890625,-400000.0625,-28234.76953125,-400000.0625,-25907.759765625,-400000.0625
157.1545445919037,-400000.0625,-42627.671875,-28320.890625,-400000.0625,-28230.48046875,-400000.0625,-25905.23046875,-400000.0625
157.16034364700317,-400000.0625,-42590.9609375,-28285.220703125,-400000.0625,-28192.810546875,-400000.0625,-25866.509765625,-400000.0625
157.1670777797699,-400000.0625,-42570.69140625,-28264.380859375,-400000.0625,-28174.689453125,-400000.0625,-25851.349609375,-400000.0625
157.1736261844635,-400000.0625,-42587.62109375,-28283.0703125,-400000.0625,-28195.9609375,-400000.0625,-25874.7109375,-400000.0625
157.18565154075623,-400000.0625,-42620.51953125,-28314.0703125,-400000.0625,-28227.380859375,-400000.0625,-25901.609375,-400000.0625
157.19186735153198,-400000.0625,-42627.671875,-28320.509765625,-400000.0625,-28228.0,-400000.0625,-25905.560546875,-400000.0625
157.19783639907837,-400000.0625,-42600.87890625,-28291.369140625,-400000.0625,-28194.189453125,-400000.0625,-25876.669921875,-400000.0625
157.20337963104248,-400000.0625,-42582.46875,-28271.630859375,-400000.0625,-28176.640625,-400000.0625,-25857.740234375,-400000.0625
157.20906329154968,-400000.0625,-42600.2109375,-28291.23046875,-400000.0625,-28202.630859375,-400000.0625,-25877.91015625,-400000.0625
157.21878027915955,-400000.0625,-42627.44140625,-28317.0703125,-400000.0625,-28227.279296875,-400000.0625,-25904.3203125,-400000.0625
157.224627494812,-400000.0625,-42628.578125,-28317.7890625,-400000.0625,-28223.7109375,-400000.0625,-25903.609375,-400000.0625
157.23101949691772,-400000.0625,-42601.109375,-28290.560546875,-400000.0625,-28194.0,-400000.0625,-25874.470703125,-400000.0625
157.237877368927,-400000.0625,-42581.66015625,-28273.919921875,-400000.0625,-28178.5,-400000.0625,-25855.400390625,-400000.0625
157.2448124885559,-400000.0625,-42599.30078125,-28292.75,-400000.0625,-28200.439453125,-400000.0625,-25874.619140625,-400000.0625
157.25224900245667,-400000.0625,-42633.62890625,-28325.66015625,-400000.0625,-28237.439453125,-400000.0625,-25906.51953125,-400000.0625
157.25823163986206,-400000.0625,-42639.7890625,-28327.7109375,-400000.0625,-28233.869140625,-400000.0625,-25912.759765625,-400000.0625
157.26415705680847,-400000.0625,-42607.21875,-28293.759765625,-400000.0625,-28189.23046875,-400000.0625,-25876.48046875,-400000.0625
157.27164244651794,-400000.0625,-42587.328125,-28273.970703125,-400000.0625,-28170.640625,-400000.0625,-25857.2109375,-400000.0625
157.27785110473633,-400000.0625,-42605.5,-28292.0390625,-400000.0625,-28188.380859375,-400000.0625,-25880.91015625,-400000.0625
157.29137754440308,-400000.0625,-42640.7890625,-28324.66015625,-400000.0625,-28221.80078125,-400000.0625,-25915.669921875,-400000.0625
157.2997808456421,-400000.0625,-42646.69921875,-28331.470703125,-400000.0625,-28225.759765625,-400000.0625,-25920.439453125,-400000.0625
157.3066644668579,-400000.0625,-42620.5703125,-28301.810546875,-400000.0625,-28191.05078125,-400000.0625,-25888.16015625,-400000.0625
157.31347966194153,-400000.0625,-42608.9296875,-28283.7890625,-400000.0625,-28172.9296875,-400000.0625,-25871.470703125,-400000.0625
157.3215913772583,-400000.0625,-42643.359375,-28307.060546875,-400000.0625,-28201.869140625,-400000.0625,-25889.259765625,-400000.0625
157.3288905620575,-400000.0625,-42679.83984375,-28330.94921875,-400000.0625,-28226.279296875,-400000.0625,-25930.029296875,-400000.0625
157.33617329597473,-400000.0625,-42664.1015625,-28332.48046875,-400000.0625,-28209.7890625,-400000.0625,-25953.060546875,-400000.0625
157.34211134910583,-400000.0625,-42621.76171875,-28290.990234375,-400000.0625,-28164.91015625,-400000.0625,-25933.69921875,-400000.0625
157.35074138641357,-400000.0625,-42596.76953125,-28266.05078125,-400000.0625,-28144.359375,-400000.0625,-25928.44921875,-400000.0625
157.35650157928467,-400000.0625,-42607.73828125,-28276.640625,-400000.0625,-28156.0,-400000.0625,-25960.830078125,-400000.0625
157.36394214630127,-400000.0625,-42635.109375,-28294.759765625,-400000.0625,-28181.029296875,-400000.0625,-26016.669921875,-400000.0625
157.37168335914612,-400000.0625,-42636.921875,-28291.279296875,-400000.0625,-28169.919921875,-400000.0625,-26047.189453125,-400000.0625
157.37856912612915,-400000.0625,-42602.96875,-28246.640625,-400000.0625,-28123.240234375,-400000.0625,-26034.640625,-400000.0625
157.3928427696228,-400000.0625,-42579.69921875,-28212.310546875,-400000.0625,-28102.5,-400000.0625,-26031.349609375,-400000.0625
157.39928460121155,-400000.0625,-42591.2890625,-28221.369140625,-400000.0625,-28121.900390625,-400000.0625,-26062.109375,-400000.0625
157.40718698501587,-400000.0625,-42614.80078125,-28241.830078125,-400000.0625,-28144.169921875,-400000.0625,-26103.55078125,-400000.0625
157.41455221176147,-400000.0625,-42619.08984375,-28239.30078125,-400000.0625,-28146.83984375,-400000.0625,-26113.990234375,-400000.0625
157.42316555976868,-400000.0625,-42585.80859375,-28204.830078125,-400000.0625,-28117.0390625,-400000.0625,-26088.33984375,-400000.0625
157.42980980873108,-400000.0625,-42564.87109375,-28185.900390625,-400000.0625,-28102.2109375,-400000.0625,-26068.119140625,-400000.0625
157.43800973892212,-400000.0625,-42577.83984375,-28198.2890625,-400000.0625,-28122.94921875,-400000.0625,-26084.470703125,-400000.0625
157.4463927745819,-400000.0625,-42603.9296875,-28221.3203125,-400000.0625,-28146.69921875,-400000.0625,-26107.220703125,-400000.0625
157.45512199401855,-400000.0625,-42605.01953125,-28224.810546875,-400000.0625,-28154.7109375,-400000.0625,-26107.029296875,-400000.0625
157.46198964118958,-400000.0625,-42576.83984375,-28193.240234375,-400000.0625,-28127.9609375,-400000.0625,-26079.7109375,-400000.0625
157.4697184562683,-400000.0625,-42555.1484375,-28171.490234375,-400000.0625,-28108.9296875,-400000.0625,-26058.9609375,-400000.0625
157.47678089141846,-400000.0625,-42566.16015625,-28186.279296875,-400000.0625,-28121.140625,-400000.0625,-26073.55078125,-400000.0625
157.48454236984253,-400000.0625,-42589.71875,-28212.98046875,-400000.0625,-28153.51953125,-400000.0625,-26098.2109375,-400000.0625
157.49746680259705,-400000.0625,-42601.640625,-28225.0,-400000.0625,-28162.099609375,-400000.0625,-26106.5,-400000.0625
157.5053355693817,-400000.0625,-42571.69140625,-28196.240234375,-400000.0625,-28127.529296875,-400000.0625,-26081.0390625,-400000.0625
157.51118564605713,-400000.0625,-42539.4609375,-28166.109375,-400000.0625,-28109.509765625,-400000.0625,-26048.849609375,-400000.0625
157.51842308044434,-400000.0625,-42549.0,-28177.98046875,-400000.0625,-28142.55078125,-400000.0625,-26059.490234375,-400000.0625
157.52435278892517,-400000.0625,-42588.2890625,-28214.509765625,-400000.0625,-28176.599609375,-400000.0625,-26097.009765625,-400000.0625
157.53116250038147,-400000.0625,-42591.23828125,-28218.650390625,-400000.0625,-28162.91015625,-400000.0625,-26100.0703125,-400000.0625
157.53651475906372,-400000.0625,-42552.91015625,-28182.609375,-400000.0625,-28128.8203125,-400000.0625,-26064.689453125,-400000.0625
157.54174637794495,-400000.0625,-42535.26171875,-28167.109375,-400000.0625,-28115.0390625,-400000.0625,-26043.3203125,-400000.0625
157.54939818382263,-400000.0625,-42537.98046875,-28174.7890625,-400000.0625,-28134.640625,-400000.0625,-26052.720703125,-400000.0625
157.55695986747742,-400000.0625,-42574.83984375,-28209.5,-400000.0625,-28171.830078125,-400000.0625,-26085.7109375,-400000.0625
157.56248903274536,-400000.0625,-42588.37890625,-28222.140625,-400000.0625,-28173.2109375,-400000.0625,-26097.73046875,-400000.0625
157.56969618797302,-400000.0625,-42557.19921875,-28188.419921875,-400000.0625,-28142.119140625,-400000.0625,-26064.44921875,-400000.0625
157.5767297744751,-400000.0625,-42513.37890625,-28148.3203125,-400000.0625,-28110.7890625,-400000.0625,-26025.580078125,-400000.0625
157.58452939987183,-400000.0625,-42514.8984375,-28150.470703125,-400000.0625,-28125.0,-400000.0625,-26024.439453125,-400000.0625
157.5907485485077,-400000.0625,-42570.98046875,-28202.6796875,-400000.0625,-28178.41015625,-400000.0625,-26077.890625,-400000.0625
157.60172820091248,-400000.0625,-42598.921875,-28223.23046875,-400000.0625,-28184.130859375,-400000.0625,-26099.919921875,-400000.0625
157.6072928905487,-400000.0625,-42561.44140625,-28187.51953125,-400000.0625,-28142.880859375,-400000.0625,-26063.2109375,-400000.0625
157.612539768219,-400000.0625,-42538.03125,-28167.919921875,-400000.0625,-28129.33984375,-400000.0625,-26041.650390625,-400000.0625
157.6196632385254,-400000.0625,-42554.2890625,-28182.609375,-400000.0625,-28148.26953125,-400000.0625,-26052.48046875,-400000.0625
157.6277072429657,-400000.0625,-42582.7109375,-28211.359375,-400000.0625,-28175.41015625,-400000.0625,-26084.140625,-400000.0625
157.63480424880981,-400000.0625,-42579.0390625,-28206.689453125,-400000.0625,-28169.01953125,-400000.0625,-26077.509765625,-400000.0625
157.64095664024353,-400000.0625,-42557.05078125,-28180.939453125,-400000.0625,-28142.41015625,-400000.0625,-26054.720703125,-400000.0625
157.64623522758484,-400000.0625,-42540.21875,-28162.2890625,-400000.0625,-28117.51953125,-400000.0625,-26035.359375,-400000.0625
157.65217971801758,-400000.0625,-42546.1796875,-28172.310546875,-400000.0625,-28137.2109375,-400000.0625,-26039.169921875,-400000.0625
157.65771794319153,-400000.0625,-42587.08984375,-28211.44921875,-400000.0625,-28171.109375,-400000.0625,-26074.69921875,-400000.0625
157.66284704208374,-400000.0625,-42599.01953125,-28219.80078125,-400000.0625,-28166.73046875,-400000.0625,-26089.150390625,-400000.0625
157.67062067985535,-400000.0625,-42574.078125,-28189.08984375,-400000.0625,-28138.16015625,-400000.0625,-26058.630859375,-400000.0625
157.6766324043274,-400000.0625,-42567.5,-28169.73046875,-400000.0625,-28127.76953125,-400000.0625,-26032.119140625,-400000.0625
157.68443655967712,-400000.0625,-42579.26953125,-28159.91015625,-400000.0625,-28130.6796875,-400000.0625,-26033.55078125,-400000.0625
157.6920464038849,-400000.0625,-42603.78125,-28200.6796875,-400000.0625,-28152.1796875,-400000.0625,-26083.470703125,-400000.0625
157.70318746566772,-400000.0625,-42617.51953125,-28237.919921875,-400000.0625,-28166.869140625,-400000.0625,-26094.73046875,-400000.0625
157.70876240730286,-400000.0625,-42597.19921875,-28208.740234375,-400000.0625,-28131.73046875,-400000.0625,-26063.869140625,-400000.0625
157.71464109420776,-400000.0625,-42570.171875,-28168.779296875,-400000.0625,-28107.26953125,-400000.0625,-26020.9609375,-400000.0625
157.72140550613403,-400000.0625,-42604.0703125,-28183.130859375,-400000.0625,-28113.939453125,-400000.0625,-26038.55078125,-400000.0625
157.72870230674744,-400000.0625,-42657.19140625,-28234.099609375,-400000.0625,-28133.25,-400000.0625,-26081.330078125,-400000.0625
157.73516058921814,-400000.0625,-42673.44921875,-28250.220703125,-400000.0625,-28127.669921875,-400000.0625,-26108.650390625,-400000.0625
157.74267315864563,-400000.0625,-42645.7890625,-28246.689453125,-400000.0625,-28095.919921875,-400000.0625,-26090.4296875,-400000.0625
157.75089144706726,-400000.0625,-42639.640625,-28237.25,-400000.0625,-28070.599609375,-400000.0625,-26068.640625,-400000.0625
157.7577931880951,-400000.0625,-42678.9296875,-28258.419921875,-400000.0625,-28071.83984375,-400000.0625,-26081.609375,-400000.0625
157.7642743587494,-400000.0625,-42731.578125,-28298.140625,-400000.0625,-28086.240234375,-400000.0625,-26117.94921875,-400000.0625
157.76964211463928,-400000.0625,-42774.30078125,-28321.75,-400000.0625,-28080.23046875,-400000.0625,-26136.2109375,-400000.0625
157.77513718605042,-400000.0625,-42777.96875,-28307.490234375,-400000.0625,-28044.080078125,-400000.0625,-26121.05078125,-400000.0625
157.78215551376343,-400000.0625,-42770.33984375,-28294.759765625,-400000.0625,-28016.05078125,-400000.0625,-26112.369140625,-400000.0625
157.78962087631226,-400000.0625,-42787.12890625,-28315.7890625,-400000.0625,-28027.970703125,-400000.0625,-26123.91015625,-400000.0625
157.79569005966187,-400000.0625,-42829.80078125,-28350.740234375,-400000.0625,-28053.0,-400000.0625,-26152.609375,-400000.0625
157.8080551624298,-400000.0625,-42851.171875,-28362.609375,-400000.0625,-28048.759765625,-400000.0625,-26167.970703125,-400000.0625
157.81342840194702,-400000.0625,-42825.890625,-28338.240234375,-400000.0625,-28022.669921875,-400000.0625,-26130.970703125,-400000.0625
157.82231998443604,-400000.0625,-42798.80859375,-28317.740234375,-400000.0625,-28010.939453125,-400000.0625,-26097.830078125,-400000.0625
157.82753229141235,-400000.0625,-42808.78125,-28331.5703125,-400000.0625,-28031.5,-400000.0625,-26105.41015625,-400000.0625
157.83372902870178,-400000.0625,-42835.671875,-28359.990234375,-400000.0625,-28065.400390625,-400000.0625,-26129.76953125,-400000.0625
157.8413565158844,-400000.0625,-42842.109375,-28375.19921875,-400000.0625,-28082.7109375,-400000.0625,-26131.970703125,-400000.0625
157.84884786605835,-400000.0625,-42798.62109375,-28348.44921875,-400000.0625,-28058.580078125,-400000.0625,-26094.390625,-400000.0625
157.85611844062805,-400000.0625,-42770.71875,-28326.990234375,-400000.0625,-28049.900390625,-400000.0625,-26066.259765625,-400000.0625
157.86318349838257,-400000.0625,-42773.6796875,-28332.759765625,-400000.0625,-28065.01953125,-400000.0625,-26067.9296875,-400000.0625
157.8690254688263,-400000.0625,-42786.171875,-28360.890625,-400000.0625,-28105.0703125,-400000.0625,-26084.619140625,-400000.0625
157.87414145469666,-400000.0625,-42776.640625,-28369.619140625,-400000.0625,-28114.890625,-400000.0625,-26088.4296875,-400000.0625
157.87938618659973,-400000.0625,-42739.48828125,-28336.91015625,-400000.0625,-28093.2890625,-400000.0625,-26053.33984375,-400000.0625
157.88772058486938,-400000.0625,-42698.53125,-28308.869140625,-400000.0625,-28078.75,-400000.0625,-26018.810546875,-400000.0625
157.8938820362091,-400000.0625,-42692.671875,-28311.970703125,-400000.0625,-28104.2109375,-400000.0625,-26024.5390625,-400000.0625
157.9009222984314,-400000.0625,-42710.171875,-28329.5703125,-400000.0625,-28132.5390625,-400000.0625,-26047.08984375,-400000.0625
157.91339898109436,-400000.0625,-42701.05859375,-28328.990234375,-400000.0625,-28138.5,-400000.0625,-26042.3203125,-400000.0625
157.92004942893982,-400000.0625,-42658.2890625,-28297.759765625,-400000.0625,-28109.26953125,-400000.0625,-26018.240234375,-400000.0625
157.92725348472595,-400000.0625,-42623.48046875,-28271.9609375,-400000.0625,-28098.970703125,-400000.0625,-25993.779296875,-400000.0625
157.93529558181763,-400000.0625,-42623.71875,-28273.400390625,-400000.0625,-28112.029296875,-400000.0625,-25996.779296875,-400000.0625
157.94148755073547,-400000.0625,-42639.58984375,-28295.08984375,-400000.0625,-28138.640625,-400000.0625,-26016.759765625,-400000.0625
157.95012784004211,-400000.0625,-42641.73828125,-28303.25,-400000.0625,-28150.609375,-400000.0625,-26021.91015625,-400000.0625
157.9558663368225,-400000.0625,-42620.51953125,-28280.01953125,-400000.0625,-28125.2890625,-400000.0625,-26000.740234375,-400000.0625
157.96152782440186,-400000.0625,-42596.1484375,-28257.80078125,-400000.0625,-28120.330078125,-400000.0625,-25978.900390625,-400000.0625
157.9671173095703,-400000.0625,-42600.26171875,-28263.51953125,-400000.0625,-28133.630859375,-400000.0625,-25981.380859375,-400000.0625
157.97301173210144,-400000.0625,-42616.55859375,-28286.080078125,-400000.0625,-28157.05078125,-400000.0625,-26005.130859375,-400000.0625
157.97894477844238,-400000.0625,-42619.76171875,-28291.900390625,-400000.0625,-28165.919921875,-400000.0625,-26008.080078125,-400000.0625
157.98553657531738,-400000.0625,-42585.08984375,-28263.5703125,-400000.0625,-28136.44921875,-400000.0625,-25984.4296875,-400000.0625
157.99304103851318,-400000.0625,-42557.44140625,-28241.830078125,-400000.0625,-28123.4296875,-400000.0625,-25958.779296875,-400000.0625
158.000168800354,-400000.0625,-42571.0703125,-28250.69921875,-400000.0625,-28145.75,-400000.0625,-25964.599609375,-400000.0625
158.00600719451904,-400000.0625,-42584.421875,-28264.720703125,-400000.0625,-28160.810546875,-400000.0625,-25992.349609375,-400000.0625
158.02009868621826,-400000.0625,-42570.69140625,-28259.5703125,-400000.0625,-28161.619140625,-400000.0625,-25993.919921875,-400000.0625
158.0269684791565,-400000.0625,-42537.98046875,-28235.919921875,-400000.0625,-28147.220703125,-400000.0625,-25973.279296875,-400000.0625
158.03464651107788,-400000.0625,-42501.03125,-28206.880859375,-400000.0625,-28138.349609375,-400000.0625,-25951.529296875,-400000.0625
158.0415859222412,-400000.0625,-42489.25,-28202.630859375,-400000.0625,-28148.26953125,-400000.0625,-25958.869140625,-400000.0625
158.04836630821228,-400000.0625,-42498.640625,-28216.26953125,-400000.0625,-28170.73046875,-400000.0625,-25981.140625,-400000.0625
158.0559720993042,-400000.0625,-42503.890625,-28219.4609375,-400000.0625,-28177.689453125,-400000.0625,-25987.25,-400000.0625
158.06129145622253,-400000.0625,-42474.609375,-28196.390625,-400000.0625,-28156.859375,-400000.0625,-25965.650390625,-400000.0625
158.06913042068481,-400000.0625,-42438.94140625,-28172.16015625,-400000.0625,-28146.650390625,-400000.0625,-25942.7109375,-400000.0625
158.07473993301392,-400000.0625,-42444.421875,-28179.169921875,-400000.0625,-28151.470703125,-400000.0625,-25945.859375,-400000.0625
158.08064222335815,-400000.0625,-42470.83984375,-28201.6796875,-400000.0625,-28174.44921875,-400000.0625,-25968.83984375,-400000.0625
158.08897256851196,-400000.0625,-42478.421875,-28208.259765625,-400000.0625,-28182.41015625,-400000.0625,-25977.5703125,-400000.0625
158.09422636032104,-400000.0625,-42464.73828125,-28191.619140625,-400000.0625,-28165.919921875,-400000.0625,-25956.970703125,-400000.0625
158.10229587554932,-400000.0625,-42440.7109375,-28171.880859375,-400000.0625,-28144.7890625,-400000.0625,-25940.990234375,-400000.0625
158.10813999176025,-400000.0625,-42444.94921875,-28178.55078125,-400000.0625,-28155.5703125,-400000.0625,-25943.94921875,-400000.0625
158.12041807174683,-400000.0625,-42475.80078125,-28202.919921875,-400000.0625,-28190.140625,-400000.0625,-25967.69921875,-400000.0625
158.1268811225891,-400000.0625,-42482.19140625,-28209.5,-400000.0625,-28190.900390625,-400000.0625,-25976.23046875,-400000.0625
158.13456654548645,-400000.0625,-42459.87109375,-28185.66015625,-400000.0625,-28165.490234375,-400000.0625,-25947.759765625,-400000.0625
158.1408658027649,-400000.0625,-42440.75,-28164.009765625,-400000.0625,-28141.119140625,-400000.0625,-25928.0703125,-400000.0625
158.14693593978882,-400000.0625,-42444.80859375,-28170.16015625,-400000.0625,-28156.7109375,-400000.0625,-25934.69921875,-400000.0625
158.1553111076355,-400000.0625,-42470.6015625,-28198.8203125,-400000.0625,-28189.0390625,-400000.0625,-25965.55078125,-400000.0625
158.160959482193,-400000.0625,-42475.8984375,-28201.439453125,-400000.0625,-28186.66015625,-400000.0625,-25971.23046875,-400000.0625
158.16686296463013,-400000.0625,-42458.16015625,-28179.740234375,-400000.0625,-28159.48046875,-400000.0625,-25946.669921875,-400000.0625
158.17203974723816,-400000.0625,-42439.28125,-28161.859375,-400000.0625,-28143.119140625,-400000.0625,-25925.2109375,-400000.0625
158.17759609222412,-400000.0625,-42443.7109375,-28169.30078125,-400000.0625,-28161.19921875,-400000.0625,-25936.419921875,-400000.0625
158.18413639068604,-400000.0625,-42469.73828125,-28193.94921875,-400000.0625,-28187.7109375,-400000.0625,-25962.44921875,-400000.0625
158.19074153900146,-400000.0625,-42480.28125,-28202.009765625,-400000.0625,-28187.609375,-400000.0625,-25966.9296875,-400000.0625
158.1989152431488,-400000.0625,-42450.9609375,-28175.310546875,-400000.0625,-28157.810546875,-400000.0625,-25940.849609375,-400000.0625
158.20591139793396,-400000.0625,-42429.98046875,-28156.380859375,-400000.0625,-28143.83984375,-400000.0625,-25919.349609375,-400000.0625
158.2127251625061,-400000.0625,-42447.140625,-28173.640625,-400000.0625,-28171.01953125,-400000.0625,-25938.369140625,-400000.0625
158.2249412536621,-400000.0625,-42471.83984375,-28198.05078125,-400000.0625,-28188.08984375,-400000.0625,-25966.650390625,-400000.0625
158.23255443572998,-400000.0625,-42477.328125,-28202.109375,-400000.0625,-28195.0,-400000.0625,-25968.890625,-400000.0625
158.2398977279663,-400000.0625,-42455.76953125,-28180.7890625,-400000.0625,-28171.109375,-400000.0625,-25945.94921875,-400000.0625
158.24583673477173,-400000.0625,-42434.03125,-28159.859375,-400000.0625,-28155.380859375,-400000.0625,-25926.16015625,-400000.0625
158.25470232963562,-400000.0625,-42441.94921875,-28169.25,-400000.0625,-28167.109375,-400000.0625,-25936.650390625,-400000.0625
158.260267496109,-400000.0625,-42466.21875,-28194.099609375,-400000.0625,-28187.51953125,-400000.0625,-25962.310546875,-400000.0625
158.26750683784485,-400000.0625,-42475.75,-28202.349609375,-400000.0625,-28193.0,-400000.0625,-25966.55078125,-400000.0625
158.2737262248993,-400000.0625,-42454.25,-28180.55078125,-400000.0625,-28167.779296875,-400000.0625,-25943.51953125,-400000.0625
158.28134489059448,-400000.0625,-42434.55078125,-28159.240234375,-400000.0625,-28151.470703125,-400000.0625,-25924.490234375,-400000.0625
158.28662014007568,-400000.0625,-42440.1796875,-28168.19921875,-400000.0625,-28164.009765625,-400000.0625,-25935.75,-400000.0625
158.29282069206238,-400000.0625,-42464.3984375,-28192.900390625,-400000.0625,-28191.189453125,-400000.0625,-25959.109375,-400000.0625
158.29983830451965,-400000.0625,-42471.890625,-28198.76953125,-400000.0625,-28189.51953125,-400000.0625,-25966.359375,-400000.0625
158.30766010284424,-400000.0625,-42451.33984375,-28176.98046875,-400000.0625,-28166.19921875,-400000.0625,-25943.189453125,-400000.0625
158.31421160697937,-400000.0625,-42433.83984375,-28160.580078125,-400000.0625,-28157.759765625,-400000.0625,-25919.19921875,-400000.0625
158.32814359664917,-400000.0625,-42442.8984375,-28171.44921875,-400000.0625,-28170.58984375,-400000.0625,-25932.169921875,-400000.0625
158.33471822738647,-400000.0625,-42464.7890625,-28195.05078125,-400000.0625,-28200.009765625,-400000.0625,-25956.25,-400000.0625
158.34009981155396,-400000.0625,-42473.1796875,-28204.73046875,-400000.0625,-28200.8203125,-400000.0625,-25964.880859375,-400000.0625
158.3453598022461,-400000.0625,-42446.48046875,-28179.740234375,-400000.0625,-28174.640625,-400000.0625,-25942.23046875,-400000.0625
158.351557970047,-400000.0625,-42415.62109375,-28154.849609375,-400000.0625,-28158.140625,-400000.0625,-25920.779296875,-400000.0625
158.35744309425354,-400000.0625,-42426.3984375,-28166.919921875,-400000.0625,-28171.779296875,-400000.0625,-25934.560546875,-400000.0625
158.36512756347656,-400000.0625,-42453.1015625,-28191.900390625,-400000.0625,-28209.98046875,-400000.0625,-25946.48046875,-400000.0625
158.37245297431946,-400000.0625,-42450.4296875,-28192.240234375,-400000.0625,-28202.970703125,-400000.0625,-25951.05078125,-400000.0625
158.37879133224487,-400000.0625,-42425.3515625,-28168.490234375,-400000.0625,-28183.650390625,-400000.0625,-25926.0703125,-400000.0625
158.3878996372223,-400000.0625,-42402.21875,-28147.509765625,-400000.0625,-28173.259765625,-400000.0625,-25899.26953125,-400000.0625
158.39386558532715,-400000.0625,-42402.37109375,-28150.900390625,-400000.0625,-28180.130859375,-400000.0625,-25905.990234375,-400000.0625
158.40137934684753,-400000.0625,-42416.1484375,-28168.349609375,-400000.0625,-28200.490234375,-400000.0625,-25924.2109375,-400000.0625
158.40785789489746,-400000.0625,-42414.671875,-28175.310546875,-400000.0625,-28202.30078125,-400000.0625,-25931.080078125,-400000.0625
158.4129719734192,-400000.0625,-42394.5,-28156.189453125,-400000.0625,-28179.359375,-400000.0625,-25911.0,-400000.0625
158.41965770721436,-400000.0625,-42379.37890625,-28138.44921875,-400000.0625,-28176.310546875,-400000.0625,-25895.55078125,-400000.0625
158.43124747276306,-400000.0625,-42388.16015625,-28148.509765625,-400000.0625,-28189.419921875,-400000.0625,-25903.609375,-400000.0625
158.43902778625488,-400000.0625,-42409.8515625,-28171.689453125,-400000.0625,-28208.9296875,-400000.0625,-25921.30078125,-400000.0625
158.4452030658722,-400000.0625,-42416.71875,-28179.890625,-400000.0625,-28212.119140625,-400000.0625,-25927.98046875,-400000.0625
158.4557490348816,-400000.0625,-42401.1796875,-28162.529296875,-400000.0625,-28190.7109375,-400000.0625,-25907.849609375,-400000.0625
158.46282982826233,-400000.0625,-42380.671875,-28141.41015625,-400000.0625,-28175.259765625,-400000.0625,-25885.6796875,-400000.0625
158.47220182418823,-400000.0625,-42389.01953125,-28147.509765625,-400000.0625,-28186.369140625,-400000.0625,-25896.55078125,-400000.0625
158.47954940795898,-400000.0625,-42414.33984375,-28173.970703125,-400000.0625,-28210.5,-400000.0625,-25919.25,-400000.0625
158.48634433746338,-400000.0625,-42422.96875,-28185.0390625,-400000.0625,-28218.69921875,-400000.0625,-25926.310546875,-400000.0625
158.49192190170288,-400000.0625,-42407.8515625,-28166.76953125,-400000.0625,-28199.009765625,-400000.0625,-25912.140625,-400000.0625
158.4987325668335,-400000.0625,-42394.44921875,-28150.130859375,-400000.0625,-28180.83984375,-400000.0625,-25892.55078125,-400000.0625
158.50480318069458,-400000.0625,-42398.078125,-28155.23046875,-400000.0625,-28192.140625,-400000.0625,-25893.830078125,-400000.0625
158.5121111869812,-400000.0625,-42416.1484375,-28174.740234375,-400000.0625,-28210.400390625,-400000.0625,-25917.25,-400000.0625
158.51884961128235,-400000.0625,-42426.26171875,-28184.939453125,-400000.0625,-28214.029296875,-400000.0625,-25930.029296875,-400000.0625
158.52436447143555,-400000.0625,-42412.05078125,-28171.16015625,-400000.0625,-28200.490234375,-400000.0625,-25918.580078125,-400000.0625
158.53828525543213,-400000.0625,-42393.98046875,-28150.1796875,-400000.0625,-28187.94921875,-400000.0625,-25900.80078125,-400000.0625
158.5445876121521,-400000.0625,-42395.21875,-28148.23046875,-400000.0625,-28188.0390625,-400000.0625,-25906.0390625,-400000.0625
158.55134057998657,-400000.0625,-42418.33984375,-28172.0703125,-400000.0625,-28211.9296875,-400000.0625,-25925.970703125,-400000.0625
158.55663299560547,-400000.0625,-42440.23046875,-28192.140625,-400000.0625,-28222.609375,-400000.0625,-25938.130859375,-400000.0625
158.56177973747253,-400000.0625,-42423.5390625,-28177.83984375,-400000.0625,-28211.41015625,-400000.0625,-25922.109375,-400000.0625
158.5681447982788,-400000.0625,-42397.359375,-28154.279296875,-400000.0625,-28193.720703125,-400000.0625,-25901.75,-400000.0625
158.5754680633545,-400000.0625,-42401.51171875,-28157.48046875,-400000.0625,-28192.48046875,-400000.0625,-25910.08984375,-400000.0625
158.58267903327942,-400000.0625,-42420.390625,-28176.880859375,-400000.0625,-28209.359375,-400000.0625,-25927.359375,-400000.0625
158.58841228485107,-400000.0625,-42430.26171875,-28187.80078125,-400000.0625,-28216.7890625,-400000.0625,-25938.69921875,-400000.0625
158.59403252601624,-400000.0625,-42423.3984375,-28176.259765625,-400000.0625,-28203.919921875,-400000.0625,-25923.400390625,-400000.0625
158.60191798210144,-400000.0625,-42402.94140625,-28156.05078125,-400000.0625,-28183.3203125,-400000.0625,-25904.7109375,-400000.0625
158.6078860759735,-400000.0625,-42405.08984375,-28155.810546875,-400000.0625,-28190.380859375,-400000.0625,-25909.810546875,-400000.0625
158.61300706863403,-400000.0625,-42420.19921875,-28172.5,-400000.0625,-28210.55078125,-400000.0625,-25929.44921875,-400000.0625
158.6209216117859,-400000.0625,-42435.03125,-28187.94921875,-400000.0625,-28220.0390625,-400000.0625,-25945.240234375,-400000.0625
158.62707352638245,-400000.0625,-42427.73828125,-28179.080078125,-400000.0625,-28203.73046875,-400000.0625,-25932.359375,-400000.0625
158.64117121696472,-400000.0625,-42413.53125,-28161.580078125,-400000.0625,-28188.1796875,-400000.0625,-25914.0,-400000.0625
158.64720845222473,-400000.0625,-42409.37890625,-28158.0,-400000.0625,-28193.330078125,-400000.0625,-25917.060546875,-400000.0625
158.65561413764954,-400000.0625,-42427.3984375,-28175.0703125,-400000.0625,-28208.779296875,-400000.0625,-25934.080078125,-400000.0625
158.66155695915222,-400000.0625,-42441.609375,-28187.560546875,-400000.0625,-28216.650390625,-400000.0625,-25947.2890625,-400000.0625
158.66919589042664,-400000.0625,-42426.3515625,-28172.349609375,-400000.0625,-28205.919921875,-400000.0625,-25938.939453125,-400000.0625
158.67540526390076,-400000.0625,-42407.23046875,-28153.140625,-400000.0625,-28184.609375,-400000.0625,-25919.390625,-400000.0625
158.68168187141418,-400000.0625,-42408.0390625,-28154.609375,-400000.0625,-28188.849609375,-400000.0625,-25919.109375,-400000.0625
158.68703889846802,-400000.0625,-42422.73046875,-28170.01953125,-400000.0625,-28208.9296875,-400000.0625,-25938.0390625,-400000.0625
158.69213891029358,-400000.0625,-42439.51171875,-28185.900390625,-400000.0625,-28214.69921875,-400000.0625,-25959.01953125,-400000.0625
158.69732189178467,-400000.0625,-42434.4609375,-28177.599609375,-400000.0625,-28202.630859375,-400000.0625,-25946.48046875,-400000.0625
158.7042417526245,-400000.0625,-42417.44140625,-28159.240234375,-400000.0625,-28194.720703125,-400000.0625,-25926.16015625,-400000.0625
158.71064567565918,-400000.0625,-42409.0390625,-28151.130859375,-400000.0625,-28188.80078125,-400000.0625,-25927.830078125,-400000.0625
158.71734237670898,-400000.0625,-42425.109375,-28168.349609375,-400000.0625,-28201.9609375,-400000.0625,-25944.330078125,-400000.0625
158.72438263893127,-400000.0625,-42441.421875,-28188.759765625,-400000.0625,-28212.220703125,-400000.0625,-25959.30078125,-400000.0625
158.7300727367401,-400000.0625,-42437.03125,-28181.599609375,-400000.0625,-28202.970703125,-400000.0625,-25954.25,-400000.0625
158.74087738990784,-400000.0625,-42419.19921875,-28164.33984375,-400000.0625,-28187.08984375,-400000.0625,-25934.939453125,-400000.0625
158.74811172485352,-400000.0625,-42413.71875,-28159.810546875,-400000.0625,-28187.419921875,-400000.0625,-25927.01953125,-400000.0625
158.75695371627808,-400000.0625,-42430.44921875,-28176.0703125,-400000.0625,-28210.9296875,-400000.0625,-25943.7109375,-400000.0625
158.7628960609436,-400000.0625,-42447.37890625,-28190.4296875,-400000.0625,-28217.080078125,-400000.0625,-25963.259765625,-400000.0625
158.77087950706482,-400000.0625,-42437.26953125,-28178.169921875,-400000.0625,-28197.529296875,-400000.0625,-25951.48046875,-400000.0625
158.7768783569336,-400000.0625,-42414.76953125,-28157.51953125,-400000.0625,-28180.69921875,-400000.0625,-25931.4609375,-400000.0625
158.78553771972656,-400000.0625,-42412.859375,-28155.0390625,-400000.0625,-28184.4609375,-400000.0625,-25925.689453125,-400000.0625
158.7918484210968,-400000.0625,-42430.12109375,-28172.0703125,-400000.0625,-28202.630859375,-400000.0625,-25945.05078125,-400000.0625
158.79919576644897,-400000.0625,-42446.7109375,-28188.330078125,-400000.0625,-28211.640625,-400000.0625,-25966.359375,-400000.0625
158.80536007881165,-400000.0625,-42438.3203125,-28178.98046875,-400000.0625,-28201.060546875,-400000.0625,-25954.19921875,-400000.0625
158.8113694190979,-400000.0625,-42428.16015625,-28164.060546875,-400000.0625,-28189.08984375,-400000.0625,-25939.51953125,-400000.0625
158.81683802604675,-400000.0625,-42430.0703125,-28165.76953125,-400000.0625,-28185.69921875,-400000.0625,-25942.23046875,-400000.0625
158.82205891609192,-400000.0625,-42438.94140625,-28177.740234375,-400000.0625,-28197.099609375,-400000.0625,-25954.490234375,-400000.0625
158.82710242271423,-400000.0625,-42455.33984375,-28194.140625,-400000.0625,-28208.830078125,-400000.0625,-25969.890625,-400000.0625
158.83251357078552,-400000.0625,-42448.48046875,-28186.849609375,-400000.0625,-28203.8203125,-400000.0625,-25961.2109375,-400000.0625
158.84484362602234,-400000.0625,-42424.5390625,-28165.33984375,-400000.0625,-28178.650390625,-400000.0625,-25940.759765625,-400000.0625
158.85143518447876,-400000.0625,-42419.390625,-28159.4296875,-400000.0625,-28178.5,-400000.0625,-25936.849609375,-400000.0625
158.858882188797,-400000.0625,-42437.51171875,-28178.98046875,-400000.0625,-28200.919921875,-400000.0625,-25953.869140625,-400000.0625
158.86419105529785,-400000.0625,-42451.33984375,-28193.669921875,-400000.0625,-28209.98046875,-400000.0625,-25971.419921875,-400000.0625
158.8697555065155,-400000.0625,-42444.7109375,-28185.939453125,-400000.0625,-28197.580078125,-400000.0625,-25960.689453125,-400000.0625
158.8749179840088,-400000.0625,-42428.30859375,-28169.349609375,-400000.0625,-28182.650390625,-400000.0625,-25941.380859375,-400000.0625
158.8808298110962,-400000.0625,-42428.0703125,-28168.30078125,-400000.0625,-28188.0390625,-400000.0625,-25942.470703125,-400000.0625
158.8869514465332,-400000.0625,-42443.94921875,-28184.23046875,-400000.0625,-28199.91015625,-400000.0625,-25962.169921875,-400000.0625
158.89467120170593,-400000.0625,-42467.41015625,-28206.830078125,-400000.0625,-28212.029296875,-400000.0625,-25982.189453125,-400000.0625
158.90196657180786,-400000.0625,-42463.828125,-28198.9609375,-400000.0625,-28198.529296875,-400000.0625,-25975.08984375,-400000.0625
158.90805864334106,-400000.0625,-42442.76171875,-28175.740234375,-400000.0625,-28181.169921875,-400000.0625,-25952.33984375,-400000.0625
158.9133493900299,-400000.0625,-42432.26953125,-28169.58984375,-400000.0625,-28181.220703125,-400000.0625,-25950.150390625,-400000.0625
158.9199366569519,-400000.0625,-42450.390625,-28186.1796875,-400000.0625,-28199.76953125,-400000.0625,-25966.740234375,-400000.0625
158.92549204826355,-400000.0625,-42465.73828125,-28199.33984375,-400000.0625,-28212.599609375,-400000.0625,-25980.759765625,-400000.0625
158.93149781227112,-400000.0625,-42458.01171875,-28190.759765625,-400000.0625,-28205.16015625,-400000.0625,-25969.560546875,-400000.0625
158.94020700454712,-400000.0625,-42441.46875,-28174.359375,-400000.0625,-28185.509765625,-400000.0625,-25953.9609375,-400000.0625
158.9527187347412,-400000.0625,-42442.08984375,-28171.970703125,-400000.0625,-28178.359375,-400000.0625,-25950.240234375,-400000.0625
158.96054697036743,-400000.0625,-42457.62890625,-28183.890625,-400000.0625,-28198.869140625,-400000.0625,-25962.310546875,-400000.0625
158.9669303894043,-400000.0625,-42472.3203125,-28199.869140625,-400000.0625,-28216.939453125,-400000.0625,-25983.580078125,-400000.0625
158.97234582901,-400000.0625,-42461.3515625,-28189.849609375,-400000.0625,-28196.76953125,-400000.0625,-25968.83984375,-400000.0625
158.97733616828918,-400000.0625,-42441.8984375,-28172.689453125,-400000.0625,-28182.4609375,-400000.0625,-25951.009765625,-400000.0625
158.97734665870667,-400000.0625,-42440.46875,-28169.73046875,-400000.0625,-28186.560546875,-400000.0625,-25949.150390625,-400000.0625
158.9773509502411,-400000.0625,-42453.71875,-28184.4609375,-400000.0625,-28198.33984375,-400000.0625,-25964.740234375,-400000.0625
158.9773552417755,-400000.0625,-42468.171875,-28201.439453125,-400000.0625,-28208.640625,-400000.0625,-25978.08984375,-400000.0625
158.98483085632324,-400000.0625,-42463.3984375,-28193.140625,-400000.0625,-28201.8203125,-400000.0625,-25967.599609375,-400000.0625
158.99116921424866,-400000.0625,-42442.5703125,-28172.01953125,-400000.0625,-28180.650390625,-400000.0625,-25949.720703125,-400000.0625
159.00012683868408,-400000.0625,-42440.8515625,-28169.2109375,-400000.0625,-28179.220703125,-400000.0625,-25946.330078125,-400000.0625
159.00548315048218,-400000.0625,-42468.26953125,-28189.900390625,-400000.0625,-28197.390625,-400000.0625,-25972.3203125,-400000.0625
159.01075887680054,-400000.0625,-42482.23828125,-28203.919921875,-400000.0625,-28207.0703125,-400000.0625,-25987.9609375,-400000.0625
159.01614785194397,-400000.0625,-42459.58984375,-28192.0,-400000.0625,-28192.0,-400000.0625,-25968.599609375,-400000.0625
159.0228819847107,-400000.0625,-42442.140625,-28180.55078125,-400000.0625,-28179.69921875,-400000.0625,-25952.390625,-400000.0625
159.02845859527588,-400000.0625,-42448.94921875,-28183.650390625,-400000.0625,-28184.75,-400000.0625,-25953.529296875,-400000.0625
159.03768754005432,-400000.0625,-42472.94140625,-28199.630859375,-400000.0625,-28205.400390625,-400000.0625,-25967.310546875,-400000.0625
159.04347968101501,-400000.0625,-42489.921875,-28215.7890625,-400000.0625,-28216.26953125,-400000.0625,-25982.2890625,-400000.0625
159.05676913261414,-400000.0625,-42480.08984375,-28208.640625,-400000.0625,-28201.439453125,-400000.0625,-25976.0390625,-400000.0625
159.062824010849,-400000.0625,-42464.640625,-28191.279296875,-400000.0625,-28186.1796875,-400000.0625,-25958.400390625,-400000.0625
159.07056856155396,-400000.0625,-42461.5,-28186.1796875,-400000.0625,-28185.130859375,-400000.0625,-25959.44921875,-400000.0625
159.07828283309937,-400000.0625,-42476.66015625,-28201.30078125,-400000.0625,-28201.150390625,-400000.0625,-25977.23046875,-400000.0625
159.08445715904236,-400000.0625,-42497.96875,-28223.80078125,-400000.0625,-28220.990234375,-400000.0625,-25995.400390625,-400000.0625
159.0897798538208,-400000.0625,-42488.1484375,-28213.119140625,-400000.0625,-28206.44921875,-400000.0625,-25989.439453125,-400000.0625
159.09536266326904,-400000.0625,-42469.51171875,-28193.05078125,-400000.0625,-28186.849609375,-400000.0625,-25968.599609375,-400000.0625
159.1014702320099,-400000.0625,-42465.640625,-28189.380859375,-400000.0625,-28185.69921875,-400000.0625,-25963.2109375,-400000.0625
159.1088833808899,-400000.0625,-42480.66015625,-28205.16015625,-400000.0625,-28198.669921875,-400000.0625,-25979.619140625,-400000.0625
159.11701488494873,-400000.0625,-42499.73828125,-28221.3203125,-400000.0625,-28210.689453125,-400000.0625,-25997.310546875,-400000.0625
159.1233265399933,-400000.0625,-42490.6796875,-28211.41015625,-400000.0625,-28196.19921875,-400000.0625,-25984.05078125,-400000.0625
159.1288025379181,-400000.0625,-42474.55859375,-28196.150390625,-400000.0625,-28180.69921875,-400000.0625,-25969.7890625,-400000.0625
159.13570594787598,-400000.0625,-42470.98046875,-28195.240234375,-400000.0625,-28186.369140625,-400000.0625,-25971.419921875,-400000.0625
159.14289784431458,-400000.0625,-42486.671875,-28211.689453125,-400000.0625,-28203.19921875,-400000.0625,-25985.529296875,-400000.0625
159.15077781677246,-400000.0625,-42507.4609375,-28230.380859375,-400000.0625,-28214.509765625,-400000.0625,-26001.650390625,-400000.0625
159.16314721107483,-400000.0625,-42494.109375,-28217.609375,-400000.0625,-28200.30078125,-400000.0625,-25990.109375,-400000.0625
159.17074346542358,-400000.0625,-42473.421875,-28196.150390625,-400000.0625,-28184.939453125,-400000.0625,-25968.650390625,-400000.0625
159.1773762702942,-400000.0625,-42472.03125,-28195.810546875,-400000.0625,-28187.470703125,-400000.0625,-25965.55078125,-400000.0625
159.18590354919434,-400000.0625,-42487.53125,-28209.310546875,-400000.0625,-28201.490234375,-400000.0625,-25978.66015625,-400000.0625
159.19273161888123,-400000.0625,-42504.6015625,-28222.51953125,-400000.0625,-28212.169921875,-400000.0625,-25994.689453125,-400000.0625
159.2006232738495,-400000.0625,-42497.16015625,-28214.26953125,-400000.0625,-28199.76953125,-400000.0625,-25985.529296875,-400000.0625
159.20749473571777,-400000.0625,-42476.80078125,-28197.390625,-400000.0625,-28181.599609375,-400000.0625,-25966.83984375,-400000.0625
159.21288514137268,-400000.0625,-42474.37109375,-28198.439453125,-400000.0625,-28190.7109375,-400000.0625,-25963.7890625,-400000.0625
159.22067761421204,-400000.0625,-42492.44140625,-28214.69921875,-400000.0625,-28204.30078125,-400000.0625,-25982.810546875,-400000.0625
159.22645592689514,-400000.0625,-42511.55859375,-28231.4296875,-400000.0625,-28214.26953125,-400000.0625,-26002.4609375,-400000.0625
159.2333459854126,-400000.0625,-42500.828125,-28222.75,-400000.0625,-28200.30078125,-400000.0625,-25992.6796875,-400000.0625
159.24233031272888,-400000.0625,-42479.08984375,-28199.390625,-400000.0625,-28179.69921875,-400000.0625,-25968.650390625,-400000.0625
159.24857473373413,-400000.0625,-42476.23046875,-28195.33984375,-400000.0625,-28183.4609375,-400000.0625,-25965.029296875,-400000.0625
159.25519156455994,-400000.0625,-42489.578125,-28212.650390625,-400000.0625,-28199.060546875,-400000.0625,-25979.51953125,-400000.0625
159.26947140693665,-400000.0625,-42503.83984375,-28227.330078125,-400000.0625,-28207.830078125,-400000.0625,-25998.2109375,-400000.0625
159.2756531238556,-400000.0625,-42499.828125,-28220.509765625,-400000.0625,-28199.8203125,-400000.0625,-25991.400390625,-400000.0625
159.2828025817871,-400000.0625,-42480.0390625,-28201.869140625,-400000.0625,-28183.3203125,-400000.0625,-25971.419921875,-400000.0625
159.29106187820435,-400000.0625,-42469.83984375,-28194.2890625,-400000.0625,-28174.689453125,-400000.0625,-25962.9296875,-400000.0625
159.2974615097046,-400000.0625,-42487.19921875,-28209.830078125,-400000.0625,-28192.05078125,-400000.0625,-25977.66015625,-400000.0625
159.30524015426636,-400000.0625,-42508.94140625,-28229.05078125,-400000.0625,-28213.740234375,-400000.0625,-25998.259765625,-400000.0625
159.31193232536316,-400000.0625,-42504.078125,-28224.810546875,-400000.0625,-28200.439453125,-400000.0625,-25988.529296875,-400000.0625
159.31919360160828,-400000.0625,-42486.33984375,-28205.830078125,-400000.0625,-28182.369140625,-400000.0625,-25970.990234375,-400000.0625
159.3259289264679,-400000.0625,-42480.28125,-28198.19921875,-400000.0625,-28183.419921875,-400000.0625,-25970.220703125,-400000.0625
159.33216738700867,-400000.0625,-42498.69140625,-28215.599609375,-400000.0625,-28197.529296875,-400000.0625,-25986.76953125,-400000.0625
159.33823418617249,-400000.0625,-42511.0390625,-28228.48046875,-400000.0625,-28204.060546875,-400000.0625,-26004.220703125,-400000.0625
159.34394907951355,-400000.0625,-42500.69140625,-28217.509765625,-400000.0625,-28186.990234375,-400000.0625,-25994.0703125,-400000.0625
159.35067892074585,-400000.0625,-42479.5703125,-28198.76953125,-400000.0625,-28174.359375,-400000.0625,-25974.3203125,-400000.0625
159.356703042984,-400000.0625,-42477.7109375,-28193.91015625,-400000.0625,-28180.41015625,-400000.0625,-25972.23046875,-400000.0625
159.37016654014587,-400000.0625,-42494.2109375,-28208.689453125,-400000.0625,-28191.759765625,-400000.0625,-25987.9609375,-400000.0625
159.38257789611816,-400000.0625,-42511.28125,-28229.099609375,-400000.0625,-28203.58984375,-400000.0625,-26008.66015625,-400000.0625
159.38854217529297,-400000.0625,-42503.41015625,-28221.1796875,-400000.0625,-28191.08984375,-400000.0625,-26002.4609375,-400000.0625
159.39598298072815,-400000.0625,-42480.76171875,-28199.490234375,-400000.0625,-28170.060546875,-400000.0625,-25982.33984375,-400000.0625
159.40394282341003,-400000.0625,-42478.1796875,-28197.91015625,-400000.0625,-28174.359375,-400000.0625,-25976.279296875,-400000.0625
159.4096713066101,-400000.0625,-42494.44921875,-28214.4609375,-400000.0625,-28185.900390625,-400000.0625,-25993.73046875,-400000.0625
159.41494369506836,-400000.0625,-42511.46875,-28229.759765625,-400000.0625,-28194.91015625,-400000.0625,-26004.650390625,-400000.0625
159.4213764667511,-400000.0625,-42500.55078125,-28215.98046875,-400000.0625,-28186.990234375,-400000.0625,-25984.580078125,-400000.0625
159.42710709571838,-400000.0625,-42481.8984375,-28197.33984375,-400000.0625,-28175.259765625,-400000.0625,-25966.119140625,-400000.0625
159.4323046207428,-400000.0625,-42480.328125,-28198.869140625,-400000.0625,-28172.44921875,-400000.0625,-25970.3203125,-400000.0625
159.43802165985107,-400000.0625,-42495.78125,-28214.7890625,-400000.0625,-28190.66015625,-400000.0625,-25990.580078125,-400000.0625
159.4453866481781,-400000.0625,-42514.0,-28231.810546875,-400000.0625,-28200.490234375,-400000.0625,-26011.51953125,-400000.0625
159.45391607284546,-400000.0625,-42512.37109375,-28228.380859375,-400000.0625,-28191.140625,-400000.0625,-26000.599609375,-400000.0625
159.4612557888031,-400000.0625,-42488.91015625,-28205.109375,-400000.0625,-28171.58984375,-400000.0625,-25982.859375,-400000.0625
159.4752197265625,-400000.0625,-42484.91015625,-28203.970703125,-400000.0625,-28171.640625,-400000.0625,-25979.380859375,-400000.0625
159.48228979110718,-400000.0625,-42501.73828125,-28216.029296875,-400000.0625,-28193.720703125,-400000.0625,-25987.009765625,-400000.0625
159.4883668422699,-400000.0625,-42515.19140625,-28230.859375,-400000.0625,-28199.529296875,-400000.0625,-26004.3203125,-400000.0625
159.49429774284363,-400000.0625,-42510.80078125,-28227.05078125,-400000.0625,-28191.4296875,-400000.0625,-25998.599609375,-400000.0625
159.5010154247284,-400000.0625,-42490.62890625,-28205.349609375,-400000.0625,-28178.7890625,-400000.0625,-25983.9609375,-400000.0625
159.5067014694214,-400000.0625,-42484.37890625,-28199.390625,-400000.0625,-28178.7890625,-400000.0625,-25980.140625,-400000.0625
159.51444625854492,-400000.0625,-42499.98046875,-28214.740234375,-400000.0625,-28192.189453125,-400000.0625,-25996.44921875,-400000.0625
159.5203354358673,-400000.0625,-42514.19140625,-28227.94921875,-400000.0625,-28205.2109375,-400000.0625,-26010.23046875,-400000.0625
159.52629399299622,-400000.0625,-42509.55859375,-28224.0390625,-400000.0625,-28190.900390625,-400000.0625,-26001.220703125,-400000.0625
159.53173899650574,-400000.0625,-42494.109375,-28210.44921875,-400000.0625,-28176.740234375,-400000.0625,-25984.619140625,-400000.0625
159.53675961494446,-400000.0625,-42490.01171875,-28204.640625,-400000.0625,-28178.98046875,-400000.0625,-25983.05078125,-400000.0625
159.54175329208374,-400000.0625,-42507.03125,-28219.3203125,-400000.0625,-28196.859375,-400000.0625,-25997.259765625,-400000.0625
159.54176473617554,-400000.0625,-42522.71875,-28235.490234375,-400000.0625,-28206.16015625,-400000.0625,-26013.08984375,-400000.0625
159.54176950454712,-400000.0625,-42515.08984375,-28227.05078125,-400000.0625,-28191.669921875,-400000.0625,-26004.41015625,-400000.0625
159.54879307746887,-400000.0625,-42494.48828125,-28208.349609375,-400000.0625,-28180.69921875,-400000.0625,-25985.630859375,-400000.0625
159.55617761611938,-400000.0625,-42490.578125,-28204.400390625,-400000.0625,-28184.369140625,-400000.0625,-25984.05078125,-400000.0625
159.56269192695618,-400000.0625,-42504.73828125,-28214.890625,-400000.0625,-28193.759765625,-400000.0625,-25999.01953125,-400000.0625
159.5737431049347,-400000.0625,-42513.51953125,-28225.759765625,-400000.0625,-28201.390625,-400000.0625,-26009.369140625,-400000.0625
159.57936072349548,-400000.0625,-42507.51171875,-28219.75,-400000.0625,-28192.240234375,-400000.0625,-26000.55078125,-400000.0625
159.5854687690735,-400000.0625,-42490.6796875,-28204.73046875,-400000.0625,-28174.2109375,-400000.0625,-25985.8203125,-400000.0625
159.59237456321716,-400000.0625,-42490.19921875,-28205.830078125,-400000.0625,-28179.4609375,-400000.0625,-25984.240234375,-400000.0625
159.5990490913391,-400000.0625,-42507.078125,-28220.369140625,-400000.0625,-28197.390625,-400000.0625,-26002.7890625,-400000.0625
159.6048984527588,-400000.0625,-42514.76171875,-28228.330078125,-400000.0625,-28203.109375,-400000.0625,-26011.759765625,-400000.0625
159.6109380722046,-400000.0625,-42502.03125,-28217.41015625,-400000.0625,-28188.1796875,-400000.0625,-25998.259765625,-400000.0625
159.61828446388245,-400000.0625,-42482.80859375,-28195.529296875,-400000.0625,-28166.349609375,-400000.0625,-25980.619140625,-400000.0625
159.62571477890015,-400000.0625,-42484.859375,-28196.4296875,-400000.0625,-28176.98046875,-400000.0625,-25984.2890625,-400000.0625
159.63227772712708,-400000.0625,-42506.3203125,-28216.029296875,-400000.0625,-28200.009765625,-400000.0625,-26005.1796875,-400000.0625
159.6398754119873,-400000.0625,-42523.53125,-28234.099609375,-400000.0625,-28212.41015625,-400000.0625,-26017.720703125,-400000.0625
159.64567399024963,-400000.0625,-42511.421875,-28225.380859375,-400000.0625,-28194.859375,-400000.0625,-26007.1796875,-400000.0625
159.65431237220764,-400000.0625,-42492.109375,-28206.830078125,-400000.0625,-28176.83984375,-400000.0625,-25988.919921875,-400000.0625
159.66036415100098,-400000.0625,-42488.8203125,-28204.869140625,-400000.0625,-28183.3203125,-400000.0625,-25985.2890625,-400000.0625
159.6673619747162,-400000.0625,-42503.26953125,-28219.1796875,-400000.0625,-28202.490234375,-400000.0625,-26001.740234375,-400000.0625
159.68069505691528,-400000.0625,-42517.7109375,-28234.060546875,-400000.0625,-28211.5,-400000.0625,-26021.099609375,-400000.0625
159.6878318786621,-400000.0625,-42509.98828125,-28223.140625,-400000.0625,-28195.4296875,-400000.0625,-26009.1796875,-400000.0625
159.69487714767456,-400000.0625,-42493.78125,-28205.400390625,-400000.0625,-28175.41015625,-400000.0625,-25991.400390625,-400000.0625
159.7036612033844,-400000.0625,-42494.78125,-28209.9296875,-400000.0625,-28184.75,-400000.0625,-25989.390625,-400000.0625
159.70974040031433,-400000.0625,-42508.421875,-28225.23046875,-400000.0625,-28198.91015625,-400000.0625,-26008.279296875,-400000.0625
159.7154998779297,-400000.0625,-42518.23828125,-28235.490234375,-400000.0625,-28204.439453125,-400000.0625,-26021.8203125,-400000.0625
159.72382974624634,-400000.0625,-42509.37109375,-28225.810546875,-400000.0625,-28197.720703125,-400000.0625,-26007.849609375,-400000.0625
159.73027110099792,-400000.0625,-42491.19921875,-28203.779296875,-400000.0625,-28182.41015625,-400000.0625,-25992.060546875,-400000.0625
159.73947620391846,-400000.0625,-42489.1015625,-28204.869140625,-400000.0625,-28182.83984375,-400000.0625,-25990.73046875,-400000.0625
159.7472541332245,-400000.0625,-42507.12890625,-28222.51953125,-400000.0625,-28202.349609375,-400000.0625,-26009.279296875,-400000.0625
159.75279664993286,-400000.0625,-42520.1015625,-28234.060546875,-400000.0625,-28207.5390625,-400000.0625,-26020.33984375,-400000.0625
159.75790977478027,-400000.0625,-42502.5,-28218.609375,-400000.0625,-28189.380859375,-400000.0625,-26000.9296875,-400000.0625
159.76401734352112,-400000.0625,-42481.94921875,-28200.390625,-400000.0625,-28173.58984375,-400000.0625,-25981.240234375,-400000.0625
159.77184963226318,-400000.0625,-42490.109375,-28212.169921875,-400000.0625,-28186.130859375,-400000.0625,-25984.9609375,-400000.0625
159.7820119857788,-400000.0625,-42510.7109375,-28232.76953125,-400000.0625,-28203.30078125,-400000.0625,-26007.939453125,-400000.0625
159.79199600219727,-400000.0625,-42522.2890625,-28241.349609375,-400000.0625,-28212.119140625,-400000.0625,-26023.6796875,-400000.0625
159.79893708229065,-400000.0625,-42509.609375,-28227.240234375,-400000.0625,-28197.099609375,-400000.0625,-26007.509765625,-400000.0625
159.8043177127838,-400000.0625,-42487.9609375,-28206.830078125,-400000.0625,-28182.369140625,-400000.0625,-25986.33984375,-400000.0625
159.8094449043274,-400000.0625,-42490.19921875,-28210.640625,-400000.0625,-28183.029296875,-400000.0625,-25988.19921875,-400000.0625
159.81432700157166,-400000.0625,-42506.80078125,-28228.48046875,-400000.0625,-28195.720703125,-400000.0625,-25999.83984375,-400000.0625
159.81434607505798,-400000.0625,-42513.8984375,-28236.76953125,-400000.0625,-28205.259765625,-400000.0625,-26011.140625,-400000.0625
159.81435418128967,-400000.0625,-42498.44921875,-28220.369140625,-400000.0625,-28184.369140625,-400000.0625,-26001.55078125,-400000.0625
159.8143608570099,-400000.0625,-42479.37890625,-28203.6796875,-400000.0625,-28168.73046875,-400000.0625,-25979.900390625,-400000.0625
159.81436729431152,-400000.0625,-42482.19140625,-28208.119140625,-400000.0625,-28176.9296875,-400000.0625,-25983.529296875,-400000.0625
159.81437373161316,-400000.0625,-42499.55078125,-28226.51953125,-400000.0625,-28195.099609375,-400000.0625,-26000.599609375,-400000.0625
159.81438064575195,-400000.0625,-42513.23046875,-28239.25,-400000.0625,-28206.689453125,-400000.0625,-26011.759765625,-400000.0625
159.81438636779785,-400000.0625,-42500.0703125,-28225.08984375,-400000.0625,-28191.859375,-400000.0625,-26004.599609375,-400000.0625
159.81439232826233,-400000.0625,-42481.37890625,-28206.400390625,-400000.0625,-28173.310546875,-400000.0625,-25982.0,-400000.0625
159.8144087791443,-400000.0625,-42482.328125,-28207.970703125,-400000.0625,-28179.119140625,-400000.0625,-25985.8203125,-400000.0625
159.81441402435303,-400000.0625,-42502.21875,-28223.94921875,-400000.0625,-28197.240234375,-400000.0625,-26005.3203125,-400000.0625
159.81441831588745,-400000.0625,-42510.94140625,-28233.869140625,-400000.0625,-28206.30078125,-400000.0625,-26016.5703125,-400000.0625
159.8144233226776,-400000.0625,-42495.640625,-28221.609375,-400000.0625,-28186.75,-400000.0625,-26005.560546875,-400000.0625
159.81442761421204,-400000.0625,-42482.140625,-28206.0703125,-400000.0625,-28170.060546875,-400000.0625,-25988.30078125,-400000.0625
159.81443214416504,-400000.0625,-42485.23828125,-28210.119140625,-400000.0625,-28181.509765625,-400000.0625,-25994.01953125,-400000.0625
159.8144371509552,-400000.0625,-42502.6484375,-28230.619140625,-400000.0625,-28198.099609375,-400000.0625,-26012.189453125,-400000.0625
159.81444120407104,-400000.0625,-42513.7109375,-28239.73046875,-400000.0625,-28202.390625,-400000.0625,-26021.19921875,-400000.0625
159.8144452571869,-400000.0625,-42498.26171875,-28224.380859375,-400000.0625,-28186.369140625,-400000.0625,-26006.029296875,-400000.0625
159.81444907188416,-400000.0625,-42485.80859375,-28210.44921875,-400000.0625,-28173.880859375,-400000.0625,-25992.01953125,-400000.0625
159.82035636901855,-400000.0625,-42483.48046875,-28209.640625,-400000.0625,-28175.41015625,-400000.0625,-25994.73046875,-400000.0625
159.82542276382446,-400000.0625,-42499.73828125,-28227.51953125,-400000.0625,-28195.2890625,-400000.0625,-26008.560546875,-400000.0625
159.83090090751648,-400000.0625,-42512.28125,-28238.970703125,-400000.0625,-28204.640625,-400000.0625,-26018.240234375,-400000.0625
159.836608171463,-400000.0625,-42495.3984375,-28221.75,-400000.0625,-28188.900390625,-400000.0625,-26003.4609375,-400000.0625
159.841628074646,-400000.0625,-42476.75,-28204.5390625,-400000.0625,-28173.44921875,-400000.0625,-25981.859375,-400000.0625
159.84710478782654,-400000.0625,-42479.0390625,-28206.44921875,-400000.0625,-28176.41015625,-400000.0625,-25986.669921875,-400000.0625
159.85244035720825,-400000.0625,-42498.9296875,-28223.94921875,-400000.0625,-28200.150390625,-400000.0625,-26010.94921875,-400000.0625
159.85816526412964,-400000.0625,-42508.80078125,-28231.91015625,-400000.0625,-28206.640625,-400000.0625,-26025.490234375,-400000.0625
159.86297225952148,-400000.0625,-42496.96875,-28220.419921875,-400000.0625,-28185.470703125,-400000.0625,-26009.900390625,-400000.0625
159.8629810810089,-400000.0625,-42475.75,-28203.109375,-400000.0625,-28170.109375,-400000.0625,-25988.390625,-400000.0625
159.8629856109619,-400000.0625,-42473.75,-28203.58984375,-400000.0625,-28178.119140625,-400000.0625,-25993.2109375,-400000.0625
159.86298966407776,-400000.0625,-42495.828125,-28225.5703125,-400000.0625,-28194.529296875,-400000.0625,-26014.189453125,-400000.0625
159.86299347877502,-400000.0625,-42512.23046875,-28243.880859375,-400000.0625,-28205.44921875,-400000.0625,-26029.44921875,-400000.0625
159.86299777030945,-400000.0625,-42500.69140625,-28229.669921875,-400000.0625,-28190.0,-400000.0625,-26016.2890625,-400000.0625
159.8630018234253,-400000.0625,-42480.28125,-28207.73046875,-400000.0625,-28172.310546875,-400000.0625,-25999.169921875,-400000.0625
159.86300587654114,-400000.0625,-42479.5703125,-28207.5,-400000.0625,-28176.01953125,-400000.0625,-25996.779296875,-400000.0625
159.86300992965698,-400000.0625,-42494.828125,-28223.80078125,-400000.0625,-28191.05078125,-400000.0625,-26010.849609375,-400000.0625
159.86301398277283,-400000.0625,-42507.6484375,-28236.580078125,-400000.0625,-28201.9609375,-400000.0625,-26025.8203125,-400000.0625
159.86301827430725,-400000.0625,-42497.9296875,-28223.80078125,-400000.0625,-28188.900390625,-400000.0625,-26014.140625,-400000.0625
159.86302208900452,-400000.0625,-42476.8515625,-28204.16015625,-400000.0625,-28170.640625,-400000.0625,-25992.869140625,-400000.0625
159.86302614212036,-400000.0625,-42476.94921875,-28208.259765625,-400000.0625,-28175.689453125,-400000.0625,-25994.779296875,-400000.0625
159.86302995681763,-400000.0625,-42491.6796875,-28222.609375,-400000.0625,-28190.08984375,-400000.0625,-26015.0,-400000.0625
159.8630337715149,-400000.0625,-42505.6015625,-28235.490234375,-400000.0625,-28196.619140625,-400000.0625,-26026.19921875,-400000.0625
159.86303758621216,-400000.0625,-42496.78125,-28228.669921875,-400000.0625,-28189.419921875,-400000.0625,-26017.859375,-400000.0625
159.86304140090942,-400000.0625,-42475.0390625,-28209.169921875,-400000.0625,-28175.599609375,-400000.0625,-25998.400390625,-400000.0625
159.8630452156067,-400000.0625,-42476.28125,-28209.44921875,-400000.0625,-28180.4609375,-400000.0625,-25999.359375,-400000.0625
159.86304903030396,-400000.0625,-42494.58984375,-28225.23046875,-400000.0625,-28194.099609375,-400000.0625,-26020.240234375,-400000.0625
159.8630530834198,-400000.0625,-42507.12890625,-28238.400390625,-400000.0625,-28201.150390625,-400000.0625,-26033.830078125,-400000.0625
159.86305713653564,-400000.0625,-42499.359375,-28229.099609375,-400000.0625,-28189.470703125,-400000.0625,-26023.6796875,-400000.0625
159.8630609512329,-400000.0625,-42478.5703125,-28208.689453125,-400000.0625,-28172.9296875,-400000.0625,-26005.3203125,-400000.0625
159.86306476593018,-400000.0625,-42479.62109375,-28209.58984375,-400000.0625,-28176.98046875,-400000.0625,-26000.55078125,-400000.0625
159.86306858062744,-400000.0625,-42494.58984375,-28224.330078125,-400000.0625,-28194.140625,-400000.0625,-26018.099609375,-400000.0625
159.8630723953247,-400000.0625,-42508.55859375,-28235.869140625,-400000.0625,-28201.25,-400000.0625,-26026.30078125,-400000.0625
159.86307621002197,-400000.0625,-42496.87890625,-28227.51953125,-400000.0625,-28190.08984375,-400000.0625,-26016.05078125,-400000.0625
159.86308002471924,-400000.0625,-42475.51171875,-28208.400390625,-400000.0625,-28173.5,-400000.0625,-26001.26953125,-400000.0625
159.8630838394165,-400000.0625,-42474.0390625,-28205.6796875,-400000.0625,-28176.5,-400000.0625,-26000.7890625,-400000.0625
159.86308789253235,-400000.0625,-42494.2109375,-28225.23046875,-400000.0625,-28193.94921875,-400000.0625,-26024.630859375,-400000.0625
159.8630919456482,-400000.0625,-42511.66015625,-28241.400390625,-400000.0625,-28202.25,-400000.0625,-26038.599609375,-400000.0625
159.86309552192688,-400000.0625,-42505.7890625,-28234.76953125,-400000.0625,-28189.380859375,-400000.0625,-26026.6796875,-400000.0625
159.86309933662415,-400000.0625,-42486.390625,-28214.599609375,-400000.0625,-28172.9296875,-400000.0625,-26006.509765625,-400000.0625
159.86310338974,-400000.0625,-42483.19140625,-28211.7890625,-400000.0625,-28175.55078125,-400000.0625,-26005.220703125,-400000.0625
159.86310720443726,-400000.0625,-42496.5,-28226.7109375,-400000.0625,-28188.759765625,-400000.0625,-26024.33984375,-400000.0625
159.86311078071594,-400000.0625,-42508.609375,-28239.779296875,-400000.0625,-28198.33984375,-400000.0625,-26039.890625,-400000.0625
159.8631145954132,-400000.0625,-42499.3984375,-28230.9609375,-400000.0625,-28188.849609375,-400000.0625,-26029.44921875,-400000.0625
159.86311841011047,-400000.0625,-42478.76171875,-28210.740234375,-400000.0625,-28170.060546875,-400000.0625,-26009.849609375,-400000.0625
159.86312246322632,-400000.0625,-42479.37890625,-28210.0703125,-400000.0625,-28173.16015625,-400000.0625,-26012.470703125,-400000.0625
159.86312627792358,-400000.0625,-42496.30078125,-28228.05078125,-400000.0625,-28192.240234375,-400000.0625,-26033.5,-400000.0625
159.86313009262085,-400000.0625,-42512.37109375,-28244.779296875,-400000.0625,-28197.009765625,-400000.0625,-26048.470703125,-400000.0625
159.86313390731812,-400000.0625,-42501.83984375,-28233.869140625,-400000.0625,-28186.75,-400000.0625,-26037.220703125,-400000.0625
159.86313772201538,-400000.0625,-42479.51953125,-28209.689453125,-400000.0625,-28171.689453125,-400000.0625,-26016.619140625,-400000.0625
159.86314153671265,-400000.0625,-42475.609375,-28208.830078125,-400000.0625,-28170.400390625,-400000.0625,-26012.380859375,-400000.0625
159.8631455898285,-400000.0625,-42492.5390625,-28227.5703125,-400000.0625,-28185.419921875,-400000.0625,-26032.9296875,-400000.0625
159.86314916610718,-400000.0625,-42508.890625,-28244.2109375,-400000.0625,-28196.859375,-400000.0625,-26046.849609375,-400000.0625
159.86315298080444,-400000.0625,-42499.171875,-28231.19921875,-400000.0625,-28181.169921875,-400000.0625,-26038.599609375,-400000.0625
159.8631570339203,-400000.0625,-42477.46875,-28208.55078125,-400000.0625,-28160.669921875,-400000.0625,-26019.619140625,-400000.0625
159.8631625175476,-400000.0625,-42478.1796875,-28210.599609375,-400000.0625,-28173.5,-400000.0625,-26018.810546875,-400000.0625
159.86316633224487,-400000.0625,-42496.640625,-28229.720703125,-400000.0625,-28190.94921875,-400000.0625,-26039.599609375,-400000.0625
159.86317038536072,-400000.0625,-42514.140625,-28248.310546875,-400000.0625,-28199.76953125,-400000.0625,-26050.900390625,-400000.0625
159.8688154220581,-400000.0625,-42504.21875,-28237.630859375,-400000.0625,-28182.650390625,-400000.0625,-26040.890625,-400000.0625
159.87412476539612,-400000.0625,-42488.390625,-28221.3203125,-400000.0625,-28170.779296875,-400000.0625,-26024.150390625,-400000.0625
159.88411617279053,-400000.0625,-42490.30078125,-28222.75,-400000.0625,-28178.119140625,-400000.0625,-26025.19921875,-400000.0625
159.88964104652405,-400000.0625,-42508.94140625,-28239.109375,-400000.0625,-28194.810546875,-400000.0625,-26043.3203125,-400000.0625
159.89416122436523,-400000.0625,-42518.4296875,-28247.650390625,-400000.0625,-28197.240234375,-400000.0625,-26058.919921875,-400000.0625
159.89416980743408,-400000.0625,-42508.078125,-28236.8203125,-400000.0625,-28183.80078125,-400000.0625,-26050.759765625,-400000.0625
159.8941740989685,-400000.0625,-42496.73046875,-28222.80078125,-400000.0625,-28170.2109375,-400000.0625,-26030.109375,-400000.0625
159.8941786289215,-400000.0625,-42492.25,-28220.939453125,-400000.0625,-28172.109375,-400000.0625,-26030.01953125,-400000.0625
159.8941831588745,-400000.0625,-42506.03125,-28235.630859375,-400000.0625,-28186.75,-400000.0625,-26047.0390625,-400000.0625
159.89418721199036,-400000.0625,-42520.71875,-28245.640625,-400000.0625,-28197.9609375,-400000.0625,-26063.060546875,-400000.0625
159.8941912651062,-400000.0625,-42511.609375,-28236.009765625,-400000.0625,-28185.66015625,-400000.0625,-26052.48046875,-400000.0625
159.89419507980347,-400000.0625,-42488.05859375,-28216.3203125,-400000.0625,-28170.060546875,-400000.0625,-26032.259765625,-400000.0625
159.8941993713379,-400000.0625,-42486.53125,-28215.83984375,-400000.0625,-28173.400390625,-400000.0625,-26032.359375,-400000.0625
159.894202709198,-400000.0625,-42502.5,-28232.630859375,-400000.0625,-28187.990234375,-400000.0625,-26048.5703125,-400000.0625
159.89420628547668,-400000.0625,-42513.5703125,-28244.830078125,-400000.0625,-28196.390625,-400000.0625,-26064.2109375,-400000.0625
159.89420986175537,-400000.0625,-42501.41015625,-28231.240234375,-400000.0625,-28179.890625,-400000.0625,-26051.619140625,-400000.0625
159.89421343803406,-400000.0625,-42483.23828125,-28211.55078125,-400000.0625,-28162.669921875,-400000.0625,-26029.970703125,-400000.0625
159.89421725273132,-400000.0625,-42482.5703125,-28213.7890625,-400000.0625,-28170.109375,-400000.0625,-26032.359375,-400000.0625
159.89422035217285,-400000.0625,-42498.9296875,-28233.580078125,-400000.0625,-28186.849609375,-400000.0625,-26049.0,-400000.0625
159.89422416687012,-400000.0625,-42512.609375,-28245.9296875,-400000.0625,-28194.669921875,-400000.0625,-26063.2109375,-400000.0625
159.8942277431488,-400000.0625,-42504.890625,-28230.859375,-400000.0625,-28182.509765625,-400000.0625,-26053.859375,-400000.0625
159.8942310810089,-400000.0625,-42485.91015625,-28215.939453125,-400000.0625,-28168.869140625,-400000.0625,-26035.650390625,-400000.0625
159.8942346572876,-400000.0625,-42489.1015625,-28224.140625,-400000.0625,-28176.5,-400000.0625,-26040.369140625,-400000.0625
159.89423823356628,-400000.0625,-42511.98828125,-28245.7890625,-400000.0625,-28196.0,-400000.0625,-26062.58984375,-400000.0625
159.89424204826355,-400000.0625,-42522.23828125,-28255.75,-400000.0625,-28200.73046875,-400000.0625,-26067.9296875,-400000.0625
159.89424538612366,-400000.0625,-42509.98828125,-28241.919921875,-400000.0625,-28182.83984375,-400000.0625,-26051.91015625,-400000.0625
159.89424896240234,-400000.0625,-42491.19921875,-28224.849609375,-400000.0625,-28166.869140625,-400000.0625,-26040.75,-400000.0625
159.89425253868103,-400000.0625,-42488.1015625,-28223.0390625,-400000.0625,-28174.119140625,-400000.0625,-26042.80078125,-400000.0625
159.89425611495972,-400000.0625,-42506.55859375,-28242.779296875,-400000.0625,-28196.240234375,-400000.0625,-26055.720703125,-400000.0625
159.89425945281982,-400000.0625,-42519.53125,-28254.23046875,-400000.0625,-28200.9609375,-400000.0625,-26065.349609375,-400000.0625
159.8942630290985,-400000.0625,-42503.41015625,-28243.400390625,-400000.0625,-28182.80078125,-400000.0625,-26055.48046875,-400000.0625
159.89426708221436,-400000.0625,-42483.62109375,-28225.470703125,-400000.0625,-28167.5390625,-400000.0625,-26034.83984375,-400000.0625
159.89427042007446,-400000.0625,-42488.71875,-28225.140625,-400000.0625,-28173.16015625,-400000.0625,-26032.58984375,-400000.0625
159.89427399635315,-400000.0625,-42503.21875,-28241.58984375,-400000.0625,-28189.23046875,-400000.0625,-26048.94921875,-400000.0625
159.89427781105042,-400000.0625,-42510.94140625,-28253.419921875,-400000.0625,-28200.33984375,-400000.0625,-26062.30078125,-400000.0625
159.8942813873291,-400000.0625,-42499.98046875,-28240.490234375,-400000.0625,-28184.23046875,-400000.0625,-26050.279296875,-400000.0625
159.89428520202637,-400000.0625,-42480.0390625,-28219.609375,-400000.0625,-28168.30078125,-400000.0625,-26033.2109375,-400000.0625
159.89428877830505,-400000.0625,-42476.37109375,-28222.900390625,-400000.0625,-28174.119140625,-400000.0625,-26029.880859375,-400000.0625
159.89429211616516,-400000.0625,-42491.578125,-28240.58984375,-400000.0625,-28191.859375,-400000.0625,-26046.7109375,-400000.0625
159.89429569244385,-400000.0625,-42502.83984375,-28252.029296875,-400000.0625,-28201.33984375,-400000.0625,-26060.630859375,-400000.0625
159.8942995071411,-400000.0625,-42495.30078125,-28242.73046875,-400000.0625,-28189.66015625,-400000.0625,-26051.330078125,-400000.0625
159.8943030834198,-400000.0625,-42480.0,-28225.23046875,-400000.0625,-28174.640625,-400000.0625,-26036.310546875,-400000.0625
159.8943066596985,-400000.0625,-42476.46875,-28224.810546875,-400000.0625,-28176.359375,-400000.0625,-26032.400390625,-400000.0625
159.89431023597717,-400000.0625,-42493.96875,-28243.400390625,-400000.0625,-28190.470703125,-400000.0625,-26050.240234375,-400000.0625
159.89431357383728,-400000.0625,-42509.8515625,-28258.609375,-400000.0625,-28200.33984375,-400000.0625,-26066.349609375,-400000.0625
159.89431715011597,-400000.0625,-42500.6015625,-28251.369140625,-400000.0625,-28192.330078125,-400000.0625,-26059.869140625,-400000.0625
159.89432096481323,-400000.0625,-42483.2890625,-28232.669921875,-400000.0625,-28174.830078125,-400000.0625,-26046.900390625,-400000.0625
159.89432454109192,-400000.0625,-42484.71875,-28231.099609375,-400000.0625,-28182.41015625,-400000.0625,-26042.1796875,-400000.0625
159.89432787895203,-400000.0625,-42497.3984375,-28250.55078125,-400000.0625,-28198.439453125,-400000.0625,-26055.05078125,-400000.0625
159.8943314552307,-400000.0625,-42508.609375,-28262.140625,-400000.0625,-28204.490234375,-400000.0625,-26070.9296875,-400000.0625
159.89433526992798,-400000.0625,-42497.16015625,-28247.359375,-400000.0625,-28199.529296875,-400000.0625,-26058.869140625,-400000.0625
159.8943383693695,-400000.0625,-42476.12890625,-28226.380859375,-400000.0625,-28179.83984375,-400000.0625,-26041.220703125,-400000.0625
159.8943428993225,-400000.0625,-42476.46875,-28227.4296875,-400000.0625,-28182.130859375,-400000.0625,-26040.3203125,-400000.0625
159.89434671401978,-400000.0625,-42491.76953125,-28241.970703125,-400000.0625,-28197.91015625,-400000.0625,-26056.25,-400000.0625
159.89435005187988,-400000.0625,-42502.83984375,-28251.69921875,-400000.0625,-28201.490234375,-400000.0625,-26067.689453125,-400000.0625
159.89435362815857,-400000.0625,-42494.48828125,-28244.2109375,-400000.0625,-28188.380859375,-400000.0625,-26060.19921875,-400000.0625
159.89435720443726,-400000.0625,-42477.421875,-28226.330078125,-400000.0625,-28173.259765625,-400000.0625,-26040.560546875,-400000.0625
159.89436078071594,-400000.0625,-42476.12890625,-28224.279296875,-400000.0625,-28183.890625,-400000.0625,-26043.0390625,-400000.0625
159.89436411857605,-400000.0625,-42489.390625,-28239.109375,-400000.0625,-28195.380859375,-400000.0625,-26060.630859375,-400000.0625
159.89436769485474,-400000.0625,-42503.6015625,-28253.419921875,-400000.0625,-28203.8203125,-400000.0625,-26073.130859375,-400000.0625
159.89437103271484,-400000.0625,-42492.78125,-28242.880859375,-400000.0625,-28193.099609375,-400000.0625,-26062.779296875,-400000.0625
159.89437460899353,-400000.0625,-42476.23046875,-28223.66015625,-400000.0625,-28174.55078125,-400000.0625,-26040.69921875,-400000.0625
159.89437818527222,-400000.0625,-42476.23046875,-28225.08984375,-400000.0625,-28180.509765625,-400000.0625,-26040.83984375,-400000.0625
159.89438152313232,-400000.0625,-42491.62890625,-28241.0703125,-400000.0625,-28197.2890625,-400000.0625,-26063.44921875,-400000.0625
159.894385099411,-400000.0625,-42501.171875,-28251.939453125,-400000.0625,-28204.919921875,-400000.0625,-26076.029296875,-400000.0625
159.89438843727112,-400000.0625,-42489.19921875,-28240.44921875,-400000.0625,-28189.900390625,-400000.0625,-26064.109375,-400000.0625
159.8943920135498,-400000.0625,-42470.6484375,-28222.140625,-400000.0625,-28174.5,-400000.0625,-26049.759765625,-400000.0625
159.8943953514099,-400000.0625,-42467.98046875,-28218.23046875,-400000.0625,-28178.029296875,-400000.0625,-26051.240234375,-400000.0625
159.89439868927002,-400000.0625,-42483.140625,-28233.630859375,-400000.0625,-28192.380859375,-400000.0625,-26060.390625,-400000.0625
159.8944022655487,-400000.0625,-42498.44921875,-28249.740234375,-400000.0625,-28203.439453125,-400000.0625,-26076.890625,-400000.0625
159.89440608024597,-400000.0625,-42482.80859375,-28233.390625,-400000.0625,-28191.189453125,-400000.0625,-26067.55078125,-400000.0625
159.89440965652466,-400000.0625,-42464.55078125,-28215.55078125,-400000.0625,-28173.5,-400000.0625,-26048.51953125,-400000.0625
159.89441347122192,-400000.0625,-42465.26171875,-28217.080078125,-400000.0625,-28175.9296875,-400000.0625,-26052.33984375,-400000.0625
159.8944172859192,-400000.0625,-42482.94921875,-28231.720703125,-400000.0625,-28190.66015625,-400000.0625,-26069.689453125,-400000.0625
159.89442086219788,-400000.0625,-42494.96875,-28244.55078125,-400000.0625,-28200.19921875,-400000.0625,-26087.099609375,-400000.0625
159.89442443847656,-400000.0625,-42482.76171875,-28230.150390625,-400000.0625,-28184.509765625,-400000.0625,-26078.26953125,-400000.0625
159.89442825317383,-400000.0625,-42464.359375,-28210.740234375,-400000.0625,-28169.58984375,-400000.0625,-26058.25,-400000.0625
159.89443182945251,-400000.0625,-42460.01953125,-28207.16015625,-400000.0625,-28174.169921875,-400000.0625,-26058.19921875,-400000.0625
159.8944354057312,-400000.0625,-42471.69921875,-28220.560546875,-400000.0625,-28188.80078125,-400000.0625,-26072.119140625,-400000.0625
159.8944389820099,-400000.0625,-42487.71875,-28235.919921875,-400000.0625,-28198.869140625,-400000.0625,-26084.66015625,-400000.0625
159.89444255828857,-400000.0625,-42480.8984375,-28229.529296875,-400000.0625,-28183.650390625,-400000.0625,-26076.83984375,-400000.0625
159.89444661140442,-400000.0625,-42463.359375,-28212.029296875,-400000.0625,-28164.91015625,-400000.0625,-26060.630859375,-400000.0625
159.8944501876831,-400000.0625,-42459.78125,-28206.779296875,-400000.0625,-28163.720703125,-400000.0625,-26058.439453125,-400000.0625
159.89445400238037,-400000.0625,-42477.8515625,-28224.140625,-400000.0625,-28185.23046875,-400000.0625,-26079.0390625,-400000.0625
159.89445781707764,-400000.0625,-42487.71875,-28237.630859375,-400000.0625,-28194.5703125,-400000.0625,-26092.9609375,-400000.0625
159.89446139335632,-400000.0625,-42476.0390625,-28228.669921875,-400000.0625,-28183.890625,-400000.0625,-26077.80078125,-400000.0625
159.8944652080536,-400000.0625,-42457.19921875,-28212.5,-400000.0625,-28169.30078125,-400000.0625,-26060.439453125,-400000.0625
159.89446878433228,-400000.0625,-42453.8203125,-28211.220703125,-400000.0625,-28172.9296875,-400000.0625,-26054.05078125,-400000.0625
159.89447236061096,-400000.0625,-42475.1796875,-28232.19921875,-400000.0625,-28190.900390625,-400000.0625,-26073.509765625,-400000.0625
159.89447593688965,-400000.0625,-42487.71875,-28247.359375,-400000.0625,-28206.779296875,-400000.0625,-26084.94921875,-400000.0625
159.8944797515869,-400000.0625,-42471.55859375,-28232.630859375,-400000.0625,-28189.609375,-400000.0625,-26080.1796875,-400000.0625
159.8944833278656,-400000.0625,-42447.62109375,-28206.779296875,-400000.0625,-28164.25,-400000.0625,-26058.6796875,-400000.0625
159.8944866657257,-400000.0625,-42457.390625,-28216.369140625,-400000.0625,-28177.259765625,-400000.0625,-26058.630859375,-400000.0625
159.8944902420044,-400000.0625,-42471.94140625,-28230.76953125,-400000.0625,-28193.4296875,-400000.0625,-26075.80078125,-400000.0625
159.89449381828308,-400000.0625,-42477.66015625,-28236.6796875,-400000.0625,-28196.19921875,-400000.0625,-26088.810546875,-400000.0625
159.8944971561432,-400000.0625,-42475.609375,-28232.859375,-400000.0625,-28186.849609375,-400000.0625,-26084.240234375,-400000.0625
159.89450073242188,-400000.0625,-42457.96875,-28216.26953125,-400000.0625,-28175.2109375,-400000.0625,-26069.640625,-400000.0625
159.8945062160492,-400000.0625,-42459.48828125,-28218.75,-400000.0625,-28178.890625,-400000.0625,-26073.55078125,-400000.0625
159.89451003074646,-400000.0625,-42470.75,-28233.099609375,-400000.0625,-28193.2890625,-400000.0625,-26086.140625,-400000.0625
159.89451336860657,-400000.0625,-42482.328125,-28244.259765625,-400000.0625,-28201.30078125,-400000.0625,-26103.44921875,-400000.0625
159.89451694488525,-400000.0625,-42472.21875,-28230.580078125,-400000.0625,-28183.080078125,-400000.0625,-26089.390625,-400000.0625
159.89452052116394,-400000.0625,-42451.76953125,-28210.359375,-400000.0625,-28171.30078125,-400000.0625,-26074.599609375,-400000.0625
159.89452409744263,-400000.0625,-42451.23828125,-28211.880859375,-400000.0625,-28177.359375,-400000.0625,-26074.75,-400000.0625
159.89452743530273,-400000.0625,-42467.26953125,-28228.619140625,-400000.0625,-28194.759765625,-400000.0625,-26091.8203125,-400000.0625
159.89453125,-400000.0625,-42482.671875,-28243.259765625,-400000.0625,-28205.349609375,-400000.0625,-26107.55078125,-400000.0625
159.8945348262787,-400000.0625,-42476.328125,-28236.73046875,-400000.0625,-28191.619140625,-400000.0625,-26099.01953125,-400000.0625
159.89453840255737,-400000.0625,-42453.1015625,-28215.220703125,-400000.0625,-28173.01953125,-400000.0625,-26081.66015625,-400000.0625
159.89454221725464,-400000.0625,-42449.9609375,-28212.310546875,-400000.0625,-28174.5,-400000.0625,-26082.380859375,-400000.0625
159.8945460319519,-400000.0625,-42467.0703125,-28228.859375,-400000.0625,-28190.23046875,-400000.0625,-26097.6796875,-400000.0625
159.89454984664917,-400000.0625,-42478.140625,-28239.060546875,-400000.0625,-28198.76953125,-400000.0625,-26113.419921875,-400000.0625
159.89455342292786,-400000.0625,-42466.73828125,-28225.0,-400000.0625,-28182.83984375,-400000.0625,-26105.55078125,-400000.0625
159.89455699920654,-400000.0625,-42446.08984375,-28205.44921875,-400000.0625,-28166.109375,-400000.0625,-26086.05078125,-400000.0625
159.89456033706665,-400000.0625,-42446.37890625,-28207.01953125,-400000.0625,-28173.9296875,-400000.0625,-26083.810546875,-400000.0625
159.8945643901825,-400000.0625,-42471.21875,-28227.05078125,-400000.0625,-28191.140625,-400000.0625,-26107.599609375,-400000.0625
159.89456796646118,-400000.0625,-42485.1015625,-28241.58984375,-400000.0625,-28199.720703125,-400000.0625,-26123.0,-400000.0625
159.8945713043213,-400000.0625,-42469.55078125,-28228.5703125,-400000.0625,-28186.08984375,-400000.0625,-26113.26953125,-400000.0625
159.89457511901855,-400000.0625,-42451.23828125,-28210.259765625,-400000.0625,-28167.919921875,-400000.0625,-26096.060546875,-400000.0625
159.89457845687866,-400000.0625,-42453.33984375,-28212.599609375,-400000.0625,-28183.080078125,-400000.0625,-26095.009765625,-400000.0625
159.89458179473877,-400000.0625,-42471.03125,-28229.529296875,-400000.0625,-28194.189453125,-400000.0625,-26107.599609375,-400000.0625
159.89458537101746,-400000.0625,-42476.51953125,-28233.33984375,-400000.0625,-28192.4296875,-400000.0625,-26124.4296875,-400000.0625
159.89458870887756,-400000.0625,-42467.6484375,-28222.369140625,-400000.0625,-28184.26953125,-400000.0625,-26115.94921875,-400000.0625
159.89459228515625,-400000.0625,-42450.53125,-28206.16015625,-400000.0625,-28171.73046875,-400000.0625,-26099.259765625,-400000.0625
159.89459586143494,-400000.0625,-42450.48046875,-28206.970703125,-400000.0625,-28174.98046875,-400000.0625,-26096.5390625,-400000.0625
159.89459919929504,-400000.0625,-42470.078125,-28226.189453125,-400000.0625,-28194.619140625,-400000.0625,-26110.990234375,-400000.0625
159.89460277557373,-400000.0625,-42484.0,-28239.6796875,-400000.0625,-28203.8203125,-400000.0625,-26126.439453125,-400000.0625
159.89460611343384,-400000.0625,-42476.46875,-28231.619140625,-400000.0625,-28192.330078125,-400000.0625,-26121.619140625,-400000.0625
159.89460968971252,-400000.0625,-42454.9609375,-28212.029296875,-400000.0625,-28174.98046875,-400000.0625,-26105.119140625,-400000.0625
159.89461302757263,-400000.0625,-42453.1484375,-28210.830078125,-400000.0625,-28179.119140625,-400000.0625,-26103.119140625,-400000.0625
159.89461612701416,-400000.0625,-42472.80078125,-28227.380859375,-400000.0625,-28192.759765625,-400000.0625,-26118.66015625,-400000.0625
159.89461994171143,-400000.0625,-42491.73046875,-28244.689453125,-400000.0625,-28204.109375,-400000.0625,-26133.25,-400000.0625
159.8946235179901,-400000.0625,-42479.76171875,-28233.720703125,-400000.0625,-28186.51953125,-400000.0625,-26122.05078125,-400000.0625
159.89462685585022,-400000.0625,-42462.44921875,-28216.7890625,-400000.0625,-28176.5,-400000.0625,-26106.220703125,-400000.0625
159.8946304321289,-400000.0625,-42461.96875,-28214.509765625,-400000.0625,-28182.080078125,-400000.0625,-26105.689453125,-400000.0625
159.894633769989,-400000.0625,-42474.98828125,-28229.33984375,-400000.0625,-28197.8203125,-400000.0625,-26121.380859375,-400000.0625
159.8946373462677,-400000.0625,-42486.8203125,-28243.779296875,-400000.0625,-28203.919921875,-400000.0625,-26134.349609375,-400000.0625
159.8946409225464,-400000.0625,-42479.7109375,-28235.30078125,-400000.0625,-28192.859375,-400000.0625,-26124.189453125,-400000.0625
