time,ch1,ch2,ch3,ch4,ch5,ch6,ch7,ch8
150.22049951553345,-553.4199829101562,-4812.0498046875,-8022.68994140625,-400000.0625,-6399.35009765625,-400000.0625,-400000.0625,-400000.0625
150.2435805797577,-601.3900146484375,-4863.60009765625,-8080.009765625,-400000.0625,-6446.27001953125,-400000.0625,-400000.0625,-400000.0625
150.26534914970398,-625.9000244140625,-4886.25,-8105.56982421875,-400000.0625,-6468.39013671875,-400000.0625,-400000.0625,-400000.0625
150.30988001823425,-596.0900268554688,-4849.240234375,-8067.080078125,-400000.0625,-6434.25,-400000.0625,-400000.0625,-400000.0625
150.33187985420227,-551.75,-4806.330078125,-8018.830078125,-400000.0625,-6390.52001953125,-400000.0625,-400000.0625,-400000.0625
150.35319447517395,-554.510009765625,-4814.43017578125,-8026.4599609375,-400000.0625,-6400.39990234375,-400000.0625,-400000.0625,-400000.0625
150.3742733001709,-599.1900024414062,-4860.2099609375,-8077.240234375,-400000.0625,-6445.740234375,-400000.0625,-400000.0625,-400000.0625
150.41289138793945,-625.989990234375,-4877.85009765625,-8099.990234375,-400000.0625,-6467.43994140625,-400000.0625,-400000.0625,-400000.0625
150.43280673027039,-596.6199951171875,-4847.72021484375,-8068.27978515625,-400000.0625,-6439.02001953125,-400000.0625,-400000.0625,-400000.0625
150.45436120033264,-549.8400268554688,-4805.14013671875,-8019.93017578125,-400000.0625,-6396.81982421875,-400000.0625,-400000.0625,-400000.0625
150.47462368011475,-552.0800170898438,-4810.52001953125,-8022.169921875,-400000.0625,-6395.39013671875,-400000.0625,-400000.0625,-400000.0625
150.51844429969788,-596.0900268554688,-4853.9599609375,-8070.89990234375,-400000.0625,-6438.830078125,-400000.0625,-400000.0625,-400000.0625
150.53832268714905,-618.97998046875,-4873.7998046875,-8096.1201171875,-400000.0625,-6465.47998046875,-400000.0625,-400000.0625,-400000.0625
150.55711889266968,-587.6099853515625,-4847.14990234375,-8065.31982421875,-400000.0625,-6436.58984375,-400000.0625,-400000.0625,-400000.0625
150.57986855506897,-543.6900024414062,-4803.7099609375,-8018.490234375,-400000.0625,-6395.14990234375,-400000.0625,-400000.0625,-400000.0625
150.62538838386536,-542.5900268554688,-4805.759765625,-8020.68994140625,-400000.0625,-6395.6298828125,-400000.0625,-400000.0625,-400000.0625
150.6471381187439,-592.22998046875,-4856.06005859375,-8076.0498046875,-400000.0625,-6443.7900390625,-400000.0625,-400000.0625,-400000.0625
150.66415762901306,-618.7899780273438,-4879.330078125,-8102.75,-400000.0625,-6467.43994140625,-400000.0625,-400000.0625,-400000.0625
150.68480372428894,-587.510009765625,-4845.91015625,-8065.93994140625,-400000.0625,-6430.81982421875,-400000.0625,-400000.0625,-400000.0625
150.72408318519592,-543.97998046875,-4808.08984375,-8018.5400390625,-400000.0625,-6391.10009765625,-400000.0625,-400000.0625,-400000.0625
150.7410750389099,-548.3599853515625,-4810.6201171875,-8020.5,-400000.0625,-6397.06005859375,-400000.0625,-400000.0625,-400000.0625
150.7639605998993,-594.0900268554688,-4854.81982421875,-8073.66015625,-400000.0625,-6444.8798828125,-400000.0625,-400000.0625,-400000.0625
150.7855339050293,-617.1699829101562,-4878.27978515625,-8103.08984375,-400000.0625,-6465.77001953125,-400000.0625,-400000.0625,-400000.0625
150.8306748867035,-585.8900146484375,-4851.39013671875,-8070.330078125,-400000.0625,-6437.35009765625,-400000.0625,-400000.0625,-400000.0625
150.84636664390564,-545.6900024414062,-4811.669921875,-8022.60009765625,-400000.0625,-6394.580078125,-400000.0625,-400000.0625,-400000.0625
150.86198234558105,-548.030029296875,-4811.56982421875,-8025.27001953125,-400000.0625,-6398.77001953125,-400000.0625,-400000.0625,-400000.0625
150.87974405288696,-593.6099853515625,-4859.97021484375,-8076.759765625,-400000.0625,-6446.4599609375,-400000.0625,-400000.0625,-400000.0625
150.9026756286621,-619.4600219726562,-4883.669921875,-8102.27001953125,-400000.0625,-6467.14990234375,-400000.0625,-400000.0625,-400000.0625
150.9400396347046,-590.6099853515625,-4849.39013671875,-8069.1298828125,-400000.0625,-6438.830078125,-400000.0625,-400000.0625,-400000.0625
150.9565703868866,-547.1199951171875,-4809.43017578125,-8021.16015625,-400000.0625,-6399.10986328125,-400000.0625,-400000.0625,-400000.0625
150.98351907730103,-547.27001953125,-4813.240234375,-8023.60009765625,-400000.0625,-6400.06005859375,-400000.0625,-400000.0625,-400000.0625
151.0105504989624,-593.7100219726562,-4858.4501953125,-8077.33984375,-400000.0625,-6440.97021484375,-400000.0625,-400000.0625,-400000.0625
151.048264503479,-616.8800048828125,-4887.77001953125,-8104.75,-400000.0625,-6465.33984375,-400000.0625,-400000.0625,-400000.0625
151.07113933563232,-588.989990234375,-4862.1201171875,-8072.14013671875,-400000.0625,-6439.58984375,-400000.0625,-400000.0625,-400000.0625
151.09050059318542,-546.6900024414062,-4818.919921875,-8022.39990234375,-400000.0625,-6400.6298828125,-400000.0625,-400000.0625,-400000.0625
151.11174941062927,-551.27001953125,-4822.830078125,-8027.1298828125,-400000.0625,-6406.68994140625,-400000.0625,-400000.0625,-400000.0625
151.15039825439453,-597.239990234375,-4868.64990234375,-8077.56982421875,-400000.0625,-6446.169921875,-400000.0625,-400000.0625,-400000.0625
151.17015075683594,-622.6500244140625,-4893.10986328125,-8105.60986328125,-400000.0625,-6468.2998046875,-400000.0625,-400000.0625,-400000.0625
151.20049452781677,-591.7999877929688,-4860.830078125,-8072.22998046875,-400000.0625,-6439.58984375,-400000.0625,-400000.0625,-400000.0625
151.22072863578796,-548.6500244140625,-4819.68017578125,-8024.35986328125,-400000.0625,-6398.81982421875,-400000.0625,-400000.0625,-400000.0625
151.26289057731628,-549.4099731445312,-4819.97021484375,-8025.97998046875,-400000.0625,-6398.580078125,-400000.0625,-400000.0625,-400000.0625
151.28486013412476,-592.3699951171875,-4867.27001953125,-8080.2001953125,-400000.0625,-6441.2099609375,-400000.0625,-400000.0625,-400000.0625
151.3092532157898,-618.5999755859375,-4892.16015625,-8107.47021484375,-400000.0625,-6464.669921875,-400000.0625,-400000.0625,-400000.0625
151.33648872375488,-589.8499755859375,-4864.5498046875,-8074.81005859375,-400000.0625,-6443.1201171875,-400000.0625,-400000.0625,-400000.0625
151.37297868728638,-545.260009765625,-4820.8701171875,-8027.509765625,-400000.0625,-6402.02001953125,-400000.0625,-400000.0625,-400000.0625
151.39709496498108,-546.030029296875,-4819.009765625,-8024.41015625,-400000.0625,-6397.2998046875,-400000.0625,-400000.0625,-400000.0625
151.41715669631958,-592.8499755859375,-4864.5,-8074.56982421875,-400000.0625,-6439.64013671875,-400000.0625,-400000.0625,-400000.0625
151.43747401237488,-617.4600219726562,-4888.580078125,-8103.08984375,-400000.0625,-6467.68017578125,-400000.0625,-400000.0625,-400000.0625
151.47835874557495,-584.9400024414062,-4857.919921875,-8070.3701171875,-400000.0625,-6437.77978515625,-400000.0625,-400000.0625,-400000.0625
151.50349164009094,-542.2100219726562,-4813.2900390625,-8022.64013671875,-400000.0625,-6392.6201171875,-400000.0625,-400000.0625,-400000.0625
151.5251066684723,-544.260009765625,-4819.35009765625,-8025.27001953125,-400000.0625,-6393.0498046875,-400000.0625,-400000.0625,-400000.0625
151.54753756523132,-588.3699951171875,-4866.35986328125,-8075.330078125,-400000.0625,-6442.64013671875,-400000.0625,-400000.0625,-400000.0625
151.5862364768982,-615.7899780273438,-4891.009765625,-8104.66015625,-400000.0625,-6472.97021484375,-400000.0625,-400000.0625,-400000.0625
151.60892534255981,-585.4099731445312,-4861.740234375,-8073.52001953125,-400000.0625,-6444.7900390625,-400000.0625,-400000.0625,-400000.0625
151.63108849525452,-540.4500122070312,-4819.6298828125,-8024.5,-400000.0625,-6399.580078125,-400000.0625,-400000.0625,-400000.0625
151.64586210250854,-543.0700073242188,-4824.97021484375,-8027.1298828125,-400000.0625,-6400.77978515625,-400000.0625,-400000.0625,-400000.0625
151.6712646484375,-588.7999877929688,-4869.27001953125,-8078.39013671875,-400000.0625,-6442.259765625,-400000.0625,-400000.0625,-400000.0625
151.7350037097931,-615.3099975585938,-4894.4501953125,-8107.66015625,-400000.0625,-6466.68017578125,-400000.0625,-400000.0625,-400000.0625
151.75452637672424,-587.8900146484375,-4866.5498046875,-8074.9501953125,-400000.0625,-6441.06982421875,-400000.0625,-400000.0625,-400000.0625
151.78033304214478,-545.260009765625,-4821.39990234375,-8024.7900390625,-400000.0625,-6403.2998046875,-400000.0625,-400000.0625,-400000.0625
151.83037757873535,-545.7899780273438,-4822.35009765625,-8026.89013671875,-400000.0625,-6403.2998046875,-400000.0625,-400000.0625,-400000.0625
151.847722530365,-590.7999877929688,-4867.509765625,-8077.43017578125,-400000.0625,-6445.97998046875,-400000.0625,-400000.0625,-400000.0625
151.8675138950348,-615.6900024414062,-4895.31005859375,-8107.27978515625,-400000.0625,-6467.43994140625,-400000.0625,-400000.0625,-400000.0625
151.88861656188965,-586.7999877929688,-4867.97998046875,-8072.66015625,-400000.0625,-6438.72998046875,-400000.0625,-400000.0625,-400000.0625
151.92842173576355,-541.260009765625,-4826.35986328125,-8022.64013671875,-400000.0625,-6396.77001953125,-400000.0625,-400000.0625,-400000.0625
151.94832277297974,-540.1099853515625,-4831.7001953125,-8026.5498046875,-400000.0625,-6400.68017578125,-400000.0625,-400000.0625,-400000.0625
151.96785759925842,-586.3200073242188,-4872.990234375,-8077.0498046875,-400000.0625,-6439.97021484375,-400000.0625,-400000.0625,-400000.0625
151.99761843681335,-615.5999755859375,-4896.5,-8104.419921875,-400000.0625,-6466.52978515625,-400000.0625,-400000.0625,-400000.0625
152.0389425754547,-586.7000122070312,-4869.18017578125,-8075.3798828125,-400000.0625,-6446.5498046875,-400000.0625,-400000.0625,-400000.0625
152.0548152923584,-541.72998046875,-4825.4501953125,-8024.64990234375,-400000.0625,-6404.68994140625,-400000.0625,-400000.0625,-400000.0625
152.0739402770996,-541.5,-4824.5400390625,-8021.31005859375,-400000.0625,-6402.39990234375,-400000.0625,-400000.0625,-400000.0625
152.09944677352905,-588.1799926757812,-4871.93994140625,-8076.240234375,-400000.0625,-6445.5498046875,-400000.0625,-400000.0625,-400000.0625
152.13287234306335,-613.3599853515625,-4899.83984375,-8105.85009765625,-400000.0625,-6469.2001953125,-400000.0625,-400000.0625,-400000.0625
152.1525161266327,-583.7899780273438,-4870.31982421875,-8073.85986328125,-400000.0625,-6437.2099609375,-400000.0625,-400000.0625,-400000.0625
152.16819167137146,-541.8300170898438,-4827.31005859375,-8027.27001953125,-400000.0625,-6399.2001953125,-400000.0625,-400000.0625,-400000.0625
152.18797707557678,-539.489990234375,-4826.93017578125,-8027.27001953125,-400000.0625,-6404.35009765625,-400000.0625,-400000.0625,-400000.0625
152.21301341056824,-588.3699951171875,-4871.509765625,-8075.81005859375,-400000.0625,-6446.93017578125,-400000.0625,-400000.0625,-400000.0625
152.24829983711243,-614.6900024414062,-4897.5498046875,-8104.75,-400000.0625,-6473.16015625,-400000.0625,-400000.0625,-400000.0625
152.26842427253723,-587.0800170898438,-4871.66015625,-8076.9501953125,-400000.0625,-6446.02978515625,-400000.0625,-400000.0625,-400000.0625
152.28693103790283,-546.3099975585938,-4830.5498046875,-8026.7001953125,-400000.0625,-6400.5400390625,-400000.0625,-400000.0625,-400000.0625
152.30790400505066,-543.4000244140625,-4828.5498046875,-8024.02978515625,-400000.0625,-6399.10986328125,-400000.0625,-400000.0625,-400000.0625
152.32800316810608,-587.1799926757812,-4874.330078125,-8075.759765625,-400000.0625,-6440.259765625,-400000.0625,-400000.0625,-400000.0625
152.35992550849915,-618.27001953125,-4901.509765625,-8107.0400390625,-400000.0625,-6470.35009765625,-400000.0625,-400000.0625,-400000.0625
152.37637543678284,-592.0399780273438,-4870.509765625,-8072.81005859375,-400000.0625,-6445.97998046875,-400000.0625,-400000.0625,-400000.0625
152.4124937057495,-545.02001953125,-4826.77978515625,-8023.60009765625,-400000.0625,-6404.2099609375,-400000.0625,-400000.0625,-400000.0625
152.43543672561646,-542.260009765625,-4826.58984375,-8022.830078125,-400000.0625,-6399.35009765625,-400000.0625,-400000.0625,-400000.0625
152.49556589126587,-587.1300048828125,-4871.990234375,-8073.56982421875,-400000.0625,-6440.259765625,-400000.0625,-400000.0625,-400000.0625
152.52064156532288,-617.1699829101562,-4898.5,-8105.66015625,-400000.0625,-6470.919921875,-400000.0625,-400000.0625,-400000.0625
152.5441403388977,-586.5599975585938,-4870.56005859375,-8073.6201171875,-400000.0625,-6448.83984375,-400000.0625,-400000.0625,-400000.0625
152.60061883926392,-540.4500122070312,-4826.1201171875,-8026.64990234375,-400000.0625,-6404.58984375,-400000.0625,-400000.0625,-400000.0625
152.61950731277466,-540.9199829101562,-4829.5498046875,-8030.080078125,-400000.0625,-6402.2998046875,-400000.0625,-400000.0625,-400000.0625
152.6359851360321,-585.030029296875,-4873.419921875,-8075.52001953125,-400000.0625,-6441.35986328125,-400000.0625,-400000.0625,-400000.0625
152.65263867378235,-611.02001953125,-4897.31005859375,-8103.47021484375,-400000.0625,-6466.25,-400000.0625,-400000.0625,-400000.0625
152.6884002685547,-583.97998046875,-4868.1298828125,-8073.6201171875,-400000.0625,-6444.60009765625,-400000.0625,-400000.0625,-400000.0625
152.70952987670898,-538.6799926757812,-4825.06982421875,-8021.06982421875,-400000.0625,-6399.81982421875,-400000.0625,-400000.0625,-400000.0625
152.7271339893341,-535.77001953125,-4827.64013671875,-8019.39990234375,-400000.0625,-6398.490234375,-400000.0625,-400000.0625,-400000.0625
152.74835205078125,-583.219970703125,-4868.83984375,-8067.7998046875,-400000.0625,-6442.5498046875,-400000.0625,-400000.0625,-400000.0625
152.7654345035553,-611.4000244140625,-4894.2998046875,-8101.60986328125,-400000.0625,-6469.10986328125,-400000.0625,-400000.0625,-400000.0625
152.8125298023224,-584.8900146484375,-4868.89013671875,-8072.0,-400000.0625,-6443.35986328125,-400000.0625,-400000.0625,-400000.0625
152.83245301246643,-541.969970703125,-4828.5,-8021.77978515625,-400000.0625,-6400.2001953125,-400000.0625,-400000.0625,-400000.0625
152.85348200798035,-538.25,-4824.72998046875,-8019.31005859375,-400000.0625,-6397.68017578125,-400000.0625,-400000.0625,-400000.0625
152.88556575775146,-581.5499877929688,-4868.97998046875,-8069.22998046875,-400000.0625,-6437.830078125,-400000.0625,-400000.0625,-400000.0625
152.92918252944946,-608.2100219726562,-4895.31005859375,-8098.56005859375,-400000.0625,-6468.14990234375,-400000.0625,-400000.0625,-400000.0625
152.9465036392212,-579.1699829101562,-4870.27001953125,-8068.60986328125,-400000.0625,-6445.5498046875,-400000.0625,-400000.0625,-400000.0625
152.9673626422882,-536.9199829101562,-4820.5400390625,-8019.5,-400000.0625,-6401.8701171875,-400000.0625,-400000.0625,-400000.0625
152.98829436302185,-535.3900146484375,-4824.68994140625,-8017.830078125,-400000.0625,-6398.490234375,-400000.0625,-400000.0625,-400000.0625
153.04364562034607,-581.0700073242188,-4872.419921875,-8069.1298828125,-400000.0625,-6441.06982421875,-400000.0625,-400000.0625,-400000.0625
153.0701780319214,-611.1099853515625,-4895.259765625,-8099.509765625,-400000.0625,-6468.2001953125,-400000.0625,-400000.0625,-400000.0625
153.10335612297058,-587.75,-4866.1201171875,-8068.66015625,-400000.0625,-6439.16015625,-400000.0625,-400000.0625,-400000.0625
153.13812828063965,-542.9299926757812,-4830.97998046875,-8021.97998046875,-400000.0625,-6399.8701171875,-400000.0625,-400000.0625,-400000.0625
153.15692329406738,-536.969970703125,-4826.259765625,-8017.72998046875,-400000.0625,-6398.72998046875,-400000.0625,-400000.0625,-400000.0625
153.17520213127136,-581.8400268554688,-4868.83984375,-8066.0400390625,-400000.0625,-6442.02001953125,-400000.0625,-400000.0625,-400000.0625
153.20505452156067,-609.6400146484375,-4900.41015625,-8100.1298828125,-400000.0625,-6472.35009765625,-400000.0625,-400000.0625,-400000.0625
153.2475028038025,-585.1699829101562,-4876.759765625,-8074.9501953125,-400000.0625,-6445.7900390625,-400000.0625,-400000.0625,-400000.0625
153.26761102676392,-538.969970703125,-4830.06982421875,-8022.5498046875,-400000.0625,-6401.35009765625,-400000.0625,-400000.0625,-400000.0625
153.2868254184723,-532.8200073242188,-4823.8798828125,-8018.10986328125,-400000.0625,-6395.77001953125,-400000.0625,-400000.0625,-400000.0625
153.30590844154358,-576.1099853515625,-4868.22021484375,-8067.990234375,-400000.0625,-6435.43994140625,-400000.0625,-400000.0625,-400000.0625
153.34245467185974,-607.8699951171875,-4897.39990234375,-8101.27001953125,-400000.0625,-6466.2001953125,-400000.0625,-400000.0625,-400000.0625
153.3623490333557,-582.27001953125,-4873.1298828125,-8074.43017578125,-400000.0625,-6450.3701171875,-400000.0625,-400000.0625,-400000.0625
153.38517498970032,-537.6799926757812,-4831.93017578125,-8026.1201171875,-400000.0625,-6407.60009765625,-400000.0625,-400000.0625,-400000.0625
153.41265630722046,-536.969970703125,-4827.259765625,-8020.68994140625,-400000.0625,-6398.81982421875,-400000.0625,-400000.0625,-400000.0625
153.4529323577881,-583.27001953125,-4873.1298828125,-8070.759765625,-400000.0625,-6443.31005859375,-400000.0625,-400000.0625,-400000.0625
153.47181010246277,-612.1199951171875,-4896.97998046875,-8102.31982421875,-400000.0625,-6471.009765625,-400000.0625,-400000.0625,-400000.0625
153.49758052825928,-584.1699829101562,-4872.27001953125,-8074.18994140625,-400000.0625,-6447.75,-400000.0625,-400000.0625,-400000.0625
153.51282286643982,-540.5399780273438,-4832.5498046875,-8025.68994140625,-400000.0625,-6404.58984375,-400000.0625,-400000.0625,-400000.0625
153.55889868736267,-538.2999877929688,-4827.02001953125,-8021.02001953125,-400000.0625,-6395.25,-400000.0625,-400000.0625,-400000.0625
153.5767002105713,-582.9299926757812,-4869.27001953125,-8068.85009765625,-400000.0625,-6438.77978515625,-400000.0625,-400000.0625,-400000.0625
153.60533666610718,-612.739990234375,-4898.02001953125,-8098.31982421875,-400000.0625,-6472.919921875,-400000.0625,-400000.0625,-400000.0625
153.62468028068542,-586.3200073242188,-4870.75,-8069.85009765625,-400000.0625,-6448.7900390625,-400000.0625,-400000.0625,-400000.0625
153.66341710090637,-545.5499877929688,-4826.64013671875,-8019.68994140625,-400000.0625,-6404.97021484375,-400000.0625,-400000.0625,-400000.0625
153.68236374855042,-542.4000244140625,-4821.43994140625,-8014.39013671875,-400000.0625,-6400.39990234375,-400000.0625,-400000.0625,-400000.0625
153.70445346832275,-585.4600219726562,-4863.64013671875,-8065.990234375,-400000.0625,-6440.4501953125,-400000.0625,-400000.0625,-400000.0625
153.7232346534729,-613.5,-4895.93017578125,-8099.89013671875,-400000.0625,-6470.009765625,-400000.0625,-400000.0625,-400000.0625
153.74525809288025,-587.8400268554688,-4869.22021484375,-8071.60986328125,-400000.0625,-6447.93994140625,-400000.0625,-400000.0625,-400000.0625
153.78232336044312,-542.5499877929688,-4823.2998046875,-8021.4501953125,-400000.0625,-6400.68017578125,-400000.0625,-400000.0625,-400000.0625
153.8098599910736,-539.6799926757812,-4826.64013671875,-8017.77978515625,-400000.0625,-6398.6298828125,-400000.0625,-400000.0625,-400000.0625
153.8313853740692,-585.6500244140625,-4869.18017578125,-8068.7099609375,-400000.0625,-6442.35986328125,-400000.0625,-400000.0625,-400000.0625
153.85274004936218,-614.1199951171875,-4896.8798828125,-8101.85009765625,-400000.0625,-6470.009765625,-400000.0625,-400000.0625,-400000.0625
153.9007852077484,-588.8499755859375,-4873.18017578125,-8071.419921875,-400000.0625,-6451.22998046875,-400000.0625,-400000.0625,-400000.0625
153.92047357559204,-544.1699829101562,-4829.02978515625,-8023.22021484375,-400000.0625,-6407.60009765625,-400000.0625,-400000.0625,-400000.0625
153.94664525985718,-537.8699951171875,-4826.77978515625,-8020.97021484375,-400000.0625,-6400.009765625,-400000.0625,-400000.0625,-400000.0625
153.96512603759766,-585.0800170898438,-4871.1298828125,-8067.22998046875,-400000.0625,-6440.1201171875,-400000.0625,-400000.0625,-400000.0625
154.00577592849731,-615.4099731445312,-4899.22021484375,-8100.3701171875,-400000.0625,-6468.25,-400000.0625,-400000.0625,-400000.0625
154.02412366867065,-589.75,-4875.3701171875,-8073.759765625,-400000.0625,-6448.31982421875,-400000.0625,-400000.0625,-400000.0625
154.0474841594696,-544.4099731445312,-4831.27001953125,-8022.60009765625,-400000.0625,-6402.830078125,-400000.0625,-400000.0625,-400000.0625
154.07063102722168,-540.72998046875,-4829.02978515625,-8017.10986328125,-400000.0625,-6397.25,-400000.0625,-400000.0625,-400000.0625
154.11111402511597,-586.8900146484375,-4871.3701171875,-8069.1298828125,-400000.0625,-6442.1201171875,-400000.0625,-400000.0625,-400000.0625
154.1332106590271,-617.6900024414062,-4899.31005859375,-8103.509765625,-400000.0625,-6474.10986328125,-400000.0625,-400000.0625,-400000.0625
154.15510869026184,-590.3200073242188,-4877.3798828125,-8076.3798828125,-400000.0625,-6450.3701171875,-400000.0625,-400000.0625,-400000.0625
154.17913222312927,-545.02001953125,-4835.3701171875,-8028.080078125,-400000.0625,-6403.490234375,-400000.0625,-400000.0625,-400000.0625
154.22533202171326,-539.6400146484375,-4830.22021484375,-8020.2099609375,-400000.0625,-6392.33984375,-400000.0625,-400000.0625,-400000.0625
154.25388097763062,-585.510009765625,-4869.1298828125,-8066.4599609375,-400000.0625,-6436.10986328125,-400000.0625,-400000.0625,-400000.0625
154.27655148506165,-615.5,-4893.68017578125,-8100.4599609375,-400000.0625,-6469.580078125,-400000.0625,-400000.0625,-400000.0625
154.30211424827576,-590.6599731445312,-4877.3798828125,-8077.3798828125,-400000.0625,-6449.3701171875,-400000.0625,-400000.0625,-400000.0625
154.33397912979126,-545.3099975585938,-4833.75,-8027.22021484375,-400000.0625,-6403.490234375,-400000.0625,-400000.0625,-400000.0625
154.35266661643982,-537.2999877929688,-4828.8798828125,-8021.2099609375,-400000.0625,-6397.52978515625,-400000.0625,-400000.0625,-400000.0625
154.37452602386475,-582.1699829101562,-4875.9501953125,-8069.66015625,-400000.0625,-6440.16015625,-400000.0625,-400000.0625,-400000.0625
154.40013575553894,-616.7899780273438,-4905.02978515625,-8105.330078125,-400000.0625,-6469.2001953125,-400000.0625,-400000.0625,-400000.0625
154.42105770111084,-591.6599731445312,-4878.7099609375,-8077.9599609375,-400000.0625,-6446.31005859375,-400000.0625,-400000.0625,-400000.0625
154.4570596218109,-543.8800048828125,-4836.27001953125,-8027.1298828125,-400000.0625,-6400.2998046875,-400000.0625,-400000.0625,-400000.0625
154.48443913459778,-541.3499755859375,-4828.31005859375,-8017.25,-400000.0625,-6395.8701171875,-400000.0625,-400000.0625,-400000.0625
154.51132345199585,-584.3599853515625,-4872.66015625,-8066.18017578125,-400000.0625,-6435.6298828125,-400000.0625,-400000.0625,-400000.0625
154.53200221061707,-614.02001953125,-4902.080078125,-8103.27978515625,-400000.0625,-6464.10009765625,-400000.0625,-400000.0625,-400000.0625
154.56237959861755,-586.8400268554688,-4881.330078125,-8075.18994140625,-400000.0625,-6448.080078125,-400000.0625,-400000.0625,-400000.0625
154.58434200286865,-543.6400146484375,-4833.75,-8020.93017578125,-400000.0625,-6405.830078125,-400000.0625,-400000.0625,-400000.0625
154.60854768753052,-538.4000244140625,-4827.2099609375,-8014.25,-400000.0625,-6397.2001953125,-400000.0625,-400000.0625,-400000.0625
154.62934803962708,-581.7899780273438,-4869.990234375,-8063.27001953125,-400000.0625,-6438.2998046875,-400000.0625,-400000.0625,-400000.0625
154.65123105049133,-613.8300170898438,-4902.41015625,-8097.41015625,-400000.0625,-6466.39013671875,-400000.0625,-400000.0625,-400000.0625
154.68589639663696,-591.9500122070312,-4877.22998046875,-8071.66015625,-400000.0625,-6443.31005859375,-400000.0625,-400000.0625,-400000.0625
154.70607089996338,-546.9299926757812,-4830.169921875,-8021.02001953125,-400000.0625,-6404.97021484375,-400000.0625,-400000.0625,-400000.0625
154.7221167087555,-541.02001953125,-4826.97998046875,-8016.02001953125,-400000.0625,-6401.6298828125,-400000.0625,-400000.0625,-400000.0625
154.73998355865479,-584.9400024414062,-4872.75,-8066.75,-400000.0625,-6441.16015625,-400000.0625,-400000.0625,-400000.0625
154.7599380016327,-614.8300170898438,-4906.3701171875,-8103.66015625,-400000.0625,-6471.35009765625,-400000.0625,-400000.0625,-400000.0625
154.79550909996033,-591.6599731445312,-4884.33984375,-8074.81005859375,-400000.0625,-6448.97998046875,-400000.0625,-400000.0625,-400000.0625
154.81572484970093,-546.030029296875,-4836.66015625,-8022.06982421875,-400000.0625,-6402.06005859375,-400000.0625,-400000.0625,-400000.0625
154.83612155914307,-537.9199829101562,-4826.97998046875,-8016.43994140625,-400000.0625,-6395.6298828125,-400000.0625,-400000.0625,-400000.0625
154.8576624393463,-577.1599731445312,-4869.27001953125,-8064.1298828125,-400000.0625,-6439.16015625,-400000.0625,-400000.0625,-400000.0625
154.87555694580078,-610.8800048828125,-4902.5498046875,-8100.7998046875,-400000.0625,-6466.6298828125,-400000.0625,-400000.0625,-400000.0625
154.92171001434326,-589.0800170898438,-4879.52001953125,-8077.18994140625,-400000.0625,-6446.7900390625,-400000.0625,-400000.0625,-400000.0625
154.93896746635437,-542.9299926757812,-4836.93994140625,-8026.22021484375,-400000.0625,-6403.02001953125,-400000.0625,-400000.0625,-400000.0625
154.96418476104736,-534.6799926757812,-4836.419921875,-8016.77978515625,-400000.0625,-6398.490234375,-400000.0625,-400000.0625,-400000.0625
154.98668718338013,-577.260009765625,-4873.47021484375,-8062.93994140625,-400000.0625,-6439.93017578125,-400000.0625,-400000.0625,-400000.0625
155.02866768836975,-613.1199951171875,-4899.35986328125,-8096.740234375,-400000.0625,-6466.68017578125,-400000.0625,-400000.0625,-400000.0625
155.04992032051086,-590.1799926757812,-4879.08984375,-8073.18994140625,-400000.0625,-6444.5,-400000.0625,-400000.0625,-400000.0625
155.0665647983551,-541.0700073242188,-4833.7900390625,-8020.58984375,-400000.0625,-6401.919921875,-400000.0625,-400000.0625,-400000.0625
155.0889687538147,-534.9600219726562,-4828.169921875,-8012.2998046875,-400000.0625,-6394.33984375,-400000.0625,-400000.0625,-400000.0625
155.13306045532227,-579.3099975585938,-4875.3701171875,-8061.41015625,-400000.0625,-6436.919921875,-400000.0625,-400000.0625,-400000.0625
155.15072679519653,-614.7899780273438,-4907.990234375,-8101.31982421875,-400000.0625,-6469.25,-400000.0625,-400000.0625,-400000.0625
155.17462158203125,-593.52001953125,-4887.06005859375,-8076.6201171875,-400000.0625,-6450.1298828125,-400000.0625,-400000.0625,-400000.0625
155.20100331306458,-546.7899780273438,-4839.0400390625,-8023.06982421875,-400000.0625,-6407.93017578125,-400000.0625,-400000.0625,-400000.0625
155.23602151870728,-540.2999877929688,-4830.68994140625,-8012.6298828125,-400000.0625,-6396.25,-400000.0625,-400000.0625,-400000.0625
155.25910830497742,-586.0800170898438,-4870.419921875,-8058.02001953125,-400000.0625,-6431.81982421875,-400000.0625,-400000.0625,-400000.0625
155.28661227226257,-619.4600219726562,-4902.7001953125,-8097.169921875,-400000.0625,-6462.85986328125,-400000.0625,-400000.0625,-400000.0625
155.31735801696777,-600.239990234375,-4887.490234375,-8076.759765625,-400000.0625,-6447.1298828125,-400000.0625,-400000.0625,-400000.0625
155.35630583763123,-556.5599975585938,-4844.43017578125,-8025.740234375,-400000.0625,-6405.259765625,-400000.0625,-400000.0625,-400000.0625
155.37478303909302,-545.1199951171875,-4839.990234375,-8020.5498046875,-400000.0625,-6397.33984375,-400000.0625,-400000.0625,-400000.0625
155.39729404449463,-587.4600219726562,-4883.33984375,-8071.08984375,-400000.0625,-6439.35009765625,-400000.0625,-400000.0625,-400000.0625
155.41886162757874,-625.9000244140625,-4913.66015625,-8105.47021484375,-400000.0625,-6470.35009765625,-400000.0625,-400000.0625,-400000.0625
155.4532973766327,-603.0999755859375,-4894.10986328125,-8081.8701171875,-400000.0625,-6446.83984375,-400000.0625,-400000.0625,-400000.0625
155.47083115577698,-553.6599731445312,-4850.91015625,-8033.1298828125,-400000.0625,-6403.97021484375,-400000.0625,-400000.0625,-400000.0625
155.50376391410828,-545.6400146484375,-4840.0400390625,-8022.5,-400000.0625,-6394.52978515625,-400000.0625,-400000.0625,-400000.0625
155.52610969543457,-589.4199829101562,-4879.27978515625,-8069.89990234375,-400000.0625,-6433.2001953125,-400000.0625,-400000.0625,-400000.0625
155.56801748275757,-621.1799926757812,-4912.0400390625,-8106.0400390625,-400000.0625,-6469.580078125,-400000.0625,-400000.0625,-400000.0625
155.5853271484375,-600.4299926757812,-4894.35009765625,-8081.91015625,-400000.0625,-6456.08984375,-400000.0625,-400000.0625,-400000.0625
155.61360669136047,-555.6599731445312,-4851.6298828125,-8032.66015625,-400000.0625,-6406.93017578125,-400000.0625,-400000.0625,-400000.0625
155.63229966163635,-547.27001953125,-4845.10009765625,-8025.1201171875,-400000.0625,-6396.6298828125,-400000.0625,-400000.0625,-400000.0625
155.66973209381104,-591.6099853515625,-4886.33984375,-8074.0,-400000.0625,-6438.06982421875,-400000.0625,-400000.0625,-400000.0625
155.68989610671997,-626.6099853515625,-4915.91015625,-8108.89990234375,-400000.0625,-6468.25,-400000.0625,-400000.0625,-400000.0625
155.7140040397644,-604.5800170898438,-4899.4501953125,-8084.2001953125,-400000.0625,-6447.02978515625,-400000.0625,-400000.0625,-400000.0625
155.73396706581116,-558.22998046875,-4854.6298828125,-8034.3701171875,-400000.0625,-6402.58984375,-400000.0625,-400000.0625,-400000.0625
155.76566243171692,-546.4099731445312,-4843.08984375,-8021.58984375,-400000.0625,-6396.68017578125,-400000.0625,-400000.0625,-400000.0625
155.78601741790771,-586.6500244140625,-4886.10009765625,-8068.419921875,-400000.0625,-6435.58984375,-400000.0625,-400000.0625,-400000.0625
155.81303882598877,-621.989990234375,-4918.52978515625,-8106.22998046875,-400000.0625,-6467.6298828125,-400000.0625,-400000.0625,-400000.0625
155.8314893245697,-601.530029296875,-4896.58984375,-8082.33984375,-400000.0625,-6450.27001953125,-400000.0625,-400000.0625,-400000.0625
155.84794759750366,-557.3300170898438,-4850.47998046875,-8031.56005859375,-400000.0625,-6407.60009765625,-400000.0625,-400000.0625,-400000.0625
155.88708782196045,-549.8900146484375,-4842.56982421875,-8021.4501953125,-400000.0625,-6396.580078125,-400000.0625,-400000.0625,-400000.0625
155.90678811073303,-590.5599975585938,-4882.91015625,-8067.31982421875,-400000.0625,-6435.81982421875,-400000.0625,-400000.0625,-400000.0625
155.93108868598938,-625.3200073242188,-4916.240234375,-8104.990234375,-400000.0625,-6468.25,-400000.0625,-400000.0625,-400000.0625
155.95358514785767,-604.489990234375,-4895.02001953125,-8080.43994140625,-400000.0625,-6448.27001953125,-400000.0625,-400000.0625,-400000.0625
156.00144028663635,-556.0399780273438,-4850.91015625,-8027.60009765625,-400000.0625,-6402.2998046875,-400000.0625,-400000.0625,-400000.0625
156.02303767204285,-548.219970703125,-4842.759765625,-8020.02001953125,-400000.0625,-6396.10009765625,-400000.0625,-400000.0625,-400000.0625
156.04419684410095,-589.1300048828125,-4882.47998046875,-8066.3701171875,-400000.0625,-6434.490234375,-400000.0625,-400000.0625,-400000.0625
156.06846976280212,-627.0399780273438,-4915.2900390625,-8104.1298828125,-400000.0625,-6463.33984375,-400000.0625,-400000.0625,-400000.0625
156.1216356754303,-604.8200073242188,-4891.2998046875,-8079.43017578125,-400000.0625,-6447.75,-400000.0625,-400000.0625,-400000.0625
156.1407163143158,-555.989990234375,-4844.81005859375,-8025.22021484375,-400000.0625,-6401.2998046875,-400000.0625,-400000.0625,-400000.0625
156.1601266860962,-546.1699829101562,-4839.52001953125,-8017.16015625,-400000.0625,-6393.85986328125,-400000.0625,-400000.0625,-400000.0625
156.17810010910034,-586.0800170898438,-4881.18994140625,-8064.60009765625,-400000.0625,-6433.580078125,-400000.0625,-400000.0625,-400000.0625
156.22036027908325,-620.7899780273438,-4915.08984375,-8101.7001953125,-400000.0625,-6466.25,-400000.0625,-400000.0625,-400000.0625
156.24220252037048,-601.719970703125,-4895.93017578125,-8079.580078125,-400000.0625,-6448.169921875,-400000.0625,-400000.0625,-400000.0625
156.26408791542053,-554.9000244140625,-4847.0498046875,-8025.4599609375,-400000.0625,-6403.35009765625,-400000.0625,-400000.0625,-400000.0625
156.29086804389954,-544.3099975585938,-4839.330078125,-8015.10986328125,-400000.0625,-6395.0498046875,-400000.0625,-400000.0625,-400000.0625
156.33951687812805,-586.219970703125,-4882.2900390625,-8065.509765625,-400000.0625,-6438.68994140625,-400000.0625,-400000.0625,-400000.0625
156.35996294021606,-620.9400024414062,-4917.0,-8102.60986328125,-400000.0625,-6470.77978515625,-400000.0625,-400000.0625,-400000.0625
156.37748384475708,-598.8599853515625,-4895.259765625,-8080.009765625,-400000.0625,-6452.18017578125,-400000.0625,-400000.0625,-400000.0625
156.40232110023499,-551.4099731445312,-4848.77001953125,-8027.7001953125,-400000.0625,-6406.259765625,-400000.0625,-400000.0625,-400000.0625
156.442125082016,-541.969970703125,-4841.7099609375,-8016.25,-400000.0625,-6396.8701171875,-400000.0625,-400000.0625,-400000.0625
156.46962666511536,-583.739990234375,-4881.47998046875,-8059.93017578125,-400000.0625,-6436.2099609375,-400000.0625,-400000.0625,-400000.0625
156.50134229660034,-618.4099731445312,-4912.85009765625,-8100.080078125,-400000.0625,-6470.25,-400000.0625,-400000.0625,-400000.0625
156.53060126304626,-600.0,-4897.1201171875,-8080.81982421875,-400000.0625,-6449.4599609375,-400000.0625,-400000.0625,-400000.0625
156.56943440437317,-554.1799926757812,-4854.16015625,-8031.1298828125,-400000.0625,-6408.5498046875,-400000.0625,-400000.0625,-400000.0625
156.58951568603516,-545.02001953125,-4842.27978515625,-8019.5,-400000.0625,-6400.009765625,-400000.0625,-400000.0625,-400000.0625
156.61311626434326,-581.0700073242188,-4882.33984375,-8063.60009765625,-400000.0625,-6438.2998046875,-400000.0625,-400000.0625,-400000.0625
156.63941049575806,-614.260009765625,-4918.91015625,-8101.7998046875,-400000.0625,-6470.77978515625,-400000.0625,-400000.0625,-400000.0625
156.7033269405365,-597.2899780273438,-4899.60009765625,-8079.10009765625,-400000.0625,-6451.419921875,-400000.0625,-400000.0625,-400000.0625
156.72691249847412,-552.6099853515625,-4852.580078125,-8026.60009765625,-400000.0625,-6402.8701171875,-400000.0625,-400000.0625,-400000.0625
156.7545666694641,-542.260009765625,-4845.9501953125,-8017.2998046875,-400000.0625,-6392.81005859375,-400000.0625,-400000.0625,-400000.0625
156.7853581905365,-584.27001953125,-4882.85986328125,-8061.89013671875,-400000.0625,-6434.77978515625,-400000.0625,-400000.0625,-400000.0625
156.81482338905334,-618.5499877929688,-4915.0498046875,-8101.0400390625,-400000.0625,-6468.6298828125,-400000.0625,-400000.0625,-400000.0625
156.84282445907593,-599.9600219726562,-4899.259765625,-8081.6298828125,-400000.0625,-6454.1298828125,-400000.0625,-400000.0625,-400000.0625
156.8774700164795,-551.3200073242188,-4856.2099609375,-8030.7001953125,-400000.0625,-6409.5,-400000.0625,-400000.0625,-400000.0625
156.95532751083374,-539.3499755859375,-4842.419921875,-8016.2998046875,-400000.0625,-6396.009765625,-400000.0625,-400000.0625,-400000.0625
156.9982352256775,-580.219970703125,-4883.6201171875,-8061.83984375,-400000.0625,-6436.77978515625,-400000.0625,-400000.0625,-400000.0625
157.05907893180847,-615.6900024414062,-4916.72021484375,-8097.89013671875,-400000.0625,-6468.919921875,-400000.0625,-400000.0625,-400000.0625
157.10050868988037,-599.0,-4896.259765625,-8078.18994140625,-400000.0625,-6448.93994140625,-400000.0625,-400000.0625,-400000.0625
157.1536135673523,-552.3200073242188,-4850.2001953125,-8026.83984375,-400000.0625,-6402.68017578125,-400000.0625,-400000.0625,-400000.0625
157.1734881401062,-539.9199829101562,-4839.990234375,-8015.97021484375,-400000.0625,-6396.009765625,-400000.0625,-400000.0625,-400000.0625
157.2016019821167,-578.8800048828125,-4883.14990234375,-8063.02978515625,-400000.0625,-6436.06005859375,-400000.0625,-400000.0625,-400000.0625
157.24985313415527,-614.8800048828125,-4918.6201171875,-8101.60986328125,-400000.0625,-6471.009765625,-400000.0625,-400000.0625,-400000.0625
157.27471494674683,-598.1400146484375,-4896.39990234375,-8081.580078125,-400000.0625,-6452.27978515625,-400000.0625,-400000.0625,-400000.0625
157.29672169685364,-554.280029296875,-4855.25,-8033.3701171875,-400000.0625,-6406.16015625,-400000.0625,-400000.0625,-400000.0625
157.32554244995117,-544.260009765625,-4843.66015625,-8016.919921875,-400000.0625,-6395.14990234375,-400000.0625,-400000.0625,-400000.0625
157.37446856498718,-585.989990234375,-4883.52978515625,-8059.5498046875,-400000.0625,-6432.39013671875,-400000.0625,-400000.0625,-400000.0625
157.40246534347534,-619.219970703125,-4920.85986328125,-8102.7998046875,-400000.0625,-6464.81982421875,-400000.0625,-400000.0625,-400000.0625
157.43032813072205,-600.3400268554688,-4901.35986328125,-8082.919921875,-400000.0625,-6455.7998046875,-400000.0625,-400000.0625,-400000.0625
157.47130417823792,-555.75,-4851.81982421875,-8029.509765625,-400000.0625,-6412.080078125,-400000.0625,-400000.0625,-400000.0625
157.50633311271667,-543.9299926757812,-4842.66015625,-8017.97021484375,-400000.0625,-6401.10986328125,-400000.0625,-400000.0625,-400000.0625
157.52814316749573,-586.6500244140625,-4884.9599609375,-8063.83984375,-400000.0625,-6437.5400390625,-400000.0625,-400000.0625,-400000.0625
157.55007696151733,-624.510009765625,-4917.85986328125,-8104.7998046875,-400000.0625,-6470.39013671875,-400000.0625,-400000.0625,-400000.0625
157.59935355186462,-603.3400268554688,-4902.22021484375,-8084.97021484375,-400000.0625,-6452.66015625,-400000.0625,-400000.0625,-400000.0625
157.62160181999207,-557.7999877929688,-4856.16015625,-8034.18017578125,-400000.0625,-6414.3701171875,-400000.0625,-400000.0625,-400000.0625
157.64189743995667,-545.5999755859375,-4843.759765625,-8019.06982421875,-400000.0625,-6404.5400390625,-400000.0625,-400000.0625,-400000.0625
157.66080737113953,-587.030029296875,-4884.81982421875,-8065.27001953125,-400000.0625,-6438.8798828125,-400000.0625,-400000.0625,-400000.0625
157.70349717140198,-623.4199829101562,-4918.2900390625,-8105.27978515625,-400000.0625,-6469.81982421875,-400000.0625,-400000.0625,-400000.0625
157.72314977645874,-601.5800170898438,-4905.64990234375,-8087.72998046875,-400000.0625,-6454.75,-400000.0625,-400000.0625,-400000.0625
157.7462775707245,-553.8900146484375,-4858.4501953125,-8034.52001953125,-400000.0625,-6413.4599609375,-400000.0625,-400000.0625,-400000.0625
157.7653775215149,-542.969970703125,-4845.56982421875,-8019.06982421875,-400000.0625,-6394.9599609375,-400000.0625,-400000.0625,-400000.0625
157.808189868927,-581.97998046875,-4882.240234375,-8062.35986328125,-400000.0625,-6427.85986328125,-400000.0625,-400000.0625,-400000.0625
157.83113980293274,-619.510009765625,-4920.33984375,-8103.990234375,-400000.0625,-6468.9599609375,-400000.0625,-400000.0625,-400000.0625
157.85570406913757,-601.9600219726562,-4905.02978515625,-8085.2001953125,-400000.0625,-6457.9501953125,-400000.0625,-400000.0625,-400000.0625
157.87852311134338,-557.9000244140625,-4862.830078125,-8039.18994140625,-400000.0625,-6417.080078125,-400000.0625,-400000.0625,-400000.0625
157.9264793395996,-545.5499877929688,-4849.009765625,-8024.169921875,-400000.0625,-6401.2099609375,-400000.0625,-400000.0625,-400000.0625
157.94519901275635,-583.1199951171875,-4888.580078125,-8066.1298828125,-400000.0625,-6436.2998046875,-400000.0625,-400000.0625,-400000.0625
157.96176290512085,-620.510009765625,-4924.97021484375,-8105.89990234375,-400000.0625,-6474.4501953125,-400000.0625,-400000.0625,-400000.0625
157.9827160835266,-605.25,-4905.7001953125,-8085.77978515625,-400000.0625,-6455.419921875,-400000.0625,-400000.0625,-400000.0625
158.02847146987915,-560.7100219726562,-4859.58984375,-8033.47021484375,-400000.0625,-6407.1201171875,-400000.0625,-400000.0625,-400000.0625
158.04578232765198,-546.7899780273438,-4848.77001953125,-8019.35009765625,-400000.0625,-6399.919921875,-400000.0625,-400000.0625,-400000.0625
158.06599950790405,-587.6099853515625,-4888.10986328125,-8065.27001953125,-400000.0625,-6440.02001953125,-400000.0625,-400000.0625,-400000.0625
158.08374524116516,-625.22998046875,-4922.009765625,-8105.7998046875,-400000.0625,-6473.5400390625,-400000.0625,-400000.0625,-400000.0625
158.12784457206726,-606.1099853515625,-4906.1298828125,-8086.25,-400000.0625,-6456.22998046875,-400000.0625,-400000.0625,-400000.0625
158.15212512016296,-561.1900024414062,-4859.4501953125,-8033.60986328125,-400000.0625,-6409.259765625,-400000.0625,-400000.0625,-400000.0625
158.17434740066528,-547.219970703125,-4847.669921875,-8021.06982421875,-400000.0625,-6398.14990234375,-400000.0625,-400000.0625,-400000.0625
158.1986701488495,-586.27001953125,-4890.72998046875,-8066.66015625,-400000.0625,-6437.5400390625,-400000.0625,-400000.0625,-400000.0625
158.23573303222656,-624.6599731445312,-4923.009765625,-8103.419921875,-400000.0625,-6472.4501953125,-400000.0625,-400000.0625,-400000.0625
158.26083755493164,-605.6300048828125,-4906.60986328125,-8085.68017578125,-400000.0625,-6459.18994140625,-400000.0625,-400000.0625,-400000.0625
158.28160405158997,-561.1400146484375,-4860.58984375,-8035.52001953125,-400000.0625,-6415.1298828125,-400000.0625,-400000.0625,-400000.0625
158.3050878047943,-550.5999755859375,-4850.580078125,-8018.58984375,-400000.0625,-6396.6298828125,-400000.0625,-400000.0625,-400000.0625
158.35124349594116,-589.9000244140625,-4886.43994140625,-8062.169921875,-400000.0625,-6433.81982421875,-400000.0625,-400000.0625,-400000.0625
158.3746166229248,-625.9000244140625,-4922.10009765625,-8106.22998046875,-400000.0625,-6468.6298828125,-400000.0625,-400000.0625,-400000.0625
158.40248799324036,-609.4500122070312,-4910.56982421875,-8089.39990234375,-400000.0625,-6455.0400390625,-400000.0625,-400000.0625,-400000.0625
158.42220520973206,-562.760009765625,-4867.4599609375,-8037.3798828125,-400000.0625,-6416.60986328125,-400000.0625,-400000.0625,-400000.0625
158.45735478401184,-548.4099731445312,-4853.2001953125,-8021.68994140625,-400000.0625,-6402.35009765625,-400000.0625,-400000.0625,-400000.0625
158.47565484046936,-589.469970703125,-4892.16015625,-8063.97998046875,-400000.0625,-6435.39990234375,-400000.0625,-400000.0625,-400000.0625
158.49914574623108,-627.4199829101562,-4927.4501953125,-8104.52001953125,-400000.0625,-6471.06005859375,-400000.0625,-400000.0625,-400000.0625
158.5236029624939,-610.2999877929688,-4907.60986328125,-8086.72998046875,-400000.0625,-6458.6201171875,-400000.0625,-400000.0625,-400000.0625
158.56500935554504,-562.2899780273438,-4862.169921875,-8035.47021484375,-400000.0625,-6410.06982421875,-400000.0625,-400000.0625,-400000.0625
158.5864884853363,-546.4099731445312,-4852.8701171875,-8020.68994140625,-400000.0625,-6393.0,-400000.0625,-400000.0625,-400000.0625
158.61255168914795,-587.6099853515625,-4887.580078125,-8063.35986328125,-400000.0625,-6433.72998046875,-400000.0625,-400000.0625,-400000.0625
158.63071703910828,-624.6599731445312,-4923.490234375,-8105.22998046875,-400000.0625,-6469.43994140625,-400000.0625,-400000.0625,-400000.0625
158.65897417068481,-609.4500122070312,-4912.89990234375,-8088.8798828125,-400000.0625,-6457.330078125,-400000.0625,-400000.0625,-400000.0625
158.6735851764679,-562.5700073242188,-4866.22021484375,-8036.18994140625,-400000.0625,-6415.7001953125,-400000.0625,-400000.0625,-400000.0625
158.69793939590454,-547.4600219726562,-4852.2998046875,-8020.5498046875,-400000.0625,-6398.6298828125,-400000.0625,-400000.0625,-400000.0625
158.7154998779297,-585.7899780273438,-4893.39990234375,-8065.27001953125,-400000.0625,-6431.43994140625,-400000.0625,-400000.0625,-400000.0625
158.73051834106445,-624.5599975585938,-4928.72998046875,-8107.52001953125,-400000.0625,-6469.580078125,-400000.0625,-400000.0625,-400000.0625
158.74802923202515,-609.3499755859375,-4910.18017578125,-8090.39990234375,-400000.0625,-6457.08984375,-400000.0625,-400000.0625,-400000.0625
158.7837860584259,-559.6199951171875,-4865.89013671875,-8039.52001953125,-400000.0625,-6413.31982421875,-400000.0625,-400000.0625,-400000.0625
158.82365703582764,-550.8400268554688,-4971.31005859375,-8022.8798828125,-400000.0625,-6436.16015625,-400000.0625,-400000.0625,-400000.0625
158.82374930381775,-518.3699951171875,-4941.89013671875,-7987.68994140625,-400000.0625,-6410.169921875,-400000.0625,-400000.0625,-400000.0625
158.82377862930298,-538.6400146484375,-4966.64013671875,-8013.33984375,-400000.0625,-6427.6201171875,-400000.0625,-400000.0625,-400000.0625
158.82379722595215,-584.1699829101562,-5011.93994140625,-8064.31982421875,-400000.0625,-6469.8701171875,-400000.0625,-400000.0625,-400000.0625
158.8238170146942,-593.52001953125,-5015.22998046875,-8070.3701171875,-400000.0625,-6476.31005859375,-400000.0625,-400000.0625,-400000.0625
158.82383751869202,-551.1799926757812,-4969.64990234375,-8021.93017578125,-400000.0625,-6435.43994140625,-400000.0625,-400000.0625,-400000.0625
158.82385230064392,-516.7000122070312,-4936.97998046875,-7986.1201171875,-400000.0625,-6407.06982421875,-400000.0625,-400000.0625,-400000.0625
158.82386589050293,-537.8699951171875,-4960.39013671875,-8011.490234375,-400000.0625,-6428.85986328125,-400000.0625,-400000.0625,-400000.0625
158.82387948036194,-587.6500244140625,-5008.75,-8064.7001953125,-400000.0625,-6473.490234375,-400000.0625,-400000.0625,-400000.0625
158.82389307022095,-595.3800048828125,-5017.85009765625,-8075.10009765625,-400000.0625,-6479.41015625,-400000.0625,-400000.0625,-400000.0625
158.82390666007996,-552.8499755859375,-4975.990234375,-8030.7998046875,-400000.0625,-6441.97998046875,-400000.0625,-400000.0625,-400000.0625
158.82392048835754,-519.280029296875,-4944.0400390625,-7991.41015625,-400000.0625,-6409.31005859375,-400000.0625,-400000.0625,-400000.0625
158.82393431663513,-540.969970703125,-4964.830078125,-8014.25,-400000.0625,-6428.43017578125,-400000.0625,-400000.0625,-400000.0625
158.82394766807556,-588.8499755859375,-5008.080078125,-8064.31982421875,-400000.0625,-6468.81982421875,-400000.0625,-400000.0625,-400000.0625
158.82396125793457,-596.0,-5011.27001953125,-8071.759765625,-400000.0625,-6479.06982421875,-400000.0625,-400000.0625,-400000.0625
158.82397484779358,-551.989990234375,-4971.27001953125,-8027.41015625,-400000.0625,-6445.1201171875,-400000.0625,-400000.0625,-400000.0625
158.82398891448975,-518.4199829101562,-4944.1298828125,-7993.509765625,-400000.0625,-6414.56005859375,-400000.0625,-400000.0625,-400000.0625
158.8240029811859,-538.72998046875,-4966.830078125,-8014.8701171875,-400000.0625,-6429.39013671875,-400000.0625,-400000.0625,-400000.0625
158.82401823997498,-585.8900146484375,-5006.89013671875,-8064.990234375,-400000.0625,-6471.39990234375,-400000.0625,-400000.0625,-400000.0625
158.82403206825256,-593.469970703125,-5012.66015625,-8072.7099609375,-400000.0625,-6479.93017578125,-400000.0625,-400000.0625,-400000.0625
158.82404589653015,-549.7899780273438,-4973.35986328125,-8027.64990234375,-400000.0625,-6443.02001953125,-400000.0625,-400000.0625,-400000.0625
158.82405972480774,-517.6099853515625,-4941.02978515625,-7989.60009765625,-400000.0625,-6414.75,-400000.0625,-400000.0625,-400000.0625
158.8240737915039,-540.4000244140625,-4963.10986328125,-8013.06005859375,-400000.0625,-6432.580078125,-400000.0625,-400000.0625,-400000.0625
158.82408738136292,-586.6099853515625,-5011.3701171875,-8064.22021484375,-400000.0625,-6476.39990234375,-400000.0625,-400000.0625,-400000.0625
158.82410144805908,-593.1900024414062,-5013.08984375,-8072.18994140625,-400000.0625,-6479.8798828125,-400000.0625,-400000.0625,-400000.0625
158.8241150379181,-550.9400024414062,-4972.169921875,-8027.83984375,-400000.0625,-6439.5400390625,-400000.0625,-400000.0625,-400000.0625
158.82412910461426,-516.8900146484375,-4946.18017578125,-7990.93017578125,-400000.0625,-6411.60009765625,-400000.0625,-400000.0625,-400000.0625
158.824143409729,-539.3499755859375,-4962.2998046875,-8011.8701171875,-400000.0625,-6421.85009765625,-400000.0625,-400000.0625,-400000.0625
158.8241584300995,-585.3699951171875,-5002.169921875,-8061.509765625,-400000.0625,-6465.14990234375,-400000.0625,-400000.0625,-400000.0625
158.82417392730713,-589.5599975585938,-5011.31982421875,-8069.66015625,-400000.0625,-6480.5498046875,-400000.0625,-400000.0625,-400000.0625
158.82418990135193,-548.219970703125,-4973.509765625,-8024.7900390625,-400000.0625,-6445.41015625,-400000.0625,-400000.0625,-400000.0625
158.82420778274536,-516.75,-4943.0400390625,-7989.02978515625,-400000.0625,-6412.75,-400000.0625,-400000.0625,-400000.0625
158.82422852516174,-538.6400146484375,-4966.5498046875,-8014.68017578125,-400000.0625,-6429.9599609375,-400000.0625,-400000.0625,-400000.0625
158.82425093650818,-586.0800170898438,-5011.27001953125,-8068.1298828125,-400000.0625,-6471.43994140625,-400000.0625,-400000.0625,-400000.0625
158.82428002357483,-593.280029296875,-5015.990234375,-8074.81005859375,-400000.0625,-6475.93017578125,-400000.0625,-400000.0625,-400000.0625
158.82430696487427,-556.1799926757812,-4973.60009765625,-8028.1298828125,-400000.0625,-6436.919921875,-400000.0625,-400000.0625,-400000.0625
158.82433128356934,-523.1900024414062,-4937.509765625,-7987.740234375,-400000.0625,-6410.7900390625,-400000.0625,-400000.0625,-400000.0625
158.82435274124146,-541.1599731445312,-4962.16015625,-8012.8701171875,-400000.0625,-6431.33984375,-400000.0625,-400000.0625,-400000.0625
158.82438111305237,-585.27001953125,-5012.990234375,-8067.7998046875,-400000.0625,-6474.35009765625,-400000.0625,-400000.0625,-400000.0625
158.82440209388733,-590.3699951171875,-5019.7099609375,-8076.9501953125,-400000.0625,-6478.5498046875,-400000.0625,-400000.0625,-400000.0625
158.82442426681519,-551.7999877929688,-4975.93994140625,-8027.02978515625,-400000.0625,-6440.1201171875,-400000.0625,-400000.0625,-400000.0625
158.8244469165802,-518.22998046875,-4939.7998046875,-7987.64013671875,-400000.0625,-6407.8798828125,-400000.0625,-400000.0625,-400000.0625
158.82446765899658,-536.8699951171875,-4961.5400390625,-8010.10009765625,-400000.0625,-6423.9501953125,-400000.0625,-400000.0625,-400000.0625
158.8244891166687,-585.510009765625,-5005.5498046875,-8060.60009765625,-400000.0625,-6467.009765625,-400000.0625,-400000.0625,-400000.0625
158.8245096206665,-593.1400146484375,-5010.56005859375,-8067.509765625,-400000.0625,-6477.68994140625,-400000.0625,-400000.0625,-400000.0625
158.82453060150146,-549.4600219726562,-4972.7900390625,-8026.509765625,-400000.0625,-6443.7900390625,-400000.0625,-400000.0625,-400000.0625
158.82455348968506,-518.3200073242188,-4938.93994140625,-7988.8798828125,-400000.0625,-6409.8798828125,-400000.0625,-400000.0625,-400000.0625
158.82457423210144,-538.489990234375,-4958.25,-8008.580078125,-400000.0625,-6426.0,-400000.0625,-400000.0625,-400000.0625
158.82459616661072,-581.1199951171875,-5003.740234375,-8058.60009765625,-400000.0625,-6469.919921875,-400000.0625,-400000.0625,-400000.0625
158.8246169090271,-589.7999877929688,-5008.60009765625,-8065.83984375,-400000.0625,-6476.02001953125,-400000.0625,-400000.0625,-400000.0625
158.82463908195496,-550.5999755859375,-4970.7900390625,-8022.06982421875,-400000.0625,-6435.68017578125,-400000.0625,-400000.0625,-400000.0625
158.82466435432434,-512.9299926757812,-4933.31005859375,-7981.5400390625,-400000.0625,-6403.10986328125,-400000.0625,-400000.0625,-400000.0625
158.8246853351593,-533.2899780273438,-4953.6201171875,-8004.85986328125,-400000.0625,-6420.990234375,-400000.0625,-400000.0625,-400000.0625
158.82470750808716,-582.1199951171875,-5000.4501953125,-8060.02978515625,-400000.0625,-6469.68017578125,-400000.0625,-400000.0625,-400000.0625
158.82472681999207,-590.3200073242188,-5012.509765625,-8071.419921875,-400000.0625,-6479.35986328125,-400000.0625,-400000.0625,-400000.0625
158.8247458934784,-548.5499877929688,-4969.5498046875,-8024.68994140625,-400000.0625,-6442.60009765625,-400000.0625,-400000.0625,-400000.0625
158.82481479644775,-512.5,-4933.4501953125,-7985.8798828125,-400000.0625,-6410.169921875,-400000.0625,-400000.0625,-400000.0625
158.82484340667725,-534.1500244140625,-4955.2900390625,-8009.669921875,-400000.0625,-6424.6201171875,-400000.0625,-400000.0625,-400000.0625
158.82485914230347,-583.4600219726562,-5003.4501953125,-8064.31982421875,-400000.0625,-6469.68017578125,-400000.0625,-400000.0625,-400000.0625
158.824875831604,-591.6599731445312,-5010.990234375,-8073.14013671875,-400000.0625,-6482.080078125,-400000.0625,-400000.0625,-400000.0625
158.8249146938324,-549.75,-4973.509765625,-8027.509765625,-400000.0625,-6442.06982421875,-400000.0625,-400000.0625,-400000.0625
158.82495141029358,-516.989990234375,-4944.22998046875,-7993.169921875,-400000.0625,-6410.31005859375,-400000.0625,-400000.0625,-400000.0625
158.8249773979187,-533.6300048828125,-4958.68017578125,-8012.81982421875,-400000.0625,-6427.18994140625,-400000.0625,-400000.0625,-400000.0625
158.8249945640564,-578.5,-5003.259765625,-8061.93017578125,-400000.0625,-6470.39013671875,-400000.0625,-400000.0625,-400000.0625
158.82503199577332,-590.280029296875,-5012.60986328125,-8072.0400390625,-400000.0625,-6479.97998046875,-400000.0625,-400000.0625,-400000.0625
158.82505583763123,-550.5999755859375,-4972.93994140625,-8028.56005859375,-400000.0625,-6442.7900390625,-400000.0625,-400000.0625,-400000.0625
158.82507014274597,-513.1199951171875,-4939.509765625,-7989.60009765625,-400000.0625,-6405.58984375,-400000.0625,-400000.0625,-400000.0625
158.82508420944214,-535.0599975585938,-4956.52978515625,-8007.47998046875,-400000.0625,-6425.56982421875,-400000.0625,-400000.0625,-400000.0625
158.82511591911316,-580.3099975585938,-5002.58984375,-8061.4599609375,-400000.0625,-6474.02001953125,-400000.0625,-400000.0625,-400000.0625
158.82515335083008,-589.469970703125,-5011.60986328125,-8073.52001953125,-400000.0625,-6486.22998046875,-400000.0625,-400000.0625,-400000.0625
158.82518482208252,-551.3699951171875,-4968.5,-8026.080078125,-400000.0625,-6445.31005859375,-400000.0625,-400000.0625,-400000.0625
158.82520294189453,-514.1300048828125,-4938.89013671875,-7986.8798828125,-400000.0625,-6411.169921875,-400000.0625,-400000.0625,-400000.0625
158.82522583007812,-530.5800170898438,-4963.06005859375,-8011.2900390625,-400000.0625,-6425.0,-400000.0625,-400000.0625,-400000.0625
158.82525873184204,-582.7000122070312,-5005.5,-8060.169921875,-400000.0625,-6464.43017578125,-400000.0625,-400000.0625,-400000.0625
158.82527613639832,-593.9000244140625,-5014.18017578125,-8071.27978515625,-400000.0625,-6481.31005859375,-400000.0625,-400000.0625,-400000.0625
158.8252899646759,-553.3200073242188,-4975.22021484375,-8027.60009765625,-400000.0625,-6446.4599609375,-400000.0625,-400000.0625,-400000.0625
158.82530570030212,-516.3200073242188,-4941.1298828125,-7987.5498046875,-400000.0625,-6412.41015625,-400000.0625,-400000.0625,-400000.0625
158.82534265518188,-532.6699829101562,-4957.009765625,-8009.14990234375,-400000.0625,-6430.2001953125,-400000.0625,-400000.0625,-400000.0625
158.82537841796875,-579.0700073242188,-5001.58984375,-8060.5,-400000.0625,-6473.8798828125,-400000.0625,-400000.0625,-400000.0625
158.82540678977966,-590.9400024414062,-5011.75,-8072.08984375,-400000.0625,-6481.509765625,-400000.0625,-400000.0625,-400000.0625
158.82542324066162,-551.8900146484375,-4974.080078125,-8029.41015625,-400000.0625,-6441.830078125,-400000.0625,-400000.0625,-400000.0625
158.82546138763428,-517.7999877929688,-4937.4599609375,-7989.5,-400000.0625,-6408.5,-400000.0625,-400000.0625,-400000.0625
158.82548332214355,-537.010009765625,-4958.33984375,-8007.3798828125,-400000.0625,-6426.759765625,-400000.0625,-400000.0625,-400000.0625
158.8254976272583,-583.219970703125,-5003.64013671875,-8059.68994140625,-400000.0625,-6472.490234375,-400000.0625,-400000.0625,-400000.0625
158.82551288604736,-593.5700073242188,-5014.75,-8072.56982421875,-400000.0625,-6482.5498046875,-400000.0625,-400000.0625,-400000.0625
158.8255467414856,-554.4199829101562,-4972.02978515625,-8026.02978515625,-400000.0625,-6447.169921875,-400000.0625,-400000.0625,-400000.0625
158.82558751106262,-516.510009765625,-4942.990234375,-7989.5,-400000.0625,-6415.02978515625,-400000.0625,-400000.0625,-400000.0625
158.8256163597107,-533.25,-4960.009765625,-8009.47998046875,-400000.0625,-6429.39013671875,-400000.0625,-400000.0625,-400000.0625
158.82563304901123,-580.5999755859375,-5000.5,-8057.5498046875,-400000.0625,-6470.6298828125,-400000.0625,-400000.0625,-400000.0625
158.82565188407898,-590.0399780273438,-5008.56005859375,-8069.419921875,-400000.0625,-6480.7900390625,-400000.0625,-400000.0625,-400000.0625
158.82568216323853,-549.8900146484375,-4972.97998046875,-8029.31982421875,-400000.0625,-6449.27001953125,-400000.0625,-400000.0625,-400000.0625
158.8257031440735,-514.8400268554688,-4937.509765625,-7988.8798828125,-400000.0625,-6414.7001953125,-400000.0625,-400000.0625,-400000.0625
158.8257236480713,-533.6300048828125,-4953.72021484375,-8005.9501953125,-400000.0625,-6429.72021484375,-400000.0625,-400000.0625,-400000.0625
158.82574439048767,-579.8800048828125,-5000.259765625,-8060.06982421875,-400000.0625,-6473.68994140625,-400000.0625,-400000.0625,-400000.0625
158.82576870918274,-590.9000244140625,-5012.080078125,-8072.3798828125,-400000.0625,-6482.64990234375,-400000.0625,-400000.0625,-400000.0625
158.8257908821106,-554.4199829101562,-4976.93994140625,-8031.27001953125,-400000.0625,-6447.83984375,-400000.0625,-400000.0625,-400000.0625
158.82581067085266,-515.510009765625,-4941.31982421875,-7991.7900390625,-400000.0625,-6417.990234375,-400000.0625,-400000.0625,-400000.0625
158.82583117485046,-531.6699829101562,-4955.52978515625,-8008.81005859375,-400000.0625,-6433.68017578125,-400000.0625,-400000.0625,-400000.0625
158.82585072517395,-579.9299926757812,-4999.02001953125,-8058.68994140625,-400000.0625,-6474.919921875,-400000.0625,-400000.0625,-400000.0625
158.82587265968323,-590.0399780273438,-5010.509765625,-8070.330078125,-400000.0625,-6483.64990234375,-400000.0625,-400000.0625,-400000.0625
158.82590055465698,-549.27001953125,-4971.740234375,-8025.68994140625,-400000.0625,-6444.5498046875,-400000.0625,-400000.0625,-400000.0625
158.82592511177063,-513.3200073242188,-4933.169921875,-7985.2099609375,-400000.0625,-6408.5498046875,-400000.0625,-400000.0625,-400000.0625
158.8259563446045,-533.1500244140625,-4953.47998046875,-8006.2900390625,-400000.0625,-6425.10009765625,-400000.0625,-400000.0625,-400000.0625
158.8259880542755,-581.739990234375,-5002.06982421875,-8059.7900390625,-400000.0625,-6472.39990234375,-400000.0625,-400000.0625,-400000.0625
158.82601976394653,-589.7999877929688,-5013.1298828125,-8070.419921875,-400000.0625,-6484.56005859375,-400000.0625,-400000.0625,-400000.0625
158.8260531425476,-549.1699829101562,-4973.02978515625,-8025.83984375,-400000.0625,-6446.509765625,-400000.0625,-400000.0625,-400000.0625
158.82608366012573,-513.3599853515625,-4936.5,-7985.16015625,-400000.0625,-6414.3701171875,-400000.0625,-400000.0625,-400000.0625
158.82611465454102,-529.3400268554688,-4950.85986328125,-8003.330078125,-400000.0625,-6428.669921875,-400000.0625,-400000.0625,-400000.0625
158.8261423110962,-577.4500122070312,-4996.5400390625,-8054.77978515625,-400000.0625,-6469.77978515625,-400000.0625,-400000.0625,-400000.0625
158.82616424560547,-588.4600219726562,-5007.4599609375,-8069.60986328125,-400000.0625,-6478.02001953125,-400000.0625,-400000.0625,-400000.0625
158.8261833190918,-548.7899780273438,-4968.4501953125,-8025.1201171875,-400000.0625,-6444.68994140625,-400000.0625,-400000.0625,-400000.0625
158.82621884346008,-513.4600219726562,-4929.58984375,-7981.58984375,-400000.0625,-6410.22021484375,-400000.0625,-400000.0625,-400000.0625
158.82625722885132,-529.1500244140625,-4949.6201171875,-8001.0400390625,-400000.0625,-6425.0,-400000.0625,-400000.0625,-400000.0625
158.82629871368408,-577.0700073242188,-4996.72998046875,-8055.5,-400000.0625,-6468.009765625,-400000.0625,-400000.0625,-400000.0625
158.82635641098022,-592.52001953125,-5005.83984375,-8064.4599609375,-400000.0625,-6478.97998046875,-400000.0625,-400000.0625,-400000.0625
158.82640671730042,-552.4199829101562,-4967.64013671875,-8023.4501953125,-400000.0625,-6440.31005859375,-400000.0625,-400000.0625,-400000.0625
158.82644844055176,-512.6500244140625,-4932.4501953125,-7983.2998046875,-400000.0625,-6407.169921875,-400000.0625,-400000.0625,-400000.0625
158.826491355896,-531.2000122070312,-4950.47998046875,-7998.60986328125,-400000.0625,-6419.7099609375,-400000.0625,-400000.0625,-400000.0625
158.8265323638916,-580.5499877929688,-4999.4501953125,-8053.5400390625,-400000.0625,-6473.02001953125,-400000.0625,-400000.0625,-400000.0625
158.82656383514404,-595.7100219726562,-5010.509765625,-8069.22998046875,-400000.0625,-6486.1298828125,-400000.0625,-400000.0625,-400000.0625
158.826593875885,-556.7999877929688,-4971.27001953125,-8026.41015625,-400000.0625,-6449.990234375,-400000.0625,-400000.0625,-400000.0625
158.82661962509155,-518.3699951171875,-4937.22021484375,-7985.39990234375,-400000.0625,-6413.4599609375,-400000.0625,-400000.0625,-400000.0625
158.8266477584839,-534.1099853515625,-4951.9501953125,-8003.330078125,-400000.0625,-6424.0,-400000.0625,-400000.0625,-400000.0625
158.8266897201538,-582.3099975585938,-4998.2099609375,-8056.97998046875,-400000.0625,-6466.72021484375,-400000.0625,-400000.0625,-400000.0625
158.82672905921936,-596.0900268554688,-5014.419921875,-8072.7099609375,-400000.0625,-6485.75,-400000.0625,-400000.0625,-400000.0625
158.82677793502808,-557.22998046875,-4974.18017578125,-8029.93994140625,-400000.0625,-6448.7001953125,-400000.0625,-400000.0625,-400000.0625
158.8301296234131,-536.489990234375,-4960.72998046875,-7984.68994140625,-400000.0625,-6423.81005859375,-400000.0625,-400000.0625,-400000.0625
158.85295248031616,-378.55999755859375,-3389.929931640625,-8582.259765625,-400000.0625,-6266.7900390625,-400000.0625,-400000.0625,-400000.0625
158.90170574188232,-623.7999877929688,-2619.1201171875,-7633.06982421875,-400000.0625,-1812.030029296875,-400000.0625,-400000.0625,-400000.0625
158.93650341033936,-255.44000244140625,-3373.81005859375,-7481.43017578125,-400000.0625,-5246.740234375,-400000.0625,-400000.0625,-400000.0625
158.98675990104675,-249.42999267578125,-3371.330078125,-7478.759765625,-400000.0625,-5262.27978515625,-400000.0625,-400000.0625,-400000.0625
159.0530366897583,-251.52999877929688,-3391.360107421875,-7488.2998046875,-400000.0625,-5289.60009765625,-400000.0625,-400000.0625,-400000.0625
159.12570548057556,-275.4200134277344,-3423.5,-7510.14013671875,-400000.0625,-5316.5,-400000.0625,-400000.0625,-400000.0625
159.18698644638062,-270.70001220703125,-3428.27001953125,-7508.9501953125,-400000.0625,-5331.56005859375,-400000.0625,-400000.0625,-400000.0625
159.24358558654785,-250.1999969482422,-3412.909912109375,-7485.43994140625,-400000.0625,-5330.47021484375,-400000.0625,-400000.0625,-400000.0625
159.3507604598999,-228.74000549316406,-3401.330078125,-7469.93994140625,-400000.0625,-5333.0400390625,-400000.0625,-400000.0625,-400000.0625
159.4412019252777,-274.6099853515625,-3449.72998046875,-7531.2099609375,-400000.0625,-5425.41015625,-400000.0625,-400000.0625,-400000.0625
159.50055861473083,-270.8900146484375,-3449.820068359375,-7527.64013671875,-400000.0625,-5424.7900390625,-400000.0625,-400000.0625,-400000.0625
159.583575963974,-242.19000244140625,-3434.320068359375,-7511.759765625,-400000.0625,-5418.39990234375,-400000.0625,-400000.0625,-400000.0625
159.64750456809998,-225.72999572753906,-3420.39990234375,-7498.68994140625,-400000.0625,-5422.2099609375,-400000.0625,-400000.0625,-400000.0625
159.69303035736084,-245.0,-3444.860107421875,-7520.2998046875,-400000.0625,-5440.3798828125,-400000.0625,-400000.0625,-400000.0625
159.78189754486084,-232.97999572753906,-3500.840087890625,-7581.18994140625,-400000.0625,-5485.10986328125,-400000.0625,-400000.0625,-400000.0625
159.88317704200745,-216.0500030517578,-3508.85009765625,-7572.990234375,-400000.0625,-5484.33984375,-400000.0625,-400000.0625,-400000.0625
159.951069355011,-188.8800048828125,-3491.1201171875,-7553.39013671875,-400000.0625,-5482.009765625,-400000.0625,-400000.0625,-400000.0625
160.02947330474854,-245.13999938964844,-3464.320068359375,-7529.4501953125,-400000.0625,-5501.3701171875,-400000.0625,-400000.0625,-400000.0625
160.07740545272827,-272.32000732421875,-3489.2099609375,-7546.47021484375,-400000.0625,-5525.64013671875,-400000.0625,-400000.0625,-400000.0625
160.14197206497192,-267.1199951171875,-3495.739990234375,-7545.56982421875,-400000.0625,-5549.52978515625,-400000.0625,-400000.0625,-400000.0625
160.23194980621338,-256.9700012207031,-3490.72998046875,-7533.41015625,-400000.0625,-5530.31005859375,-400000.0625,-400000.0625,-400000.0625
160.29040503501892,-239.99000549316406,-3502.889892578125,-7531.169921875,-400000.0625,-5517.580078125,-400000.0625,-400000.0625,-400000.0625
160.33043456077576,-285.2900085449219,-3563.550048828125,-7583.18994140625,-400000.0625,-5559.64013671875,-400000.0625,-400000.0625,-400000.0625
160.41924142837524,-275.2300109863281,-3562.8798828125,-7575.3701171875,-400000.0625,-5560.39990234375,-400000.0625,-400000.0625,-400000.0625
160.46726250648499,-279.6199951171875,-3577.419921875,-7580.14013671875,-400000.0625,-5574.419921875,-400000.0625,-400000.0625,-400000.0625
160.52549266815186,-261.3500061035156,-3561.590087890625,-7550.10009765625,-400000.0625,-5554.6298828125,-400000.0625,-400000.0625,-400000.0625
160.58797812461853,-246.57000732421875,-3552.77001953125,-7532.41015625,-400000.0625,-5533.509765625,-400000.0625,-400000.0625,-400000.0625
160.65061044692993,-265.2200012207031,-3580.6201171875,-7557.490234375,-400000.0625,-5563.31005859375,-400000.0625,-400000.0625,-400000.0625
160.72573518753052,-304.1700134277344,-3629.679931640625,-7602.06982421875,-400000.0625,-5595.39990234375,-400000.0625,-400000.0625,-400000.0625
160.78910326957703,-297.1600036621094,-3630.35009765625,-7596.10986328125,-400000.0625,-5605.56005859375,-400000.0625,-400000.0625,-400000.0625
160.8508584499359,-272.79998779296875,-3616.6201171875,-7568.06982421875,-400000.0625,-5580.66015625,-400000.0625,-400000.0625,-400000.0625
160.92953872680664,-247.0,-3586.050048828125,-7538.93994140625,-400000.0625,-5559.2099609375,-400000.0625,-400000.0625,-400000.0625
161.0048849582672,-263.5,-3617.860107421875,-7556.39013671875,-400000.0625,-5577.66015625,-400000.0625,-400000.0625,-400000.0625
161.03565573692322,-267.3599853515625,-3630.5400390625,-7566.97998046875,-400000.0625,-5593.39990234375,-400000.0625,-400000.0625,-400000.0625
161.1095426082611,-301.30999755859375,-3667.550048828125,-7600.5498046875,-400000.0625,-5620.72021484375,-400000.0625,-400000.0625,-400000.0625
161.22733521461487,-256.7300109863281,-3640.030029296875,-7548.759765625,-400000.0625,-5592.43994140625,-400000.0625,-400000.0625,-400000.0625
161.290776014328,-264.9800109863281,-3661.72998046875,-7557.2998046875,-400000.0625,-5595.58984375,-400000.0625,-400000.0625,-400000.0625
161.37902116775513,-297.92999267578125,-3696.010009765625,-7588.2001953125,-400000.0625,-5623.9599609375,-400000.0625,-400000.0625,-400000.0625
161.41670656204224,-311.79998779296875,-3712.080078125,-7602.68994140625,-400000.0625,-5632.4501953125,-400000.0625,-400000.0625,-400000.0625
161.43547081947327,-290.25,-3691.909912109375,-7576.7998046875,-400000.0625,-5615.330078125,-400000.0625,-400000.0625,-400000.0625
161.4547049999237,-262.3599853515625,-3662.489990234375,-7547.0498046875,-400000.0625,-5596.5,-400000.0625,-400000.0625,-400000.0625
161.46915221214294,-261.5899963378906,-3665.35009765625,-7551.6201171875,-400000.0625,-5598.35986328125,-400000.0625,-400000.0625,-400000.0625
161.4824502468109,-294.3999938964844,-3697.35009765625,-7587.72021484375,-400000.0625,-5624.10009765625,-400000.0625,-400000.0625,-400000.0625
161.51408672332764,-301.739990234375,-3711.179931640625,-7598.35009765625,-400000.0625,-5633.16015625,-400000.0625,-400000.0625,-400000.0625
161.52807807922363,-284.9599914550781,-3692.06005859375,-7580.18994140625,-400000.0625,-5619.81005859375,-400000.0625,-400000.0625,-400000.0625
161.5432894229889,-263.07000732421875,-3667.39990234375,-7554.14990234375,-400000.0625,-5594.43994140625,-400000.0625,-400000.0625,-400000.0625
161.5566442012787,-270.70001220703125,-3677.4599609375,-7561.259765625,-400000.0625,-5603.22021484375,-400000.0625,-400000.0625,-400000.0625
161.57129406929016,-292.489990234375,-3702.739990234375,-7589.8701171875,-400000.0625,-5626.97021484375,-400000.0625,-400000.0625,-400000.0625
161.58857607841492,-300.6499938964844,-3710.27001953125,-7599.8798828125,-400000.0625,-5631.58984375,-400000.0625,-400000.0625,-400000.0625
161.63152980804443,-285.3399963378906,-3693.679931640625,-7579.52001953125,-400000.0625,-5615.08984375,-400000.0625,-400000.0625,-400000.0625
161.64413976669312,-264.6000061035156,-3669.1201171875,-7553.91015625,-400000.0625,-5596.259765625,-400000.0625,-400000.0625,-400000.0625
161.66322255134583,-267.9800109863281,-3678.75,-7560.64013671875,-400000.0625,-5598.35986328125,-400000.0625,-400000.0625,-400000.0625
161.6801209449768,-296.0199890136719,-3709.27001953125,-7593.2001953125,-400000.0625,-5633.58984375,-400000.0625,-400000.0625,-400000.0625
161.69451546669006,-310.6099853515625,-3719.85009765625,-7606.080078125,-400000.0625,-5640.83984375,-400000.0625,-400000.0625,-400000.0625
161.72594165802002,-287.7200012207031,-3697.679931640625,-7582.14013671875,-400000.0625,-5619.0,-400000.0625,-400000.0625,-400000.0625
161.74049925804138,-257.25,-3672.219970703125,-7549.669921875,-400000.0625,-5589.43994140625,-400000.0625,-400000.0625,-400000.0625
161.76614475250244,-265.1700134277344,-3677.610107421875,-7556.009765625,-400000.0625,-5595.5400390625,-400000.0625,-400000.0625,-400000.0625
161.7916760444641,-294.5899963378906,-3703.830078125,-7589.6298828125,-400000.0625,-5630.68017578125,-400000.0625,-400000.0625,-400000.0625
161.87597680091858,-370.7900085449219,-3971.199951171875,-7661.6298828125,-400000.0625,-5564.8798828125,-400000.0625,-400000.0625,-400000.0625
161.93416285514832,-298.1700134277344,-3810.1201171875,-7594.490234375,-400000.0625,-5607.64990234375,-400000.0625,-400000.0625,-400000.0625
162.0021092891693,-299.1700134277344,-3782.080078125,-7593.919921875,-400000.0625,-5649.7099609375,-400000.0625,-400000.0625,-400000.0625
162.07556223869324,-329.1099853515625,-3818.56005859375,-7621.52978515625,-400000.0625,-5672.02978515625,-400000.0625,-400000.0625,-400000.0625
162.1371946334839,-304.8900146484375,-3791.47998046875,-7588.72021484375,-400000.0625,-5654.6201171875,-400000.0625,-400000.0625,-400000.0625
162.2510130405426,-273.2300109863281,-3770.8798828125,-7552.77001953125,-400000.0625,-5635.35986328125,-400000.0625,-400000.0625,-400000.0625
162.33247685432434,-307.2300109863281,-3796.2900390625,-7586.91015625,-400000.0625,-5665.490234375,-400000.0625,-400000.0625,-400000.0625
162.3952453136444,-328.05999755859375,-3837.25,-7616.330078125,-400000.0625,-5691.6201171875,-400000.0625,-400000.0625,-400000.0625
162.44643354415894,-284.6199951171875,-3799.580078125,-7568.60009765625,-400000.0625,-5661.580078125,-400000.0625,-400000.0625,-400000.0625
162.54944157600403,-280.0899963378906,-3799.43994140625,-7536.35986328125,-400000.0625,-5627.6298828125,-400000.0625,-400000.0625,-400000.0625
162.63711404800415,-316.239990234375,-3851.93994140625,-7576.7001953125,-400000.0625,-5669.68994140625,-400000.0625,-400000.0625,-400000.0625
162.76456379890442,-281.3299865722656,-3937.580078125,-7643.75,-400000.0625,-5682.14013671875,-400000.0625,-400000.0625,-400000.0625
162.8405966758728,-232.64999389648438,-3899.18994140625,-7588.47998046875,-400000.0625,-5637.93017578125,-400000.0625,-400000.0625,-400000.0625
162.89718055725098,-215.00999450683594,-3882.070068359375,-7564.97021484375,-400000.0625,-5627.919921875,-400000.0625,-400000.0625,-400000.0625
162.97949028015137,-324.3399963378906,-3874.590087890625,-7594.16015625,-400000.0625,-5704.35986328125,-400000.0625,-400000.0625,-400000.0625
163.03646731376648,-323.5299987792969,-3885.60009765625,-7591.490234375,-400000.0625,-5700.16015625,-400000.0625,-400000.0625,-400000.0625
163.0986406803131,-315.760009765625,-3881.550048828125,-7574.27001953125,-400000.0625,-5679.31982421875,-400000.0625,-400000.0625,-400000.0625
163.14914226531982,-274.7099914550781,-3847.97998046875,-7526.97021484375,-400000.0625,-5641.93994140625,-400000.0625,-400000.0625,-400000.0625
163.2195405960083,-260.8800048828125,-3848.739990234375,-7519.06005859375,-400000.0625,-5633.1201171875,-400000.0625,-400000.0625,-400000.0625
163.2787766456604,-302.70001220703125,-3877.780029296875,-7550.10009765625,-400000.0625,-5661.919921875,-400000.0625,-400000.0625,-400000.0625
163.3452570438385,-334.7900085449219,-3921.4599609375,-7585.759765625,-400000.0625,-5693.2900390625,-400000.0625,-400000.0625,-400000.0625
163.42545223236084,-318.7699890136719,-3912.159912109375,-7570.02978515625,-400000.0625,-5682.419921875,-400000.0625,-400000.0625,-400000.0625
163.48694133758545,-281.4800109863281,-3881.5,-7527.39990234375,-400000.0625,-5643.4599609375,-400000.0625,-400000.0625,-400000.0625
163.547025680542,-275.989990234375,-3886.27001953125,-7519.33984375,-400000.0625,-5638.5498046875,-400000.0625,-400000.0625,-400000.0625
163.60563445091248,-303.1300048828125,-3914.8798828125,-7549.330078125,-400000.0625,-5669.64013671875,-400000.0625,-400000.0625,-400000.0625
163.67678427696228,-331.45001220703125,-3944.969970703125,-7595.2099609375,-400000.0625,-5714.7998046875,-400000.0625,-400000.0625,-400000.0625
163.73130869865417,-310.3699951171875,-3931.6201171875,-7567.4501953125,-400000.0625,-5693.669921875,-400000.0625,-400000.0625,-400000.0625
163.79143619537354,-271.94000244140625,-3894.419921875,-7517.6201171875,-400000.0625,-5650.14013671875,-400000.0625,-400000.0625,-400000.0625
163.8518090248108,-259.8299865722656,-3891.469970703125,-7506.56005859375,-400000.0625,-5645.85009765625,-400000.0625,-400000.0625,-400000.0625
163.87425065040588,-287.44000244140625,-3920.60009765625,-7541.93994140625,-400000.0625,-5671.31005859375,-400000.0625,-400000.0625,-400000.0625
163.89145851135254,-326.29998779296875,-3959.989990234375,-7585.759765625,-400000.0625,-5713.89013671875,-400000.0625,-400000.0625,-400000.0625
163.91995096206665,-315.8599853515625,-3947.639892578125,-7571.35986328125,-400000.0625,-5708.5498046875,-400000.0625,-400000.0625,-400000.0625
163.93534636497498,-273.0400085449219,-3904.719970703125,-7525.490234375,-400000.0625,-5665.2099609375,-400000.0625,-400000.0625,-400000.0625
163.95088958740234,-256.25,-3891.85009765625,-7509.7998046875,-400000.0625,-5643.4599609375,-400000.0625,-400000.0625,-400000.0625
163.9650423526764,-287.82000732421875,-3922.219970703125,-7537.4599609375,-400000.0625,-5666.5,-400000.0625,-400000.0625,-400000.0625
163.98025369644165,-323.9599914550781,-3956.1298828125,-7576.1298828125,-400000.0625,-5703.35009765625,-400000.0625,-400000.0625,-400000.0625
163.99513626098633,-322.8699951171875,-3952.070068359375,-7574.56005859375,-400000.0625,-5702.02001953125,-400000.0625,-400000.0625,-400000.0625
164.02622294425964,-274.17999267578125,-3905.679931640625,-7524.10986328125,-400000.0625,-5657.85986328125,-400000.0625,-400000.0625,-400000.0625
164.04389119148254,-249.82000732421875,-3885.030029296875,-7495.97998046875,-400000.0625,-5638.93017578125,-400000.0625,-400000.0625,-400000.0625
164.05731415748596,-286.3399963378906,-3919.4599609375,-7533.35986328125,-400000.0625,-5675.60009765625,-400000.0625,-400000.0625,-400000.0625
164.0736846923828,-320.2900085449219,-3951.64990234375,-7570.5498046875,-400000.0625,-5707.06982421875,-400000.0625,-400000.0625,-400000.0625
164.08877801895142,-320.239990234375,-3953.080078125,-7571.89013671875,-400000.0625,-5703.5,-400000.0625,-400000.0625,-400000.0625
164.10581851005554,-286.6300048828125,-3917.030029296875,-7531.1201171875,-400000.0625,-5667.4501953125,-400000.0625,-400000.0625,-400000.0625
164.13349151611328,-251.91000366210938,-3885.4599609375,-7497.35986328125,-400000.0625,-5639.7900390625,-400000.0625,-400000.0625,-400000.0625
164.14898109436035,-285.2900085449219,-3920.030029296875,-7532.06982421875,-400000.0625,-5672.31005859375,-400000.0625,-400000.0625,-400000.0625
164.1633632183075,-323.1499938964844,-3953.409912109375,-7569.27001953125,-400000.0625,-5703.77978515625,-400000.0625,-400000.0625,-400000.0625
164.1740653514862,-313.3299865722656,-3947.830078125,-7564.16015625,-400000.0625,-5706.41015625,-400000.0625,-400000.0625,-400000.0625
164.1889054775238,-264.1700134277344,-3899.860107421875,-7512.3798828125,-400000.0625,-5668.8798828125,-400000.0625,-400000.0625,-400000.0625
164.20206570625305,-256.44000244140625,-3891.7099609375,-7500.22021484375,-400000.0625,-5643.56005859375,-400000.0625,-400000.0625,-400000.0625
164.21889686584473,-295.2099914550781,-3928.760009765625,-7540.0400390625,-400000.0625,-5667.2099609375,-400000.0625,-400000.0625,-400000.0625
164.24769806861877,-330.3999938964844,-3961.419921875,-7578.89990234375,-400000.0625,-5708.60009765625,-400000.0625,-400000.0625,-400000.0625
164.2615785598755,-322.489990234375,-3952.68994140625,-7570.93994140625,-400000.0625,-5703.06982421875,-400000.0625,-400000.0625,-400000.0625
164.27923369407654,-280.0,-3907.389892578125,-7522.14990234375,-400000.0625,-5657.39013671875,-400000.0625,-400000.0625,-400000.0625
164.2954239845276,-246.80999755859375,-3875.070068359375,-7485.43994140625,-400000.0625,-5631.5400390625,-400000.0625,-400000.0625,-400000.0625
164.30911660194397,-274.2300109863281,-3914.2099609375,-7523.8701171875,-400000.0625,-5676.169921875,-400000.0625,-400000.0625,-400000.0625
164.36968684196472,-356.6300048828125,-4085.2099609375,-7604.7001953125,-400000.0625,-5708.169921875,-400000.0625,-400000.0625,-400000.0625
164.4313769340515,-290.3500061035156,-3995.22998046875,-7540.66015625,-400000.0625,-5672.740234375,-400000.0625,-400000.0625,-400000.0625
164.4910225868225,-259.7300109863281,-3958.56005859375,-7503.7998046875,-400000.0625,-5652.14013671875,-400000.0625,-400000.0625,-400000.0625
164.56047248840332,-280.239990234375,-3978.590087890625,-7525.64013671875,-400000.0625,-5672.64990234375,-400000.0625,-400000.0625,-400000.0625
164.62436151504517,-337.6000061035156,-4033.610107421875,-7580.22998046875,-400000.0625,-5720.43017578125,-400000.0625,-400000.0625,-400000.0625
164.6883945465088,-339.8399963378906,-4035.85009765625,-7584.14013671875,-400000.0625,-5727.81982421875,-400000.0625,-400000.0625,-400000.0625
164.7485933303833,-303.4599914550781,-4008.389892578125,-7544.9501953125,-400000.0625,-5699.64013671875,-400000.0625,-400000.0625,-400000.0625
164.83031296730042,-259.2099914550781,-3959.85009765625,-7492.8798828125,-400000.0625,-5653.43017578125,-400000.0625,-400000.0625,-400000.0625
164.8916974067688,-283.2900085449219,-3990.4599609375,-7520.77001953125,-400000.0625,-5676.080078125,-400000.0625,-400000.0625,-400000.0625
164.94488859176636,-322.9100036621094,-4041.429931640625,-7569.080078125,-400000.0625,-5720.22998046875,-400000.0625,-400000.0625,-400000.0625
165.00298237800598,-336.3599853515625,-4055.360107421875,-7584.0498046875,-400000.0625,-5736.490234375,-400000.0625,-400000.0625,-400000.0625
165.08089685440063,-311.79998779296875,-4038.2900390625,-7559.25,-400000.0625,-5711.3701171875,-400000.0625,-400000.0625,-400000.0625
165.13287496566772,-259.6400146484375,-3998.85009765625,-7509.9501953125,-400000.0625,-5670.02001953125,-400000.0625,-400000.0625,-400000.0625
165.20090866088867,-276.2799987792969,-4018.969970703125,-7526.5400390625,-400000.0625,-5687.18994140625,-400000.0625,-400000.0625,-400000.0625
165.28288388252258,-313.6199951171875,-4061.219970703125,-7569.5,-400000.0625,-5721.759765625,-400000.0625,-400000.0625,-400000.0625
165.34996485710144,-343.75,-4095.97998046875,-7599.1201171875,-400000.0625,-5748.83984375,-400000.0625,-400000.0625,-400000.0625
165.386780500412,-301.30999755859375,-4079.719970703125,-7564.8798828125,-400000.0625,-5728.25,-400000.0625,-400000.0625,-400000.0625
165.45052695274353,-275.95001220703125,-4038.050048828125,-7515.2900390625,-400000.0625,-5681.1298828125,-400000.0625,-400000.0625,-400000.0625
165.5255057811737,-291.3999938964844,-4057.219970703125,-7523.25,-400000.0625,-5697.81982421875,-400000.0625,-400000.0625,-400000.0625
165.5973138809204,-332.69000244140625,-4105.27978515625,-7575.990234375,-400000.0625,-5739.5498046875,-400000.0625,-400000.0625,-400000.0625
165.65211033821106,-361.25,-4142.47998046875,-7603.83984375,-400000.0625,-5772.5400390625,-400000.0625,-400000.0625,-400000.0625
165.7082498073578,-324.5400085449219,-4120.8701171875,-7578.7099609375,-400000.0625,-5745.169921875,-400000.0625,-400000.0625,-400000.0625
165.77420687675476,-268.7900085449219,-4059.169921875,-7512.89990234375,-400000.0625,-5693.2900390625,-400000.0625,-400000.0625,-400000.0625
165.84733819961548,-283.19000244140625,-4075.6201171875,-7527.2099609375,-400000.0625,-5710.41015625,-400000.0625,-400000.0625,-400000.0625
165.90071535110474,-319.80999755859375,-4120.5400390625,-7571.080078125,-400000.0625,-5753.7099609375,-400000.0625,-400000.0625,-400000.0625
165.97605991363525,-346.2799987792969,-4148.81982421875,-7595.72998046875,-400000.0625,-5765.9599609375,-400000.0625,-400000.0625,-400000.0625
166.04664015769958,-319.239990234375,-4125.740234375,-7565.740234375,-400000.0625,-5749.75,-400000.0625,-400000.0625,-400000.0625
166.09471440315247,-289.5799865722656,-4100.60986328125,-7528.39990234375,-400000.0625,-5708.83984375,-400000.0625,-400000.0625,-400000.0625
166.17920398712158,-293.2099914550781,-4105.27978515625,-7524.39990234375,-400000.0625,-5709.4599609375,-400000.0625,-400000.0625,-400000.0625
166.21950840950012,-339.94000244140625,-4160.830078125,-7579.47021484375,-400000.0625,-5759.2900390625,-400000.0625,-400000.0625,-400000.0625
166.28336477279663,-356.7200012207031,-4177.56982421875,-7597.830078125,-400000.0625,-5772.830078125,-400000.0625,-400000.0625,-400000.0625
166.3481137752533,-339.4100036621094,-4163.41015625,-7578.7099609375,-400000.0625,-5760.43017578125,-400000.0625,-400000.0625,-400000.0625
166.36737537384033,-298.3999938964844,-4120.68017578125,-7529.77978515625,-400000.0625,-5717.7998046875,-400000.0625,-400000.0625,-400000.0625
166.3885006904602,-291.67999267578125,-4118.25,-7524.97021484375,-400000.0625,-5709.740234375,-400000.0625,-400000.0625,-400000.0625
166.41494369506836,-337.739990234375,-4157.16015625,-7571.56005859375,-400000.0625,-5753.3701171875,-400000.0625,-400000.0625,-400000.0625
166.4260377883911,-365.2099914550781,-4187.81982421875,-7602.5,-400000.0625,-5779.1201171875,-400000.0625,-400000.0625,-400000.0625
166.44304156303406,-336.4599914550781,-4159.5498046875,-7572.27001953125,-400000.0625,-5749.3701171875,-400000.0625,-400000.0625,-400000.0625
166.45957136154175,-293.29998779296875,-4118.490234375,-7524.06005859375,-400000.0625,-5711.02978515625,-400000.0625,-400000.0625,-400000.0625
166.47118973731995,-290.5799865722656,-4123.64013671875,-7521.14990234375,-400000.0625,-5709.02978515625,-400000.0625,-400000.0625,-400000.0625
166.48505282402039,-333.69000244140625,-4159.02001953125,-7569.02978515625,-400000.0625,-5747.3701171875,-400000.0625,-400000.0625,-400000.0625
166.50102972984314,-371.3599853515625,-4196.4501953125,-7611.3701171875,-400000.0625,-5783.419921875,-400000.0625,-400000.0625,-400000.0625
166.5395622253418,-344.7099914550781,-4172.27978515625,-7581.14013671875,-400000.0625,-5761.33984375,-400000.0625,-400000.0625,-400000.0625
166.55379056930542,-297.9800109863281,-4125.4501953125,-7527.2998046875,-400000.0625,-5719.47021484375,-400000.0625,-400000.0625,-400000.0625
166.5723521709442,-291.010009765625,-4121.06982421875,-7523.35009765625,-400000.0625,-5712.56005859375,-400000.0625,-400000.0625,-400000.0625
166.5862581729889,-335.6000061035156,-4161.5,-7570.31982421875,-400000.0625,-5748.93994140625,-400000.0625,-400000.0625,-400000.0625
166.59922695159912,-368.07000732421875,-4192.5400390625,-7603.68994140625,-400000.0625,-5781.93994140625,-400000.0625,-400000.0625,-400000.0625
166.6143879890442,-341.70001220703125,-4168.93994140625,-7578.759765625,-400000.0625,-5763.2001953125,-400000.0625,-400000.0625,-400000.0625
166.64519619941711,-297.260009765625,-4127.259765625,-7528.02001953125,-400000.0625,-5714.3701171875,-400000.0625,-400000.0625,-400000.0625
166.6588773727417,-296.69000244140625,-4123.2099609375,-7521.8701171875,-400000.0625,-5707.60009765625,-400000.0625,-400000.0625,-400000.0625
166.67528748512268,-333.54998779296875,-4160.35986328125,-7566.259765625,-400000.0625,-5747.27001953125,-400000.0625,-400000.0625,-400000.0625
166.68956184387207,-363.6400146484375,-4187.2001953125,-7598.02001953125,-400000.0625,-5774.93017578125,-400000.0625,-400000.0625,-400000.0625
166.7091724872589,-349.1400146484375,-4179.2900390625,-7582.759765625,-400000.0625,-5764.06005859375,-400000.0625,-400000.0625,-400000.0625
166.72575092315674,-304.4599914550781,-4133.02978515625,-7530.5,-400000.0625,-5723.18994140625,-400000.0625,-400000.0625,-400000.0625
166.75914216041565,-294.0199890136719,-4121.58984375,-7520.14990234375,-400000.0625,-5717.47021484375,-400000.0625,-400000.0625,-400000.0625
166.774640083313,-334.92999267578125,-4164.5498046875,-7567.740234375,-400000.0625,-5756.66015625,-400000.0625,-400000.0625,-400000.0625
166.79111242294312,-365.7799987792969,-4196.31005859375,-7601.68994140625,-400000.0625,-5783.419921875,-400000.0625,-400000.0625,-400000.0625
166.80721950531006,-344.0899963378906,-4172.7998046875,-7578.85009765625,-400000.0625,-5766.81982421875,-400000.0625,-400000.0625,-400000.0625
166.82925748825073,-301.69000244140625,-4129.740234375,-7528.5,-400000.0625,-5721.0498046875,-400000.0625,-400000.0625,-400000.0625
166.88404154777527,-361.7799987792969,-4251.580078125,-7594.8701171875,-400000.0625,-5759.43017578125,-400000.0625,-400000.0625,-400000.0625
166.92301034927368,-371.0299987792969,-4235.22021484375,-7603.68994140625,-400000.0625,-5794.9501953125,-400000.0625,-400000.0625,-400000.0625
166.99770092964172,-347.2300109863281,-4207.56005859375,-7583.81005859375,-400000.0625,-5780.080078125,-400000.0625,-400000.0625,-400000.0625
167.06668663024902,-297.1600036621094,-4156.58984375,-7523.72998046875,-400000.0625,-5735.02001953125,-400000.0625,-400000.0625,-400000.0625
167.12777090072632,-273.0400085449219,-4134.0400390625,-7504.990234375,-400000.0625,-5730.10986328125,-400000.0625,-400000.0625,-400000.0625
167.1805191040039,-313.6199951171875,-4169.89013671875,-7545.27978515625,-400000.0625,-5762.2001953125,-400000.0625,-400000.0625,-400000.0625
167.249826669693,-356.7699890136719,-4212.27978515625,-7593.5400390625,-400000.0625,-5803.009765625,-400000.0625,-400000.0625,-400000.0625
167.32715439796448,-335.6499938964844,-4195.39990234375,-7572.83984375,-400000.0625,-5782.64990234375,-400000.0625,-400000.0625,-400000.0625
167.43677854537964,-267.70001220703125,-4134.4599609375,-7500.169921875,-400000.0625,-5726.81005859375,-400000.0625,-400000.0625,-400000.0625
167.50806164741516,-299.739990234375,-4173.47021484375,-7535.41015625,-400000.0625,-5754.08984375,-400000.0625,-400000.0625,-400000.0625
167.56295943260193,-342.0799865722656,-4226.06982421875,-7589.6298828125,-400000.0625,-5797.240234375,-400000.0625,-400000.0625,-400000.0625
167.69183564186096,-288.8699951171875,-4183.6298828125,-7531.64013671875,-400000.0625,-5745.169921875,-400000.0625,-400000.0625,-400000.0625
167.77335715293884,-258.45001220703125,-4154.16015625,-7496.31005859375,-400000.0625,-5714.3701171875,-400000.0625,-400000.0625,-400000.0625
167.8330204486847,-333.8800048828125,-4234.60009765625,-7578.419921875,-400000.0625,-5784.85009765625,-400000.0625,-400000.0625,-400000.0625
167.89529538154602,-324.05999755859375,-4229.93017578125,-7576.47021484375,-400000.0625,-5793.43017578125,-400000.0625,-400000.0625,-400000.0625
167.94808292388916,-320.3900146484375,-4236.56005859375,-7572.509765625,-400000.0625,-5792.81005859375,-400000.0625,-400000.0625,-400000.0625
168.03379273414612,-283.9100036621094,-4202.7001953125,-7529.31005859375,-400000.0625,-5751.85009765625,-400000.0625,-400000.0625,-400000.0625
168.0983772277832,-238.66000366210938,-4174.60986328125,-7495.4501953125,-400000.0625,-5721.759765625,-400000.0625,-400000.0625,-400000.0625
168.21147799491882,-309.3699951171875,-4247.18994140625,-7571.31982421875,-400000.0625,-5780.509765625,-400000.0625,-400000.0625,-400000.0625
168.27516531944275,-317.3800048828125,-4261.58984375,-7580.330078125,-400000.0625,-5788.0400390625,-400000.0625,-400000.0625,-400000.0625
168.33070826530457,-265.4599914550781,-4210.6201171875,-7525.35009765625,-400000.0625,-5740.259765625,-400000.0625,-400000.0625,-400000.0625
168.39592456817627,-241.89999389648438,-4196.740234375,-7504.89013671875,-400000.0625,-5735.2998046875,-400000.0625,-400000.0625,-400000.0625
168.48644828796387,-253.52999877929688,-4217.14990234375,-7523.10986328125,-400000.0625,-5743.5498046875,-400000.0625,-400000.0625,-400000.0625
168.53785729408264,-294.69000244140625,-4258.10986328125,-7567.64990234375,-400000.0625,-5783.080078125,-400000.0625,-400000.0625,-400000.0625
168.6004331111908,-310.7099914550781,-4275.18017578125,-7581.08984375,-400000.0625,-5792.9501953125,-400000.0625,-400000.0625,-400000.0625
168.6592788696289,-264.92999267578125,-4233.02978515625,-7531.60009765625,-400000.0625,-5752.89990234375,-400000.0625,-400000.0625,-400000.0625
168.72280979156494,-230.8800048828125,-4199.740234375,-7494.02001953125,-400000.0625,-5722.0498046875,-400000.0625,-400000.0625,-400000.0625
168.79895544052124,-241.27999877929688,-4215.52978515625,-7505.93994140625,-400000.0625,-5736.919921875,-400000.0625,-400000.0625,-400000.0625
168.84486842155457,-291.20001220703125,-4266.7900390625,-7554.39013671875,-400000.0625,-5782.990234375,-400000.0625,-400000.0625,-400000.0625
168.88515281677246,-305.94000244140625,-4278.27978515625,-7574.1298828125,-400000.0625,-5798.2001953125,-400000.0625,-400000.0625,-400000.0625
168.90140390396118,-268.2699890136719,-4246.89990234375,-7534.83984375,-400000.0625,-5763.6298828125,-400000.0625,-400000.0625,-400000.0625
168.91540479660034,-231.0800018310547,-4214.0498046875,-7495.68994140625,-400000.0625,-5733.2001953125,-400000.0625,-400000.0625,-400000.0625
168.9314088821411,-241.27999877929688,-4224.35009765625,-7507.0400390625,-400000.0625,-5746.1298828125,-400000.0625,-400000.0625,-400000.0625
168.9460654258728,-287.3900146484375,-4271.35986328125,-7559.06005859375,-400000.0625,-5787.330078125,-400000.0625,-400000.0625,-400000.0625
168.98043370246887,-305.1300048828125,-4286.39013671875,-7577.93994140625,-400000.0625,-5794.52978515625,-400000.0625,-400000.0625,-400000.0625
169.00199723243713,-266.1700134277344,-4250.9599609375,-7536.60009765625,-400000.0625,-5766.009765625,-400000.0625,-400000.0625,-400000.0625
169.0154731273651,-226.69000244140625,-4209.9501953125,-7486.6298828125,-400000.0625,-5725.77001953125,-400000.0625,-400000.0625,-400000.0625
169.02999711036682,-242.75999450683594,-4227.4501953125,-7506.7099609375,-400000.0625,-5743.080078125,-400000.0625,-400000.0625,-400000.0625
169.04624366760254,-292.6300048828125,-4277.0400390625,-7562.72998046875,-400000.0625,-5793.10009765625,-400000.0625,-400000.0625,-400000.0625
169.07465863227844,-300.5,-4280.52001953125,-7569.31005859375,-400000.0625,-5802.25,-400000.0625,-400000.0625,-400000.0625
169.08933401107788,-268.7900085449219,-4246.66015625,-7534.080078125,-400000.0625,-5767.6298828125,-400000.0625,-400000.0625,-400000.0625
169.10690760612488,-239.66000366210938,-4220.10009765625,-7498.31005859375,-400000.0625,-5734.68017578125,-400000.0625,-400000.0625,-400000.0625
169.12347197532654,-247.0500030517578,-4230.5498046875,-7511.0,-400000.0625,-5745.7001953125,-400000.0625,-400000.0625,-400000.0625
169.1376404762268,-288.82000732421875,-4271.7001953125,-7559.35009765625,-400000.0625,-5789.330078125,-400000.0625,-400000.0625,-400000.0625
169.15220856666565,-300.6499938964844,-4290.2998046875,-7575.31982421875,-400000.0625,-5804.58984375,-400000.0625,-400000.0625,-400000.0625
169.18385767936707,-260.92999267578125,-4255.14990234375,-7536.4599609375,-400000.0625,-5771.4501953125,-400000.0625,-400000.0625,-400000.0625
169.2017297744751,-226.8800048828125,-4213.9501953125,-7493.2099609375,-400000.0625,-5729.6298828125,-400000.0625,-400000.0625,-400000.0625
169.22028708457947,-239.7100067138672,-4226.2998046875,-7505.85009765625,-400000.0625,-5736.77978515625,-400000.0625,-400000.0625,-400000.0625
169.2362036705017,-280.8999938964844,-4268.60009765625,-7552.6201171875,-400000.0625,-5783.64990234375,-400000.0625,-400000.0625,-400000.0625
169.24928951263428,-303.9800109863281,-4290.52978515625,-7577.27978515625,-400000.0625,-5804.490234375,-400000.0625,-400000.0625,-400000.0625
169.2629382610321,-266.92999267578125,-4249.330078125,-7533.27001953125,-400000.0625,-5768.10986328125,-400000.0625,-400000.0625,-400000.0625
169.29512119293213,-229.22000122070312,-4216.52978515625,-7491.5400390625,-400000.0625,-5733.16015625,-400000.0625,-400000.0625,-400000.0625
169.30923461914062,-240.99000549316406,-4227.64013671875,-7504.509765625,-400000.0625,-5749.080078125,-400000.0625,-400000.0625,-400000.0625
169.3263394832611,-286.5299987792969,-4270.35986328125,-7555.2900390625,-400000.0625,-5794.669921875,-400000.0625,-400000.0625,-400000.0625
169.3552644252777,-237.0800018310547,-4286.0,-7500.509765625,-400000.0625,-5731.81982421875,-400000.0625,-400000.0625,-400000.0625
169.48387002944946,-268.8900146484375,-4273.419921875,-7523.5400390625,-400000.0625,-5784.1298828125,-400000.0625,-400000.0625,-400000.0625
169.54990935325623,-294.5400085449219,-4300.4501953125,-7555.6298828125,-400000.0625,-5813.740234375,-400000.0625,-400000.0625,-400000.0625
169.683837890625,-206.08999633789062,-4212.43017578125,-7462.31005859375,-400000.0625,-5740.02001953125,-400000.0625,-400000.0625,-400000.0625
169.74293494224548,-220.9199981689453,-4219.25,-7464.740234375,-400000.0625,-5743.5498046875,-400000.0625,-400000.0625,-400000.0625
169.82413411140442,-271.510009765625,-4265.35986328125,-7517.85986328125,-400000.0625,-5788.759765625,-400000.0625,-400000.0625,-400000.0625
169.9005069732666,-288.1099853515625,-4286.47998046875,-7545.419921875,-400000.0625,-5821.75,-400000.0625,-400000.0625,-400000.0625
169.93217158317566,-216.82000732421875,-4214.10009765625,-7461.02001953125,-400000.0625,-5742.60009765625,-400000.0625,-400000.0625,-400000.0625
169.99459624290466,-205.08999633789062,-4209.89990234375,-7450.52978515625,-400000.0625,-5739.58984375,-400000.0625,-400000.0625,-400000.0625
170.08069944381714,-209.80999755859375,-4207.3701171875,-7447.72021484375,-400000.0625,-5750.22998046875,-400000.0625,-400000.0625,-400000.0625
170.14041185379028,-246.80999755859375,-4248.669921875,-7485.6298828125,-400000.0625,-5774.77978515625,-400000.0625,-400000.0625,-400000.0625
170.19063210487366,-279.6700134277344,-4277.9501953125,-7523.6298828125,-400000.0625,-5813.02978515625,-400000.0625,-400000.0625,-400000.0625
170.28867316246033,-273.2799987792969,-4277.08984375,-7513.6201171875,-400000.0625,-5802.97021484375,-400000.0625,-400000.0625,-400000.0625
170.31954908370972,-215.86000061035156,-4221.490234375,-7454.25,-400000.0625,-5759.72021484375,-400000.0625,-400000.0625,-400000.0625
170.38208508491516,-216.10000610351562,-4220.490234375,-7448.2900390625,-400000.0625,-5747.3701171875,-400000.0625,-400000.0625,-400000.0625
170.4448573589325,-238.6999969482422,-4251.52978515625,-7483.10009765625,-400000.0625,-5788.52001953125,-400000.0625,-400000.0625,-400000.0625
170.52851843833923,-282.7200012207031,-4298.64013671875,-7530.02001953125,-400000.0625,-5828.330078125,-400000.0625,-400000.0625,-400000.0625
170.58362364768982,-262.5899963378906,-4277.56005859375,-7508.14013671875,-400000.0625,-5805.8701171875,-400000.0625,-400000.0625,-400000.0625
170.63601231575012,-221.5399932861328,-4239.27001953125,-7457.68994140625,-400000.0625,-5763.10009765625,-400000.0625,-400000.0625,-400000.0625
170.69912266731262,-215.6300048828125,-4233.41015625,-7445.72021484375,-400000.0625,-5748.3701171875,-400000.0625,-400000.0625,-400000.0625
170.76426196098328,-247.91000366210938,-4262.5400390625,-7484.81982421875,-400000.0625,-5786.89990234375,-400000.0625,-400000.0625,-400000.0625
170.8353021144867,-287.3900146484375,-4318.759765625,-7534.35986328125,-400000.0625,-5825.330078125,-400000.0625,-400000.0625,-400000.0625
170.895334482193,-264.739990234375,-4299.2099609375,-7512.43017578125,-400000.0625,-5807.830078125,-400000.0625,-400000.0625,-400000.0625
170.98161673545837,-238.0399932861328,-4277.75,-7479.3798828125,-400000.0625,-5779.41015625,-400000.0625,-400000.0625,-400000.0625
171.0371298789978,-220.72999572753906,-4254.52978515625,-7457.39990234375,-400000.0625,-5756.43017578125,-400000.0625,-400000.0625,-400000.0625
171.09824895858765,-238.94000244140625,-4276.22998046875,-7484.8701171875,-400000.0625,-5787.56005859375,-400000.0625,-400000.0625,-400000.0625
171.14879989624023,-281.3800048828125,-4321.3798828125,-7526.97021484375,-400000.0625,-5818.02978515625,-400000.0625,-400000.0625,-400000.0625
171.2354564666748,-270.0799865722656,-4311.509765625,-7518.6298828125,-400000.0625,-5819.080078125,-400000.0625,-400000.0625,-400000.0625
171.29567956924438,-231.5,-4278.27978515625,-7475.0,-400000.0625,-5776.31005859375,-400000.0625,-400000.0625,-400000.0625
171.344379901886,-205.8000030517578,-4253.669921875,-7445.85986328125,-400000.0625,-5753.18017578125,-400000.0625,-400000.0625,-400000.0625
171.38601922988892,-238.85000610351562,-4282.08984375,-7478.81005859375,-400000.0625,-5778.64990234375,-400000.0625,-400000.0625,-400000.0625
171.405371427536,-285.3399963378906,-4322.240234375,-7526.77978515625,-400000.0625,-5822.330078125,-400000.0625,-400000.0625,-400000.0625
171.42214155197144,-278.42999267578125,-4322.580078125,-7525.64013671875,-400000.0625,-5824.3798828125,-400000.0625,-400000.0625,-400000.0625
171.43817567825317,-230.97999572753906,-4274.4599609375,-7470.89013671875,-400000.0625,-5776.5,-400000.0625,-400000.0625,-400000.0625
171.45438504219055,-211.47999572753906,-4251.39013671875,-7445.85986328125,-400000.0625,-5756.330078125,-400000.0625,-400000.0625,-400000.0625
171.48535442352295,-240.99000549316406,-4285.33984375,-7480.56982421875,-400000.0625,-5780.41015625,-400000.0625,-400000.0625,-400000.0625
171.50290036201477,-286.82000732421875,-4331.2998046875,-7531.740234375,-400000.0625,-5825.419921875,-400000.0625,-400000.0625,-400000.0625
171.51887774467468,-287.8699951171875,-4322.39013671875,-7528.5,-400000.0625,-5825.7099609375,-400000.0625,-400000.0625,-400000.0625
171.5333034992218,-240.52000427246094,-4280.419921875,-7476.6201171875,-400000.0625,-5779.1201171875,-400000.0625,-400000.0625,-400000.0625
171.54913234710693,-212.24000549316406,-4256.43994140625,-7448.0498046875,-400000.0625,-5754.89990234375,-400000.0625,-400000.0625,-400000.0625
171.5630784034729,-243.22999572753906,-4283.6201171875,-7481.9599609375,-400000.0625,-5786.27978515625,-400000.0625,-400000.0625,-400000.0625
171.597660779953,-283.1499938964844,-4324.77001953125,-7528.16015625,-400000.0625,-5825.9501953125,-400000.0625,-400000.0625,-400000.0625
171.61488962173462,-283.9599914550781,-4330.97021484375,-7530.02001953125,-400000.0625,-5822.1298828125,-400000.0625,-400000.0625,-400000.0625
171.6344599723816,-243.13999938964844,-4287.6201171875,-7481.77001953125,-400000.0625,-5783.89013671875,-400000.0625,-400000.0625,-400000.0625
171.65829229354858,-215.44000244140625,-4258.490234375,-7449.9599609375,-400000.0625,-5753.66015625,-400000.0625,-400000.0625,-400000.0625
171.67321729660034,-242.27999877929688,-4289.68017578125,-7483.0498046875,-400000.0625,-5786.0400390625,-400000.0625,-400000.0625,-400000.0625
171.70294523239136,-277.1400146484375,-4318.52001953125,-7521.490234375,-400000.0625,-5822.9501953125,-400000.0625,-400000.0625,-400000.0625
171.72160363197327,-277.3800048828125,-4317.9501953125,-7520.9599609375,-400000.0625,-5822.52001953125,-400000.0625,-400000.0625,-400000.0625
171.74179244041443,-244.19000244140625,-4289.009765625,-7483.43994140625,-400000.0625,-5786.85009765625,-400000.0625,-400000.0625,-400000.0625
171.7568175792694,-217.10000610351562,-4264.93017578125,-7453.43994140625,-400000.0625,-5757.89990234375,-400000.0625,-400000.0625,-400000.0625
171.77384996414185,-242.61000061035156,-4289.68017578125,-7483.91015625,-400000.0625,-5780.83984375,-400000.0625,-400000.0625,-400000.0625
171.80284571647644,-284.9100036621094,-4334.93017578125,-7535.89013671875,-400000.0625,-5825.18994140625,-400000.0625,-400000.0625,-400000.0625
171.82198238372803,-276.0899963378906,-4323.72021484375,-7529.740234375,-400000.0625,-5825.08984375,-400000.0625,-400000.0625,-400000.0625
171.84044003486633,-227.02000427246094,-4272.41015625,-7474.330078125,-400000.0625,-5782.60009765625,-400000.0625,-400000.0625,-400000.0625
171.93673729896545,-253.72999572753906,-4301.41015625,-7507.990234375,-400000.0625,-5788.18017578125,-400000.0625,-400000.0625,-400000.0625
171.98188614845276,-207.13999938964844,-4230.7900390625,-7453.72998046875,-400000.0625,-5758.6201171875,-400000.0625,-400000.0625,-400000.0625
172.0437309741974,-233.36000061035156,-4246.47021484375,-7478.669921875,-400000.0625,-5787.66015625,-400000.0625,-400000.0625,-400000.0625
172.12318587303162,-276.8999938964844,-4290.8701171875,-7528.58984375,-400000.0625,-5823.56982421875,-400000.0625,-400000.0625,-400000.0625
172.18093848228455,-290.3500061035156,-4300.830078125,-7542.3701171875,-400000.0625,-5836.8701171875,-400000.0625,-400000.0625,-400000.0625
172.29930305480957,-215.6699981689453,-4226.2998046875,-7458.2099609375,-400000.0625,-5763.33984375,-400000.0625,-400000.0625,-400000.0625
172.3829460144043,-222.8699951171875,-4235.080078125,-7469.4599609375,-400000.0625,-5770.02001953125,-400000.0625,-400000.0625,-400000.0625
172.44823479652405,-280.760009765625,-4289.81982421875,-7526.830078125,-400000.0625,-5827.3798828125,-400000.0625,-400000.0625,-400000.0625
172.50668358802795,-283.2900085449219,-4298.4501953125,-7539.419921875,-400000.0625,-5841.06982421875,-400000.0625,-400000.0625,-400000.0625
172.58304405212402,-242.89999389648438,-4263.97021484375,-7497.5498046875,-400000.0625,-5797.2001953125,-400000.0625,-400000.0625,-400000.0625
172.65166664123535,-199.27000427246094,-4214.85986328125,-7449.47998046875,-400000.0625,-5754.66015625,-400000.0625,-400000.0625,-400000.0625
172.68673944473267,-225.25999450683594,-4246.330078125,-7473.18017578125,-400000.0625,-5780.509765625,-400000.0625,-400000.0625,-400000.0625
172.74704122543335,-263.1700134277344,-4291.81982421875,-7519.91015625,-400000.0625,-5817.27001953125,-400000.0625,-400000.0625,-400000.0625
172.81271529197693,-283.19000244140625,-4309.02978515625,-7543.990234375,-400000.0625,-5839.06005859375,-400000.0625,-400000.0625,-400000.0625
172.94129014015198,-210.24000549316406,-4233.22021484375,-7451.9599609375,-400000.0625,-5760.0,-400000.0625,-400000.0625,-400000.0625
173.01390051841736,-204.4199981689453,-4240.990234375,-7456.830078125,-400000.0625,-5770.490234375,-400000.0625,-400000.0625,-400000.0625
173.07977652549744,-261.3999938964844,-4289.81982421875,-7512.52001953125,-400000.0625,-5818.22021484375,-400000.0625,-400000.0625,-400000.0625
173.1504364013672,-274.2799987792969,-4302.22021484375,-7526.2998046875,-400000.0625,-5837.5400390625,-400000.0625,-400000.0625,-400000.0625
173.197114944458,-235.75,-4273.75,-7489.77978515625,-400000.0625,-5800.77001953125,-400000.0625,-400000.0625,-400000.0625
173.27977395057678,-190.2100067138672,-4229.5,-7444.91015625,-400000.0625,-5773.35009765625,-400000.0625,-400000.0625,-400000.0625
173.33159756660461,-198.22000122070312,-4235.1298828125,-7446.6201171875,-400000.0625,-5768.6298828125,-400000.0625,-400000.0625,-400000.0625
173.39574885368347,-248.19000244140625,-4287.81982421875,-7504.75,-400000.0625,-5815.22021484375,-400000.0625,-400000.0625,-400000.0625
173.4657063484192,-267.6000061035156,-4309.93994140625,-7527.259765625,-400000.0625,-5835.10009765625,-400000.0625,-400000.0625,-400000.0625
173.52691006660461,-251.9600067138672,-4285.9599609375,-7501.89013671875,-400000.0625,-5816.89013671875,-400000.0625,-400000.0625,-400000.0625
173.59354257583618,-189.8800048828125,-4232.41015625,-7443.240234375,-400000.0625,-5773.259765625,-400000.0625,-400000.0625,-400000.0625
173.649108171463,-189.5,-4238.22021484375,-7447.240234375,-400000.0625,-5763.72021484375,-400000.0625,-400000.0625,-400000.0625
173.7093255519867,-235.8000030517578,-4282.18994140625,-7498.7900390625,-400000.0625,-5815.35986328125,-400000.0625,-400000.0625,-400000.0625
173.78053975105286,-266.5,-4321.0,-7539.56005859375,-400000.0625,-5848.68994140625,-400000.0625,-400000.0625,-400000.0625
173.83961033821106,-237.0800018310547,-4287.0498046875,-7500.22021484375,-400000.0625,-5819.990234375,-400000.0625,-400000.0625,-400000.0625
173.90174317359924,-191.25999450683594,-4239.66015625,-7448.6298828125,-400000.0625,-5773.77978515625,-400000.0625,-400000.0625,-400000.0625
173.91835498809814,-187.35000610351562,-4241.22998046875,-7445.85986328125,-400000.0625,-5767.68017578125,-400000.0625,-400000.0625,-400000.0625
173.93537592887878,-233.83999633789062,-4286.72021484375,-7496.93017578125,-400000.0625,-5808.31005859375,-400000.0625,-400000.0625,-400000.0625
173.94809317588806,-266.6000061035156,-4311.1298828125,-7527.8798828125,-400000.0625,-5836.33984375,-400000.0625,-400000.0625,-400000.0625
173.97586870193481,-230.1199951171875,-4278.56005859375,-7493.5400390625,-400000.0625,-5812.02978515625,-400000.0625,-400000.0625,-400000.0625
173.989275932312,-182.44000244140625,-4232.740234375,-7440.08984375,-400000.0625,-5771.5400390625,-400000.0625,-400000.0625,-400000.0625
174.00618195533752,-184.67999267578125,-4235.27001953125,-7440.9501953125,-400000.0625,-5771.2099609375,-400000.0625,-400000.0625,-400000.0625
174.02547478675842,-229.30999755859375,-4281.9501953125,-7495.830078125,-400000.0625,-5812.5498046875,-400000.0625,-400000.0625,-400000.0625
174.0428068637848,-263.739990234375,-4314.85009765625,-7530.8798828125,-400000.0625,-5839.97021484375,-400000.0625,-400000.0625,-400000.0625
174.05754780769348,-237.94000244140625,-4290.14990234375,-7500.5498046875,-400000.0625,-5816.56005859375,-400000.0625,-400000.0625,-400000.0625
174.09428477287292,-192.1199951171875,-4240.1298828125,-7450.9599609375,-400000.0625,-5777.5,-400000.0625,-400000.0625,-400000.0625
174.1111946105957,-192.39999389648438,-4242.85009765625,-7450.8701171875,-400000.0625,-5772.77978515625,-400000.0625,-400000.0625,-400000.0625
174.12976384162903,-236.0800018310547,-4284.10009765625,-7499.31005859375,-400000.0625,-5816.89013671875,-400000.0625,-400000.0625,-400000.0625
174.1461057662964,-261.8800048828125,-4314.60986328125,-7533.83984375,-400000.0625,-5846.60009765625,-400000.0625,-400000.0625,-400000.0625
174.16072630882263,-236.4199981689453,-4288.240234375,-7500.41015625,-400000.0625,-5818.080078125,-400000.0625,-400000.0625,-400000.0625
174.18893194198608,-189.35000610351562,-4240.080078125,-7447.669921875,-400000.0625,-5770.97021484375,-400000.0625,-400000.0625,-400000.0625
174.206396818161,-185.72999572753906,-4240.3701171875,-7446.52978515625,-400000.0625,-5762.669921875,-400000.0625,-400000.0625,-400000.0625
174.22060418128967,-225.8300018310547,-4283.3798828125,-7495.64013671875,-400000.0625,-5813.5498046875,-400000.0625,-400000.0625,-400000.0625
174.2366464138031,-258.6400146484375,-4310.27001953125,-7529.06982421875,-400000.0625,-5839.919921875,-400000.0625,-400000.0625,-400000.0625
174.25304126739502,-233.22000122070312,-4286.2900390625,-7500.31982421875,-400000.0625,-5816.7900390625,-400000.0625,-400000.0625,-400000.0625
174.2688660621643,-180.6699981689453,-4231.740234375,-7443.240234375,-400000.0625,-5770.77978515625,-400000.0625,-400000.0625,-400000.0625
174.30829501152039,-187.97000122070312,-4244.85009765625,-7450.490234375,-400000.0625,-5774.4501953125,-400000.0625,-400000.0625,-400000.0625
174.3209147453308,-232.97999572753906,-4297.58984375,-7505.7001953125,-400000.0625,-5820.509765625,-400000.0625,-400000.0625,-400000.0625
174.33653950691223,-262.1199951171875,-4320.18994140625,-7536.02978515625,-400000.0625,-5842.72998046875,-400000.0625,-400000.0625,-400000.0625
174.43085551261902,-313.4700012207031,-4460.3798828125,-7590.33984375,-400000.0625,-5828.0498046875,-400000.0625,-400000.0625,-400000.0625
174.4906027317047,-252.00999450683594,-4341.89013671875,-7526.72998046875,-400000.0625,-5828.91015625,-400000.0625,-400000.0625,-400000.0625
174.54699730873108,-187.49000549316406,-4262.39990234375,-7464.02978515625,-400000.0625,-5777.31005859375,-400000.0625,-400000.0625,-400000.0625
174.6815721988678,-225.97000122070312,-4290.919921875,-7498.60009765625,-400000.0625,-5812.169921875,-400000.0625,-400000.0625,-400000.0625
174.73491859436035,-250.38999938964844,-4312.93994140625,-7531.740234375,-400000.0625,-5842.16015625,-400000.0625,-400000.0625,-400000.0625
174.80085802078247,-228.92999267578125,-4299.06982421875,-7519.91015625,-400000.0625,-5828.91015625,-400000.0625,-400000.0625,-400000.0625
174.88285517692566,-186.39999389648438,-4257.919921875,-7466.35986328125,-400000.0625,-5781.169921875,-400000.0625,-400000.0625,-400000.0625
174.93903279304504,-174.7100067138672,-4243.7099609375,-7448.81982421875,-400000.0625,-5766.39013671875,-400000.0625,-400000.0625,-400000.0625
174.9878716468811,-213.86000061035156,-4290.52978515625,-7494.259765625,-400000.0625,-5810.60009765625,-400000.0625,-400000.0625,-400000.0625
175.0512981414795,-252.52999877929688,-4333.06982421875,-7539.56005859375,-400000.0625,-5845.740234375,-400000.0625,-400000.0625,-400000.0625
175.14780712127686,-243.0399932861328,-4321.81005859375,-7530.68994140625,-400000.0625,-5843.259765625,-400000.0625,-400000.0625,-400000.0625
175.18240690231323,-199.83999633789062,-4277.9501953125,-7474.85009765625,-400000.0625,-5784.56005859375,-400000.0625,-400000.0625,-400000.0625
175.24755668640137,-167.17999267578125,-4253.33984375,-7447.77001953125,-400000.0625,-5770.68017578125,-400000.0625,-400000.0625,-400000.0625
175.31085681915283,-212.19000244140625,-4294.68017578125,-7492.8798828125,-400000.0625,-5810.31005859375,-400000.0625,-400000.0625,-400000.0625
175.37378430366516,-245.75999450683594,-4328.72998046875,-7530.35986328125,-400000.0625,-5850.64990234375,-400000.0625,-400000.0625,-400000.0625
175.43545961380005,-235.88999938964844,-4322.43017578125,-7524.5400390625,-400000.0625,-5845.7900390625,-400000.0625,-400000.0625,-400000.0625
175.50323963165283,-189.69000244140625,-4274.93994140625,-7469.990234375,-400000.0625,-5804.5400390625,-400000.0625,-400000.0625,-400000.0625
175.5854353904724,-166.75,-4254.77001953125,-7446.669921875,-400000.0625,-5780.75,-400000.0625,-400000.0625,-400000.0625
175.64829778671265,-201.0800018310547,-4292.77001953125,-7482.9599609375,-400000.0625,-5813.83984375,-400000.0625,-400000.0625,-400000.0625
175.69734287261963,-237.4199981689453,-4333.5400390625,-7526.919921875,-400000.0625,-5854.509765625,-400000.0625,-400000.0625,-400000.0625
175.78172993659973,-230.64999389648438,-4328.10986328125,-7526.58984375,-400000.0625,-5849.35986328125,-400000.0625,-400000.0625,-400000.0625
175.83779168128967,-187.11000061035156,-4282.27978515625,-7471.85009765625,-400000.0625,-5810.31005859375,-400000.0625,-400000.0625,-400000.0625
175.89172959327698,-155.5,-4251.43017578125,-7431.7001953125,-400000.0625,-5780.97998046875,-400000.0625,-400000.0625,-400000.0625
175.9508135318756,-183.6300048828125,-4273.93994140625,-7462.93017578125,-400000.0625,-5806.2099609375,-400000.0625,-400000.0625,-400000.0625
176.02862524986267,-224.77999877929688,-4323.0498046875,-7511.7099609375,-400000.0625,-5842.16015625,-400000.0625,-400000.0625,-400000.0625
176.08659076690674,-223.49000549316406,-4324.72021484375,-7514.18994140625,-400000.0625,-5846.97998046875,-400000.0625,-400000.0625,-400000.0625
176.1485459804535,-188.58999633789062,-4291.919921875,-7470.93994140625,-400000.0625,-5814.7001953125,-400000.0625,-400000.0625,-400000.0625
176.27410125732422,-212.24000549316406,-4312.1298828125,-7493.93017578125,-400000.0625,-5848.83984375,-400000.0625,-400000.0625,-400000.0625
176.34166407585144,-207.3300018310547,-4317.7099609375,-7495.64013671875,-400000.0625,-5846.1201171875,-400000.0625,-400000.0625,-400000.0625
176.39679980278015,-225.5399932861328,-4331.68017578125,-7507.18017578125,-400000.0625,-5849.080078125,-400000.0625,-400000.0625,-400000.0625
176.43178701400757,-179.0,-4283.2900390625,-7455.06005859375,-400000.0625,-5809.64013671875,-400000.0625,-400000.0625,-400000.0625
176.45132660865784,-147.44000244140625,-4251.10009765625,-7418.919921875,-400000.0625,-5779.35986328125,-400000.0625,-400000.0625,-400000.0625
176.46790981292725,-168.32000732421875,-4274.4599609375,-7447.10009765625,-400000.0625,-5800.68017578125,-400000.0625,-400000.0625,-400000.0625
176.48716831207275,-220.5800018310547,-4329.35009765625,-7504.02978515625,-400000.0625,-5852.080078125,-400000.0625,-400000.0625,-400000.0625
176.50596046447754,-228.36000061035156,-4335.740234375,-7511.240234375,-400000.0625,-5857.56005859375,-400000.0625,-400000.0625,-400000.0625
176.54050087928772,-184.14999389648438,-4296.830078125,-7466.7900390625,-400000.0625,-5816.1298828125,-400000.0625,-400000.0625,-400000.0625
176.55760169029236,-146.1999969482422,-4257.8701171875,-7425.5498046875,-400000.0625,-5780.31982421875,-400000.0625,-400000.0625,-400000.0625
176.57467603683472,-168.1300048828125,-4281.52001953125,-7451.33984375,-400000.0625,-5802.25,-400000.0625,-400000.0625,-400000.0625
176.59569001197815,-217.33999633789062,-4329.6298828125,-7504.4599609375,-400000.0625,-5844.58984375,-400000.0625,-400000.0625,-400000.0625
176.60952401161194,-222.63999938964844,-4340.60009765625,-7512.14013671875,-400000.0625,-5852.7998046875,-400000.0625,-400000.0625,-400000.0625
176.64595127105713,-180.52999877929688,-4300.39990234375,-7464.83984375,-400000.0625,-5817.27001953125,-400000.0625,-400000.0625,-400000.0625
176.6622405052185,-144.6199951171875,-4262.2099609375,-7427.02978515625,-400000.0625,-5785.75,-400000.0625,-400000.0625,-400000.0625
176.6787986755371,-165.55999755859375,-4281.0400390625,-7450.39013671875,-400000.0625,-5802.72998046875,-400000.0625,-400000.0625,-400000.0625
176.69307112693787,-214.10000610351562,-4329.77978515625,-7502.93994140625,-400000.0625,-5846.31005859375,-400000.0625,-400000.0625,-400000.0625
176.7151744365692,-218.82000732421875,-4338.02978515625,-7509.60986328125,-400000.0625,-5853.89013671875,-400000.0625,-400000.0625,-400000.0625
176.75802302360535,-175.6199951171875,-4292.5400390625,-7460.31005859375,-400000.0625,-5809.64013671875,-400000.0625,-400000.0625,-400000.0625
176.77340054512024,-152.05999755859375,-4267.169921875,-7429.7001953125,-400000.0625,-5786.18017578125,-400000.0625,-400000.0625,-400000.0625
176.79377913475037,-172.3300018310547,-4285.85986328125,-7449.68017578125,-400000.0625,-5799.81982421875,-400000.0625,-400000.0625,-400000.0625
176.81061911582947,-219.38999938964844,-4331.2099609375,-7502.93994140625,-400000.0625,-5847.64990234375,-400000.0625,-400000.0625,-400000.0625
176.8296093940735,-226.8300018310547,-4342.02978515625,-7510.3798828125,-400000.0625,-5855.60986328125,-400000.0625,-400000.0625,-400000.0625
176.93133234977722,-184.05999755859375,-4374.7900390625,-7482.2001953125,-400000.0625,-5790.18994140625,-400000.0625,-400000.0625,-400000.0625
176.99302577972412,-201.50999450683594,-4358.81982421875,-7506.89990234375,-400000.0625,-5846.4501953125,-400000.0625,-400000.0625,-400000.0625
177.0354664325714,-213.42999267578125,-4364.2001953125,-7524.2099609375,-400000.0625,-5861.9501953125,-400000.0625,-400000.0625,-400000.0625
177.10026144981384,-171.13999938964844,-4323.52978515625,-7477.669921875,-400000.0625,-5828.330078125,-400000.0625,-400000.0625,-400000.0625
177.1662459373474,-126.36000061035156,-4272.75,-7422.35009765625,-400000.0625,-5794.0,-400000.0625,-400000.0625,-400000.0625
177.23103785514832,-134.3699951171875,-4296.10986328125,-7441.9501953125,-400000.0625,-5804.68017578125,-400000.0625,-400000.0625,-400000.0625
177.3741524219513,-194.41000366210938,-4350.89990234375,-7503.080078125,-400000.0625,-5866.81005859375,-400000.0625,-400000.0625,-400000.0625
177.43410420417786,-156.1199951171875,-4327.6298828125,-7472.22998046875,-400000.0625,-5838.68017578125,-400000.0625,-400000.0625,-400000.0625
177.48719549179077,-106.91000366210938,-4280.89990234375,-7420.58984375,-400000.0625,-5791.330078125,-400000.0625,-400000.0625,-400000.0625
177.54946732521057,-118.77999877929688,-4295.5400390625,-7431.31982421875,-400000.0625,-5801.9599609375,-400000.0625,-400000.0625,-400000.0625
177.62828993797302,-169.32000732421875,-4351.08984375,-7487.97021484375,-400000.0625,-5845.35986328125,-400000.0625,-400000.0625,-400000.0625
177.71426558494568,-189.3000030517578,-4376.1298828125,-7511.89990234375,-400000.0625,-5871.14990234375,-400000.0625,-400000.0625,-400000.0625
177.73800802230835,-150.25,-4341.4599609375,-7471.509765625,-400000.0625,-5840.16015625,-400000.0625,-400000.0625,-400000.0625
177.8107624053955,-110.0999984741211,-4299.93017578125,-7417.16015625,-400000.0625,-5794.33984375,-400000.0625,-400000.0625,-400000.0625
177.88190722465515,-108.0,-4307.1298828125,-7424.31005859375,-400000.0625,-5804.8701171875,-400000.0625,-400000.0625,-400000.0625
177.99550676345825,-158.1199951171875,-4353.0,-7470.080078125,-400000.0625,-5842.16015625,-400000.0625,-400000.0625,-400000.0625
178.08590960502625,-166.17999267578125,-4360.2900390625,-7476.0400390625,-400000.0625,-5846.1201171875,-400000.0625,-400000.0625,-400000.0625
178.14313340187073,-117.54000091552734,-4317.759765625,-7424.5498046875,-400000.0625,-5797.10009765625,-400000.0625,-400000.0625,-400000.0625
178.1893379688263,-111.72000122070312,-4311.27978515625,-7413.77001953125,-400000.0625,-5792.669921875,-400000.0625,-400000.0625,-400000.0625
178.2522759437561,-152.39999389648438,-4368.10986328125,-7470.1298828125,-400000.0625,-5842.10986328125,-400000.0625,-400000.0625,-400000.0625
178.32292795181274,-158.5,-4370.4501953125,-7473.89990234375,-400000.0625,-5851.97998046875,-400000.0625,-400000.0625,-400000.0625
178.39563488960266,-158.36000061035156,-4371.2099609375,-7469.18017578125,-400000.0625,-5848.4599609375,-400000.0625,-400000.0625,-400000.0625
178.44571089744568,-110.4800033569336,-4329.97021484375,-7417.68017578125,-400000.0625,-5803.2998046875,-400000.0625,-400000.0625,-400000.0625
178.57345843315125,-167.6999969482422,-4378.41015625,-7474.7099609375,-400000.0625,-5850.97998046875,-400000.0625,-400000.0625,-400000.0625
178.641597032547,-192.36000061035156,-4410.22021484375,-7498.89013671875,-400000.0625,-5877.68994140625,-400000.0625,-400000.0625,-400000.0625
178.70170903205872,-169.89999389648438,-4390.2900390625,-7475.52001953125,-400000.0625,-5856.56005859375,-400000.0625,-400000.0625,-400000.0625
178.83540654182434,-156.5,-4382.66015625,-7457.5400390625,-400000.0625,-5842.68994140625,-400000.0625,-400000.0625,-400000.0625
178.89663648605347,-157.02000427246094,-4377.89013671875,-7457.830078125,-400000.0625,-5839.2099609375,-400000.0625,-400000.0625,-400000.0625
178.91295337677002,-190.69000244140625,-4410.27001953125,-7496.93017578125,-400000.0625,-5873.97021484375,-400000.0625,-400000.0625,-400000.0625
178.92857670783997,-173.19000244140625,-4392.52978515625,-7476.66015625,-400000.0625,-5862.18994140625,-400000.0625,-400000.0625,-400000.0625
178.94332718849182,-124.02999877929688,-4343.509765625,-7419.8701171875,-400000.0625,-5817.7001953125,-400000.0625,-400000.0625,-400000.0625
178.97853183746338,-104.94999694824219,-4324.47998046875,-7399.4599609375,-400000.0625,-5797.52978515625,-400000.0625,-400000.0625,-400000.0625
179.0014293193817,-145.86000061035156,-4366.259765625,-7445.10009765625,-400000.0625,-5836.68017578125,-400000.0625,-400000.0625,-400000.0625
179.01712727546692,-189.5,-4410.83984375,-7492.97021484375,-400000.0625,-5876.919921875,-400000.0625,-400000.0625,-400000.0625
