time,ch1,ch2,ch3,ch4,ch5,ch6,ch7,ch8
185.77849626541138,-127.73999786376953,-4421.0400390625,-7387.16015625,-400000.0625,-5801.9599609375,-400000.0625,-400000.0625,-400000.0625
185.82031440734863,-143.86000061035156,-4436.919921875,-7403.419921875,-400000.0625,-5820.22998046875,-400000.0625,-400000.0625,-400000.0625
185.8930220603943,-188.5399932861328,-4473.5,-7450.06005859375,-400000.0625,-5859.7099609375,-400000.0625,-400000.0625,-400000.0625
185.9390413761139,-200.8000030517578,-4488.0400390625,-7467.60009765625,-400000.0625,-5877.2099609375,-400000.0625,-400000.0625,-400000.0625
186.03449606895447,-157.74000549316406,-4452.66015625,-7423.5400390625,-400000.0625,-5837.5400390625,-400000.0625,-400000.0625,-400000.0625
186.08959341049194,-119.3499984741211,-4412.1298828125,-7376.0,-400000.0625,-5799.9599609375,-400000.0625,-400000.0625,-400000.0625
186.19913005828857,-136.9499969482422,-4430.33984375,-7396.080078125,-400000.0625,-5816.89013671875,-400000.0625,-400000.0625,-400000.0625
186.3147006034851,-184.35000610351562,-4481.75,-7452.919921875,-400000.0625,-5864.240234375,-400000.0625,-400000.0625,-400000.0625
186.42550659179688,-194.83999633789062,-4487.27978515625,-7461.169921875,-400000.0625,-5868.0498046875,-400000.0625,-400000.0625,-400000.0625
186.5414080619812,-154.72999572753906,-4446.4599609375,-7418.81982421875,-400000.0625,-5837.39013671875,-400000.0625,-400000.0625,-400000.0625
186.65677571296692,-120.3499984741211,-4421.08984375,-7385.4501953125,-400000.0625,-5807.4501953125,-400000.0625,-400000.0625,-400000.0625
186.78952169418335,-140.6199951171875,-4439.8798828125,-7402.75,-400000.0625,-5821.27978515625,-400000.0625,-400000.0625,-400000.0625
186.90889644622803,-184.77000427246094,-4479.740234375,-7451.25,-400000.0625,-5865.2900390625,-400000.0625,-400000.0625,-400000.0625
187.03269600868225,-199.02999877929688,-4497.52978515625,-7466.97998046875,-400000.0625,-5878.35009765625,-400000.0625,-400000.0625,-400000.0625
187.15582537651062,-164.22000122070312,-4456.66015625,-7422.16015625,-400000.0625,-5839.830078125,-400000.0625,-400000.0625,-400000.0625
187.28187084197998,-126.02999877929688,-4413.31982421875,-7376.14990234375,-400000.0625,-5799.9599609375,-400000.0625,-400000.0625,-400000.0625
187.4011812210083,-137.66000366210938,-4429.14990234375,-7392.5498046875,-400000.0625,-5810.31005859375,-400000.0625,-400000.0625,-400000.0625
187.5361828804016,-187.2100067138672,-4475.740234375,-7443.9501953125,-400000.0625,-5858.759765625,-400000.0625,-400000.0625,-400000.0625
187.66394567489624,-195.5500030517578,-4484.75,-7456.259765625,-400000.0625,-5870.6298828125,-400000.0625,-400000.0625,-400000.0625
187.80481576919556,-161.5500030517578,-4449.60986328125,-7414.8701171875,-400000.0625,-5836.06005859375,-400000.0625,-400000.0625,-400000.0625
187.92246556282043,-124.55000305175781,-4414.89013671875,-7372.08984375,-400000.0625,-5798.0498046875,-400000.0625,-400000.0625,-400000.0625
188.05703163146973,-138.6199951171875,-4433.10986328125,-7390.830078125,-400000.0625,-5815.7001953125,-400000.0625,-400000.0625,-400000.0625
188.17805790901184,-184.8699951171875,-4475.39990234375,-7441.14013671875,-400000.0625,-5862.759765625,-400000.0625,-400000.0625,-400000.0625
188.3231451511383,-190.8300018310547,-4486.1298828125,-7452.490234375,-400000.0625,-5869.9599609375,-400000.0625,-400000.0625,-400000.0625
188.4477870464325,-153.8300018310547,-4453.14013671875,-7412.91015625,-400000.0625,-5826.759765625,-400000.0625,-400000.0625,-400000.0625
188.57116413116455,-126.08000183105469,-4420.81005859375,-7376.47998046875,-400000.0625,-5804.009765625,-400000.0625,-400000.0625,-400000.0625
188.70339035987854,-144.2899932861328,-4440.1201171875,-7397.080078125,-400000.0625,-5824.52001953125,-400000.0625,-400000.0625,-400000.0625
188.83662676811218,-190.69000244140625,-4484.75,-7449.9599609375,-400000.0625,-5870.8701171875,-400000.0625,-400000.0625,-400000.0625
188.97615671157837,-198.55999755859375,-4490.759765625,-7460.5,-400000.0625,-5880.7900390625,-400000.0625,-400000.0625,-400000.0625
189.11138677597046,-157.5500030517578,-4449.56005859375,-7411.72021484375,-400000.0625,-5838.2998046875,-400000.0625,-400000.0625,-400000.0625
189.24746322631836,-119.63999938964844,-4413.509765625,-7366.93994140625,-400000.0625,-5797.240234375,-400000.0625,-400000.0625,-400000.0625
189.37660884857178,-134.61000061035156,-4431.10986328125,-7388.2099609375,-400000.0625,-5814.169921875,-400000.0625,-400000.0625,-400000.0625
189.50824999809265,-183.38999938964844,-4476.35986328125,-7442.0498046875,-400000.0625,-5863.759765625,-400000.0625,-400000.0625,-400000.0625
189.63282370567322,-195.1199951171875,-4491.66015625,-7457.830078125,-400000.0625,-5881.1201171875,-400000.0625,-400000.0625,-400000.0625
189.77528190612793,-157.39999389648438,-4459.240234375,-7417.81982421875,-400000.0625,-5842.97021484375,-400000.0625,-400000.0625,-400000.0625
189.92340326309204,-116.4000015258789,-4414.419921875,-7371.81005859375,-400000.0625,-5800.919921875,-400000.0625,-400000.0625,-400000.0625
190.0540132522583,-122.9800033569336,-4424.52001953125,-7383.6298828125,-400000.0625,-5810.97998046875,-400000.0625,-400000.0625,-400000.0625
190.18663215637207,-180.0500030517578,-4479.68994140625,-7439.66015625,-400000.0625,-5862.52001953125,-400000.0625,-400000.0625,-400000.0625
190.32424426078796,-199.88999938964844,-4495.0,-7456.16015625,-400000.0625,-5879.5498046875,-400000.0625,-400000.0625,-400000.0625
190.4484474658966,-156.25999450683594,-4454.52001953125,-7413.77001953125,-400000.0625,-5837.580078125,-400000.0625,-400000.0625,-400000.0625
190.58620834350586,-117.58999633789062,-4416.7001953125,-7368.7998046875,-400000.0625,-5795.0498046875,-400000.0625,-400000.0625,-400000.0625
190.71680283546448,-136.57000732421875,-4432.6298828125,-7387.68994140625,-400000.0625,-5814.5498046875,-400000.0625,-400000.0625,-400000.0625
190.84032034873962,-184.8699951171875,-4480.22021484375,-7441.56982421875,-400000.0625,-5864.18994140625,-400000.0625,-400000.0625,-400000.0625
190.91396617889404,-201.6999969482422,-4496.77001953125,-7459.1201171875,-400000.0625,-5878.06982421875,-400000.0625,-400000.0625,-400000.0625
190.94640636444092,-162.97999572753906,-4461.10009765625,-7417.81982421875,-400000.0625,-5843.8798828125,-400000.0625,-400000.0625,-400000.0625
191.0098659992218,-120.3499984741211,-4424.56982421875,-7373.56982421875,-400000.0625,-5805.64013671875,-400000.0625,-400000.0625,-400000.0625
191.046648979187,-129.41000366210938,-4429.81982421875,-7381.490234375,-400000.0625,-5811.5498046875,-400000.0625,-400000.0625,-400000.0625
191.09359550476074,-186.49000549316406,-4484.02978515625,-7440.759765625,-400000.0625,-5862.6201171875,-400000.0625,-400000.0625,-400000.0625
191.1257655620575,-204.1300048828125,-4503.580078125,-7461.5498046875,-400000.0625,-5883.93017578125,-400000.0625,-400000.0625,-400000.0625
191.15730047225952,-164.6999969482422,-4458.81005859375,-7415.52978515625,-400000.0625,-5840.25,-400000.0625,-400000.0625,-400000.0625
191.1982617378235,-125.83999633789062,-4422.759765625,-7372.3798828125,-400000.0625,-5798.43994140625,-400000.0625,-400000.0625,-400000.0625
191.2219798564911,-143.24000549316406,-4441.68994140625,-7391.68994140625,-400000.0625,-5812.4501953125,-400000.0625,-400000.0625,-400000.0625
191.2458198070526,-189.25999450683594,-4488.27978515625,-7444.56982421875,-400000.0625,-5859.56982421875,-400000.0625,-400000.0625,-400000.0625
191.2632668018341,-202.55999755859375,-4502.580078125,-7461.93017578125,-400000.0625,-5879.740234375,-400000.0625,-400000.0625,-400000.0625
191.31173992156982,-159.83999633789062,-4459.240234375,-7414.14990234375,-400000.0625,-5841.490234375,-400000.0625,-400000.0625,-400000.0625
191.33267998695374,-108.38999938964844,-4406.64013671875,-7358.64990234375,-400000.0625,-5794.81005859375,-400000.0625,-400000.0625,-400000.0625
191.35797715187073,-124.9800033569336,-4425.81005859375,-7378.0498046875,-400000.0625,-5815.169921875,-400000.0625,-400000.0625,-400000.0625
191.38234519958496,-185.44000244140625,-4487.7099609375,-7444.669921875,-400000.0625,-5870.52978515625,-400000.0625,-400000.0625,-400000.0625
191.41932368278503,-205.13999938964844,-4506.58984375,-7465.22021484375,-400000.0625,-5879.97998046875,-400000.0625,-400000.0625,-400000.0625
191.43913674354553,-165.1300048828125,-4467.8701171875,-7422.31005859375,-400000.0625,-5846.06982421875,-400000.0625,-400000.0625,-400000.0625
191.45547652244568,-120.63999938964844,-4425.0498046875,-7371.9501953125,-400000.0625,-5801.25,-400000.0625,-400000.0625,-400000.0625
191.47908115386963,-130.3699951171875,-4429.72021484375,-7375.669921875,-400000.0625,-5806.490234375,-400000.0625,-400000.0625,-400000.0625
191.50037550926208,-175.0,-4477.5498046875,-7432.080078125,-400000.0625,-5854.0400390625,-400000.0625,-400000.0625,-400000.0625
191.5512855052948,-199.60000610351562,-4504.2001953125,-7459.68994140625,-400000.0625,-5879.68994140625,-400000.0625,-400000.0625,-400000.0625
191.5961947441101,-162.4600067138672,-4462.0498046875,-7414.43994140625,-400000.0625,-5840.39990234375,-400000.0625,-400000.0625,-400000.0625
191.6456434726715,-119.87999725341797,-4419.47021484375,-7368.60986328125,-400000.0625,-5804.43994140625,-400000.0625,-400000.0625,-400000.0625
191.74727058410645,-131.55999755859375,-4435.25,-7382.6298828125,-400000.0625,-5815.27001953125,-400000.0625,-400000.0625,-400000.0625
191.86066460609436,-180.9600067138672,-4482.7001953125,-7435.75,-400000.0625,-5863.240234375,-400000.0625,-400000.0625,-400000.0625
191.96771574020386,-201.22999572753906,-4499.33984375,-7455.39990234375,-400000.0625,-5877.68994140625,-400000.0625,-400000.0625,-400000.0625
192.09556555747986,-163.4600067138672,-4465.2900390625,-7414.2001953125,-400000.0625,-5837.5400390625,-400000.0625,-400000.0625,-400000.0625
192.21296334266663,-122.30999755859375,-4422.56982421875,-7367.1298828125,-400000.0625,-5799.25,-400000.0625,-400000.0625,-400000.0625
192.34832429885864,-135.52000427246094,-4434.39990234375,-7378.2001953125,-400000.0625,-5814.740234375,-400000.0625,-400000.0625,-400000.0625
192.47417044639587,-184.67999267578125,-4482.31982421875,-7433.18017578125,-400000.0625,-5859.56982421875,-400000.0625,-400000.0625,-400000.0625
192.59544706344604,-199.64999389648438,-4495.14013671875,-7446.81005859375,-400000.0625,-5873.2001953125,-400000.0625,-400000.0625,-400000.0625
192.7304174900055,-157.69000244140625,-4453.56005859375,-7402.89990234375,-400000.0625,-5839.2998046875,-400000.0625,-400000.0625,-400000.0625
192.85930228233337,-119.06999969482422,-4417.1298828125,-7359.31005859375,-400000.0625,-5795.18994140625,-400000.0625,-400000.0625,-400000.0625
193.00588297843933,-138.3800048828125,-4428.0498046875,-7371.6201171875,-400000.0625,-5808.2099609375,-400000.0625,-400000.0625,-400000.0625
193.12568283081055,-182.6300048828125,-4471.830078125,-7422.16015625,-400000.0625,-5853.75,-400000.0625,-400000.0625,-400000.0625
193.25360465049744,-200.3699951171875,-4491.18994140625,-7443.2900390625,-400000.0625,-5872.77001953125,-400000.0625,-400000.0625,-400000.0625
193.3907916545868,-167.94000244140625,-4454.330078125,-7406.85986328125,-400000.0625,-5837.5400390625,-400000.0625,-400000.0625,-400000.0625
193.51510643959045,-130.88999938964844,-4420.56982421875,-7366.990234375,-400000.0625,-5803.77978515625,-400000.0625,-400000.0625,-400000.0625
193.63314580917358,-138.3800048828125,-4431.2001953125,-7375.43017578125,-400000.0625,-5812.02978515625,-400000.0625,-400000.0625,-400000.0625
193.7570550441742,-188.8800048828125,-4480.89013671875,-7432.18017578125,-400000.0625,-5855.509765625,-400000.0625,-400000.0625,-400000.0625
193.89065885543823,-205.99000549316406,-4503.10986328125,-7453.16015625,-400000.0625,-5876.64013671875,-400000.0625,-400000.0625,-400000.0625
194.01807618141174,-168.89999389648438,-4463.14990234375,-7409.2900390625,-400000.0625,-5841.2998046875,-400000.0625,-400000.0625,-400000.0625
194.14465951919556,-120.0199966430664,-4416.18017578125,-7358.89013671875,-400000.0625,-5803.2998046875,-400000.0625,-400000.0625,-400000.0625
194.28841733932495,-129.1300048828125,-4435.68017578125,-7376.2900390625,-400000.0625,-5812.41015625,-400000.0625,-400000.0625,-400000.0625
194.42197275161743,-180.1999969482422,-4481.169921875,-7428.4599609375,-400000.0625,-5857.75,-400000.0625,-400000.0625,-400000.0625
194.56470799446106,-201.32000732421875,-4497.10009765625,-7450.2998046875,-400000.0625,-5878.259765625,-400000.0625,-400000.0625,-400000.0625
194.68971061706543,-166.27000427246094,-4464.25,-7412.2900390625,-400000.0625,-5841.06982421875,-400000.0625,-400000.0625,-400000.0625
194.80695748329163,-126.69999694824219,-4430.25,-7371.27978515625,-400000.0625,-5805.68017578125,-400000.0625,-400000.0625,-400000.0625
194.93813800811768,-136.0399932861328,-4440.58984375,-7381.580078125,-400000.0625,-5813.93017578125,-400000.0625,-400000.0625,-400000.0625
195.0594027042389,-188.5399932861328,-4492.14013671875,-7440.66015625,-400000.0625,-5858.47021484375,-400000.0625,-400000.0625,-400000.0625
195.1884801387787,-206.8000030517578,-4506.25,-7458.5400390625,-400000.0625,-5883.31005859375,-400000.0625,-400000.0625,-400000.0625
195.326664686203,-168.17999267578125,-4469.5400390625,-7414.2900390625,-400000.0625,-5845.97998046875,-400000.0625,-400000.0625,-400000.0625
195.46815085411072,-123.0199966430664,-4428.72021484375,-7366.3701171875,-400000.0625,-5804.009765625,-400000.0625,-400000.0625,-400000.0625
195.5855746269226,-130.27000427246094,-4434.8701171875,-7376.240234375,-400000.0625,-5817.7001953125,-400000.0625,-400000.0625,-400000.0625
195.71777892112732,-182.33999633789062,-4483.990234375,-7431.60009765625,-400000.0625,-5861.240234375,-400000.0625,-400000.0625,-400000.0625
195.8301682472229,-195.41000366210938,-4498.91015625,-7449.2001953125,-400000.0625,-5873.2001953125,-400000.0625,-400000.0625,-400000.0625
195.96886706352234,-157.02000427246094,-4463.580078125,-7405.7099609375,-400000.0625,-5836.5400390625,-400000.0625,-400000.0625,-400000.0625
196.10260939598083,-122.0199966430664,-4430.25,-7366.3701171875,-400000.0625,-5805.58984375,-400000.0625,-400000.0625,-400000.0625
196.2416079044342,-134.17999267578125,-4440.740234375,-7378.669921875,-400000.0625,-5816.27001953125,-400000.0625,-400000.0625,-400000.0625
196.35960912704468,-182.05999755859375,-4491.759765625,-7431.64990234375,-400000.0625,-5863.3798828125,-400000.0625,-400000.0625,-400000.0625
196.4881489276886,-200.55999755859375,-4507.4501953125,-7450.68017578125,-400000.0625,-5880.97998046875,-400000.0625,-400000.0625,-400000.0625
196.6160979270935,-168.17999267578125,-4475.4501953125,-7417.77978515625,-400000.0625,-5855.080078125,-400000.0625,-400000.0625,-400000.0625
196.6718773841858,-129.88999938964844,-4437.58984375,-7374.56982421875,-400000.0625,-5811.60009765625,-400000.0625,-400000.0625,-400000.0625
196.6989722251892,-137.19000244140625,-4446.41015625,-7380.81982421875,-400000.0625,-5807.68994140625,-400000.0625,-400000.0625,-400000.0625
196.73581647872925,-187.97000122070312,-4492.56982421875,-7434.419921875,-400000.0625,-5857.419921875,-400000.0625,-400000.0625,-400000.0625
196.7756142616272,-202.94000244140625,-4508.10986328125,-7453.72998046875,-400000.0625,-5877.68994140625,-400000.0625,-400000.0625,-400000.0625
196.800940990448,-164.32000732421875,-4473.72998046875,-7412.6298828125,-400000.0625,-5841.259765625,-400000.0625,-400000.0625,-400000.0625
196.82507705688477,-120.58999633789062,-4429.77001953125,-7363.080078125,-400000.0625,-5803.77978515625,-400000.0625,-400000.0625,-400000.0625
196.84514236450195,-131.0800018310547,-4438.72998046875,-7373.52001953125,-400000.0625,-5817.31982421875,-400000.0625,-400000.0625,-400000.0625
196.88606548309326,-177.0,-4491.18994140625,-7431.75,-400000.0625,-5860.85009765625,-400000.0625,-400000.0625,-400000.0625
196.9122109413147,-199.22000122070312,-4512.740234375,-7455.2099609375,-400000.0625,-5878.830078125,-400000.0625,-400000.0625,-400000.0625
196.93961668014526,-163.83999633789062,-4474.830078125,-7415.43994140625,-400000.0625,-5845.06982421875,-400000.0625,-400000.0625,-400000.0625
196.96231198310852,-120.20999908447266,-4433.919921875,-7367.47021484375,-400000.0625,-5802.35009765625,-400000.0625,-400000.0625,-400000.0625
196.99758219718933,-127.73999786376953,-4440.259765625,-7373.0498046875,-400000.0625,-5809.259765625,-400000.0625,-400000.0625,-400000.0625
197.01757383346558,-176.13999938964844,-4486.31982421875,-7427.5498046875,-400000.0625,-5858.08984375,-400000.0625,-400000.0625,-400000.0625
197.0391824245453,-200.32000732421875,-4510.02001953125,-7456.02001953125,-400000.0625,-5883.7900390625,-400000.0625,-400000.0625,-400000.0625
197.06083631515503,-165.55999755859375,-4475.5498046875,-7415.81982421875,-400000.0625,-5844.830078125,-400000.0625,-400000.0625,-400000.0625
197.07931303977966,-120.26000213623047,-4431.2001953125,-7366.75,-400000.0625,-5805.35009765625,-400000.0625,-400000.0625,-400000.0625
197.12527012825012,-128.50999450683594,-4440.4501953125,-7374.3798828125,-400000.0625,-5815.080078125,-400000.0625,-400000.0625,-400000.0625
197.16171169281006,-183.52999877929688,-4489.89990234375,-7430.5498046875,-400000.0625,-5861.0,-400000.0625,-400000.0625,-400000.0625
197.21963953971863,-203.99000549316406,-4507.16015625,-7448.52978515625,-400000.0625,-5878.1201171875,-400000.0625,-400000.0625,-400000.0625
197.3166069984436,-163.94000244140625,-4474.39990234375,-7408.330078125,-400000.0625,-5842.8798828125,-400000.0625,-400000.0625,-400000.0625
197.3802149295807,-126.45999908447266,-4437.16015625,-7364.990234375,-400000.0625,-5803.77978515625,-400000.0625,-400000.0625,-400000.0625
197.50872826576233,-136.4199981689453,-4443.8798828125,-7375.56982421875,-400000.0625,-5813.41015625,-400000.0625,-400000.0625,-400000.0625
197.63116335868835,-183.05999755859375,-4488.330078125,-7428.22021484375,-400000.0625,-5864.91015625,-400000.0625,-400000.0625,-400000.0625
197.74113821983337,-207.0399932861328,-4509.2099609375,-7453.6298828125,-400000.0625,-5887.080078125,-400000.0625,-400000.0625,-400000.0625
197.86158275604248,-171.17999267578125,-4476.740234375,-7412.85986328125,-400000.0625,-5849.64990234375,-400000.0625,-400000.0625,-400000.0625
198.0003912448883,-128.22000122070312,-4432.81982421875,-7362.56005859375,-400000.0625,-5799.8701171875,-400000.0625,-400000.0625,-400000.0625
198.1366822719574,-134.0399932861328,-4440.259765625,-7369.56982421875,-400000.0625,-5809.02001953125,-400000.0625,-400000.0625,-400000.0625
198.26444792747498,-185.25,-4492.18994140625,-7427.740234375,-400000.0625,-5863.85986328125,-400000.0625,-400000.0625,-400000.0625
198.3865692615509,-204.66000366210938,-4510.740234375,-7451.25,-400000.0625,-5881.64013671875,-400000.0625,-400000.0625,-400000.0625
198.51708793640137,-167.0399932861328,-4474.16015625,-7409.10009765625,-400000.0625,-5846.5,-400000.0625,-400000.0625,-400000.0625
198.64703583717346,-128.0800018310547,-4433.43994140625,-7362.3701171875,-400000.0625,-5807.39990234375,-400000.0625,-400000.0625,-400000.0625
198.76476001739502,-132.27000427246094,-4438.2099609375,-7365.419921875,-400000.0625,-5810.06982421875,-400000.0625,-400000.0625,-400000.0625
198.89930295944214,-177.86000061035156,-4483.18017578125,-7417.919921875,-400000.0625,-5853.93994140625,-400000.0625,-400000.0625,-400000.0625
199.02301383018494,-203.0800018310547,-4505.490234375,-7446.580078125,-400000.0625,-5875.919921875,-400000.0625,-400000.0625,-400000.0625
199.15100026130676,-170.0399932861328,-4471.02001953125,-7407.9501953125,-400000.0625,-5844.97998046875,-400000.0625,-400000.0625,-400000.0625
199.27669954299927,-124.16999816894531,-4430.68017578125,-7359.740234375,-400000.0625,-5810.31005859375,-400000.0625,-400000.0625,-400000.0625
199.4091832637787,-132.27000427246094,-4437.35009765625,-7367.990234375,-400000.0625,-5817.41015625,-400000.0625,-400000.0625,-400000.0625
199.54082036018372,-178.77000427246094,-4480.89013671875,-7416.10986328125,-400000.0625,-5854.4599609375,-400000.0625,-400000.0625,-400000.0625
199.6794877052307,-195.92999267578125,-4499.009765625,-7440.7099609375,-400000.0625,-5878.77978515625,-400000.0625,-400000.0625,-400000.0625
199.79276943206787,-160.74000549316406,-4468.490234375,-7405.81005859375,-400000.0625,-5853.56005859375,-400000.0625,-400000.0625,-400000.0625
199.9313840866089,-118.77999877929688,-4433.5400390625,-7360.7900390625,-400000.0625,-5809.58984375,-400000.0625,-400000.0625,-400000.0625
200.04977130889893,-126.73999786376953,-4437.02001953125,-7365.419921875,-400000.0625,-5810.4501953125,-400000.0625,-400000.0625,-400000.0625
200.1843593120575,-179.24000549316406,-4484.4599609375,-7419.919921875,-400000.0625,-5856.419921875,-400000.0625,-400000.0625,-400000.0625
200.32329201698303,-202.66000366210938,-4512.02001953125,-7448.6298828125,-400000.0625,-5882.35986328125,-400000.0625,-400000.0625,-400000.0625
200.43783831596375,-170.75999450683594,-4474.06982421875,-7408.669921875,-400000.0625,-5852.509765625,-400000.0625,-400000.0625,-400000.0625
200.57857179641724,-127.83999633789062,-4433.490234375,-7361.1298828125,-400000.0625,-5812.83984375,-400000.0625,-400000.0625,-400000.0625
200.70473098754883,-132.27000427246094,-4446.83984375,-7371.14013671875,-400000.0625,-5812.83984375,-400000.0625,-400000.0625,-400000.0625
200.82157111167908,-181.1999969482422,-4496.47998046875,-7424.4501953125,-400000.0625,-5860.14013671875,-400000.0625,-400000.0625,-400000.0625
200.95039439201355,-205.55999755859375,-4512.64013671875,-7444.47998046875,-400000.0625,-5883.97998046875,-400000.0625,-400000.0625,-400000.0625
201.0761251449585,-168.3699951171875,-4473.64013671875,-7400.85009765625,-400000.0625,-5843.1201171875,-400000.0625,-400000.0625,-400000.0625
201.20719361305237,-126.30999755859375,-4435.39990234375,-7356.259765625,-400000.0625,-5807.259765625,-400000.0625,-400000.0625,-400000.0625
201.34088468551636,-131.6999969482422,-4443.68994140625,-7364.0400390625,-400000.0625,-5817.02978515625,-400000.0625,-400000.0625,-400000.0625
201.45914435386658,-176.24000549316406,-4487.1298828125,-7415.81982421875,-400000.0625,-5860.759765625,-400000.0625,-400000.0625,-400000.0625
201.58491730690002,-202.17999267578125,-4509.02001953125,-7443.14013671875,-400000.0625,-5878.77978515625,-400000.0625,-400000.0625,-400000.0625
201.71050143241882,-170.0399932861328,-4477.1201171875,-7406.0400390625,-400000.0625,-5846.64013671875,-400000.0625,-400000.0625,-400000.0625
201.81207156181335,-128.60000610351562,-4439.58984375,-7361.60009765625,-400000.0625,-5807.10986328125,-400000.0625,-400000.0625,-400000.0625
201.9603292942047,-139.80999755859375,-4450.27001953125,-7374.9599609375,-400000.0625,-5815.4599609375,-400000.0625,-400000.0625,-400000.0625
202.08640813827515,-188.67999267578125,-4495.33984375,-7426.68994140625,-400000.0625,-5860.85009765625,-400000.0625,-400000.0625,-400000.0625
202.20390701293945,-201.6999969482422,-4507.35009765625,-7443.47998046875,-400000.0625,-5885.93994140625,-400000.0625,-400000.0625,-400000.0625
202.34587979316711,-168.17999267578125,-4472.39990234375,-7404.3798828125,-400000.0625,-5856.47021484375,-400000.0625,-400000.0625,-400000.0625
202.41971373558044,-129.64999389648438,-4442.5,-7362.93994140625,-400000.0625,-5818.3701171875,-400000.0625,-400000.0625,-400000.0625
202.44472575187683,-136.7100067138672,-4448.1298828125,-7367.9501953125,-400000.0625,-5818.080078125,-400000.0625,-400000.0625,-400000.0625
202.4727816581726,-181.9600067138672,-4493.08984375,-7417.009765625,-400000.0625,-5855.31982421875,-400000.0625,-400000.0625,-400000.0625
202.5190703868866,-200.41000366210938,-4512.5,-7441.52001953125,-400000.0625,-5880.830078125,-400000.0625,-400000.0625,-400000.0625
202.54538106918335,-167.3699951171875,-4478.31005859375,-7402.990234375,-400000.0625,-5850.7001953125,-400000.0625,-400000.0625,-400000.0625
202.56943368911743,-125.36000061035156,-4435.490234375,-7355.169921875,-400000.0625,-5805.25,-400000.0625,-400000.0625,-400000.0625
202.59009885787964,-130.4600067138672,-4441.93017578125,-7361.41015625,-400000.0625,-5807.72998046875,-400000.0625,-400000.0625,-400000.0625
202.6362714767456,-178.3800048828125,-4493.0498046875,-7418.919921875,-400000.0625,-5863.0498046875,-400000.0625,-400000.0625,-400000.0625
202.6608648300171,-203.85000610351562,-4513.06982421875,-7444.18994140625,-400000.0625,-5882.97998046875,-400000.0625,-400000.0625,-400000.0625
202.67991614341736,-169.47000122070312,-4478.06982421875,-7403.7099609375,-400000.0625,-5848.97998046875,-400000.0625,-400000.0625,-400000.0625
202.70169949531555,-126.41000366210938,-4437.2099609375,-7355.5498046875,-400000.0625,-5804.10986328125,-400000.0625,-400000.0625,-400000.0625
202.737961769104,-137.3300018310547,-4445.169921875,-7363.22021484375,-400000.0625,-5808.4501953125,-400000.0625,-400000.0625,-400000.0625
202.75719046592712,-181.33999633789062,-4492.3798828125,-7417.77978515625,-400000.0625,-5860.18994140625,-400000.0625,-400000.0625,-400000.0625
202.780668258667,-204.4199981689453,-4512.5,-7442.0,-400000.0625,-5882.169921875,-400000.0625,-400000.0625,-400000.0625
202.80180144309998,-170.52000427246094,-4475.5498046875,-7402.330078125,-400000.0625,-5847.1201171875,-400000.0625,-400000.0625,-400000.0625
202.83939337730408,-116.30000305175781,-4429.9599609375,-7349.77978515625,-400000.0625,-5810.7900390625,-400000.0625,-400000.0625,-400000.0625
202.86114597320557,-121.4000015258789,-4431.81982421875,-7352.2099609375,-400000.0625,-5813.4599609375,-400000.0625,-400000.0625,-400000.0625
202.88027238845825,-177.3800048828125,-4483.1298828125,-7410.47998046875,-400000.0625,-5853.4599609375,-400000.0625,-400000.0625,-400000.0625
202.89859056472778,-206.27999877929688,-4511.5,-7441.330078125,-400000.0625,-5880.58984375,-400000.0625,-400000.0625,-400000.0625
202.9351658821106,-172.85000610351562,-4478.740234375,-7401.419921875,-400000.0625,-5849.41015625,-400000.0625,-400000.0625,-400000.0625
203.05089044570923,-125.12000274658203,-4432.9599609375,-7352.02001953125,-400000.0625,-5811.169921875,-400000.0625,-400000.0625,-400000.0625
203.15239238739014,-129.0800018310547,-4440.31005859375,-7359.509765625,-400000.0625,-5812.97998046875,-400000.0625,-400000.0625,-400000.0625
203.25703811645508,-172.3300018310547,-4480.97998046875,-7409.33984375,-400000.0625,-5850.7001953125,-400000.0625,-400000.0625,-400000.0625
203.3589494228363,-197.60000610351562,-4503.8701171875,-7433.7001953125,-400000.0625,-5873.77978515625,-400000.0625,-400000.0625,-400000.0625
203.46160793304443,-170.9499969482422,-4475.31005859375,-7402.22998046875,-400000.0625,-5845.39990234375,-400000.0625,-400000.0625,-400000.0625
203.5761706829071,-125.5,-4436.830078125,-7354.97998046875,-400000.0625,-5804.72998046875,-400000.0625,-400000.0625,-400000.0625
203.69533109664917,-124.6500015258789,-4441.2099609375,-7358.080078125,-400000.0625,-5808.64013671875,-400000.0625,-400000.0625,-400000.0625
203.8297517299652,-172.7100067138672,-4487.31982421875,-7411.43017578125,-400000.0625,-5857.330078125,-400000.0625,-400000.0625,-400000.0625
203.94220185279846,-199.50999450683594,-4515.509765625,-7438.419921875,-400000.0625,-5883.31005859375,-400000.0625,-400000.0625,-400000.0625
204.0908932685852,-165.8000030517578,-4480.080078125,-7401.0400390625,-400000.0625,-5850.080078125,-400000.0625,-400000.0625,-400000.0625
204.23053574562073,-122.9800033569336,-4437.2099609375,-7354.2099609375,-400000.0625,-5807.72998046875,-400000.0625,-400000.0625,-400000.0625
204.3603961467743,-126.5,-4442.5498046875,-7359.1201171875,-400000.0625,-5813.31005859375,-400000.0625,-400000.0625,-400000.0625
204.49191522598267,-174.89999389648438,-4490.330078125,-7412.009765625,-400000.0625,-5855.31982421875,-400000.0625,-400000.0625,-400000.0625
204.62383103370667,-201.8000030517578,-4512.22021484375,-7438.60986328125,-400000.0625,-5876.259765625,-400000.0625,-400000.0625,-400000.0625
204.75699305534363,-164.4600067138672,-4478.97998046875,-7398.31982421875,-400000.0625,-5847.97998046875,-400000.0625,-400000.0625,-400000.0625
204.89398169517517,-119.97000122070312,-4437.2998046875,-7346.43994140625,-400000.0625,-5807.97021484375,-400000.0625,-400000.0625,-400000.0625
205.02983117103577,-124.22000122070312,-4436.10986328125,-7349.58984375,-400000.0625,-5804.97021484375,-400000.0625,-400000.0625,-400000.0625
205.15590000152588,-175.2899932861328,-4492.0,-7408.47998046875,-400000.0625,-5854.7001953125,-400000.0625,-400000.0625,-400000.0625
205.27778959274292,-201.55999755859375,-4515.41015625,-7439.22998046875,-400000.0625,-5881.64013671875,-400000.0625,-400000.0625,-400000.0625
205.40729904174805,-171.61000061035156,-4484.93994140625,-7402.52001953125,-400000.0625,-5848.60009765625,-400000.0625,-400000.0625,-400000.0625
205.52877616882324,-126.55000305175781,-4440.35986328125,-7349.64013671875,-400000.0625,-5798.91015625,-400000.0625,-400000.0625,-400000.0625
205.6787052154541,-129.94000244140625,-4440.31005859375,-7352.72998046875,-400000.0625,-5806.5400390625,-400000.0625,-400000.0625,-400000.0625
205.81856393814087,-176.75999450683594,-4489.52001953125,-7406.52001953125,-400000.0625,-5859.7099609375,-400000.0625,-400000.0625,-400000.0625
205.94275975227356,-201.4600067138672,-4513.35986328125,-7434.080078125,-400000.0625,-5879.16015625,-400000.0625,-400000.0625,-400000.0625
206.0735583305359,-169.75,-4482.4599609375,-7399.18017578125,-400000.0625,-5846.830078125,-400000.0625,-400000.0625,-400000.0625
206.2217538356781,-126.02999877929688,-4441.97998046875,-7352.16015625,-400000.0625,-5807.919921875,-400000.0625,-400000.0625,-400000.0625
206.3466191291809,-130.94000244140625,-4439.740234375,-7351.830078125,-400000.0625,-5810.35986328125,-400000.0625,-400000.0625,-400000.0625
206.4736738204956,-175.19000244140625,-4481.97998046875,-7400.990234375,-400000.0625,-5852.7001953125,-400000.0625,-400000.0625,-400000.0625
206.6099398136139,-199.83999633789062,-4511.68994140625,-7430.83984375,-400000.0625,-5873.97021484375,-400000.0625,-400000.0625,-400000.0625
206.75599837303162,-167.8000030517578,-4486.22998046875,-7399.66015625,-400000.0625,-5849.97998046875,-400000.0625,-400000.0625,-400000.0625
206.89291858673096,-123.69000244140625,-4439.06982421875,-7350.4501953125,-400000.0625,-5811.8798828125,-400000.0625,-400000.0625,-400000.0625
207.01636457443237,-125.06999969482422,-4440.8798828125,-7354.02001953125,-400000.0625,-5815.1298828125,-400000.0625,-400000.0625,-400000.0625
207.13559412956238,-174.75999450683594,-4486.7998046875,-7406.27978515625,-400000.0625,-5856.1298828125,-400000.0625,-400000.0625,-400000.0625
207.26787567138672,-202.0399932861328,-4507.490234375,-7429.64990234375,-400000.0625,-5874.58984375,-400000.0625,-400000.0625,-400000.0625
207.37342262268066,-169.94000244140625,-4475.06982421875,-7393.35986328125,-400000.0625,-5847.31005859375,-400000.0625,-400000.0625,-400000.0625
207.5041036605835,-123.44999694824219,-4433.580078125,-7342.33984375,-400000.0625,-5808.77978515625,-400000.0625,-400000.0625,-400000.0625
207.62432670593262,-129.17999267578125,-4438.2099609375,-7347.43994140625,-400000.0625,-5806.259765625,-400000.0625,-400000.0625,-400000.0625
207.747878074646,-175.75999450683594,-4484.75,-7404.66015625,-400000.0625,-5850.97998046875,-400000.0625,-400000.0625,-400000.0625
207.89531064033508,-198.88999938964844,-4512.5,-7434.3701171875,-400000.0625,-5879.259765625,-400000.0625,-400000.0625,-400000.0625
208.0247025489807,-165.99000549316406,-4474.58984375,-7394.5498046875,-400000.0625,-5848.02978515625,-400000.0625,-400000.0625,-400000.0625
208.08752512931824,-121.26000213623047,-4431.9599609375,-7342.43017578125,-400000.0625,-5803.2001953125,-400000.0625,-400000.0625,-400000.0625
208.11059975624084,-125.45999908447266,-4441.169921875,-7349.10986328125,-400000.0625,-5809.35986328125,-400000.0625,-400000.0625,-400000.0625
208.13727235794067,-169.32000732421875,-4480.41015625,-7399.66015625,-400000.0625,-5852.41015625,-400000.0625,-400000.0625,-400000.0625
208.19134521484375,-192.4499969482422,-4508.259765625,-7428.740234375,-400000.0625,-5876.35009765625,-400000.0625,-400000.0625,-400000.0625
208.21732306480408,-165.94000244140625,-4484.1298828125,-7398.419921875,-400000.0625,-5851.080078125,-400000.0625,-400000.0625,-400000.0625
208.2421624660492,-123.20999908447266,-4439.06982421875,-7346.33984375,-400000.0625,-5804.16015625,-400000.0625,-400000.0625,-400000.0625
208.28478956222534,-123.30999755859375,-4437.02001953125,-7345.6298828125,-400000.0625,-5805.72998046875,-400000.0625,-400000.0625,-400000.0625
208.30823421478271,-172.22999572753906,-4489.22998046875,-7401.27978515625,-400000.0625,-5859.419921875,-400000.0625,-400000.0625,-400000.0625
208.3332076072693,-203.8000030517578,-4519.27001953125,-7433.080078125,-400000.0625,-5880.169921875,-400000.0625,-400000.0625,-400000.0625
208.35917139053345,-172.47000122070312,-4485.4599609375,-7397.83984375,-400000.0625,-5848.1201171875,-400000.0625,-400000.0625,-400000.0625
208.3997712135315,-122.26000213623047,-4434.2001953125,-7344.06005859375,-400000.0625,-5806.06982421875,-400000.0625,-400000.0625,-400000.0625
208.4281358718872,-122.30999755859375,-4434.39990234375,-7342.91015625,-400000.0625,-5807.58984375,-400000.0625,-400000.0625,-400000.0625
208.4514663219452,-171.47000122070312,-4486.85009765625,-7397.83984375,-400000.0625,-5853.22021484375,-400000.0625,-400000.0625,-400000.0625
208.4687306880951,-194.5,-4506.06005859375,-7423.93017578125,-400000.0625,-5876.68017578125,-400000.0625,-400000.0625,-400000.0625
208.51473379135132,-171.52000427246094,-4484.22021484375,-7395.83984375,-400000.0625,-5848.35986328125,-400000.0625,-400000.0625,-400000.0625
208.5527217388153,-125.16999816894531,-4446.31982421875,-7350.02001953125,-400000.0625,-5809.5,-400000.0625,-400000.0625,-400000.0625
208.60668992996216,-123.63999938964844,-4443.31005859375,-7348.2001953125,-400000.0625,-5808.4501953125,-400000.0625,-400000.0625,-400000.0625
208.70943236351013,-167.66000366210938,-4484.1298828125,-7397.990234375,-400000.0625,-5854.1298828125,-400000.0625,-400000.0625,-400000.0625
208.82435870170593,-198.1699981689453,-4515.83984375,-7430.60009765625,-400000.0625,-5885.7001953125,-400000.0625,-400000.0625,-400000.0625
208.94578552246094,-174.08999633789062,-4493.27978515625,-7401.66015625,-400000.0625,-5855.990234375,-400000.0625,-400000.0625,-400000.0625
209.074565410614,-127.88999938964844,-4442.5498046875,-7347.009765625,-400000.0625,-5809.02001953125,-400000.0625,-400000.0625,-400000.0625
209.20810961723328,-125.12000274658203,-4440.4501953125,-7344.77001953125,-400000.0625,-5809.02001953125,-400000.0625,-400000.0625,-400000.0625
209.34961652755737,-173.0399932861328,-4484.89013671875,-7392.83984375,-400000.0625,-5850.35986328125,-400000.0625,-400000.0625,-400000.0625
209.4746594429016,-204.55999755859375,-4515.740234375,-7425.830078125,-400000.0625,-5875.39990234375,-400000.0625,-400000.0625,-400000.0625
209.60169219970703,-175.0,-4488.56005859375,-7392.1201171875,-400000.0625,-5849.1201171875,-400000.0625,-400000.0625,-400000.0625
209.73625016212463,-124.02999877929688,-4439.8798828125,-7338.330078125,-400000.0625,-5808.93017578125,-400000.0625,-400000.0625,-400000.0625
209.86258029937744,-125.30999755859375,-4443.7900390625,-7344.580078125,-400000.0625,-5811.7900390625,-400000.0625,-400000.0625,-400000.0625
209.95616030693054,-180.1999969482422,-4495.0,-7401.509765625,-400000.0625,-5854.509765625,-400000.0625,-400000.0625,-400000.0625
209.98295664787292,-204.55999755859375,-4519.27001953125,-7430.75,-400000.0625,-5880.93017578125,-400000.0625,-400000.0625,-400000.0625
210.07711362838745,-167.66000366210938,-4485.93994140625,-7394.02978515625,-400000.0625,-5845.68994140625,-400000.0625,-400000.0625,-400000.0625
210.1117136478424,-124.06999969482422,-4443.06982421875,-7342.85986328125,-400000.0625,-5807.5,-400000.0625,-400000.0625,-400000.0625
210.19050407409668,-120.26000213623047,-4442.8798828125,-7339.91015625,-400000.0625,-5808.8798828125,-400000.0625,-400000.0625,-400000.0625
210.27536940574646,-171.0399932861328,-4484.89013671875,-7387.93017578125,-400000.0625,-5847.5,-400000.0625,-400000.0625,-400000.0625
210.3925187587738,-200.4600067138672,-4515.02978515625,-7421.259765625,-400000.0625,-5870.490234375,-400000.0625,-400000.0625,-400000.0625
210.51702761650085,-163.1300048828125,-4482.93994140625,-7386.72998046875,-400000.0625,-5846.68994140625,-400000.0625,-400000.0625,-400000.0625
210.65369129180908,-120.44999694824219,-4435.97021484375,-7338.10009765625,-400000.0625,-5805.64013671875,-400000.0625,-400000.0625,-400000.0625
210.77556133270264,-122.83000183105469,-4445.740234375,-7345.77001953125,-400000.0625,-5810.5498046875,-400000.0625,-400000.0625,-400000.0625
210.91365790367126,-173.19000244140625,-4491.759765625,-7396.02978515625,-400000.0625,-5855.66015625,-400000.0625,-400000.0625,-400000.0625
211.05527758598328,-197.27000427246094,-4516.31982421875,-7424.8798828125,-400000.0625,-5882.5498046875,-400000.0625,-400000.0625,-400000.0625
211.17514991760254,-162.88999938964844,-4488.75,-7392.02978515625,-400000.0625,-5856.31982421875,-400000.0625,-400000.0625,-400000.0625
211.30353212356567,-119.20999908447266,-4442.83984375,-7339.81005859375,-400000.0625,-5809.8798828125,-400000.0625,-400000.0625,-400000.0625
211.42804479599,-121.36000061035156,-4435.35009765625,-7335.9501953125,-400000.0625,-5803.43994140625,-400000.0625,-400000.0625,-400000.0625
211.55806517601013,-167.66000366210938,-4484.22021484375,-7387.58984375,-400000.0625,-5843.830078125,-400000.0625,-400000.0625,-400000.0625
211.6975622177124,-188.25999450683594,-4504.10986328125,-7413.39013671875,-400000.0625,-5875.16015625,-400000.0625,-400000.0625,-400000.0625
211.82756423950195,-160.02999877929688,-4479.64990234375,-7381.68017578125,-400000.0625,-5853.7998046875,-400000.0625,-400000.0625,-400000.0625
211.96395182609558,-114.91999816894531,-4433.919921875,-7330.0400390625,-400000.0625,-5806.5400390625,-400000.0625,-400000.0625,-400000.0625
212.08982253074646,-113.44000244140625,-4430.8701171875,-7328.93994140625,-400000.0625,-5805.68017578125,-400000.0625,-400000.0625,-400000.0625
212.21225261688232,-158.02000427246094,-4474.8798828125,-7379.33984375,-400000.0625,-5850.169921875,-400000.0625,-400000.0625,-400000.0625
212.32940006256104,-191.30999755859375,-4506.5400390625,-7415.14990234375,-400000.0625,-5876.06982421875,-400000.0625,-400000.0625,-400000.0625
212.46319723129272,-164.6999969482422,-4484.22021484375,-7387.58984375,-400000.0625,-5854.93994140625,-400000.0625,-400000.0625,-400000.0625
212.57427763938904,-119.20999908447266,-4436.2998046875,-7331.22998046875,-400000.0625,-5811.64013671875,-400000.0625,-400000.0625,-400000.0625
212.70816659927368,-121.30999755859375,-4435.06005859375,-7329.93994140625,-400000.0625,-5806.5400390625,-400000.0625,-400000.0625,-400000.0625
212.85630798339844,-172.3300018310547,-4483.990234375,-7384.39990234375,-400000.0625,-5845.5,-400000.0625,-400000.0625,-400000.0625
212.99772214889526,-195.22000122070312,-4506.06005859375,-7412.85986328125,-400000.0625,-5874.43994140625,-400000.0625,-400000.0625,-400000.0625
213.14388418197632,-163.6999969482422,-4480.5498046875,-7381.5400390625,-400000.0625,-5850.7001953125,-400000.0625,-400000.0625,-400000.0625
213.26902651786804,-118.11000061035156,-4439.830078125,-7334.0400390625,-400000.0625,-5808.8798828125,-400000.0625,-400000.0625,-400000.0625
213.41097164154053,-118.91999816894531,-4431.68017578125,-7330.990234375,-400000.0625,-5808.93017578125,-400000.0625,-400000.0625,-400000.0625
213.55036878585815,-165.27000427246094,-4479.02978515625,-7378.8701171875,-400000.0625,-5849.31005859375,-400000.0625,-400000.0625,-400000.0625
213.65638709068298,-192.5,-4508.35009765625,-7412.43017578125,-400000.0625,-5874.8701171875,-400000.0625,-400000.0625,-400000.0625
213.70958518981934,-161.7899932861328,-4477.1201171875,-7378.669921875,-400000.0625,-5848.5498046875,-400000.0625,-400000.0625,-400000.0625
213.73884558677673,-109.38999938964844,-4421.9501953125,-7318.58984375,-400000.0625,-5800.919921875,-400000.0625,-400000.0625,-400000.0625
213.7650225162506,-109.52999877929688,-4429.009765625,-7323.02978515625,-400000.0625,-5804.35009765625,-400000.0625,-400000.0625,-400000.0625
213.82716536521912,-167.6999969482422,-4487.22998046875,-7384.8701171875,-400000.0625,-5859.0400390625,-400000.0625,-400000.0625,-400000.0625
213.85118079185486,-199.99000549316406,-4514.64990234375,-7418.72998046875,-400000.0625,-5883.02978515625,-400000.0625,-400000.0625,-400000.0625
213.8747308254242,-171.4199981689453,-4490.7099609375,-7388.64013671875,-400000.0625,-5854.990234375,-400000.0625,-400000.0625,-400000.0625
213.92042350769043,-125.93000030517578,-4443.93017578125,-7335.7099609375,-400000.0625,-5809.06982421875,-400000.0625,-400000.0625,-400000.0625
213.94670462608337,-121.16000366210938,-4441.68994140625,-7335.14013671875,-400000.0625,-5806.64013671875,-400000.0625,-400000.0625,-400000.0625
213.9749219417572,-165.17999267578125,-4488.66015625,-7385.2099609375,-400000.0625,-5846.5498046875,-400000.0625,-400000.0625,-400000.0625
214.02893114089966,-190.4499969482422,-4509.16015625,-7411.580078125,-400000.0625,-5875.68017578125,-400000.0625,-400000.0625,-400000.0625
214.04731464385986,-164.22000122070312,-4485.31982421875,-7382.97021484375,-400000.0625,-5853.93994140625,-400000.0625,-400000.0625,-400000.0625
214.06957578659058,-115.30000305175781,-4434.06005859375,-7328.7998046875,-400000.0625,-5807.97021484375,-400000.0625,-400000.0625,-400000.0625
214.0852770805359,-110.0999984741211,-4424.72021484375,-7323.41015625,-400000.0625,-5807.10986328125,-400000.0625,-400000.0625,-400000.0625
214.13010692596436,-155.02000427246094,-4475.35986328125,-7371.52001953125,-400000.0625,-5847.41015625,-400000.0625,-400000.0625,-400000.0625
214.17091989517212,-192.4499969482422,-4517.97998046875,-7416.10986328125,-400000.0625,-5881.64013671875,-400000.0625,-400000.0625,-400000.0625
214.2329397201538,-169.1300048828125,-4492.52001953125,-7389.77978515625,-400000.0625,-5858.9501953125,-400000.0625,-400000.0625,-400000.0625
214.34051418304443,-120.93000030517578,-4438.39990234375,-7330.89990234375,-400000.0625,-5811.02001953125,-400000.0625,-400000.0625,-400000.0625
214.44562458992004,-118.05999755859375,-4432.490234375,-7323.7900390625,-400000.0625,-5803.81982421875,-400000.0625,-400000.0625,-400000.0625
214.55840253829956,-164.50999450683594,-4474.97021484375,-7373.3798828125,-400000.0625,-5842.02001953125,-400000.0625,-400000.0625,-400000.0625
214.67103362083435,-189.8800048828125,-4503.490234375,-7406.56982421875,-400000.0625,-5869.2900390625,-400000.0625,-400000.0625,-400000.0625
214.8101725578308,-163.1300048828125,-4480.7900390625,-7380.490234375,-400000.0625,-5849.93017578125,-400000.0625,-400000.0625,-400000.0625
214.92650604248047,-120.97000122070312,-4440.4501953125,-7332.9501953125,-400000.0625,-5810.740234375,-400000.0625,-400000.0625,-400000.0625
215.05124378204346,-116.77999877929688,-4438.97021484375,-7327.509765625,-400000.0625,-5808.68994140625,-400000.0625,-400000.0625,-400000.0625
215.16253352165222,-159.07000732421875,-4479.1201171875,-7373.10009765625,-400000.0625,-5851.93994140625,-400000.0625,-400000.0625,-400000.0625
215.30112171173096,-193.41000366210938,-4512.64013671875,-7410.81005859375,-400000.0625,-5882.83984375,-400000.0625,-400000.0625,-400000.0625
215.4375011920929,-165.64999389648438,-4485.85009765625,-7383.06005859375,-400000.0625,-5853.93994140625,-400000.0625,-400000.0625,-400000.0625
215.5656704902649,-115.19999694824219,-4441.06982421875,-7329.7001953125,-400000.0625,-5807.77978515625,-400000.0625,-400000.0625,-400000.0625
215.6936855316162,-120.12000274658203,-4447.64990234375,-7331.1298828125,-400000.0625,-5807.5,-400000.0625,-400000.0625,-400000.0625
215.83611917495728,-163.41000366210938,-4487.56005859375,-7379.6298828125,-400000.0625,-5850.60009765625,-400000.0625,-400000.0625,-400000.0625
215.9736361503601,-190.72999572753906,-4513.1201171875,-7410.47998046875,-400000.0625,-5876.5400390625,-400000.0625,-400000.0625,-400000.0625
216.11397576332092,-165.27000427246094,-4485.080078125,-7385.02001953125,-400000.0625,-5853.75,-400000.0625,-400000.0625,-400000.0625
216.25592851638794,-116.44000244140625,-4438.93017578125,-7333.7099609375,-400000.0625,-5818.60986328125,-400000.0625,-400000.0625,-400000.0625
216.37366199493408,-117.11000061035156,-4433.68017578125,-7327.93994140625,-400000.0625,-5810.2099609375,-400000.0625,-400000.0625,-400000.0625
216.49950695037842,-160.30999755859375,-4482.22021484375,-7377.47998046875,-400000.0625,-5848.31005859375,-400000.0625,-400000.0625,-400000.0625
216.62164950370789,-192.8300018310547,-4517.1298828125,-7415.580078125,-400000.0625,-5879.4501953125,-400000.0625,-400000.0625,-400000.0625
216.76825594902039,-171.4199981689453,-4492.89990234375,-7385.35009765625,-400000.0625,-5856.60986328125,-400000.0625,-400000.0625,-400000.0625
216.90652775764465,-122.36000061035156,-4448.4599609375,-7334.9501953125,-400000.0625,-5812.1201171875,-400000.0625,-400000.0625,-400000.0625
217.04168033599854,-114.97000122070312,-4442.259765625,-7329.419921875,-400000.0625,-5810.1201171875,-400000.0625,-400000.0625,-400000.0625
217.1766848564148,-163.83999633789062,-4477.41015625,-7376.47998046875,-400000.0625,-5852.18017578125,-400000.0625,-400000.0625,-400000.0625
217.3193085193634,-194.83999633789062,-4507.830078125,-7409.9501953125,-400000.0625,-5876.259765625,-400000.0625,-400000.0625,-400000.0625
217.43883681297302,-174.80999755859375,-4495.9599609375,-7389.97998046875,-400000.0625,-5857.60986328125,-400000.0625,-400000.0625,-400000.0625
217.57938432693481,-130.3699951171875,-4450.7998046875,-7339.33984375,-400000.0625,-5815.7001953125,-400000.0625,-400000.0625,-400000.0625
217.71670603752136,-124.83999633789062,-4443.83984375,-7328.22998046875,-400000.0625,-5805.4501953125,-400000.0625,-400000.0625,-400000.0625
217.84080147743225,-164.64999389648438,-4485.080078125,-7371.27978515625,-400000.0625,-5847.83984375,-400000.0625,-400000.0625,-400000.0625
217.96112537384033,-195.83999633789062,-4516.41015625,-7410.2900390625,-400000.0625,-5875.77978515625,-400000.0625,-400000.0625,-400000.0625
218.12001013755798,-172.0,-4490.66015625,-7382.490234375,-400000.0625,-5858.3701171875,-400000.0625,-400000.0625,-400000.0625
218.24377465248108,-126.93000030517578,-4445.89013671875,-7331.7998046875,-400000.0625,-5812.02978515625,-400000.0625,-400000.0625,-400000.0625
218.36938667297363,-124.5,-4441.169921875,-7325.7001953125,-400000.0625,-5801.6298828125,-400000.0625,-400000.0625,-400000.0625
218.50245642662048,-170.89999389648438,-4487.7099609375,-7376.9599609375,-400000.0625,-5845.39990234375,-400000.0625,-400000.0625,-400000.0625
218.6276500225067,-206.7100067138672,-4517.7900390625,-7412.6298828125,-400000.0625,-5881.97998046875,-400000.0625,-400000.0625,-400000.0625
218.7596447467804,-175.19000244140625,-4490.7099609375,-7379.77001953125,-400000.0625,-5858.52001953125,-400000.0625,-400000.0625,-400000.0625
218.87870264053345,-129.02999877929688,-4451.7998046875,-7331.7099609375,-400000.0625,-5811.5,-400000.0625,-400000.0625,-400000.0625
219.01004099845886,-130.02999877929688,-4448.02978515625,-7328.3701171875,-400000.0625,-5804.72998046875,-400000.0625,-400000.0625,-400000.0625
219.15965056419373,-177.10000610351562,-4490.0400390625,-7378.2900390625,-400000.0625,-5849.35986328125,-400000.0625,-400000.0625,-400000.0625
219.2901394367218,-204.75,-4515.83984375,-7411.77001953125,-400000.0625,-5881.41015625,-400000.0625,-400000.0625,-400000.0625
219.3487102985382,-179.24000549316406,-4494.0498046875,-7382.490234375,-400000.0625,-5853.27001953125,-400000.0625,-400000.0625,-400000.0625
219.37213039398193,-134.1300048828125,-4453.52001953125,-7332.990234375,-400000.0625,-5810.93017578125,-400000.0625,-400000.0625,-400000.0625
219.39641046524048,-126.5,-4445.31005859375,-7325.02978515625,-400000.0625,-5805.77978515625,-400000.0625,-400000.0625,-400000.0625
219.4349024295807,-167.8000030517578,-4489.990234375,-7372.47998046875,-400000.0625,-5840.72998046875,-400000.0625,-400000.0625,-400000.0625
219.46280789375305,-209.13999938964844,-4528.759765625,-7418.490234375,-400000.0625,-5880.5498046875,-400000.0625,-400000.0625,-400000.0625
219.4884626865387,-184.38999938964844,-4505.830078125,-7390.5498046875,-400000.0625,-5861.52001953125,-400000.0625,-400000.0625,-400000.0625
219.5088586807251,-128.1300048828125,-4450.0400390625,-7332.27978515625,-400000.0625,-5810.60009765625,-400000.0625,-400000.0625,-400000.0625
219.550874710083,-125.5999984741211,-4445.7900390625,-7326.7001953125,-400000.0625,-5805.64013671875,-400000.0625,-400000.0625,-400000.0625
219.5723433494568,-172.89999389648438,-4494.240234375,-7378.580078125,-400000.0625,-5851.89013671875,-400000.0625,-400000.0625,-400000.0625
219.59231448173523,-210.7100067138672,-4528.89990234375,-7417.009765625,-400000.0625,-5887.080078125,-400000.0625,-400000.0625,-400000.0625
219.61316895484924,-186.25,-4501.2001953125,-7388.64013671875,-400000.0625,-5862.08984375,-400000.0625,-400000.0625,-400000.0625
219.65380716323853,-130.83999633789062,-4448.509765625,-7331.22998046875,-400000.0625,-5807.06982421875,-400000.0625,-400000.0625,-400000.0625
219.6709656715393,-126.83999633789062,-4446.83984375,-7324.740234375,-400000.0625,-5800.14990234375,-400000.0625,-400000.0625,-400000.0625
219.68891024589539,-181.6300048828125,-4503.580078125,-7381.9599609375,-400000.0625,-5855.89013671875,-400000.0625,-400000.0625,-400000.0625
219.71036434173584,-213.14999389648438,-4530.47998046875,-7414.52978515625,-400000.0625,-5884.080078125,-400000.0625,-400000.0625,-400000.0625
219.73544454574585,-180.1999969482422,-4499.72021484375,-7383.25,-400000.0625,-5855.419921875,-400000.0625,-400000.0625,-400000.0625
219.7941529750824,-133.8000030517578,-4453.0400390625,-7329.89013671875,-400000.0625,-5811.1201171875,-400000.0625,-400000.0625,-400000.0625
219.8585982322693,-124.9800033569336,-4441.31005859375,-7315.919921875,-400000.0625,-5805.58984375,-400000.0625,-400000.0625,-400000.0625
219.96645522117615,-169.8000030517578,-4488.27978515625,-7370.14013671875,-400000.0625,-5849.7900390625,-400000.0625,-400000.0625,-400000.0625
220.08611154556274,-207.0399932861328,-4522.7998046875,-7410.3798828125,-400000.0625,-5882.41015625,-400000.0625,-400000.0625,-400000.0625
220.21050906181335,-186.58999633789062,-4495.669921875,-7380.580078125,-400000.0625,-5855.509765625,-400000.0625,-400000.0625,-400000.0625
220.33282613754272,-133.27999877929688,-4441.5498046875,-7323.02978515625,-400000.0625,-5807.4501953125,-400000.0625,-400000.0625,-400000.0625
220.45600485801697,-124.55000305175781,-4438.830078125,-7320.02001953125,-400000.0625,-5809.35986328125,-400000.0625,-400000.0625,-400000.0625
220.58212637901306,-172.19000244140625,-4486.3701171875,-7371.3798828125,-400000.0625,-5852.75,-400000.0625,-400000.0625,-400000.0625
220.68583583831787,-206.0399932861328,-4523.22998046875,-7410.9599609375,-400000.0625,-5882.740234375,-400000.0625,-400000.0625,-400000.0625
220.80628395080566,-183.1999969482422,-4499.52978515625,-7385.35009765625,-400000.0625,-5856.7099609375,-400000.0625,-400000.0625,-400000.0625
220.92176389694214,-134.8000030517578,-4448.75,-7330.85009765625,-400000.0625,-5807.35009765625,-400000.0625,-400000.0625,-400000.0625
221.05075860023499,-128.1699981689453,-4442.41015625,-7323.080078125,-400000.0625,-5804.8701171875,-400000.0625,-400000.0625,-400000.0625
221.18429398536682,-175.75999450683594,-4492.18994140625,-7376.43017578125,-400000.0625,-5854.0400390625,-400000.0625,-400000.0625,-400000.0625
221.3173749446869,-209.7100067138672,-4519.31982421875,-7412.39013671875,-400000.0625,-5881.5,-400000.0625,-400000.0625,-400000.0625
221.42514967918396,-180.2899932861328,-4490.14013671875,-7380.6298828125,-400000.0625,-5857.7998046875,-400000.0625,-400000.0625,-400000.0625
221.57601690292358,-132.1300048828125,-4448.3701171875,-7329.66015625,-400000.0625,-5815.080078125,-400000.0625,-400000.0625,-400000.0625
221.70549988746643,-125.06999969482422,-4438.58984375,-7320.93017578125,-400000.0625,-5805.97021484375,-400000.0625,-400000.0625,-400000.0625
221.82694292068481,-169.75,-4485.080078125,-7371.7099609375,-400000.0625,-5851.60009765625,-400000.0625,-400000.0625,-400000.0625
221.9705033302307,-207.13999938964844,-4516.93994140625,-7406.47021484375,-400000.0625,-5883.06982421875,-400000.0625,-400000.0625,-400000.0625
222.0929548740387,-186.49000549316406,-4495.81005859375,-7383.009765625,-400000.0625,-5860.66015625,-400000.0625,-400000.0625,-400000.0625
222.24196863174438,-136.17999267578125,-4444.31005859375,-7329.4599609375,-400000.0625,-5809.31005859375,-400000.0625,-400000.0625,-400000.0625
222.3863468170166,-123.79000091552734,-4440.97998046875,-7320.31005859375,-400000.0625,-5800.43994140625,-400000.0625,-400000.0625,-400000.0625
222.5188295841217,-176.0,-4495.33984375,-7379.490234375,-400000.0625,-5852.75,-400000.0625,-400000.0625,-400000.0625
222.65799021720886,-206.4199981689453,-4521.7998046875,-7412.240234375,-400000.0625,-5885.169921875,-400000.0625,-400000.0625,-400000.0625
222.75627040863037,-176.72000122070312,-4486.85009765625,-7375.9599609375,-400000.0625,-5850.4599609375,-400000.0625,-400000.0625,-400000.0625
222.8185453414917,-131.64999389648438,-4445.83984375,-7330.60986328125,-400000.0625,-5807.72998046875,-400000.0625,-400000.0625,-400000.0625
222.93687629699707,-124.69000244140625,-4443.93017578125,-7324.080078125,-400000.0625,-5805.02001953125,-400000.0625,-400000.0625,-400000.0625
223.06269001960754,-170.4199981689453,-4482.83984375,-7368.7998046875,-400000.0625,-5844.77978515625,-400000.0625,-400000.0625,-400000.0625
223.19813203811646,-205.61000061035156,-4517.1298828125,-7407.759765625,-400000.0625,-5873.06005859375,-400000.0625,-400000.0625,-400000.0625
223.33757781982422,-184.5800018310547,-4497.39013671875,-7382.72998046875,-400000.0625,-5855.60986328125,-400000.0625,-400000.0625,-400000.0625
223.47581148147583,-138.24000549316406,-4451.60986328125,-7332.66015625,-400000.0625,-5817.93994140625,-400000.0625,-400000.0625,-400000.0625
223.60918164253235,-132.99000549316406,-4451.7001953125,-7328.1298828125,-400000.0625,-5815.35986328125,-400000.0625,-400000.0625,-400000.0625
223.75012135505676,-180.52999877929688,-4494.0,-7379.14990234375,-400000.0625,-5858.89990234375,-400000.0625,-400000.0625,-400000.0625
223.87094736099243,-209.75999450683594,-4521.89013671875,-7410.14990234375,-400000.0625,-5881.60009765625,-400000.0625,-400000.0625,-400000.0625
224.0128891468048,-183.9199981689453,-4495.9599609375,-7382.10986328125,-400000.0625,-5853.75,-400000.0625,-400000.0625,-400000.0625
224.13093614578247,-134.8000030517578,-4450.66015625,-7330.27978515625,-400000.0625,-5808.2099609375,-400000.0625,-400000.0625,-400000.0625
224.27313995361328,-132.61000061035156,-4449.7001953125,-7325.27001953125,-400000.0625,-5806.8798828125,-400000.0625,-400000.0625,-400000.0625
224.4122610092163,-181.9600067138672,-4495.0498046875,-7376.77001953125,-400000.0625,-5852.7001953125,-400000.0625,-400000.0625,-400000.0625
224.53600096702576,-210.08999633789062,-4527.66015625,-7414.2900390625,-400000.0625,-5887.1298828125,-400000.0625,-400000.0625,-400000.0625
224.6722869873047,-188.67999267578125,-4503.5400390625,-7389.830078125,-400000.0625,-5864.6201171875,-400000.0625,-400000.0625,-400000.0625
224.80517673492432,-139.24000549316406,-4453.66015625,-7335.85009765625,-400000.0625,-5816.02978515625,-400000.0625,-400000.0625,-400000.0625
224.92656350135803,-130.99000549316406,-4445.41015625,-7327.60986328125,-400000.0625,-5807.5,-400000.0625,-400000.0625,-400000.0625
224.97630262374878,-176.42999267578125,-4485.3701171875,-7373.91015625,-400000.0625,-5848.93017578125,-400000.0625,-400000.0625,-400000.0625
225.01225900650024,-210.75999450683594,-4523.18017578125,-7413.0498046875,-400000.0625,-5882.06982421875,-400000.0625,-400000.0625,-400000.0625
225.03421020507812,-186.97000122070312,-4501.8701171875,-7385.2998046875,-400000.0625,-5855.990234375,-400000.0625,-400000.0625,-400000.0625
225.0808699131012,-140.19000244140625,-4452.75,-7329.419921875,-400000.0625,-5811.31005859375,-400000.0625,-400000.0625,-400000.0625
225.10460829734802,-130.75,-4443.1201171875,-7319.02001953125,-400000.0625,-5805.02001953125,-400000.0625,-400000.0625,-400000.0625
225.13257503509521,-180.2899932861328,-4486.75,-7371.0,-400000.0625,-5854.3701171875,-400000.0625,-400000.0625,-400000.0625
225.15908455848694,-216.44000244140625,-4521.419921875,-7410.33984375,-400000.0625,-5886.1298828125,-400000.0625,-400000.0625,-400000.0625
225.20718264579773,-191.2100067138672,-4506.16015625,-7386.10986328125,-400000.0625,-5862.9501953125,-400000.0625,-400000.0625,-400000.0625
225.2329363822937,-139.19000244140625,-4448.27001953125,-7327.83984375,-400000.0625,-5813.89013671875,-400000.0625,-400000.0625,-400000.0625
225.2523009777069,-131.4199981689453,-4442.5,-7319.259765625,-400000.0625,-5804.43994140625,-400000.0625,-400000.0625,-400000.0625
225.2797498703003,-180.1999969482422,-4488.85009765625,-7372.0,-400000.0625,-5847.740234375,-400000.0625,-400000.0625,-400000.0625
225.31999254226685,-215.33999633789062,-4519.75,-7410.52978515625,-400000.0625,-5882.259765625,-400000.0625,-400000.0625,-400000.0625
225.34053778648376,-188.8800048828125,-4488.330078125,-7378.14990234375,-400000.0625,-5859.7099609375,-400000.0625,-400000.0625,-400000.0625
225.36485505104065,-136.08999633789062,-4444.7900390625,-7323.7001953125,-400000.0625,-5813.41015625,-400000.0625,-400000.0625,-400000.0625
225.38862824440002,-136.61000061035156,-4443.22021484375,-7319.4501953125,-400000.0625,-5809.259765625,-400000.0625,-400000.0625,-400000.0625
225.4753360748291,-187.39999389648438,-4484.93994140625,-7370.0,-400000.0625,-5849.080078125,-400000.0625,-400000.0625,-400000.0625
225.53164052963257,-214.0,-4522.419921875,-7407.0498046875,-400000.0625,-5883.06982421875,-400000.0625,-400000.0625,-400000.0625
225.6452739238739,-188.3000030517578,-4493.43017578125,-7378.52978515625,-400000.0625,-5862.18994140625,-400000.0625,-400000.0625,-400000.0625
225.76520490646362,-147.38999938964844,-4452.31982421875,-7330.60986328125,-400000.0625,-5819.89013671875,-400000.0625,-400000.0625,-400000.0625
225.88033246994019,-137.13999938964844,-4448.18017578125,-7320.169921875,-400000.0625,-5804.2099609375,-400000.0625,-400000.0625,-400000.0625
226.00641179084778,-180.10000610351562,-4485.93994140625,-7367.0400390625,-400000.0625,-5846.31005859375,-400000.0625,-400000.0625,-400000.0625
226.13006234169006,-216.10000610351562,-4518.4599609375,-7406.89990234375,-400000.0625,-5879.97998046875,-400000.0625,-400000.0625,-400000.0625
226.2708830833435,-185.44000244140625,-4491.08984375,-7377.9599609375,-400000.0625,-5857.990234375,-400000.0625,-400000.0625,-400000.0625
226.38750290870667,-132.32000732421875,-4436.77978515625,-7317.259765625,-400000.0625,-5810.06982421875,-400000.0625,-400000.0625,-400000.0625
226.53357982635498,-122.87999725341797,-4422.47021484375,-7303.47998046875,-400000.0625,-5801.919921875,-400000.0625,-400000.0625,-400000.0625
226.67128825187683,-180.91000366210938,-4483.93994140625,-7364.509765625,-400000.0625,-5850.93994140625,-400000.0625,-400000.0625,-400000.0625
226.8129744529724,-228.92999267578125,-4535.06005859375,-7414.77001953125,-400000.0625,-5888.1298828125,-400000.0625,-400000.0625,-400000.0625
226.9464726448059,-205.27999877929688,-4510.2099609375,-7386.97021484375,-400000.0625,-5861.330078125,-400000.0625,-400000.0625,-400000.0625
227.06594729423523,-143.77000427246094,-4449.64990234375,-7325.4599609375,-400000.0625,-5812.22021484375,-400000.0625,-400000.0625,-400000.0625
227.19738030433655,-137.0,-4441.740234375,-7316.64013671875,-400000.0625,-5810.1201171875,-400000.0625,-400000.0625,-400000.0625
227.34594178199768,-184.6300048828125,-4488.990234375,-7369.9501953125,-400000.0625,-5852.3701171875,-400000.0625,-400000.0625,-400000.0625
227.48981857299805,-220.6300048828125,-4520.7001953125,-7406.7099609375,-400000.0625,-5885.97998046875,-400000.0625,-400000.0625,-400000.0625
227.6134533882141,-195.22000122070312,-4490.47021484375,-7376.10009765625,-400000.0625,-5854.22998046875,-400000.0625,-400000.0625,-400000.0625
227.73460745811462,-140.42999267578125,-4439.35009765625,-7316.06982421875,-400000.0625,-5804.009765625,-400000.0625,-400000.0625,-400000.0625
227.86529350280762,-128.64999389648438,-4432.77001953125,-7303.759765625,-400000.0625,-5803.72998046875,-400000.0625,-400000.0625,-400000.0625
227.99518966674805,-179.9600067138672,-4481.83984375,-7361.4599609375,-400000.0625,-5851.93994140625,-400000.0625,-400000.0625,-400000.0625
228.1404731273651,-222.3000030517578,-4522.3701171875,-7405.22998046875,-400000.0625,-5879.740234375,-400000.0625,-400000.0625,-400000.0625
228.2822413444519,-205.75999450683594,-4507.10986328125,-7386.10986328125,-400000.0625,-5867.009765625,-400000.0625,-400000.0625,-400000.0625
228.4091603755951,-155.8800048828125,-4453.3701171875,-7326.75,-400000.0625,-5817.4599609375,-400000.0625,-400000.0625,-400000.0625
228.53756976127625,-139.6699981689453,-4438.259765625,-7312.25,-400000.0625,-5809.58984375,-400000.0625,-400000.0625,-400000.0625
228.64712953567505,-180.1999969482422,-4481.83984375,-7361.4599609375,-400000.0625,-5849.02978515625,-400000.0625,-400000.0625,-400000.0625
228.7730667591095,-212.91000366210938,-4509.35009765625,-7393.5,-400000.0625,-5878.97021484375,-400000.0625,-400000.0625,-400000.0625
228.91330528259277,-191.5,-4487.31982421875,-7368.3701171875,-400000.0625,-5857.56005859375,-400000.0625,-400000.0625,-400000.0625
229.050461769104,-146.1999969482422,-4445.1201171875,-7318.5,-400000.0625,-5814.169921875,-400000.0625,-400000.0625,-400000.0625
229.18085837364197,-134.17999267578125,-4437.06982421875,-7307.6298828125,-400000.0625,-5805.97021484375,-400000.0625,-400000.0625,-400000.0625
229.31024956703186,-181.52999877929688,-4483.89013671875,-7360.41015625,-400000.0625,-5848.740234375,-400000.0625,-400000.0625,-400000.0625
229.43477058410645,-214.2899932861328,-4512.97998046875,-7395.27001953125,-400000.0625,-5883.02978515625,-400000.0625,-400000.0625,-400000.0625
229.56355023384094,-191.16000366210938,-4489.60986328125,-7371.47021484375,-400000.0625,-5861.85986328125,-400000.0625,-400000.0625,-400000.0625
229.67946600914001,-148.05999755859375,-4450.3701171875,-7322.1201171875,-400000.0625,-5814.97998046875,-400000.0625,-400000.0625,-400000.0625
229.81213641166687,-134.94000244140625,-4441.02001953125,-7309.77001953125,-400000.0625,-5806.490234375,-400000.0625,-400000.0625,-400000.0625
229.94756174087524,-179.10000610351562,-4489.66015625,-7360.7900390625,-400000.0625,-5848.4599609375,-400000.0625,-400000.0625,-400000.0625
230.07526922225952,-215.86000061035156,-4525.7099609375,-7405.18994140625,-400000.0625,-5887.31982421875,-400000.0625,-400000.0625,-400000.0625
230.22074580192566,-192.92999267578125,-4503.97021484375,-7378.43994140625,-400000.0625,-5865.2900390625,-400000.0625,-400000.0625,-400000.0625
230.3711633682251,-140.6199951171875,-4454.419921875,-7321.31005859375,-400000.0625,-5815.83984375,-400000.0625,-400000.0625,-400000.0625
230.4896514415741,-128.88999938964844,-4443.8798828125,-7310.009765625,-400000.0625,-5808.5400390625,-400000.0625,-400000.0625,-400000.0625
230.60667657852173,-175.2899932861328,-4478.5,-7356.22021484375,-400000.0625,-5845.169921875,-400000.0625,-400000.0625,-400000.0625
230.6650002002716,-211.0500030517578,-4517.31982421875,-7398.27001953125,-400000.0625,-5878.02001953125,-400000.0625,-400000.0625,-400000.0625
230.69004082679749,-190.4499969482422,-4501.8701171875,-7376.77001953125,-400000.0625,-5860.27978515625,-400000.0625,-400000.0625,-400000.0625
230.71185064315796,-139.6199951171875,-4455.419921875,-7321.93017578125,-400000.0625,-5820.47021484375,-400000.0625,-400000.0625,-400000.0625
230.76221084594727,-130.32000732421875,-4436.2099609375,-7308.009765625,-400000.0625,-5809.1201171875,-400000.0625,-400000.0625,-400000.0625
230.78906631469727,-178.10000610351562,-4487.7998046875,-7362.080078125,-400000.0625,-5856.7099609375,-400000.0625,-400000.0625,-400000.0625
230.8155267238617,-216.2899932861328,-4525.3798828125,-7402.66015625,-400000.0625,-5886.080078125,-400000.0625,-400000.0625,-400000.0625
230.86145901679993,-192.2100067138672,-4504.35009765625,-7375.2900390625,-400000.0625,-5864.52978515625,-400000.0625,-400000.0625,-400000.0625
230.8900110721588,-138.3300018310547,-4448.080078125,-7315.8701171875,-400000.0625,-5814.080078125,-400000.0625,-400000.0625,-400000.0625
230.9176836013794,-124.12000274658203,-4432.06005859375,-7298.89990234375,-400000.0625,-5803.2001953125,-400000.0625,-400000.0625,-400000.0625
230.95798563957214,-174.3800048828125,-4489.22998046875,-7357.93017578125,-400000.0625,-5850.509765625,-400000.0625,-400000.0625,-400000.0625
230.98499512672424,-213.42999267578125,-4525.14013671875,-7398.990234375,-400000.0625,-5889.080078125,-400000.0625,-400000.0625,-400000.0625
231.0077986717224,-192.36000061035156,-4496.2900390625,-7369.759765625,-400000.0625,-5866.14990234375,-400000.0625,-400000.0625,-400000.0625
231.03409147262573,-143.14999389648438,-4447.02978515625,-7314.97021484375,-400000.0625,-5820.3701171875,-400000.0625,-400000.0625,-400000.0625
231.0930848121643,-131.0800018310547,-4437.4501953125,-7301.27978515625,-400000.0625,-5807.4501953125,-400000.0625,-400000.0625,-400000.0625
231.1568307876587,-182.67999267578125,-4482.4599609375,-7354.35986328125,-400000.0625,-5853.60986328125,-400000.0625,-400000.0625,-400000.0625
231.27626991271973,-217.49000549316406,-4526.52001953125,-7396.89013671875,-400000.0625,-5886.169921875,-400000.0625,-400000.0625,-400000.0625
231.39242434501648,-196.97999572753906,-4507.8798828125,-7373.56982421875,-400000.0625,-5867.2900390625,-400000.0625,-400000.0625,-400000.0625
231.5081205368042,-146.44000244140625,-4453.18017578125,-7316.2998046875,-400000.0625,-5816.64990234375,-400000.0625,-400000.0625,-400000.0625
231.6406855583191,-137.75999450683594,-4438.830078125,-7303.43017578125,-400000.0625,-5800.919921875,-400000.0625,-400000.0625,-400000.0625
231.74461340904236,-181.00999450683594,-4482.22021484375,-7352.68994140625,-400000.0625,-5846.5,-400000.0625,-400000.0625,-400000.0625
231.85768723487854,-221.97000122070312,-4532.240234375,-7403.7998046875,-400000.0625,-5890.60986328125,-400000.0625,-400000.0625,-400000.0625
231.97548842430115,-200.75,-4510.259765625,-7377.81982421875,-400000.0625,-5867.10009765625,-400000.0625,-400000.0625,-400000.0625
232.1079285144806,-149.44000244140625,-4456.0,-7319.169921875,-400000.0625,-5818.31982421875,-400000.0625,-400000.0625,-400000.0625
232.24789547920227,-134.22999572753906,-4438.93017578125,-7306.33984375,-400000.0625,-5802.72998046875,-400000.0625,-400000.0625,-400000.0625
232.38223314285278,-175.19000244140625,-4476.02001953125,-7353.16015625,-400000.0625,-5844.259765625,-400000.0625,-400000.0625,-400000.0625
232.53577828407288,-209.3800048828125,-4517.97998046875,-7394.1201171875,-400000.0625,-5884.64990234375,-400000.0625,-400000.0625,-400000.0625
232.67768144607544,-192.5,-4502.10986328125,-7374.91015625,-400000.0625,-5870.2998046875,-400000.0625,-400000.0625,-400000.0625
232.80474877357483,-145.52999877929688,-4454.89990234375,-7321.169921875,-400000.0625,-5828.330078125,-400000.0625,-400000.0625,-400000.0625
232.92837572097778,-133.8000030517578,-4444.41015625,-7307.9599609375,-400000.0625,-5813.5,-400000.0625,-400000.0625,-400000.0625
233.0615906715393,-174.13999938964844,-4487.56005859375,-7355.35986328125,-400000.0625,-5849.5498046875,-400000.0625,-400000.0625,-400000.0625
233.1761074066162,-215.38999938964844,-4524.7099609375,-7401.27978515625,-400000.0625,-5883.5498046875,-400000.0625,-400000.0625,-400000.0625
233.31126832962036,-201.75,-4510.58984375,-7385.830078125,-400000.0625,-5872.35009765625,-400000.0625,-400000.0625,-400000.0625
233.45524215698242,-149.38999938964844,-4459.47998046875,-7324.60009765625,-400000.0625,-5819.93994140625,-400000.0625,-400000.0625,-400000.0625
233.58810997009277,-132.47000122070312,-4441.7900390625,-7306.240234375,-400000.0625,-5810.1201171875,-400000.0625,-400000.0625,-400000.0625
233.7122621536255,-177.6199951171875,-4490.3798828125,-7352.5,-400000.0625,-5852.7998046875,-400000.0625,-400000.0625,-400000.0625
233.86675333976746,-209.89999389648438,-4523.7998046875,-7392.83984375,-400000.0625,-5888.419921875,-400000.0625,-400000.0625,-400000.0625
233.97873878479004,-194.36000061035156,-4504.8701171875,-7372.18994140625,-400000.0625,-5868.14990234375,-400000.0625,-400000.0625,-400000.0625
234.09394717216492,-145.24000549316406,-4452.7099609375,-7315.10986328125,-400000.0625,-5814.31005859375,-400000.0625,-400000.0625,-400000.0625
234.23152875900269,-132.1300048828125,-4444.169921875,-7301.9501953125,-400000.0625,-5803.16015625,-400000.0625,-400000.0625,-400000.0625
234.3744707107544,-177.91000366210938,-4490.9501953125,-7353.16015625,-400000.0625,-5850.64990234375,-400000.0625,-400000.0625,-400000.0625
234.50440168380737,-213.86000061035156,-4527.6201171875,-7397.60009765625,-400000.0625,-5890.27001953125,-400000.0625,-400000.0625,-400000.0625
234.6352219581604,-189.25999450683594,-4499.14990234375,-7370.81005859375,-400000.0625,-5871.39013671875,-400000.0625,-400000.0625,-400000.0625
234.76651310920715,-136.47000122070312,-4444.5498046875,-7313.5400390625,-400000.0625,-5825.3798828125,-400000.0625,-400000.0625,-400000.0625
234.88843846321106,-132.1300048828125,-4435.5400390625,-7303.330078125,-400000.0625,-5810.93017578125,-400000.0625,-400000.0625,-400000.0625
235.03210544586182,-180.24000549316406,-4489.85009765625,-7357.4599609375,-400000.0625,-5853.75,-400000.0625,-400000.0625,-400000.0625
235.1525661945343,-219.1999969482422,-4527.0400390625,-7399.66015625,-400000.0625,-5885.93994140625,-400000.0625,-400000.0625,-400000.0625
235.2885172367096,-190.25999450683594,-4504.58984375,-7373.52001953125,-400000.0625,-5863.9501953125,-400000.0625,-400000.0625,-400000.0625
235.42236518859863,-141.10000610351562,-4446.509765625,-7315.490234375,-400000.0625,-5819.4599609375,-400000.0625,-400000.0625,-400000.0625
235.56066370010376,-129.3699951171875,-4433.009765625,-7301.14013671875,-400000.0625,-5806.8798828125,-400000.0625,-400000.0625,-400000.0625
235.71005725860596,-166.85000610351562,-4472.06982421875,-7345.14990234375,-400000.0625,-5847.83984375,-400000.0625,-400000.0625,-400000.0625
235.8440182209015,-203.17999267578125,-4517.22021484375,-7389.35986328125,-400000.0625,-5885.60009765625,-400000.0625,-400000.0625,-400000.0625
235.96037077903748,-183.1999969482422,-4495.47998046875,-7365.22998046875,-400000.0625,-5867.580078125,-400000.0625,-400000.0625,-400000.0625
236.08813190460205,-132.88999938964844,-4441.830078125,-7312.10986328125,-400000.0625,-5820.31982421875,-400000.0625,-400000.0625,-400000.0625
236.22062420845032,-119.30000305175781,-4435.06005859375,-7297.56005859375,-400000.0625,-5805.919921875,-400000.0625,-400000.0625,-400000.0625
236.27858448028564,-166.75,-4474.740234375,-7343.10009765625,-400000.0625,-5852.02978515625,-400000.0625,-400000.0625,-400000.0625
236.30908298492432,-208.3300018310547,-4518.18017578125,-7390.5498046875,-400000.0625,-5891.60986328125,-400000.0625,-400000.0625,-400000.0625
236.3326394557953,-191.8800048828125,-4492.3798828125,-7365.85009765625,-400000.0625,-5873.43994140625,-400000.0625,-400000.0625,-400000.0625
236.37716674804688,-143.0,-4437.06982421875,-7306.39013671875,-400000.0625,-5817.990234375,-400000.0625,-400000.0625,-400000.0625
236.4012176990509,-125.02999877929688,-4432.81982421875,-7293.1298828125,-400000.0625,-5799.9599609375,-400000.0625,-400000.0625,-400000.0625
236.4242458343506,-170.27999877929688,-4471.16015625,-7337.14013671875,-400000.0625,-5838.06005859375,-400000.0625,-400000.0625,-400000.0625
236.45002365112305,-211.10000610351562,-4512.97998046875,-7382.43994140625,-400000.0625,-5879.02001953125,-400000.0625,-400000.0625,-400000.0625
236.49395275115967,-189.5,-4488.419921875,-7360.5498046875,-400000.0625,-5863.56982421875,-400000.0625,-400000.0625,-400000.0625
236.51118636131287,-138.7100067138672,-4433.490234375,-7303.72021484375,-400000.0625,-5817.60009765625,-400000.0625,-400000.0625,-400000.0625
236.53307509422302,-129.41000366210938,-4432.10986328125,-7295.509765625,-400000.0625,-5807.39990234375,-400000.0625,-400000.0625,-400000.0625
236.55769968032837,-176.42999267578125,-4474.97021484375,-7344.2900390625,-400000.0625,-5844.68994140625,-400000.0625,-400000.0625,-400000.0625
236.60163021087646,-220.82000732421875,-4518.02978515625,-7390.8798828125,-400000.0625,-5884.740234375,-400000.0625,-400000.0625,-400000.0625
236.62516450881958,-204.3699951171875,-4499.009765625,-7369.52001953125,-400000.0625,-5869.580078125,-400000.0625,-400000.0625,-400000.0625
236.64814972877502,-149.67999267578125,-4445.35986328125,-7310.10986328125,-400000.0625,-5816.080078125,-400000.0625,-400000.0625,-400000.0625
236.67117500305176,-135.66000366210938,-4430.06005859375,-7292.22021484375,-400000.0625,-5801.06005859375,-400000.0625,-400000.0625,-400000.0625
236.71231484413147,-176.52999877929688,-4475.35986328125,-7341.240234375,-400000.0625,-5844.4501953125,-400000.0625,-400000.0625,-400000.0625
236.7355136871338,-215.38999938964844,-4510.31005859375,-7385.77978515625,-400000.0625,-5885.169921875,-400000.0625,-400000.0625,-400000.0625
236.7886757850647,-197.50999450683594,-4489.7099609375,-7363.990234375,-400000.0625,-5868.240234375,-400000.0625,-400000.0625,-400000.0625
236.8797996044159,-155.5,-4443.740234375,-7313.919921875,-400000.0625,-5818.3701171875,-400000.0625,-400000.0625,-400000.0625
236.94977593421936,-147.14999389648438,-4437.490234375,-7300.52001953125,-400000.0625,-5803.490234375,-400000.0625,-400000.0625,-400000.0625
237.0562195777893,-182.6300048828125,-4479.83984375,-7345.77001953125,-400000.0625,-5841.919921875,-400000.0625,-400000.0625,-400000.0625
237.1833620071411,-213.33999633789062,-4515.509765625,-7388.58984375,-400000.0625,-5879.2099609375,-400000.0625,-400000.0625,-400000.0625
237.31162810325623,-199.1300048828125,-4494.91015625,-7368.18017578125,-400000.0625,-5867.0498046875,-400000.0625,-400000.0625,-400000.0625
237.41467833518982,-147.67999267578125,-4444.7900390625,-7316.8798828125,-400000.0625,-5820.60986328125,-400000.0625,-400000.0625,-400000.0625
237.53657054901123,-137.0399932861328,-4432.25,-7299.18994140625,-400000.0625,-5806.39990234375,-400000.0625,-400000.0625,-400000.0625
237.65924167633057,-183.8699951171875,-4471.64013671875,-7346.68017578125,-400000.0625,-5848.60009765625,-400000.0625,-400000.0625,-400000.0625
237.7863781452179,-222.49000549316406,-4512.83984375,-7391.97998046875,-400000.0625,-5880.7900390625,-400000.0625,-400000.0625,-400000.0625
237.91365385055542,-203.22999572753906,-4490.14013671875,-7366.52001953125,-400000.0625,-5860.56982421875,-400000.0625,-400000.0625,-400000.0625
238.04637336730957,-150.38999938964844,-4440.31005859375,-7307.85986328125,-400000.0625,-5818.509765625,-400000.0625,-400000.0625,-400000.0625
238.18696355819702,-130.83999633789062,-4425.14013671875,-7290.1298828125,-400000.0625,-5801.490234375,-400000.0625,-400000.0625,-400000.0625
238.30756092071533,-168.55999755859375,-4459.0,-7331.52001953125,-400000.0625,-5837.81982421875,-400000.0625,-400000.0625,-400000.0625
238.42864871025085,-206.75999450683594,-4497.6201171875,-7377.2001953125,-400000.0625,-5883.02978515625,-400000.0625,-400000.0625,-400000.0625
238.56204342842102,-196.88999938964844,-4492.89990234375,-7367.52001953125,-400000.0625,-5871.490234375,-400000.0625,-400000.0625,-400000.0625
238.67867493629456,-149.44000244140625,-4448.31982421875,-7314.16015625,-400000.0625,-5822.60986328125,-400000.0625,-400000.0625,-400000.0625
238.8083839416504,-132.47000122070312,-4433.5400390625,-7297.27978515625,-400000.0625,-5804.6298828125,-400000.0625,-400000.0625,-400000.0625
238.94527316093445,-180.0500030517578,-4469.919921875,-7341.0,-400000.0625,-5842.68994140625,-400000.0625,-400000.0625,-400000.0625
239.0591561794281,-217.52999877929688,-4509.58984375,-7385.10986328125,-400000.0625,-5879.97998046875,-400000.0625,-400000.0625,-400000.0625
239.2006459236145,-205.17999267578125,-4491.27978515625,-7363.3701171875,-400000.0625,-5860.66015625,-400000.0625,-400000.0625,-400000.0625
239.3307981491089,-145.82000732421875,-4440.740234375,-7306.2900390625,-400000.0625,-5814.31005859375,-400000.0625,-400000.0625,-400000.0625
239.47601866722107,-126.41000366210938,-4420.22998046875,-7284.39990234375,-400000.0625,-5798.0498046875,-400000.0625,-400000.0625,-400000.0625
239.62274146080017,-173.75999450683594,-4467.33984375,-7339.33984375,-400000.0625,-5840.58984375,-400000.0625,-400000.0625,-400000.0625
239.74475979804993,-214.52999877929688,-4515.509765625,-7387.93017578125,-400000.0625,-5884.31005859375,-400000.0625,-400000.0625,-400000.0625
239.8718454837799,-195.64999389648438,-4493.0,-7365.75,-400000.0625,-5865.14990234375,-400000.0625,-400000.0625,-400000.0625
240.00149655342102,-142.52999877929688,-4438.830078125,-7309.91015625,-400000.0625,-5820.7001953125,-400000.0625,-400000.0625,-400000.0625
240.1286907196045,-129.75,-4431.81982421875,-7295.080078125,-400000.0625,-5809.58984375,-400000.0625,-400000.0625,-400000.0625
240.25800132751465,-179.86000061035156,-4482.22021484375,-7347.72998046875,-400000.0625,-5851.41015625,-400000.0625,-400000.0625,-400000.0625
240.3950960636139,-219.67999267578125,-4524.990234375,-7396.7001953125,-400000.0625,-5889.4599609375,-400000.0625,-400000.0625,-400000.0625
240.5083830356598,-206.8000030517578,-4507.77978515625,-7378.39013671875,-400000.0625,-5875.4501953125,-400000.0625,-400000.0625,-400000.0625
240.6479685306549,-151.58999633789062,-4450.93994140625,-7316.8798828125,-400000.0625,-5825.6201171875,-400000.0625,-400000.0625,-400000.0625
240.77267384529114,-135.52000427246094,-4432.580078125,-7297.7099609375,-400000.0625,-5805.5400390625,-400000.0625,-400000.0625,-400000.0625
240.90682721138,-177.57000732421875,-4478.41015625,-7342.77001953125,-400000.0625,-5843.06982421875,-400000.0625,-400000.0625,-400000.0625
241.03516554832458,-221.1999969482422,-4515.4599609375,-7389.06982421875,-400000.0625,-5886.22021484375,-400000.0625,-400000.0625,-400000.0625
241.17735719680786,-205.7100067138672,-4493.669921875,-7369.27978515625,-400000.0625,-5872.009765625,-400000.0625,-400000.0625,-400000.0625
241.33153986930847,-155.25999450683594,-4445.41015625,-7314.58984375,-400000.0625,-5825.56982421875,-400000.0625,-400000.0625,-400000.0625
241.4715235233307,-135.9499969482422,-4441.64013671875,-7300.56982421875,-400000.0625,-5813.93017578125,-400000.0625,-400000.0625,-400000.0625
241.58833646774292,-174.86000061035156,-4481.60009765625,-7343.81982421875,-400000.0625,-5852.080078125,-400000.0625,-400000.0625,-400000.0625
241.7174425125122,-217.72000122070312,-4510.5,-7385.10986328125,-400000.0625,-5881.02001953125,-400000.0625,-400000.0625,-400000.0625
241.85963940620422,-204.89999389648438,-4501.490234375,-7369.7099609375,-400000.0625,-5866.81005859375,-400000.0625,-400000.0625,-400000.0625
241.937641620636,-156.2100067138672,-4459.52001953125,-7321.31005859375,-400000.0625,-5828.3798828125,-400000.0625,-400000.0625,-400000.0625
241.96193981170654,-144.33999633789062,-4431.25,-7299.27978515625,-400000.0625,-5809.02001953125,-400000.0625,-400000.0625,-400000.0625
242.00593876838684,-180.0500030517578,-4474.35009765625,-7343.43994140625,-400000.0625,-5845.1201171875,-400000.0625,-400000.0625,-400000.0625
242.02607917785645,-214.72000122070312,-4512.740234375,-7386.490234375,-400000.0625,-5879.93017578125,-400000.0625,-400000.0625,-400000.0625
242.05305981636047,-200.17999267578125,-4498.10009765625,-7369.7099609375,-400000.0625,-5866.580078125,-400000.0625,-400000.0625,-400000.0625
242.08132433891296,-154.72999572753906,-4447.22021484375,-7313.16015625,-400000.0625,-5819.3701171875,-400000.0625,-400000.0625,-400000.0625
242.12429547309875,-134.3300018310547,-4432.43994140625,-7296.0400390625,-400000.0625,-5807.77978515625,-400000.0625,-400000.0625,-400000.0625
242.1486132144928,-177.10000610351562,-4480.89013671875,-7348.16015625,-400000.0625,-5851.35986328125,-400000.0625,-400000.0625,-400000.0625
242.17314887046814,-221.11000061035156,-4518.080078125,-7388.68994140625,-400000.0625,-5886.22021484375,-400000.0625,-400000.0625,-400000.0625
242.197851896286,-201.4600067138672,-4505.6298828125,-7369.9501953125,-400000.0625,-5867.2001953125,-400000.0625,-400000.0625,-400000.0625
242.23690962791443,-145.6300048828125,-4457.240234375,-7312.81982421875,-400000.0625,-5815.83984375,-400000.0625,-400000.0625,-400000.0625
242.2623472213745,-142.0,-4438.68994140625,-7293.02978515625,-400000.0625,-5803.5400390625,-400000.0625,-400000.0625,-400000.0625
242.28318691253662,-185.67999267578125,-4483.7998046875,-7341.72021484375,-400000.0625,-5846.64013671875,-400000.0625,-400000.0625,-400000.0625
242.30287837982178,-219.6300048828125,-4526.27978515625,-7387.5,-400000.0625,-5888.27001953125,-400000.0625,-400000.0625,-400000.0625
242.3398518562317,-211.24000549316406,-4500.72021484375,-7364.56005859375,-400000.0625,-5870.43994140625,-400000.0625,-400000.0625,-400000.0625
242.36553716659546,-153.2100067138672,-4454.18017578125,-7310.25,-400000.0625,-5821.66015625,-400000.0625,-400000.0625,-400000.0625
242.38993310928345,-133.85000610351562,-4440.39990234375,-7289.22021484375,-400000.0625,-5802.81982421875,-400000.0625,-400000.0625,-400000.0625
242.42953395843506,-178.91000366210938,-4482.990234375,-7341.2900390625,-400000.0625,-5847.5498046875,-400000.0625,-400000.0625,-400000.0625
242.53716826438904,-222.44000244140625,-4523.08984375,-7390.2099609375,-400000.0625,-5887.93994140625,-400000.0625,-400000.0625,-400000.0625
242.64680171012878,-199.41000366210938,-4505.10986328125,-7367.7998046875,-400000.0625,-5864.47998046875,-400000.0625,-400000.0625,-400000.0625
242.75777220726013,-148.33999633789062,-4454.47021484375,-7312.97021484375,-400000.0625,-5818.56005859375,-400000.0625,-400000.0625,-400000.0625
242.8729522228241,-146.5800018310547,-4447.02978515625,-7300.22998046875,-400000.0625,-5807.31005859375,-400000.0625,-400000.0625,-400000.0625
243.0097782611847,-177.72000122070312,-4491.52001953125,-7344.39013671875,-400000.0625,-5846.7900390625,-400000.0625,-400000.0625,-400000.0625
243.12241506576538,-222.8300018310547,-4544.68994140625,-7396.41015625,-400000.0625,-5890.27001953125,-400000.0625,-400000.0625,-400000.0625
243.23280596733093,-207.13999938964844,-4527.47021484375,-7385.68017578125,-400000.0625,-5878.259765625,-400000.0625,-400000.0625,-400000.0625
243.35813689231873,-163.4600067138672,-4467.5400390625,-7324.080078125,-400000.0625,-5826.56982421875,-400000.0625,-400000.0625,-400000.0625
243.4812650680542,-138.24000549316406,-4444.5498046875,-7295.89990234375,-400000.0625,-5808.97021484375,-400000.0625,-400000.0625,-400000.0625
243.60116004943848,-176.57000732421875,-4489.419921875,-7341.81005859375,-400000.0625,-5846.60009765625,-400000.0625,-400000.0625,-400000.0625
243.71516370773315,-223.8800048828125,-4531.9599609375,-7391.169921875,-400000.0625,-5888.89013671875,-400000.0625,-400000.0625,-400000.0625
243.83896708488464,-205.3300018310547,-4514.5498046875,-7373.43017578125,-400000.0625,-5872.5400390625,-400000.0625,-400000.0625,-400000.0625
243.95957159996033,-159.07000732421875,-4466.39013671875,-7321.169921875,-400000.0625,-5827.27978515625,-400000.0625,-400000.0625,-400000.0625
244.0883195400238,-138.80999755859375,-4456.9501953125,-7306.91015625,-400000.0625,-5813.27001953125,-400000.0625,-400000.0625,-400000.0625
244.22757244110107,-178.52999877929688,-4496.43017578125,-7350.16015625,-400000.0625,-5849.4599609375,-400000.0625,-400000.0625,-400000.0625
244.37681698799133,-218.00999450683594,-4522.3701171875,-7388.64013671875,-400000.0625,-5883.31005859375,-400000.0625,-400000.0625,-400000.0625
244.51312828063965,-206.8000030517578,-4505.68017578125,-7370.14013671875,-400000.0625,-5871.009765625,-400000.0625,-400000.0625,-400000.0625
244.6439983844757,-150.16000366210938,-4454.22998046875,-7313.43994140625,-400000.0625,-5821.0400390625,-400000.0625,-400000.0625,-400000.0625
244.76886558532715,-127.02999877929688,-4448.3701171875,-7295.31982421875,-400000.0625,-5806.8798828125,-400000.0625,-400000.0625,-400000.0625
244.89004278182983,-175.7100067138672,-4495.43017578125,-7346.8701171875,-400000.0625,-5849.5498046875,-400000.0625,-400000.0625,-400000.0625
245.02093696594238,-222.25,-4546.35986328125,-7404.60986328125,-400000.0625,-5895.85009765625,-400000.0625,-400000.0625,-400000.0625
245.1419222354889,-213.3800048828125,-4528.9501953125,-7385.830078125,-400000.0625,-5878.35009765625,-400000.0625,-400000.0625,-400000.0625
245.28647708892822,-159.07000732421875,-4474.16015625,-7327.990234375,-400000.0625,-5828.759765625,-400000.0625,-400000.0625,-400000.0625
245.40082335472107,-141.47999572753906,-4447.169921875,-7302.759765625,-400000.0625,-5810.2099609375,-400000.0625,-400000.0625,-400000.0625
245.52795672416687,-181.9600067138672,-4495.14013671875,-7346.72998046875,-400000.0625,-5845.35986328125,-400000.0625,-400000.0625,-400000.0625
245.67320656776428,-212.52999877929688,-4535.6298828125,-7391.64013671875,-400000.0625,-5881.5498046875,-400000.0625,-400000.0625,-400000.0625
245.8040738105774,-199.27000427246094,-4528.14013671875,-7381.6298828125,-400000.0625,-5874.58984375,-400000.0625,-400000.0625,-400000.0625
245.94865083694458,-150.82000732421875,-4476.60009765625,-7322.169921875,-400000.0625,-5822.52001953125,-400000.0625,-400000.0625,-400000.0625
246.08060002326965,-130.99000549316406,-4440.830078125,-7292.7001953125,-400000.0625,-5800.77001953125,-400000.0625,-400000.0625,-400000.0625
246.21888756752014,-180.52999877929688,-4486.66015625,-7343.39013671875,-400000.0625,-5849.080078125,-400000.0625,-400000.0625,-400000.0625
246.34501719474792,-220.82000732421875,-4532.14990234375,-7392.5,-400000.0625,-5892.56005859375,-400000.0625,-400000.0625,-400000.0625
246.47290015220642,-208.0,-4530.91015625,-7385.919921875,-400000.0625,-5879.93017578125,-400000.0625,-400000.0625,-400000.0625
246.62489461898804,-159.07000732421875,-4484.64990234375,-7331.56005859375,-400000.0625,-5833.47998046875,-400000.0625,-400000.0625,-400000.0625
246.76060509681702,-139.08999633789062,-4459.85986328125,-7304.91015625,-400000.0625,-5812.97998046875,-400000.0625,-400000.0625,-400000.0625
246.90497064590454,-176.13999938964844,-4492.08984375,-7342.47998046875,-400000.0625,-5850.169921875,-400000.0625,-400000.0625,-400000.0625
247.0416760444641,-221.58999633789062,-4531.81005859375,-7387.39990234375,-400000.0625,-5885.5498046875,-400000.0625,-400000.0625,-400000.0625
247.19066190719604,-200.61000061035156,-4517.83984375,-7371.14013671875,-400000.0625,-5866.580078125,-400000.0625,-400000.0625,-400000.0625
247.3194239139557,-156.25999450683594,-4467.81982421875,-7318.830078125,-400000.0625,-5821.509765625,-400000.0625,-400000.0625,-400000.0625
247.4497947692871,-139.0,-4449.60986328125,-7297.52001953125,-400000.0625,-5805.4501953125,-400000.0625,-400000.0625,-400000.0625
247.5859055519104,-177.52999877929688,-4490.47021484375,-7344.91015625,-400000.0625,-5848.4599609375,-400000.0625,-400000.0625,-400000.0625
247.64182209968567,-226.69000244140625,-4532.43017578125,-7393.97998046875,-400000.0625,-5890.93994140625,-400000.0625,-400000.0625,-400000.0625
247.66733956336975,-212.9600067138672,-4525.08984375,-7380.580078125,-400000.0625,-5879.93017578125,-400000.0625,-400000.0625,-400000.0625
247.69350123405457,-156.8300018310547,-4476.1201171875,-7322.5,-400000.0625,-5828.10009765625,-400000.0625,-400000.0625,-400000.0625
247.74163150787354,-130.94000244140625,-4457.7099609375,-7297.85009765625,-400000.0625,-5805.58984375,-400000.0625,-400000.0625,-400000.0625
247.76070165634155,-179.2899932861328,-4496.3798828125,-7345.490234375,-400000.0625,-5844.5498046875,-400000.0625,-400000.0625,-400000.0625
247.78447246551514,-230.64999389648438,-4538.490234375,-7395.080078125,-400000.0625,-5891.56005859375,-400000.0625,-400000.0625,-400000.0625
247.80164408683777,-207.0399932861328,-4518.31982421875,-7376.77001953125,-400000.0625,-5877.39990234375,-400000.0625,-400000.0625,-400000.0625
247.84916615486145,-152.97000122070312,-4466.6298828125,-7319.31005859375,-400000.0625,-5830.2900390625,-400000.0625,-400000.0625,-400000.0625
247.87436699867249,-133.66000366210938,-4447.02978515625,-7297.08984375,-400000.0625,-5810.68994140625,-400000.0625,-400000.0625,-400000.0625
247.89842128753662,-177.57000732421875,-4488.18017578125,-7343.81982421875,-400000.0625,-5847.31005859375,-400000.0625,-400000.0625,-400000.0625
247.91986560821533,-224.16000366210938,-4536.52978515625,-7392.35986328125,-400000.0625,-5887.7998046875,-400000.0625,-400000.0625,-400000.0625
247.97007727622986,-214.52999877929688,-4523.27978515625,-7377.43017578125,-400000.0625,-5876.68017578125,-400000.0625,-400000.0625,-400000.0625
247.98993158340454,-164.60000610351562,-4479.93017578125,-7326.41015625,-400000.0625,-5827.85986328125,-400000.0625,-400000.0625,-400000.0625
248.01268029212952,-138.6199951171875,-4452.89990234375,-7303.9501953125,-400000.0625,-5811.169921875,-400000.0625,-400000.0625,-400000.0625
248.03475618362427,-177.33999633789062,-4487.60986328125,-7343.14990234375,-400000.0625,-5845.8798828125,-400000.0625,-400000.0625,-400000.0625
248.0912573337555,-218.9600067138672,-4537.25,-7389.2099609375,-400000.0625,-5886.64990234375,-400000.0625,-400000.0625,-400000.0625
248.15365982055664,-205.3300018310547,-4517.89013671875,-7371.85986328125,-400000.0625,-5871.490234375,-400000.0625,-400000.0625,-400000.0625
248.2675952911377,-165.17999267578125,-4472.97021484375,-7328.7998046875,-400000.0625,-5828.0,-400000.0625,-400000.0625,-400000.0625
248.3694088459015,-137.08999633789062,-4459.43017578125,-7310.33984375,-400000.0625,-5811.1201171875,-400000.0625,-400000.0625,-400000.0625
248.4749150276184,-173.52000427246094,-4488.990234375,-7344.68017578125,-400000.0625,-5844.31005859375,-400000.0625,-400000.0625,-400000.0625
248.56768250465393,-220.38999938964844,-4525.759765625,-7383.2998046875,-400000.0625,-5881.64013671875,-400000.0625,-400000.0625,-400000.0625
248.63802242279053,-206.17999267578125,-4515.22021484375,-7374.6201171875,-400000.0625,-5870.52978515625,-400000.0625,-400000.0625,-400000.0625
248.75442218780518,-158.1699981689453,-4476.60009765625,-7330.0400390625,-400000.0625,-5830.81005859375,-400000.0625,-400000.0625,-400000.0625
248.88029623031616,-137.75999450683594,-4458.08984375,-7305.77001953125,-400000.0625,-5813.35986328125,-400000.0625,-400000.0625,-400000.0625
249.0091872215271,-180.52999877929688,-4489.14013671875,-7343.72021484375,-400000.0625,-5846.1201171875,-400000.0625,-400000.0625,-400000.0625
249.1336739063263,-223.67999267578125,-4539.6298828125,-7394.93017578125,-400000.0625,-5887.64990234375,-400000.0625,-400000.0625,-400000.0625
249.25352263450623,-206.8000030517578,-4526.08984375,-7380.490234375,-400000.0625,-5877.64013671875,-400000.0625,-400000.0625,-400000.0625
249.39254188537598,-160.41000366210938,-4466.14990234375,-7318.5498046875,-400000.0625,-5829.81005859375,-400000.0625,-400000.0625,-400000.0625
249.53203916549683,-139.08999633789062,-4449.419921875,-7296.3701171875,-400000.0625,-5808.93017578125,-400000.0625,-400000.0625,-400000.0625
249.67343974113464,-177.9600067138672,-4491.27978515625,-7338.47998046875,-400000.0625,-5837.6298828125,-400000.0625,-400000.0625,-400000.0625
249.80620336532593,-234.41000366210938,-4538.919921875,-7393.89013671875,-400000.0625,-5882.1201171875,-400000.0625,-400000.0625,-400000.0625
249.9326102733612,-217.67999267578125,-4533.52978515625,-7386.16015625,-400000.0625,-5874.490234375,-400000.0625,-400000.0625,-400000.0625
250.0618863105774,-168.3699951171875,-4471.72998046875,-7323.35986328125,-400000.0625,-5825.9501953125,-400000.0625,-400000.0625,-400000.0625
250.19599652290344,-143.91000366210938,-4461.2900390625,-7307.72021484375,-400000.0625,-5814.1201171875,-400000.0625,-400000.0625,-400000.0625
250.31227946281433,-176.9499969482422,-4492.85986328125,-7346.43994140625,-400000.0625,-5848.60009765625,-400000.0625,-400000.0625,-400000.0625
250.44077157974243,-222.39999389648438,-4531.9599609375,-7390.02001953125,-400000.0625,-5886.27001953125,-400000.0625,-400000.0625,-400000.0625
250.5790433883667,-205.4199981689453,-4522.419921875,-7376.10009765625,-400000.0625,-5877.68994140625,-400000.0625,-400000.0625,-400000.0625
250.7075035572052,-161.1199951171875,-4480.509765625,-7328.22998046875,-400000.0625,-5832.52978515625,-400000.0625,-400000.0625,-400000.0625
250.81211733818054,-140.24000549316406,-4452.3701171875,-7304.240234375,-400000.0625,-5811.259765625,-400000.0625,-400000.0625,-400000.0625
250.9523684978485,-170.55999755859375,-4475.77978515625,-7332.85009765625,-400000.0625,-5838.919921875,-400000.0625,-400000.0625,-400000.0625
251.09574627876282,-216.6300048828125,-4532.39013671875,-7382.43994140625,-400000.0625,-5880.97998046875,-400000.0625,-400000.0625,-400000.0625
251.221449136734,-218.1999969482422,-4530.47998046875,-7381.10986328125,-400000.0625,-5878.06982421875,-400000.0625,-400000.0625,-400000.0625
251.3692066669464,-168.85000610351562,-4484.4599609375,-7328.60986328125,-400000.0625,-5833.2001953125,-400000.0625,-400000.0625,-400000.0625
251.4947054386139,-142.86000061035156,-4457.14013671875,-7302.0,-400000.0625,-5812.35986328125,-400000.0625,-400000.0625,-400000.0625
251.6265251636505,-169.55999755859375,-4488.66015625,-7335.27978515625,-400000.0625,-5839.8701171875,-400000.0625,-400000.0625,-400000.0625
251.77027702331543,-213.9600067138672,-4525.14013671875,-7380.43994140625,-400000.0625,-5881.02001953125,-400000.0625,-400000.0625,-400000.0625
251.90726494789124,-210.0,-4518.080078125,-7375.0498046875,-400000.0625,-5875.2099609375,-400000.0625,-400000.0625,-400000.0625
252.03760886192322,-162.1699981689453,-4480.4599609375,-7327.7998046875,-400000.0625,-5830.14990234375,-400000.0625,-400000.0625,-400000.0625
252.1457495689392,-137.6199951171875,-4455.419921875,-7303.669921875,-400000.0625,-5814.93017578125,-400000.0625,-400000.0625,-400000.0625
252.28680396080017,-169.47000122070312,-4489.14013671875,-7340.9599609375,-400000.0625,-5848.27001953125,-400000.0625,-400000.0625,-400000.0625
252.4091293811798,-220.25,-4538.72998046875,-7390.60009765625,-400000.0625,-5883.41015625,-400000.0625,-400000.0625,-400000.0625
252.5348083972931,-213.10000610351562,-4531.81005859375,-7381.009765625,-400000.0625,-5870.72021484375,-400000.0625,-400000.0625,-400000.0625
252.66614532470703,-170.7100067138672,-4476.259765625,-7324.41015625,-400000.0625,-5827.85986328125,-400000.0625,-400000.0625,-400000.0625
252.79197883605957,-150.25,-4471.830078125,-7310.9599609375,-400000.0625,-5813.89013671875,-400000.0625,-400000.0625,-400000.0625
252.91741967201233,-188.8300018310547,-4508.35009765625,-7355.169921875,-400000.0625,-5846.5,-400000.0625,-400000.0625,-400000.0625
253.0575671195984,-227.4499969482422,-4544.5,-7391.5498046875,-400000.0625,-5880.39990234375,-400000.0625,-400000.0625,-400000.0625
253.2266547679901,-214.52999877929688,-4527.3798828125,-7374.3798828125,-400000.0625,-5873.10986328125,-400000.0625,-400000.0625,-400000.0625
253.3044924736023,-165.27000427246094,-4478.7900390625,-7322.06982421875,-400000.0625,-5832.33984375,-400000.0625,-400000.0625,-400000.0625
253.34063458442688,-145.1999969482422,-4451.31982421875,-7299.0400390625,-400000.0625,-5812.740234375,-400000.0625,-400000.0625,-400000.0625
253.3885612487793,-177.42999267578125,-4492.240234375,-7336.7099609375,-400000.0625,-5840.2099609375,-400000.0625,-400000.0625,-400000.0625
253.40877985954285,-222.97000122070312,-4541.2099609375,-7386.72998046875,-400000.0625,-5881.830078125,-400000.0625,-400000.0625,-400000.0625
253.43419003486633,-216.1999969482422,-4532.669921875,-7376.9599609375,-400000.0625,-5872.580078125,-400000.0625,-400000.0625,-400000.0625
253.45596885681152,-160.74000549316406,-4486.27978515625,-7324.31005859375,-400000.0625,-5827.81005859375,-400000.0625,-400000.0625,-400000.0625
253.49526619911194,-132.32000732421875,-4455.0400390625,-7300.0,-400000.0625,-5805.830078125,-400000.0625,-400000.0625,-400000.0625
253.51581168174744,-174.7100067138672,-4490.81005859375,-7342.240234375,-400000.0625,-5845.5498046875,-400000.0625,-400000.0625,-400000.0625
253.53792476654053,-229.92999267578125,-4540.009765625,-7393.89013671875,-400000.0625,-5886.4599609375,-400000.0625,-400000.0625,-400000.0625
253.5688328742981,-210.75999450683594,-4528.52001953125,-7376.39013671875,-400000.0625,-5871.72998046875,-400000.0625,-400000.0625,-400000.0625
253.61002898216248,-167.88999938964844,-4488.85009765625,-7329.56005859375,-400000.0625,-5830.18994140625,-400000.0625,-400000.0625,-400000.0625
253.62784814834595,-150.25,-4474.93017578125,-7312.97021484375,-400000.0625,-5811.83984375,-400000.0625,-400000.0625,-400000.0625
253.65195059776306,-180.82000732421875,-4507.97021484375,-7350.5400390625,-400000.0625,-5843.68994140625,-400000.0625,-400000.0625,-400000.0625
253.6683371067047,-226.92999267578125,-4543.5,-7388.4501953125,-400000.0625,-5883.93017578125,-400000.0625,-400000.0625,-400000.0625
253.68971848487854,-219.14999389648438,-4525.14013671875,-7380.2001953125,-400000.0625,-5877.97021484375,-400000.0625,-400000.0625,-400000.0625
253.7260286808014,-169.55999755859375,-4489.990234375,-7331.93994140625,-400000.0625,-5836.68017578125,-400000.0625,-400000.0625,-400000.0625
253.75257849693298,-144.86000061035156,-4475.68994140625,-7308.77001953125,-400000.0625,-5815.31982421875,-400000.0625,-400000.0625,-400000.0625
253.77533102035522,-176.0500030517578,-4496.14990234375,-7336.6201171875,-400000.0625,-5840.39990234375,-400000.0625,-400000.0625,-400000.0625
253.82001066207886,-212.24000549316406,-4530.47998046875,-7377.0498046875,-400000.0625,-5875.35009765625,-400000.0625,-400000.0625,-400000.0625
253.9244737625122,-198.27000427246094,-4528.9501953125,-7369.85009765625,-400000.0625,-5867.39013671875,-400000.0625,-400000.0625,-400000.0625
254.04264402389526,-166.55999755859375,-4494.6201171875,-7333.14013671875,-400000.0625,-5839.6298828125,-400000.0625,-400000.0625,-400000.0625
254.1590883731842,-141.72000122070312,-4476.64013671875,-7313.72998046875,-400000.0625,-5825.14013671875,-400000.0625,-400000.0625,-400000.0625
254.28491926193237,-170.4199981689453,-4503.5400390625,-7337.6201171875,-400000.0625,-5845.8798828125,-400000.0625,-400000.0625,-400000.0625
254.41315960884094,-218.33999633789062,-4541.4501953125,-7387.31005859375,-400000.0625,-5881.5498046875,-400000.0625,-400000.0625,-400000.0625
254.51655340194702,-214.14999389648438,-4539.58984375,-7383.5400390625,-400000.0625,-5877.02001953125,-400000.0625,-400000.0625,-400000.0625
254.63830661773682,-170.22999572753906,-4497.669921875,-7335.9501953125,-400000.0625,-5836.68017578125,-400000.0625,-400000.0625,-400000.0625
254.75816559791565,-144.10000610351562,-4466.14990234375,-7306.77001953125,-400000.0625,-5813.06982421875,-400000.0625,-400000.0625,-400000.0625
254.88892722129822,-164.27000427246094,-4497.0,-7334.27978515625,-400000.0625,-5838.25,-400000.0625,-400000.0625,-400000.0625
255.01100540161133,-204.61000061035156,-4537.8701171875,-7380.43994140625,-400000.0625,-5874.6298828125,-400000.0625,-400000.0625,-400000.0625
255.1409306526184,-210.0,-4537.009765625,-7382.25,-400000.0625,-5878.8798828125,-400000.0625,-400000.0625,-400000.0625
255.2682909965515,-171.17999267578125,-4503.81982421875,-7341.43017578125,-400000.0625,-5843.740234375,-400000.0625,-400000.0625,-400000.0625
255.39062428474426,-143.14999389648438,-4480.22021484375,-7316.72998046875,-400000.0625,-5819.85009765625,-400000.0625,-400000.0625,-400000.0625
255.50548148155212,-169.61000061035156,-4500.490234375,-7344.009765625,-400000.0625,-5845.39990234375,-400000.0625,-400000.0625,-400000.0625
255.62351250648499,-206.57000732421875,-4542.2099609375,-7384.58984375,-400000.0625,-5876.64013671875,-400000.0625,-400000.0625,-400000.0625
255.7726275920868,-206.8000030517578,-4537.2001953125,-7382.39013671875,-400000.0625,-5875.2099609375,-400000.0625,-400000.0625,-400000.0625
255.88990569114685,-170.27999877929688,-4497.33984375,-7337.89990234375,-400000.0625,-5839.490234375,-400000.0625,-400000.0625,-400000.0625
256.02112793922424,-140.24000549316406,-4472.919921875,-7308.81982421875,-400000.0625,-5808.259765625,-400000.0625,-400000.0625,-400000.0625
256.1676893234253,-166.61000061035156,-4499.47998046875,-7337.43017578125,-400000.0625,-5834.9599609375,-400000.0625,-400000.0625,-400000.0625
256.3210380077362,-201.32000732421875,-4528.9501953125,-7372.14013671875,-400000.0625,-5869.72021484375,-400000.0625,-400000.0625,-400000.0625
256.44595098495483,-199.55999755859375,-4530.81005859375,-7372.81005859375,-400000.0625,-5867.43017578125,-400000.0625,-400000.0625,-400000.0625
256.59440445899963,-184.25,-4519.419921875,-7355.02001953125,-400000.0625,-5850.02978515625,-400000.0625,-400000.0625,-400000.0625
256.7208728790283,-162.74000549316406,-4501.490234375,-7335.0,-400000.0625,-5836.580078125,-400000.0625,-400000.0625,-400000.0625
256.86938071250916,-168.32000732421875,-4498.81982421875,-7335.7099609375,-400000.0625,-5835.14990234375,-400000.0625,-400000.0625,-400000.0625
256.9932360649109,-184.67999267578125,-4508.4501953125,-7347.2001953125,-400000.0625,-5847.64990234375,-400000.0625,-400000.0625,-400000.0625
257.12649512290955,-193.5500030517578,-4512.83984375,-7356.02001953125,-400000.0625,-5853.3701171875,-400000.0625,-400000.0625,-400000.0625
257.2687392234802,-185.25,-4503.77978515625,-7348.72998046875,-400000.0625,-5855.75,-400000.0625,-400000.0625,-400000.0625
257.38513231277466,-173.52000427246094,-4502.6298828125,-7344.33984375,-400000.0625,-5845.830078125,-400000.0625,-400000.0625,-400000.0625
257.5262088775635,-176.9499969482422,-4505.6298828125,-7345.580078125,-400000.0625,-5845.06982421875,-400000.0625,-400000.0625,-400000.0625
257.6610836982727,-196.97999572753906,-4506.06005859375,-7352.06982421875,-400000.0625,-5850.64990234375,-400000.0625,-400000.0625,-400000.0625
257.7949900627136,-193.63999938964844,-4518.22021484375,-7356.4501953125,-400000.0625,-5854.22998046875,-400000.0625,-400000.0625,-400000.0625
257.9319660663605,-173.13999938964844,-4499.8701171875,-7342.52978515625,-400000.0625,-5842.97021484375,-400000.0625,-400000.0625,-400000.0625
258.06753301620483,-164.3699951171875,-4499.0498046875,-7339.43017578125,-400000.0625,-5837.39013671875,-400000.0625,-400000.0625,-400000.0625
258.2075905799866,-180.2899932861328,-4508.72998046875,-7348.2998046875,-400000.0625,-5846.4501953125,-400000.0625,-400000.0625,-400000.0625
258.3321530818939,-203.4199981689453,-4516.22021484375,-7358.169921875,-400000.0625,-5857.89990234375,-400000.0625,-400000.0625,-400000.0625
258.4646360874176,-202.75,-4524.759765625,-7364.31982421875,-400000.0625,-5861.14013671875,-400000.0625,-400000.0625,-400000.0625
258.59800028800964,-191.2100067138672,-4509.64013671875,-7350.490234375,-400000.0625,-5853.83984375,-400000.0625,-400000.0625,-400000.0625
258.71918654441833,-176.6699981689453,-4488.89990234375,-7333.47021484375,-400000.0625,-5839.490234375,-400000.0625,-400000.0625,-400000.0625
258.8506872653961,-177.9600067138672,-4485.990234375,-7331.75,-400000.0625,-5837.5400390625,-400000.0625,-400000.0625,-400000.0625
258.9610221385956,-182.5800018310547,-4503.25,-7343.580078125,-400000.0625,-5846.35986328125,-400000.0625,-400000.0625,-400000.0625
259.0050630569458,-184.82000732421875,-4511.02001953125,-7351.10986328125,-400000.0625,-5853.93994140625,-400000.0625,-400000.0625,-400000.0625
259.0313775539398,-188.39999389648438,-4507.72998046875,-7348.81982421875,-400000.0625,-5850.64990234375,-400000.0625,-400000.0625,-400000.0625
259.0562541484833,-172.57000732421875,-4495.33984375,-7340.0498046875,-400000.0625,-5842.16015625,-400000.0625,-400000.0625,-400000.0625
259.0783541202545,-186.16000366210938,-4501.33984375,-7342.0498046875,-400000.0625,-5846.7900390625,-400000.0625,-400000.0625,-400000.0625
259.1295609474182,-199.7899932861328,-4509.02001953125,-7354.5498046875,-400000.0625,-5856.60986328125,-400000.0625,-400000.0625,-400000.0625
259.14857268333435,-193.4499969482422,-4516.7900390625,-7358.31005859375,-400000.0625,-5858.22998046875,-400000.0625,-400000.0625,-400000.0625
259.1781313419342,-187.67999267578125,-4502.919921875,-7347.06005859375,-400000.0625,-5850.83984375,-400000.0625,-400000.0625,-400000.0625
259.20138907432556,-173.66000366210938,-4501.81982421875,-7341.0498046875,-400000.0625,-5845.4501953125,-400000.0625,-400000.0625,-400000.0625
259.2494447231293,-179.42999267578125,-4505.10986328125,-7341.47998046875,-400000.0625,-5846.35986328125,-400000.0625,-400000.0625,-400000.0625
259.2710144519806,-187.97000122070312,-4507.64013671875,-7346.72998046875,-400000.0625,-5852.02978515625,-400000.0625,-400000.0625,-400000.0625
259.29285955429077,-190.11000061035156,-4504.2998046875,-7350.58984375,-400000.0625,-5855.66015625,-400000.0625,-400000.0625,-400000.0625
259.3140559196472,-184.00999450683594,-4510.02001953125,-7350.490234375,-400000.0625,-5857.27978515625,-400000.0625,-400000.0625,-400000.0625
259.35371828079224,-176.86000061035156,-4494.3798828125,-7340.72021484375,-400000.0625,-5850.64990234375,-400000.0625,-400000.0625,-400000.0625
259.37215781211853,-186.58999633789062,-4492.08984375,-7338.18994140625,-400000.0625,-5842.8798828125,-400000.0625,-400000.0625,-400000.0625
259.3980619907379,-196.22000122070312,-4513.5,-7351.5400390625,-400000.0625,-5856.7998046875,-400000.0625,-400000.0625,-400000.0625
259.42293548583984,-194.1699981689453,-4506.64013671875,-7351.2099609375,-400000.0625,-5858.990234375,-400000.0625,-400000.0625,-400000.0625
259.5060861110687,-176.0500030517578,-4509.31005859375,-7353.35009765625,-400000.0625,-5850.1298828125,-400000.0625,-400000.0625,-400000.0625
259.5706241130829,-173.75999450683594,-4499.77001953125,-7341.81005859375,-400000.0625,-5842.06982421875,-400000.0625,-400000.0625,-400000.0625
259.68813705444336,-174.7100067138672,-4494.91015625,-7338.18994140625,-400000.0625,-5844.31005859375,-400000.0625,-400000.0625,-400000.0625
259.8040421009064,-192.07000732421875,-4501.8701171875,-7352.259765625,-400000.0625,-5853.56005859375,-400000.0625,-400000.0625,-400000.0625
259.9141380786896,-199.7899932861328,-4508.58984375,-7356.740234375,-400000.0625,-5859.18017578125,-400000.0625,-400000.0625,-400000.0625
260.0331914424896,-182.82000732421875,-4495.81005859375,-7338.81005859375,-400000.0625,-5848.93017578125,-400000.0625,-400000.0625,-400000.0625
260.14317536354065,-179.5800018310547,-4485.1298828125,-7329.18017578125,-400000.0625,-5840.35009765625,-400000.0625,-400000.0625,-400000.0625
260.27967643737793,-184.72999572753906,-4493.14013671875,-7335.22998046875,-400000.0625,-5847.5498046875,-400000.0625,-400000.0625,-400000.0625
260.3958115577698,-191.97000122070312,-4508.06982421875,-7348.35009765625,-400000.0625,-5854.75,-400000.0625,-400000.0625,-400000.0625
260.5174057483673,-194.1199951171875,-4495.56982421875,-7345.06005859375,-400000.0625,-5854.080078125,-400000.0625,-400000.0625,-400000.0625
260.6390178203583,-182.82000732421875,-4492.47021484375,-7339.81005859375,-400000.0625,-5851.4599609375,-400000.0625,-400000.0625,-400000.0625
260.76609539985657,-172.9499969482422,-4489.3701171875,-7329.75,-400000.0625,-5843.1201171875,-400000.0625,-400000.0625,-400000.0625
260.8805959224701,-181.47999572753906,-4491.18994140625,-7335.27978515625,-400000.0625,-5843.259765625,-400000.0625,-400000.0625,-400000.0625
261.01388025283813,-197.83999633789062,-4499.33984375,-7351.919921875,-400000.0625,-5856.08984375,-400000.0625,-400000.0625,-400000.0625
261.14125967025757,-197.27000427246094,-4506.830078125,-7352.93017578125,-400000.0625,-5857.56005859375,-400000.0625,-400000.0625,-400000.0625
261.2778630256653,-177.86000061035156,-4495.47998046875,-7338.240234375,-400000.0625,-5847.259765625,-400000.0625,-400000.0625,-400000.0625
261.4073178768158,-171.7100067138672,-4481.27001953125,-7324.509765625,-400000.0625,-5836.8701171875,-400000.0625,-400000.0625,-400000.0625
261.52603793144226,-183.67999267578125,-4499.25,-7338.3798828125,-400000.0625,-5842.97021484375,-400000.0625,-400000.0625,-400000.0625
261.6448130607605,-193.97999572753906,-4507.39990234375,-7350.10986328125,-400000.0625,-5856.7998046875,-400000.0625,-400000.0625,-400000.0625
261.7581219673157,-194.63999938964844,-4504.2998046875,-7350.2099609375,-400000.0625,-5859.419921875,-400000.0625,-400000.0625,-400000.0625
261.88299918174744,-186.58999633789062,-4499.580078125,-7343.14990234375,-400000.0625,-5848.35986328125,-400000.0625,-400000.0625,-400000.0625
262.01482820510864,-180.52999877929688,-4493.7099609375,-7335.89990234375,-400000.0625,-5842.39990234375,-400000.0625,-400000.0625,-400000.0625
262.13317108154297,-187.63999938964844,-4508.2099609375,-7339.52978515625,-400000.0625,-5842.97021484375,-400000.0625,-400000.0625,-400000.0625
262.26830410957336,-197.74000549316406,-4516.4599609375,-7349.5400390625,-400000.0625,-5852.080078125,-400000.0625,-400000.0625,-400000.0625
262.39888167381287,-204.4199981689453,-4508.4501953125,-7352.10986328125,-400000.0625,-5854.4599609375,-400000.0625,-400000.0625,-400000.0625
262.5474078655243,-187.11000061035156,-4510.740234375,-7346.580078125,-400000.0625,-5845.8798828125,-400000.0625,-400000.0625,-400000.0625
262.6723213195801,-167.66000366210938,-4498.33984375,-7332.66015625,-400000.0625,-5835.33984375,-400000.0625,-400000.0625,-400000.0625
262.80029702186584,-178.42999267578125,-4507.39990234375,-7336.0,-400000.0625,-5845.06982421875,-400000.0625,-400000.0625,-400000.0625
262.9254148006439,-195.1699981689453,-4512.68994140625,-7352.93017578125,-400000.0625,-5849.41015625,-400000.0625,-400000.0625,-400000.0625
263.05009484291077,-201.1300048828125,-4520.60986328125,-7356.35986328125,-400000.0625,-5848.740234375,-400000.0625,-400000.0625,-400000.0625
263.18385577201843,-193.36000061035156,-4521.18017578125,-7350.02001953125,-400000.0625,-5839.8701171875,-400000.0625,-400000.0625,-400000.0625
263.32707166671753,-182.44000244140625,-4513.259765625,-7338.759765625,-400000.0625,-5829.2900390625,-400000.0625,-400000.0625,-400000.0625
263.44376277923584,-187.8300018310547,-4514.740234375,-7346.490234375,-400000.0625,-5838.2001953125,-400000.0625,-400000.0625,-400000.0625
263.58261704444885,-205.55999755859375,-4521.7001953125,-7355.259765625,-400000.0625,-5850.1298828125,-400000.0625,-400000.0625,-400000.0625
263.699990272522,-200.88999938964844,-4517.27001953125,-7354.06982421875,-400000.0625,-5846.4501953125,-400000.0625,-400000.0625,-400000.0625
263.83397126197815,-181.82000732421875,-4508.10986328125,-7342.43017578125,-400000.0625,-5836.06005859375,-400000.0625,-400000.0625,-400000.0625
263.9749493598938,-187.11000061035156,-4512.06982421875,-7342.009765625,-400000.0625,-5837.5400390625,-400000.0625,-400000.0625,-400000.0625
264.09149527549744,-201.8000030517578,-4521.080078125,-7353.259765625,-400000.0625,-5845.97998046875,-400000.0625,-400000.0625,-400000.0625
264.22455286979675,-202.3699951171875,-4538.35009765625,-7362.4599609375,-400000.0625,-5855.60986328125,-400000.0625,-400000.0625,-400000.0625
264.34824419021606,-200.83999633789062,-4537.43994140625,-7363.18017578125,-400000.0625,-5853.7998046875,-400000.0625,-400000.0625,-400000.0625
264.47216415405273,-191.8800048828125,-4522.75,-7353.02001953125,-400000.0625,-5841.5400390625,-400000.0625,-400000.0625,-400000.0625
264.5994529724121,-186.00999450683594,-4505.25,-7339.85986328125,-400000.0625,-5827.81005859375,-400000.0625,-400000.0625,-400000.0625
264.6524705886841,-192.5,-4518.4599609375,-7347.6298828125,-400000.0625,-5837.16015625,-400000.0625,-400000.0625,-400000.0625
264.6805703639984,-206.8000030517578,-4529.330078125,-7360.31982421875,-400000.0625,-5851.93994140625,-400000.0625,-400000.0625,-400000.0625
264.70762753486633,-203.22999572753906,-4532.43017578125,-7361.75,-400000.0625,-5850.60009765625,-400000.0625,-400000.0625,-400000.0625
264.75018787384033,-191.5500030517578,-4522.27978515625,-7348.6298828125,-400000.0625,-5837.6298828125,-400000.0625,-400000.0625,-400000.0625
264.76858592033386,-176.52999877929688,-4518.990234375,-7342.14990234375,-400000.0625,-5840.8701171875,-400000.0625,-400000.0625,-400000.0625
264.7904233932495,-194.60000610351562,-4510.740234375,-7343.14990234375,-400000.0625,-5842.259765625,-400000.0625,-400000.0625,-400000.0625
264.81780099868774,-206.08999633789062,-4528.6201171875,-7355.93017578125,-400000.0625,-5846.06982421875,-400000.0625,-400000.0625,-400000.0625
264.87049889564514,-196.36000061035156,-4539.8701171875,-7358.64990234375,-400000.0625,-5848.4599609375,-400000.0625,-400000.0625,-400000.0625
264.8954493999481,-190.63999938964844,-4525.47021484375,-7350.97021484375,-400000.0625,-5845.740234375,-400000.0625,-400000.0625,-400000.0625
264.917418718338,-183.49000549316406,-4526.330078125,-7347.72998046875,-400000.0625,-5839.43994140625,-400000.0625,-400000.0625,-400000.0625
264.93834161758423,-187.11000061035156,-4529.72021484375,-7352.31005859375,-400000.0625,-5841.16015625,-400000.0625,-400000.0625,-400000.0625
264.97926902770996,-198.0800018310547,-4526.27978515625,-7355.35986328125,-400000.0625,-5846.68994140625,-400000.0625,-400000.0625,-400000.0625
265.001962184906,-198.02999877929688,-4536.490234375,-7356.97998046875,-400000.0625,-5852.080078125,-400000.0625,-400000.0625,-400000.0625
265.0229740142822,-182.6300048828125,-4535.009765625,-7354.39990234375,-400000.0625,-5847.83984375,-400000.0625,-400000.0625,-400000.0625
265.04744696617126,-180.91000366210938,-4524.27978515625,-7343.25,-400000.0625,-5839.35009765625,-400000.0625,-400000.0625,-400000.0625
265.08288192749023,-179.14999389648438,-4523.85009765625,-7344.490234375,-400000.0625,-5844.39990234375,-400000.0625,-400000.0625,-400000.0625
265.1261420249939,-189.8300018310547,-4533.580078125,-7353.93017578125,-400000.0625,-5846.2099609375,-400000.0625,-400000.0625,-400000.0625
265.1872646808624,-204.22999572753906,-4538.2998046875,-7356.83984375,-400000.0625,-5849.35986328125,-400000.0625,-400000.0625,-400000.0625
265.30623292922974,-197.60000610351562,-4528.330078125,-7354.77978515625,-400000.0625,-5846.5498046875,-400000.0625,-400000.0625,-400000.0625
265.4338893890381,-189.8300018310547,-4528.47998046875,-7348.5400390625,-400000.0625,-5841.72998046875,-400000.0625,-400000.0625,-400000.0625
265.5309567451477,-187.35000610351562,-4530.9501953125,-7345.06005859375,-400000.0625,-5839.009765625,-400000.0625,-400000.0625,-400000.0625
265.58510184288025,-193.7899932861328,-4539.009765625,-7353.02001953125,-400000.0625,-5846.4501953125,-400000.0625,-400000.0625,-400000.0625
265.6926302909851,-209.80999755859375,-4549.5,-7365.0400390625,-400000.0625,-5852.509765625,-400000.0625,-400000.0625,-400000.0625
265.80716156959534,-209.6199951171875,-4529.91015625,-7354.64013671875,-400000.0625,-5849.080078125,-400000.0625,-400000.0625,-400000.0625
265.93927907943726,-191.5,-4523.08984375,-7343.9599609375,-400000.0625,-5838.10986328125,-400000.0625,-400000.0625,-400000.0625
266.05464816093445,-195.83999633789062,-4532.81005859375,-7344.8701171875,-400000.0625,-5835.14990234375,-400000.0625,-400000.0625,-400000.0625
266.1690137386322,-199.7899932861328,-4539.10986328125,-7361.27001953125,-400000.0625,-5852.1298828125,-400000.0625,-400000.0625,-400000.0625
266.30447268486023,-207.3300018310547,-4546.06982421875,-7366.3701171875,-400000.0625,-5858.52001953125,-400000.0625,-400000.0625,-400000.0625
266.4224314689636,-199.60000610351562,-4535.2900390625,-7358.740234375,-400000.0625,-5848.83984375,-400000.0625,-400000.0625,-400000.0625
266.55563831329346,-182.2899932861328,-4539.16015625,-7356.02001953125,-400000.0625,-5847.7900390625,-400000.0625,-400000.0625,-400000.0625
266.68429589271545,-192.69000244140625,-4546.60009765625,-7351.490234375,-400000.0625,-5847.259765625,-400000.0625,-400000.0625,-400000.0625
266.82832527160645,-202.0399932861328,-4539.43994140625,-7361.60009765625,-400000.0625,-5848.22021484375,-400000.0625,-400000.0625,-400000.0625
266.97038888931274,-210.19000244140625,-4544.4501953125,-7372.18994140625,-400000.0625,-5847.02978515625,-400000.0625,-400000.0625,-400000.0625
267.0883958339691,-205.3300018310547,-4557.7998046875,-7369.56982421875,-400000.0625,-5852.64990234375,-400000.0625,-400000.0625,-400000.0625
267.2215464115143,-189.4499969482422,-4538.72998046875,-7347.43994140625,-400000.0625,-5837.5400390625,-400000.0625,-400000.0625,-400000.0625
267.35706210136414,-191.30999755859375,-4530.52978515625,-7343.669921875,-400000.0625,-5838.43994140625,-400000.0625,-400000.0625,-400000.0625
267.47395420074463,-199.4600067138672,-4547.64013671875,-7361.60009765625,-400000.0625,-5856.47021484375,-400000.0625,-400000.0625,-400000.0625
267.6042859554291,-219.14999389648438,-4550.5498046875,-7361.75,-400000.0625,-5850.60009765625,-400000.0625,-400000.0625,-400000.0625
267.73736906051636,-212.72000122070312,-4545.5498046875,-7353.93017578125,-400000.0625,-5844.5,-400000.0625,-400000.0625,-400000.0625
267.8827414512634,-193.30999755859375,-4538.580078125,-7348.58984375,-400000.0625,-5839.009765625,-400000.0625,-400000.0625,-400000.0625
268.01734352111816,-196.7899932861328,-4543.02001953125,-7353.259765625,-400000.0625,-5845.1201171875,-400000.0625,-400000.0625,-400000.0625
268.16266798973083,-205.85000610351562,-4553.3701171875,-7362.22021484375,-400000.0625,-5852.7998046875,-400000.0625,-400000.0625,-400000.0625
268.30039286613464,-209.3800048828125,-4563.0,-7361.64990234375,-400000.0625,-5850.02978515625,-400000.0625,-400000.0625,-400000.0625
268.4352912902832,-194.41000366210938,-4536.580078125,-7347.919921875,-400000.0625,-5839.10986328125,-400000.0625,-400000.0625,-400000.0625
268.56955766677856,-186.3000030517578,-4528.330078125,-7341.91015625,-400000.0625,-5838.72998046875,-400000.0625,-400000.0625,-400000.0625
268.6993565559387,-185.1999969482422,-4542.16015625,-7344.52978515625,-400000.0625,-5844.58984375,-400000.0625,-400000.0625,-400000.0625
268.84401869773865,-195.5500030517578,-4549.31005859375,-7354.93017578125,-400000.0625,-5851.1298828125,-400000.0625,-400000.0625,-400000.0625
268.969518661499,-194.97999572753906,-4562.08984375,-7363.990234375,-400000.0625,-5854.509765625,-400000.0625,-400000.0625,-400000.0625
269.1054708957672,-198.4600067138672,-4545.58984375,-7352.8798828125,-400000.0625,-5845.5,-400000.0625,-400000.0625,-400000.0625
269.2565622329712,-191.74000549316406,-4525.56982421875,-7338.330078125,-400000.0625,-5833.10009765625,-400000.0625,-400000.0625,-400000.0625
269.3925139904022,-198.83999633789062,-4543.58984375,-7344.6298828125,-400000.0625,-5834.43994140625,-400000.0625,-400000.0625,-400000.0625
269.520792722702,-203.8000030517578,-4553.1298828125,-7357.93017578125,-400000.0625,-5848.02978515625,-400000.0625,-400000.0625,-400000.0625
269.65027689933777,-207.27999877929688,-4563.27978515625,-7367.89990234375,-400000.0625,-5854.4599609375,-400000.0625,-400000.0625,-400000.0625
269.7766225337982,-204.08999633789062,-4555.22998046875,-7354.39990234375,-400000.0625,-5845.1201171875,-400000.0625,-400000.0625,-400000.0625
269.91619515419006,-177.3800048828125,-4545.68994140625,-7340.81005859375,-400000.0625,-5833.9599609375,-400000.0625,-400000.0625,-400000.0625
270.07035732269287,-179.0500030517578,-4543.830078125,-7347.580078125,-400000.0625,-5842.2099609375,-400000.0625,-400000.0625,-400000.0625
270.22808957099915,-204.22999572753906,-4557.509765625,-7365.7998046875,-400000.0625,-5853.83984375,-400000.0625,-400000.0625,-400000.0625
270.3131341934204,-210.91000366210938,-4560.7998046875,-7363.93994140625,-400000.0625,-5852.41015625,-400000.0625,-400000.0625,-400000.0625
270.3391525745392,-195.92999267578125,-4542.2099609375,-7349.919921875,-400000.0625,-5844.2099609375,-400000.0625,-400000.0625,-400000.0625
