time,ch1,ch2,ch3,ch4,ch5,ch6,ch7,ch8
45.89758539199829,-400000.0625,-400000.0625,-400000.0625,-400000.0625,-400000.0625,-385493.84375,-400000.0625,-400000.0625
45.906681060791016,-400000.0625,-400000.0625,-400000.0625,-400000.0625,-400000.0625,-385369.6875,-400000.0625,-400000.0625
45.91061449050903,-400000.0625,-400000.0625,-400000.0625,-400000.0625,-400000.0625,-380806.25,-400000.0625,-400000.0625
45.91062116622925,-400000.0625,-400000.0625,-400000.0625,-400000.0625,-400000.0625,-377879.25,-400000.0625,-400000.0625
45.910624980926514,-400000.0625,-400000.0625,-400000.0625,-400000.0625,-400000.0625,-380271.1875,-400000.0625,-400000.0625
45.9106285572052,-400000.0625,-400000.0625,-400000.0625,-400000.0625,-400000.0625,-384314.6875,-400000.0625,-400000.0625
45.91063165664673,-400000.0625,-400000.0625,-400000.0625,-400000.0625,-400000.0625,-384144.78125,-400000.0625,-400000.0625
45.910634994506836,-400000.0625,-400000.0625,-400000.0625,-400000.0625,-400000.0625,-379671.09375,-400000.0625,-400000.0625
45.910638093948364,-400000.0625,-400000.0625,-400000.0625,-400000.0625,-400000.0625,-376839.875,-400000.0625,-400000.0625
45.91064143180847,-400000.0625,-400000.0625,-400000.0625,-400000.0625,-400000.0625,-379191.71875,-400000.0625,-400000.0625
45.91064476966858,-400000.0625,-400000.0625,-400000.0625,-400000.0625,-400000.0625,-383161.6875,-400000.0625,-400000.0625
45.91064810752869,-400000.0625,-400000.0625,-400000.0625,-400000.0625,-400000.0625,-382928.84375,-400000.0625,-400000.0625
45.910651206970215,-400000.0625,-400000.0625,-400000.0625,-400000.0625,-400000.0625,-378547.1875,-400000.0625,-400000.0625
45.91065430641174,-400000.0625,-400000.0625,-400000.0625,-400000.0625,-400000.0625,-375772.5625,-400000.0625,-400000.0625
45.91065740585327,-400000.0625,-400000.0625,-400000.0625,-400000.0625,-400000.0625,-378041.03125,-400000.0625,-400000.0625
45.91066122055054,-400000.0625,-400000.0625,-400000.0625,-400000.0625,-400000.0625,-381908.9375,-400000.0625,-400000.0625
45.947916984558105,-400000.0625,-400000.0625,-400000.0625,-400000.0625,-400000.0625,-381688.6875,-400000.0625,-400000.0625
45.953171253204346,-400000.0625,-400000.0625,-400000.0625,-400000.0625,-400000.0625,-377446.78125,-400000.0625,-400000.0625
45.95769238471985,-400000.0625,-400000.0625,-400000.0625,-400000.0625,-400000.0625,-374749.03125,-400000.0625,-400000.0625
45.95770239830017,-400000.0625,-400000.0625,-400000.0625,-400000.0625,-400000.0625,-376909.5,-400000.0625,-400000.0625
45.957706451416016,-400000.0625,-400000.0625,-400000.0625,-400000.0625,-400000.0625,-380687.625,-400000.0625,-400000.0625
45.95771050453186,-400000.0625,-400000.0625,-400000.0625,-400000.0625,-400000.0625,-380545.5625,-400000.0625,-400000.0625
45.957714557647705,-400000.0625,-400000.0625,-400000.0625,-400000.0625,-400000.0625,-376465.3125,-400000.0625,-400000.0625
45.95771861076355,-400000.0625,-400000.0625,-400000.0625,-400000.0625,-400000.0625,-373751.53125,-400000.0625,-400000.0625
45.957722663879395,-400000.0625,-400000.0625,-400000.0625,-400000.0625,-400000.0625,-375763.75,-400000.0625,-400000.0625
45.95772671699524,-400000.0625,-400000.0625,-400000.0625,-400000.0625,-400000.0625,-379410.25,-400000.0625,-400000.0625
45.95773100852966,-400000.0625,-400000.0625,-400000.0625,-400000.0625,-400000.0625,-379392.375,-400000.0625,-400000.0625
45.95773506164551,-400000.0625,-400000.0625,-400000.0625,-400000.0625,-400000.0625,-375434.78125,-400000.0625,-400000.0625
45.95773887634277,-400000.0625,-400000.0625,-400000.0625,-400000.0625,-400000.0625,-372615.25,-400000.0625,-400000.0625
45.9577431678772,-400000.0625,-400000.0625,-400000.0625,-400000.0625,-400000.0625,-374529.0625,-400000.0625,-400000.0625
45.95774698257446,-400000.0625,-400000.0625,-400000.0625,-400000.0625,-400000.0625,-378208.875,-400000.0625,-400000.0625
45.95775079727173,-400000.0625,-400000.0625,-400000.0625,-400000.0625,-400000.0625,-378384.4375,-400000.0625,-400000.0625
46.01421642303467,-400000.0625,-400000.0625,-400000.0625,-400000.0625,-400000.0625,-374513.375,-400000.0625,-400000.0625
46.02322959899902,-400000.0625,-400000.0625,-400000.0625,-400000.0625,-400000.0625,-371531.71875,-400000.0625,-400000.0625
46.02760934829712,-400000.0625,-400000.0625,-400000.0625,-400000.0625,-400000.0625,-373295.90625,-400000.0625,-400000.0625
46.02761745452881,-400000.0625,-400000.0625,-400000.0625,-400000.0625,-400000.0625,-377017.03125,-400000.0625,-400000.0625
46.02762198448181,-400000.0625,-400000.0625,-400000.0625,-400000.0625,-400000.0625,-377346.9375,-400000.0625,-400000.0625
46.027626037597656,-400000.0625,-400000.0625,-400000.0625,-400000.0625,-400000.0625,-373508.03125,-400000.0625,-400000.0625
46.027629375457764,-400000.0625,-400000.0625,-400000.0625,-400000.0625,-400000.0625,-370382.40625,-400000.0625,-400000.0625
46.02763319015503,-400000.0625,-400000.0625,-400000.0625,-400000.0625,-400000.0625,-372015.9375,-400000.0625,-400000.0625
46.027636766433716,-400000.0625,-400000.0625,-400000.0625,-400000.0625,-400000.0625,-375823.40625,-400000.0625,-400000.0625
46.02764058113098,-400000.0625,-400000.0625,-400000.0625,-400000.0625,-400000.0625,-376292.3125,-400000.0625,-400000.0625
46.02764415740967,-400000.0625,-400000.0625,-400000.0625,-400000.0625,-400000.0625,-372410.375,-400000.0625,-400000.0625
46.027647733688354,-400000.0625,-400000.0625,-400000.0625,-400000.0625,-400000.0625,-369251.5,-400000.0625,-400000.0625
46.02765130996704,-400000.0625,-400000.0625,-400000.0625,-400000.0625,-400000.0625,-370824.46875,-400000.0625,-400000.0625
46.02765488624573,-400000.0625,-400000.0625,-400000.0625,-400000.0625,-400000.0625,-374710.1875,-400000.0625,-400000.0625
46.027658462524414,-400000.0625,-400000.0625,-400000.0625,-400000.0625,-400000.0625,-375238.40625,-400000.0625,-400000.0625
46.0276620388031,-400000.0625,-400000.0625,-400000.0625,-400000.0625,-400000.0625,-371299.15625,-400000.0625,-400000.0625
46.114081621170044,-400000.0625,-400000.0625,-400000.0625,-400000.0625,-400000.0625,-368033.40625,-400000.0625,-400000.0625
46.11964297294617,-400000.0625,-400000.0625,-400000.0625,-400000.0625,-400000.0625,-369566.6875,-400000.0625,-400000.0625
46.12836503982544,-400000.0625,-400000.0625,-400000.0625,-400000.0625,-400000.0625,-373545.6875,-400000.0625,-400000.0625
46.13263821601868,-400000.0625,-400000.0625,-400000.0625,-400000.0625,-400000.0625,-374183.9375,-400000.0625,-400000.0625
46.132646560668945,-400000.0625,-400000.0625,-400000.0625,-400000.0625,-400000.0625,-370195.15625,-400000.0625,-400000.0625
46.132651567459106,-400000.0625,-400000.0625,-400000.0625,-400000.0625,-400000.0625,-366798.5,-400000.0625,-400000.0625
46.13265538215637,-400000.0625,-400000.0625,-400000.0625,-400000.0625,-400000.0625,-368338.8125,-400000.0625,-400000.0625
46.13265895843506,-400000.0625,-400000.0625,-400000.0625,-400000.0625,-400000.0625,-372458.875,-400000.0625,-400000.0625
46.132662773132324,-400000.0625,-400000.0625,-400000.0625,-400000.0625,-400000.0625,-373136.40625,-400000.0625,-400000.0625
46.13266634941101,-400000.0625,-400000.0625,-400000.0625,-400000.0625,-400000.0625,-369063.75,-400000.0625,-400000.0625
46.1326699256897,-400000.0625,-400000.0625,-400000.0625,-400000.0625,-400000.0625,-365538.4375,-400000.0625,-400000.0625
46.132673501968384,-400000.0625,-400000.0625,-400000.0625,-400000.0625,-400000.0625,-367180.71875,-400000.0625,-400000.0625
46.13267731666565,-400000.0625,-400000.0625,-400000.0625,-400000.0625,-400000.0625,-371469.34375,-400000.0625,-400000.0625
46.132681131362915,-400000.0625,-400000.0625,-400000.0625,-400000.0625,-400000.0625,-372117.03125,-400000.0625,-400000.0625
46.13268566131592,-400000.0625,-400000.0625,-400000.0625,-400000.0625,-400000.0625,-367935.9375,-400000.0625,-400000.0625
46.132689476013184,-400000.0625,-400000.0625,-400000.0625,-400000.0625,-400000.0625,-364341.4375,-400000.0625,-400000.0625
46.13269329071045,-400000.0625,-400000.0625,-400000.0625,-400000.0625,-400000.0625,-366102.6875,-400000.0625,-400000.0625
46.13269758224487,-400000.0625,-400000.0625,-400000.0625,-400000.0625,-400000.0625,-370468.21875,-400000.0625,-400000.0625
46.13270139694214,-400000.0625,-400000.0625,-400000.0625,-400000.0625,-400000.0625,-371031.28125,-400000.0625,-400000.0625
46.13270545005798,-400000.0625,-400000.0625,-400000.0625,-400000.0625,-400000.0625,-366773.6875,-400000.0625,-400000.0625
46.13270902633667,-400000.0625,-400000.0625,-400000.0625,-400000.0625,-400000.0625,-363203.8125,-400000.0625,-400000.0625
46.132712602615356,-400000.0625,-400000.0625,-400000.0625,-400000.0625,-400000.0625,-365043.0625,-400000.0625,-400000.0625
46.132715940475464,-400000.0625,-400000.0625,-400000.0625,-400000.0625,-400000.0625,-369413.90625,-400000.0625,-400000.0625
46.13271951675415,-400000.0625,-400000.0625,-400000.0625,-400000.0625,-400000.0625,-369887.4375,-400000.0625,-400000.0625
46.13272309303284,-400000.0625,-400000.0625,-400000.0625,-400000.0625,-400000.0625,-365548.75,-400000.0625,-400000.0625
46.13272666931152,-400000.0625,-400000.0625,-400000.0625,-400000.0625,-400000.0625,-362032.96875,-400000.0625,-400000.0625
46.13273000717163,-400000.0625,-400000.0625,-400000.0625,-400000.0625,-400000.0625,-363938.8125,-400000.0625,-400000.0625
46.13273358345032,-400000.0625,-400000.0625,-400000.0625,-400000.0625,-400000.0625,-368277.875,-400000.0625,-400000.0625
46.132737159729004,-400000.0625,-400000.0625,-400000.0625,-400000.0625,-400000.0625,-368703.28125,-400000.0625,-400000.0625
46.13274168968201,-400000.0625,-400000.0625,-400000.0625,-400000.0625,-400000.0625,-364323.625,-400000.0625,-400000.0625
46.13274550437927,-400000.0625,-400000.0625,-400000.0625,-400000.0625,-400000.0625,-360889.625,-400000.0625,-400000.0625
46.132749795913696,-400000.0625,-400000.0625,-400000.0625,-400000.0625,-400000.0625,-362857.8125,-400000.0625,-400000.0625
46.19811010360718,-400000.0625,-400000.0625,-400000.0625,-400000.0625,-400000.0625,-367106.25,-400000.0625,-400000.0625
46.20409893989563,-400000.0625,-400000.0625,-400000.0625,-400000.0625,-400000.0625,-367484.125,-400000.0625,-400000.0625
46.20903444290161,-400000.0625,-400000.0625,-400000.0625,-400000.0625,-400000.0625,-363097.03125,-400000.0625,-400000.0625
46.20904278755188,-400000.0625,-400000.0625,-400000.0625,-400000.0625,-400000.0625,-359737.875,-400000.0625,-400000.0625
46.209047079086304,-400000.0625,-400000.0625,-400000.0625,-400000.0625,-400000.0625,-361762.90625,-400000.0625,-400000.0625
46.20905089378357,-400000.0625,-400000.0625,-400000.0625,-400000.0625,-400000.0625,-365972.375,-400000.0625,-400000.0625
46.20905518531799,-400000.0625,-400000.0625,-400000.0625,-400000.0625,-400000.0625,-366293.65625,-400000.0625,-400000.0625
46.20905900001526,-400000.0625,-400000.0625,-400000.0625,-400000.0625,-400000.0625,-361972.8125,-400000.0625,-400000.0625
46.2090630531311,-400000.0625,-400000.0625,-400000.0625,-400000.0625,-400000.0625,-358720.4375,-400000.0625,-400000.0625
46.20906710624695,-400000.0625,-400000.0625,-400000.0625,-400000.0625,-400000.0625,-360753.28125,-400000.0625,-400000.0625
46.20907115936279,-400000.0625,-400000.0625,-400000.0625,-400000.0625,-400000.0625,-364855.1875,-400000.0625,-400000.0625
46.20907473564148,-400000.0625,-400000.0625,-400000.0625,-400000.0625,-400000.0625,-365091.1875,-400000.0625,-400000.0625
46.209078550338745,-400000.0625,-400000.0625,-400000.0625,-400000.0625,-400000.0625,-360865.34375,-400000.0625,-400000.0625
46.20908331871033,-400000.0625,-400000.0625,-400000.0625,-400000.0625,-400000.0625,-357680.875,-400000.0625,-400000.0625
46.209086894989014,-400000.0625,-400000.0625,-400000.0625,-400000.0625,-400000.0625,-359620.46875,-400000.0625,-400000.0625
46.20909070968628,-400000.0625,-400000.0625,-400000.0625,-400000.0625,-400000.0625,-363718.28125,-400000.0625,-400000.0625
46.261483669281006,-400000.0625,-400000.0625,-400000.0625,-400000.0625,-400000.0625,-364271.125,-400000.0625,-400000.0625
46.27161931991577,-400000.0625,-400000.0625,-400000.0625,-400000.0625,-400000.0625,-360058.59375,-400000.0625,-400000.0625
46.27653193473816,-400000.0625,-400000.0625,-400000.0625,-400000.0625,-400000.0625,-356413.9375,-400000.0625,-400000.0625
46.27654266357422,-400000.0625,-400000.0625,-400000.0625,-400000.0625,-400000.0625,-358109.40625,-400000.0625,-400000.0625
46.27654695510864,-400000.0625,-400000.0625,-400000.0625,-400000.0625,-400000.0625,-362118.65625,-400000.0625,-400000.0625
46.27655053138733,-400000.0625,-400000.0625,-400000.0625,-400000.0625,-400000.0625,-362640.125,-400000.0625,-400000.0625
46.27655386924744,-400000.0625,-400000.0625,-400000.0625,-400000.0625,-400000.0625,-358767.03125,-400000.0625,-400000.0625
46.27655792236328,-400000.0625,-400000.0625,-400000.0625,-400000.0625,-400000.0625,-355276.8125,-400000.0625,-400000.0625
46.27656149864197,-400000.0625,-400000.0625,-400000.0625,-400000.0625,-400000.0625,-357000.25,-400000.0625,-400000.0625
46.276564836502075,-400000.0625,-400000.0625,-400000.0625,-400000.0625,-400000.0625,-361435.5,-400000.0625,-400000.0625
46.27656841278076,-400000.0625,-400000.0625,-400000.0625,-400000.0625,-400000.0625,-362104.03125,-400000.0625,-400000.0625
46.27657175064087,-400000.0625,-400000.0625,-400000.0625,-400000.0625,-400000.0625,-357840.0625,-400000.0625,-400000.0625
46.276575326919556,-400000.0625,-400000.0625,-400000.0625,-400000.0625,-400000.0625,-354221.25,-400000.0625,-400000.0625
46.27658009529114,-400000.0625,-400000.0625,-400000.0625,-400000.0625,-400000.0625,-356037.75,-400000.0625,-400000.0625
46.276583433151245,-400000.0625,-400000.0625,-400000.0625,-400000.0625,-400000.0625,-360398.53125,-400000.0625,-400000.0625
46.27658677101135,-400000.0625,-400000.0625,-400000.0625,-400000.0625,-400000.0625,-360999.25,-400000.0625,-400000.0625
46.32541489601135,-400000.0625,-400000.0625,-400000.0625,-400000.0625,-400000.0625,-356705.40625,-400000.0625,-400000.0625
46.33017182350159,-400000.0625,-400000.0625,-400000.0625,-400000.0625,-400000.0625,-353187.9375,-400000.0625,-400000.0625
46.330180406570435,-400000.0625,-400000.0625,-400000.0625,-400000.0625,-400000.0625,-354872.5625,-400000.0625,-400000.0625
46.33018445968628,-400000.0625,-400000.0625,-400000.0625,-400000.0625,-400000.0625,-358857.71875,-400000.0625,-400000.0625
46.3301887512207,-400000.0625,-400000.0625,-400000.0625,-400000.0625,-400000.0625,-359547.28125,-400000.0625,-400000.0625
46.33019256591797,-400000.0625,-400000.0625,-400000.0625,-400000.0625,-400000.0625,-355579.9375,-400000.0625,-400000.0625
46.330196380615234,-400000.0625,-400000.0625,-400000.0625,-400000.0625,-400000.0625,-352090.125,-400000.0625,-400000.0625
46.33019971847534,-400000.0625,-400000.0625,-400000.0625,-400000.0625,-400000.0625,-353965.09375,-400000.0625,-400000.0625
46.33020329475403,-400000.0625,-400000.0625,-400000.0625,-400000.0625,-400000.0625,-358269.59375,-400000.0625,-400000.0625
46.330206632614136,-400000.0625,-400000.0625,-400000.0625,-400000.0625,-400000.0625,-358785.53125,-400000.0625,-400000.0625
46.33021020889282,-400000.0625,-400000.0625,-400000.0625,-400000.0625,-400000.0625,-354577.15625,-400000.0625,-400000.0625
46.33021354675293,-400000.0625,-400000.0625,-400000.0625,-400000.0625,-400000.0625,-351226.0,-400000.0625,-400000.0625
46.33021688461304,-400000.0625,-400000.0625,-400000.0625,-400000.0625,-400000.0625,-353154.75,-400000.0625,-400000.0625
46.330220222473145,-400000.0625,-400000.0625,-400000.0625,-400000.0625,-400000.0625,-357301.53125,-400000.0625,-400000.0625
46.33022379875183,-400000.0625,-400000.0625,-400000.0625,-400000.0625,-400000.0625,-357727.4375,-400000.0625,-400000.0625
46.33022737503052,-400000.0625,-400000.0625,-400000.0625,-400000.0625,-400000.0625,-353628.34375,-400000.0625,-400000.0625
46.39793038368225,-400000.0625,-400000.0625,-400000.0625,-400000.0625,-400000.0625,-350262.625,-400000.0625,-400000.0625
46.4071524143219,-400000.0625,-400000.0625,-400000.0625,-400000.0625,-400000.0625,-351775.0625,-400000.0625,-400000.0625
46.41155815124512,-400000.0625,-400000.0625,-400000.0625,-400000.0625,-400000.0625,-355842.8125,-400000.0625,-400000.0625
46.41156530380249,-400000.0625,-400000.0625,-400000.0625,-400000.0625,-400000.0625,-356665.5,-400000.0625,-400000.0625
46.411569356918335,-400000.0625,-400000.0625,-400000.0625,-400000.0625,-400000.0625,-352692.84375,-400000.0625,-400000.0625
46.41157341003418,-400000.0625,-400000.0625,-400000.0625,-400000.0625,-400000.0625,-349374.0625,-400000.0625,-400000.0625
46.4115777015686,-400000.0625,-400000.0625,-400000.0625,-400000.0625,-400000.0625,-351274.59375,-400000.0625,-400000.0625
46.41158127784729,-400000.0625,-400000.0625,-400000.0625,-400000.0625,-400000.0625,-355414.8125,-400000.0625,-400000.0625
46.41158485412598,-400000.0625,-400000.0625,-400000.0625,-400000.0625,-400000.0625,-355842.5,-400000.0625,-400000.0625
46.41158843040466,-400000.0625,-400000.0625,-400000.0625,-400000.0625,-400000.0625,-351873.375,-400000.0625,-400000.0625
46.41159200668335,-400000.0625,-400000.0625,-400000.0625,-400000.0625,-400000.0625,-348675.8125,-400000.0625,-400000.0625
46.411595582962036,-400000.0625,-400000.0625,-400000.0625,-400000.0625,-400000.0625,-350455.03125,-400000.0625,-400000.0625
46.411598920822144,-400000.0625,-400000.0625,-400000.0625,-400000.0625,-400000.0625,-354479.78125,-400000.0625,-400000.0625
46.41160249710083,-400000.0625,-400000.0625,-400000.0625,-400000.0625,-400000.0625,-354913.46875,-400000.0625,-400000.0625
46.41160607337952,-400000.0625,-400000.0625,-400000.0625,-400000.0625,-400000.0625,-351062.375,-400000.0625,-400000.0625
46.4116096496582,-400000.0625,-400000.0625,-400000.0625,-400000.0625,-400000.0625,-347972.96875,-400000.0625,-400000.0625
46.49774408340454,-400000.0625,-400000.0625,-400000.0625,-400000.0625,-400000.0625,-349663.96875,-400000.0625,-400000.0625
46.50288772583008,-400000.0625,-400000.0625,-400000.0625,-400000.0625,-400000.0625,-353566.5625,-400000.0625,-400000.0625
46.511231899261475,-400000.0625,-400000.0625,-400000.0625,-400000.0625,-400000.0625,-354019.96875,-400000.0625,-400000.0625
46.51571202278137,-400000.0625,-400000.0625,-400000.0625,-400000.0625,-400000.0625,-350295.96875,-400000.0625,-400000.0625
46.51572108268738,-400000.0625,-400000.0625,-400000.0625,-400000.0625,-400000.0625,-347165.96875,-400000.0625,-400000.0625
46.515727043151855,-400000.0625,-400000.0625,-400000.0625,-400000.0625,-400000.0625,-348757.9375,-400000.0625,-400000.0625
46.5157310962677,-400000.0625,-400000.0625,-400000.0625,-400000.0625,-400000.0625,-352559.5625,-400000.0625,-400000.0625
46.515734910964966,-400000.0625,-400000.0625,-400000.0625,-400000.0625,-400000.0625,-353183.15625,-400000.0625,-400000.0625
46.51573896408081,-400000.0625,-400000.0625,-400000.0625,-400000.0625,-400000.0625,-349624.46875,-400000.0625,-400000.0625
46.515743017196655,-400000.0625,-400000.0625,-400000.0625,-400000.0625,-400000.0625,-346438.625,-400000.0625,-400000.0625
46.51574683189392,-400000.0625,-400000.0625,-400000.0625,-400000.0625,-400000.0625,-347996.3125,-400000.0625,-400000.0625
46.51575064659119,-400000.0625,-400000.0625,-400000.0625,-400000.0625,-400000.0625,-352111.0,-400000.0625,-400000.0625
46.51575422286987,-400000.0625,-400000.0625,-400000.0625,-400000.0625,-400000.0625,-352684.25,-400000.0625,-400000.0625
46.51575827598572,-400000.0625,-400000.0625,-400000.0625,-400000.0625,-400000.0625,-348689.5625,-400000.0625,-400000.0625
46.51576209068298,-400000.0625,-400000.0625,-400000.0625,-400000.0625,-400000.0625,-345372.96875,-400000.0625,-400000.0625
46.51576590538025,-400000.0625,-400000.0625,-400000.0625,-400000.0625,-400000.0625,-347129.0,-400000.0625,-400000.0625
46.51950764656067,-400000.0625,-400000.0625,-400000.0625,-400000.0625,-400000.0625,-350963.25,-400000.0625,-400000.0625
46.52425694465637,-400000.0625,-400000.0625,-400000.0625,-400000.0625,-400000.0625,-351635.21875,-400000.0625,-400000.0625
46.524266481399536,-400000.0625,-400000.0625,-400000.0625,-400000.0625,-400000.0625,-348109.09375,-400000.0625,-400000.0625
46.52427101135254,-400000.0625,-400000.0625,-400000.0625,-400000.0625,-400000.0625,-344845.34375,-400000.0625,-400000.0625
46.524274826049805,-400000.0625,-400000.0625,-400000.0625,-400000.0625,-400000.0625,-346256.53125,-400000.0625,-400000.0625
46.52427887916565,-400000.0625,-400000.0625,-400000.0625,-400000.0625,-400000.0625,-349999.75,-400000.0625,-400000.0625
46.524282932281494,-400000.0625,-400000.0625,-400000.0625,-400000.0625,-400000.0625,-350744.15625,-400000.0625,-400000.0625
46.52428674697876,-400000.0625,-400000.0625,-400000.0625,-400000.0625,-400000.0625,-347295.65625,-400000.0625,-400000.0625
46.524290323257446,-400000.0625,-400000.0625,-400000.0625,-400000.0625,-400000.0625,-343982.59375,-400000.0625,-400000.0625
46.52429389953613,-400000.0625,-400000.0625,-400000.0625,-400000.0625,-400000.0625,-345284.5625,-400000.0625,-400000.0625
46.52429819107056,-400000.0625,-400000.0625,-400000.0625,-400000.0625,-400000.0625,-349041.375,-400000.0625,-400000.0625
46.5243022441864,-400000.0625,-400000.0625,-400000.0625,-400000.0625,-400000.0625,-349886.59375,-400000.0625,-400000.0625
46.524306535720825,-400000.0625,-400000.0625,-400000.0625,-400000.0625,-400000.0625,-346455.1875,-400000.0625,-400000.0625
46.524311780929565,-400000.0625,-400000.0625,-400000.0625,-400000.0625,-400000.0625,-343066.84375,-400000.0625,-400000.0625
46.52431559562683,-400000.0625,-400000.0625,-400000.0625,-400000.0625,-400000.0625,-344266.5625,-400000.0625,-400000.0625
46.524319648742676,-400000.0625,-400000.0625,-400000.0625,-400000.0625,-400000.0625,-348066.40625,-400000.0625,-400000.0625
46.59799647331238,-400000.0625,-400000.0625,-400000.0625,-400000.0625,-400000.0625,-349030.8125,-400000.0625,-400000.0625
46.60304641723633,-400000.0625,-400000.0625,-400000.0625,-400000.0625,-400000.0625,-345563.5,-400000.0625,-400000.0625
46.61143660545349,-400000.0625,-400000.0625,-400000.0625,-400000.0625,-400000.0625,-342063.28125,-400000.0625,-400000.0625
46.61600708961487,-400000.0625,-400000.0625,-400000.0625,-400000.0625,-400000.0625,-343189.90625,-400000.0625,-400000.0625
46.61601781845093,-400000.0625,-400000.0625,-400000.0625,-400000.0625,-400000.0625,-347148.875,-400000.0625,-400000.0625
46.61602282524109,-400000.0625,-400000.0625,-400000.0625,-400000.0625,-400000.0625,-348223.4375,-400000.0625,-400000.0625
46.61602711677551,-400000.0625,-400000.0625,-400000.0625,-400000.0625,-400000.0625,-344678.0625,-400000.0625,-400000.0625
46.61603140830994,-400000.0625,-400000.0625,-400000.0625,-400000.0625,-400000.0625,-341079.125,-400000.0625,-400000.0625
46.61603546142578,-400000.0625,-400000.0625,-400000.0625,-400000.0625,-400000.0625,-342223.59375,-400000.0625,-400000.0625
46.61603903770447,-400000.0625,-400000.0625,-400000.0625,-400000.0625,-400000.0625,-346318.25,-400000.0625,-400000.0625
46.61604332923889,-400000.0625,-400000.0625,-400000.0625,-400000.0625,-400000.0625,-347462.40625,-400000.0625,-400000.0625
46.61604714393616,-400000.0625,-400000.0625,-400000.0625,-400000.0625,-400000.0625,-343808.03125,-400000.0625,-400000.0625
46.61605143547058,-400000.0625,-400000.0625,-400000.0625,-400000.0625,-400000.0625,-340053.65625,-400000.0625,-400000.0625
46.616055488586426,-400000.0625,-400000.0625,-400000.0625,-400000.0625,-400000.0625,-341265.90625,-400000.0625,-400000.0625
46.61605978012085,-400000.0625,-400000.0625,-400000.0625,-400000.0625,-400000.0625,-345472.75,-400000.0625,-400000.0625
46.61606407165527,-400000.0625,-400000.0625,-400000.0625,-400000.0625,-400000.0625,-346609.96875,-400000.0625,-400000.0625
46.653767585754395,-400000.0625,-400000.0625,-400000.0625,-400000.0625,-400000.0625,-342899.21875,-400000.0625,-400000.0625
46.659080266952515,-400000.0625,-400000.0625,-400000.0625,-400000.0625,-400000.0625,-339098.40625,-400000.0625,-400000.0625
46.66338753700256,-400000.0625,-400000.0625,-400000.0625,-400000.0625,-400000.0625,-340381.46875,-400000.0625,-400000.0625
46.66339564323425,-400000.0625,-400000.0625,-400000.0625,-400000.0625,-400000.0625,-344690.875,-400000.0625,-400000.0625
46.663400411605835,-400000.0625,-400000.0625,-400000.0625,-400000.0625,-400000.0625,-345749.75,-400000.0625,-400000.0625
46.66340446472168,-400000.0625,-400000.0625,-400000.0625,-400000.0625,-400000.0625,-341963.25,-400000.0625,-400000.0625
46.663408279418945,-400000.0625,-400000.0625,-400000.0625,-400000.0625,-400000.0625,-338121.40625,-400000.0625,-400000.0625
46.66341209411621,-400000.0625,-400000.0625,-400000.0625,-400000.0625,-400000.0625,-339500.1875,-400000.0625,-400000.0625
46.66341590881348,-400000.0625,-400000.0625,-400000.0625,-400000.0625,-400000.0625,-343851.65625,-400000.0625,-400000.0625
46.66342091560364,-400000.0625,-400000.0625,-400000.0625,-400000.0625,-400000.0625,-344848.0,-400000.0625,-400000.0625
46.663424491882324,-400000.0625,-400000.0625,-400000.0625,-400000.0625,-400000.0625,-340990.90625,-400000.0625,-400000.0625
46.66342806816101,-400000.0625,-400000.0625,-400000.0625,-400000.0625,-400000.0625,-337170.21875,-400000.0625,-400000.0625
46.663432121276855,-400000.0625,-400000.0625,-400000.0625,-400000.0625,-400000.0625,-338642.53125,-400000.0625,-400000.0625
46.66343569755554,-400000.0625,-400000.0625,-400000.0625,-400000.0625,-400000.0625,-343056.28125,-400000.0625,-400000.0625
46.66343927383423,-400000.0625,-400000.0625,-400000.0625,-400000.0625,-400000.0625,-344037.0,-400000.0625,-400000.0625
46.66344332695007,-400000.0625,-400000.0625,-400000.0625,-400000.0625,-400000.0625,-340121.15625,-400000.0625,-400000.0625
46.70913791656494,-400000.0625,-400000.0625,-400000.0625,-400000.0625,-400000.0625,-336367.6875,-400000.0625,-400000.0625
46.71802854537964,-400000.0625,-400000.0625,-400000.0625,-400000.0625,-400000.0625,-337952.5625,-400000.0625,-400000.0625
46.722556352615356,-400000.0625,-400000.0625,-400000.0625,-400000.0625,-400000.0625,-342329.625,-400000.0625,-400000.0625
46.72256660461426,-400000.0625,-400000.0625,-400000.0625,-400000.0625,-400000.0625,-343219.125,-400000.0625,-400000.0625
46.72257161140442,-400000.0625,-400000.0625,-400000.0625,-400000.0625,-400000.0625,-339224.625,-400000.0625,-400000.0625
46.722575664520264,-400000.0625,-400000.0625,-400000.0625,-400000.0625,-400000.0625,-335584.0625,-400000.0625,-400000.0625
46.72257995605469,-400000.0625,-400000.0625,-400000.0625,-400000.0625,-400000.0625,-337256.0,-400000.0625,-400000.0625
46.72258424758911,-400000.0625,-400000.0625,-400000.0625,-400000.0625,-400000.0625,-341515.5,-400000.0625,-400000.0625
46.72258806228638,-400000.0625,-400000.0625,-400000.0625,-400000.0625,-400000.0625,-342323.625,-400000.0625,-400000.0625
46.72259187698364,-400000.0625,-400000.0625,-400000.0625,-400000.0625,-400000.0625,-338408.03125,-400000.0625,-400000.0625
46.72259593009949,-400000.0625,-400000.0625,-400000.0625,-400000.0625,-400000.0625,-334910.875,-400000.0625,-400000.0625
46.72259998321533,-400000.0625,-400000.0625,-400000.0625,-400000.0625,-400000.0625,-336607.34375,-400000.0625,-400000.0625
46.7226037979126,-400000.0625,-400000.0625,-400000.0625,-400000.0625,-400000.0625,-340755.59375,-400000.0625,-400000.0625
46.72260761260986,-400000.0625,-400000.0625,-400000.0625,-400000.0625,-400000.0625,-341460.96875,-400000.0625,-400000.0625
46.72261118888855,-400000.0625,-400000.0625,-400000.0625,-400000.0625,-400000.0625,-337611.71875,-400000.0625,-400000.0625
46.722615003585815,-400000.0625,-400000.0625,-400000.0625,-400000.0625,-400000.0625,-334231.125,-400000.0625,-400000.0625
46.78545331954956,-400000.0625,-400000.0625,-400000.0625,-400000.0625,-400000.0625,-335890.53125,-400000.0625,-400000.0625
46.79076671600342,-400000.0625,-400000.0625,-400000.0625,-400000.0625,-400000.0625,-339928.75,-400000.0625,-400000.0625
46.79510807991028,-400000.0625,-400000.0625,-400000.0625,-400000.0625,-400000.0625,-340588.09375,-400000.0625,-400000.0625
46.79511761665344,-400000.0625,-400000.0625,-400000.0625,-400000.0625,-400000.0625,-336871.625,-400000.0625,-400000.0625
46.795122146606445,-400000.0625,-400000.0625,-400000.0625,-400000.0625,-400000.0625,-333545.15625,-400000.0625,-400000.0625
46.79512572288513,-400000.0625,-400000.0625,-400000.0625,-400000.0625,-400000.0625,-335081.1875,-400000.0625,-400000.0625
46.79512929916382,-400000.0625,-400000.0625,-400000.0625,-400000.0625,-400000.0625,-339035.6875,-400000.0625,-400000.0625
46.795133113861084,-400000.0625,-400000.0625,-400000.0625,-400000.0625,-400000.0625,-339705.15625,-400000.0625,-400000.0625
46.79513716697693,-400000.0625,-400000.0625,-400000.0625,-400000.0625,-400000.0625,-336135.65625,-400000.0625,-400000.0625
46.795143127441406,-400000.0625,-400000.0625,-400000.0625,-400000.0625,-400000.0625,-332881.4375,-400000.0625,-400000.0625
46.79514670372009,-400000.0625,-400000.0625,-400000.0625,-400000.0625,-400000.0625,-334341.71875,-400000.0625,-400000.0625
46.79515051841736,-400000.0625,-400000.0625,-400000.0625,-400000.0625,-400000.0625,-338229.21875,-400000.0625,-400000.0625
46.79515528678894,-400000.0625,-400000.0625,-400000.0625,-400000.0625,-400000.0625,-338960.78125,-400000.0625,-400000.0625
46.79515886306763,-400000.0625,-400000.0625,-400000.0625,-400000.0625,-400000.0625,-335503.625,-400000.0625,-400000.0625
46.79516243934631,-400000.0625,-400000.0625,-400000.0625,-400000.0625,-400000.0625,-332270.34375,-400000.0625,-400000.0625
46.79516625404358,-400000.0625,-400000.0625,-400000.0625,-400000.0625,-400000.0625,-333658.6875,-400000.0625,-400000.0625
46.867918491363525,-400000.0625,-400000.0625,-400000.0625,-400000.0625,-400000.0625,-337729.125,-400000.0625,-400000.0625
46.876784563064575,-400000.0625,-400000.0625,-400000.0625,-400000.0625,-400000.0625,-338613.15625,-400000.0625,-400000.0625
46.88103008270264,-400000.0625,-400000.0625,-400000.0625,-400000.0625,-400000.0625,-334810.78125,-400000.0625,-400000.0625
46.8810396194458,-400000.0625,-400000.0625,-400000.0625,-400000.0625,-400000.0625,-331311.9375,-400000.0625,-400000.0625
46.88104438781738,-400000.0625,-400000.0625,-400000.0625,-400000.0625,-400000.0625,-332914.0625,-400000.0625,-400000.0625
46.88104820251465,-400000.0625,-400000.0625,-400000.0625,-400000.0625,-400000.0625,-337042.5625,-400000.0625,-400000.0625
46.88105225563049,-400000.0625,-400000.0625,-400000.0625,-400000.0625,-400000.0625,-337943.78125,-400000.0625,-400000.0625
46.88105583190918,-400000.0625,-400000.0625,-400000.0625,-400000.0625,-400000.0625,-334163.5,-400000.0625,-400000.0625
46.881059408187866,-400000.0625,-400000.0625,-400000.0625,-400000.0625,-400000.0625,-330624.4375,-400000.0625,-400000.0625
46.88106298446655,-400000.0625,-400000.0625,-400000.0625,-400000.0625,-400000.0625,-332202.53125,-400000.0625,-400000.0625
46.88106656074524,-400000.0625,-400000.0625,-400000.0625,-400000.0625,-400000.0625,-336349.375,-400000.0625,-400000.0625
46.881070137023926,-400000.0625,-400000.0625,-400000.0625,-400000.0625,-400000.0625,-337382.375,-400000.0625,-400000.0625
46.88107371330261,-400000.0625,-400000.0625,-400000.0625,-400000.0625,-400000.0625,-333605.125,-400000.0625,-400000.0625
46.88107752799988,-400000.0625,-400000.0625,-400000.0625,-400000.0625,-400000.0625,-329943.40625,-400000.0625,-400000.0625
46.881081104278564,-400000.0625,-400000.0625,-400000.0625,-400000.0625,-400000.0625,-331180.03125,-400000.0625,-400000.0625
46.88108491897583,-400000.0625,-400000.0625,-400000.0625,-400000.0625,-400000.0625,-335159.875,-400000.0625,-400000.0625
46.90027952194214,-400000.0625,-400000.0625,-400000.0625,-400000.0625,-400000.0625,-336424.0625,-400000.0625,-400000.0625
46.90514159202576,-400000.0625,-400000.0625,-400000.0625,-400000.0625,-400000.0625,-332944.09375,-400000.0625,-400000.0625
46.90515089035034,-400000.0625,-400000.0625,-400000.0625,-400000.0625,-400000.0625,-329219.9375,-400000.0625,-400000.0625
46.905155658721924,-400000.0625,-400000.0625,-400000.0625,-400000.0625,-400000.0625,-330471.875,-400000.0625,-400000.0625
46.90515971183777,-400000.0625,-400000.0625,-400000.0625,-400000.0625,-400000.0625,-334504.5,-400000.0625,-400000.0625
46.905163526535034,-400000.0625,-400000.0625,-400000.0625,-400000.0625,-400000.0625,-335883.625,-400000.0625,-400000.0625
46.90516710281372,-400000.0625,-400000.0625,-400000.0625,-400000.0625,-400000.0625,-332731.75,-400000.0625,-400000.0625
46.90517044067383,-400000.0625,-400000.0625,-400000.0625,-400000.0625,-400000.0625,-328752.84375,-400000.0625,-400000.0625
46.905174016952515,-400000.0625,-400000.0625,-400000.0625,-400000.0625,-400000.0625,-329710.8125,-400000.0625,-400000.0625
46.9051775932312,-400000.0625,-400000.0625,-400000.0625,-400000.0625,-400000.0625,-334048.625,-400000.0625,-400000.0625
46.90518116950989,-400000.0625,-400000.0625,-400000.0625,-400000.0625,-400000.0625,-335501.84375,-400000.0625,-400000.0625
46.905184745788574,-400000.0625,-400000.0625,-400000.0625,-400000.0625,-400000.0625,-331749.46875,-400000.0625,-400000.0625
46.90518856048584,-400000.0625,-400000.0625,-400000.0625,-400000.0625,-400000.0625,-327919.5625,-400000.0625,-400000.0625
46.90519309043884,-400000.0625,-400000.0625,-400000.0625,-400000.0625,-400000.0625,-329113.53125,-400000.0625,-400000.0625
46.90519714355469,-400000.0625,-400000.0625,-400000.0625,-400000.0625,-400000.0625,-333118.0625,-400000.0625,-400000.0625
46.90520143508911,-400000.0625,-400000.0625,-400000.0625,-400000.0625,-400000.0625,-334485.0,-400000.0625,-400000.0625
46.96645450592041,-400000.0625,-400000.0625,-400000.0625,-400000.0625,-400000.0625,-331421.875,-400000.0625,-400000.0625
46.971494913101196,-400000.0625,-400000.0625,-400000.0625,-400000.0625,-400000.0625,-327729.78125,-400000.0625,-400000.0625
46.98033118247986,-400000.0625,-400000.0625,-400000.0625,-400000.0625,-400000.0625,-328531.4375,-400000.0625,-400000.0625
46.98481512069702,-400000.0625,-400000.0625,-400000.0625,-400000.0625,-400000.0625,-332451.25,-400000.0625,-400000.0625
46.984824895858765,-400000.0625,-400000.0625,-400000.0625,-400000.0625,-400000.0625,-333830.25,-400000.0625,-400000.0625
46.98482894897461,-400000.0625,-400000.0625,-400000.0625,-400000.0625,-400000.0625,-330382.25,-400000.0625,-400000.0625
46.984832763671875,-400000.0625,-400000.0625,-400000.0625,-400000.0625,-400000.0625,-326663.0,-400000.0625,-400000.0625
46.98483729362488,-400000.0625,-400000.0625,-400000.0625,-400000.0625,-400000.0625,-328036.1875,-400000.0625,-400000.0625
46.984841108322144,-400000.0625,-400000.0625,-400000.0625,-400000.0625,-400000.0625,-332099.90625,-400000.0625,-400000.0625
46.98484468460083,-400000.0625,-400000.0625,-400000.0625,-400000.0625,-400000.0625,-333130.5,-400000.0625,-400000.0625
46.98484826087952,-400000.0625,-400000.0625,-400000.0625,-400000.0625,-400000.0625,-329788.34375,-400000.0625,-400000.0625
46.9848518371582,-400000.0625,-400000.0625,-400000.0625,-400000.0625,-400000.0625,-326320.53125,-400000.0625,-400000.0625
46.98485565185547,-400000.0625,-400000.0625,-400000.0625,-400000.0625,-400000.0625,-327443.59375,-400000.0625,-400000.0625
46.984858751297,-400000.0625,-400000.0625,-400000.0625,-400000.0625,-400000.0625,-331418.3125,-400000.0625,-400000.0625
46.98486256599426,-400000.0625,-400000.0625,-400000.0625,-400000.0625,-400000.0625,-332438.46875,-400000.0625,-400000.0625
46.98486638069153,-400000.0625,-400000.0625,-400000.0625,-400000.0625,-400000.0625,-329066.65625,-400000.0625,-400000.0625
47.04171705245972,-400000.0625,-400000.0625,-400000.0625,-400000.0625,-400000.0625,-325305.4375,-400000.0625,-400000.0625
47.046449422836304,-400000.0625,-400000.0625,-400000.0625,-400000.0625,-400000.0625,-326232.40625,-400000.0625,-400000.0625
47.04645800590515,-400000.0625,-400000.0625,-400000.0625,-400000.0625,-400000.0625,-330428.34375,-400000.0625,-400000.0625
47.04646277427673,-400000.0625,-400000.0625,-400000.0625,-400000.0625,-400000.0625,-331712.375,-400000.0625,-400000.0625
47.046466588974,-400000.0625,-400000.0625,-400000.0625,-400000.0625,-400000.0625,-328326.65625,-400000.0625,-400000.0625
47.046470403671265,-400000.0625,-400000.0625,-400000.0625,-400000.0625,-400000.0625,-324541.375,-400000.0625,-400000.0625
47.04647374153137,-400000.0625,-400000.0625,-400000.0625,-400000.0625,-400000.0625,-325422.65625,-400000.0625,-400000.0625
47.04647731781006,-400000.0625,-400000.0625,-400000.0625,-400000.0625,-400000.0625,-329703.3125,-400000.0625,-400000.0625
47.046480894088745,-400000.0625,-400000.0625,-400000.0625,-400000.0625,-400000.0625,-331386.375,-400000.0625,-400000.0625
47.04648447036743,-400000.0625,-400000.0625,-400000.0625,-400000.0625,-400000.0625,-328089.28125,-400000.0625,-400000.0625
47.04648804664612,-400000.0625,-400000.0625,-400000.0625,-400000.0625,-400000.0625,-323952.28125,-400000.0625,-400000.0625
47.046491622924805,-400000.0625,-400000.0625,-400000.0625,-400000.0625,-400000.0625,-324754.09375,-400000.0625,-400000.0625
47.04649519920349,-400000.0625,-400000.0625,-400000.0625,-400000.0625,-400000.0625,-328908.53125,-400000.0625,-400000.0625
47.04649877548218,-400000.0625,-400000.0625,-400000.0625,-400000.0625,-400000.0625,-330222.25,-400000.0625,-400000.0625
47.046502351760864,-400000.0625,-400000.0625,-400000.0625,-400000.0625,-400000.0625,-326951.03125,-400000.0625,-400000.0625
47.04650592803955,-400000.0625,-400000.0625,-400000.0625,-400000.0625,-400000.0625,-323145.75,-400000.0625,-400000.0625
47.09423017501831,-400000.0625,-400000.0625,-400000.0625,-400000.0625,-400000.0625,-323967.0625,-400000.0625,-400000.0625
47.10367488861084,-400000.0625,-400000.0625,-400000.0625,-400000.0625,-400000.0625,-328305.34375,-400000.0625,-400000.0625
47.10810470581055,-400000.0625,-400000.0625,-400000.0625,-400000.0625,-400000.0625,-330028.125,-400000.0625,-400000.0625
47.10811424255371,-400000.0625,-400000.0625,-400000.0625,-400000.0625,-400000.0625,-326651.8125,-400000.0625,-400000.0625
47.10811901092529,-400000.0625,-400000.0625,-400000.0625,-400000.0625,-400000.0625,-322407.0,-400000.0625,-400000.0625
47.10812497138977,-400000.0625,-400000.0625,-400000.0625,-400000.0625,-400000.0625,-323230.875,-400000.0625,-400000.0625
47.108129024505615,-400000.0625,-400000.0625,-400000.0625,-400000.0625,-400000.0625,-327391.9375,-400000.0625,-400000.0625
47.1081326007843,-400000.0625,-400000.0625,-400000.0625,-400000.0625,-400000.0625,-328745.375,-400000.0625,-400000.0625
47.10813617706299,-400000.0625,-400000.0625,-400000.0625,-400000.0625,-400000.0625,-325524.09375,-400000.0625,-400000.0625
47.108139991760254,-400000.0625,-400000.0625,-400000.0625,-400000.0625,-400000.0625,-321586.03125,-400000.0625,-400000.0625
47.10814356803894,-400000.0625,-400000.0625,-400000.0625,-400000.0625,-400000.0625,-322436.625,-400000.0625,-400000.0625
47.10814690589905,-400000.0625,-400000.0625,-400000.0625,-400000.0625,-400000.0625,-326627.0,-400000.0625,-400000.0625
47.108150482177734,-400000.0625,-400000.0625,-400000.0625,-400000.0625,-400000.0625,-327996.46875,-400000.0625,-400000.0625
47.10815405845642,-400000.0625,-400000.0625,-400000.0625,-400000.0625,-400000.0625,-324808.25,-400000.0625,-400000.0625
47.10815763473511,-400000.0625,-400000.0625,-400000.0625,-400000.0625,-400000.0625,-321218.375,-400000.0625,-400000.0625
47.108161211013794,-400000.0625,-400000.0625,-400000.0625,-400000.0625,-400000.0625,-321867.84375,-400000.0625,-400000.0625
47.16458582878113,-400000.0625,-400000.0625,-400000.0625,-400000.0625,-400000.0625,-325719.3125,-400000.0625,-400000.0625
47.1699583530426,-400000.0625,-400000.0625,-400000.0625,-400000.0625,-400000.0625,-327394.25,-400000.0625,-400000.0625
47.17421793937683,-400000.0625,-400000.0625,-400000.0625,-400000.0625,-400000.0625,-324394.5,-400000.0625,-400000.0625
47.17422556877136,-400000.0625,-400000.0625,-400000.0625,-400000.0625,-400000.0625,-320156.71875,-400000.0625,-400000.0625
47.174229860305786,-400000.0625,-400000.0625,-400000.0625,-400000.0625,-400000.0625,-320816.875,-400000.0625,-400000.0625
47.17423367500305,-400000.0625,-400000.0625,-400000.0625,-400000.0625,-400000.0625,-325102.125,-400000.0625,-400000.0625
47.17423748970032,-400000.0625,-400000.0625,-400000.0625,-400000.0625,-400000.0625,-326817.15625,-400000.0625,-400000.0625
47.174241065979004,-400000.0625,-400000.0625,-400000.0625,-400000.0625,-400000.0625,-323497.53125,-400000.0625,-400000.0625
47.17424464225769,-400000.0625,-400000.0625,-400000.0625,-400000.0625,-400000.0625,-319244.375,-400000.0625,-400000.0625
47.17424821853638,-400000.0625,-400000.0625,-400000.0625,-400000.0625,-400000.0625,-319999.90625,-400000.0625,-400000.0625
47.17425179481506,-400000.0625,-400000.0625,-400000.0625,-400000.0625,-400000.0625,-324394.25,-400000.0625,-400000.0625
47.17425513267517,-400000.0625,-400000.0625,-400000.0625,-400000.0625,-400000.0625,-326092.90625,-400000.0625,-400000.0625
47.17425870895386,-400000.0625,-400000.0625,-400000.0625,-400000.0625,-400000.0625,-322673.78125,-400000.0625,-400000.0625
47.174262285232544,-400000.0625,-400000.0625,-400000.0625,-400000.0625,-400000.0625,-318399.1875,-400000.0625,-400000.0625
47.17426562309265,-400000.0625,-400000.0625,-400000.0625,-400000.0625,-400000.0625,-319231.15625,-400000.0625,-400000.0625
47.17426943778992,-400000.0625,-400000.0625,-400000.0625,-400000.0625,-400000.0625,-323648.21875,-400000.0625,-400000.0625
47.24581241607666,-400000.0625,-400000.0625,-400000.0625,-400000.0625,-400000.0625,-325272.9375,-400000.0625,-400000.0625
47.25510382652283,-400000.0625,-400000.0625,-400000.0625,-400000.0625,-400000.0625,-321757.9375,-400000.0625,-400000.0625
47.259679555892944,-400000.0625,-400000.0625,-400000.0625,-400000.0625,-400000.0625,-317532.15625,-400000.0625,-400000.0625
47.25968790054321,-400000.0625,-400000.0625,-400000.0625,-400000.0625,-400000.0625,-318474.125,-400000.0625,-400000.0625
47.25969219207764,-400000.0625,-400000.0625,-400000.0625,-400000.0625,-400000.0625,-322830.5625,-400000.0625,-400000.0625
47.25969648361206,-400000.0625,-400000.0625,-400000.0625,-400000.0625,-400000.0625,-324372.9375,-400000.0625,-400000.0625
47.25969958305359,-400000.0625,-400000.0625,-400000.0625,-400000.0625,-400000.0625,-320806.78125,-400000.0625,-400000.0625
47.259703636169434,-400000.0625,-400000.0625,-400000.0625,-400000.0625,-400000.0625,-316711.28125,-400000.0625,-400000.0625
47.25970697402954,-400000.0625,-400000.0625,-400000.0625,-400000.0625,-400000.0625,-317729.84375,-400000.0625,-400000.0625
47.25971055030823,-400000.0625,-400000.0625,-400000.0625,-400000.0625,-400000.0625,-321992.46875,-400000.0625,-400000.0625
47.259713888168335,-400000.0625,-400000.0625,-400000.0625,-400000.0625,-400000.0625,-323582.03125,-400000.0625,-400000.0625
47.25971698760986,-400000.0625,-400000.0625,-400000.0625,-400000.0625,-400000.0625,-320337.28125,-400000.0625,-400000.0625
47.25972032546997,-400000.0625,-400000.0625,-400000.0625,-400000.0625,-400000.0625,-315988.78125,-400000.0625,-400000.0625
47.25972390174866,-400000.0625,-400000.0625,-400000.0625,-400000.0625,-400000.0625,-316575.09375,-400000.0625,-400000.0625
47.25972771644592,-400000.0625,-400000.0625,-400000.0625,-400000.0625,-400000.0625,-320911.84375,-400000.0625,-400000.0625
47.25973081588745,-400000.0625,-400000.0625,-400000.0625,-400000.0625,-400000.0625,-322590.59375,-400000.0625,-400000.0625
47.29805254936218,-400000.0625,-400000.0625,-400000.0625,-400000.0625,-400000.0625,-319111.375,-400000.0625,-400000.0625
47.30329370498657,-400000.0625,-400000.0625,-400000.0625,-400000.0625,-400000.0625,-315101.8125,-400000.0625,-400000.0625
47.3076548576355,-400000.0625,-400000.0625,-400000.0625,-400000.0625,-400000.0625,-316091.8125,-400000.0625,-400000.0625
47.30766463279724,-400000.0625,-400000.0625,-400000.0625,-400000.0625,-400000.0625,-320228.09375,-400000.0625,-400000.0625
47.307668685913086,-400000.0625,-400000.0625,-400000.0625,-400000.0625,-400000.0625,-321657.03125,-400000.0625,-400000.0625
47.30767250061035,-400000.0625,-400000.0625,-400000.0625,-400000.0625,-400000.0625,-318270.71875,-400000.0625,-400000.0625
47.30767631530762,-400000.0625,-400000.0625,-400000.0625,-400000.0625,-400000.0625,-314275.15625,-400000.0625,-400000.0625
47.307679891586304,-400000.0625,-400000.0625,-400000.0625,-400000.0625,-400000.0625,-314898.96875,-400000.0625,-400000.0625
47.30768322944641,-400000.0625,-400000.0625,-400000.0625,-400000.0625,-400000.0625,-318951.6875,-400000.0625,-400000.0625
47.3076868057251,-400000.0625,-400000.0625,-400000.0625,-400000.0625,-400000.0625,-320723.28125,-400000.0625,-400000.0625
47.307690382003784,-400000.0625,-400000.0625,-400000.0625,-400000.0625,-400000.0625,-317456.28125,-400000.0625,-400000.0625
47.30769371986389,-400000.0625,-400000.0625,-400000.0625,-400000.0625,-400000.0625,-313460.375,-400000.0625,-400000.0625
47.30769729614258,-400000.0625,-400000.0625,-400000.0625,-400000.0625,-400000.0625,-314419.96875,-400000.0625,-400000.0625
47.307700872421265,-400000.0625,-400000.0625,-400000.0625,-400000.0625,-400000.0625,-318545.53125,-400000.0625,-400000.0625
47.30770444869995,-400000.0625,-400000.0625,-400000.0625,-400000.0625,-400000.0625,-319963.6875,-400000.0625,-400000.0625
47.30770826339722,-400000.0625,-400000.0625,-400000.0625,-400000.0625,-400000.0625,-316691.0625,-400000.0625,-400000.0625
47.35662221908569,-400000.0625,-400000.0625,-400000.0625,-400000.0625,-400000.0625,-312872.34375,-400000.0625,-400000.0625
47.36526083946228,-400000.0625,-400000.0625,-400000.0625,-400000.0625,-400000.0625,-313735.8125,-400000.0625,-400000.0625
47.36973023414612,-400000.0625,-400000.0625,-400000.0625,-400000.0625,-400000.0625,-317733.03125,-400000.0625,-400000.0625
47.36974000930786,-400000.0625,-400000.0625,-400000.0625,-400000.0625,-400000.0625,-319115.96875,-400000.0625,-400000.0625
47.36974549293518,-400000.0625,-400000.0625,-400000.0625,-400000.0625,-400000.0625,-315973.6875,-400000.0625,-400000.0625
47.369749307632446,-400000.0625,-400000.0625,-400000.0625,-400000.0625,-400000.0625,-312197.25,-400000.0625,-400000.0625
47.36975312232971,-400000.0625,-400000.0625,-400000.0625,-400000.0625,-400000.0625,-312949.78125,-400000.0625,-400000.0625
47.3697566986084,-400000.0625,-400000.0625,-400000.0625,-400000.0625,-400000.0625,-316816.875,-400000.0625,-400000.0625
47.369760274887085,-400000.0625,-400000.0625,-400000.0625,-400000.0625,-400000.0625,-318264.625,-400000.0625,-400000.0625
47.36976385116577,-400000.0625,-400000.0625,-400000.0625,-400000.0625,-400000.0625,-315301.46875,-400000.0625,-400000.0625
47.36976742744446,-400000.0625,-400000.0625,-400000.0625,-400000.0625,-400000.0625,-311547.65625,-400000.0625,-400000.0625
47.369771242141724,-400000.0625,-400000.0625,-400000.0625,-400000.0625,-400000.0625,-312158.5625,-400000.0625,-400000.0625
47.36977458000183,-400000.0625,-400000.0625,-400000.0625,-400000.0625,-400000.0625,-315968.0625,-400000.0625,-400000.0625
47.36977815628052,-400000.0625,-400000.0625,-400000.0625,-400000.0625,-400000.0625,-317576.03125,-400000.0625,-400000.0625
47.369781732559204,-400000.0625,-400000.0625,-400000.0625,-400000.0625,-400000.0625,-314713.53125,-400000.0625,-400000.0625
47.36978507041931,-400000.0625,-400000.0625,-400000.0625,-400000.0625,-400000.0625,-310836.625,-400000.0625,-400000.0625
47.41526818275452,-400000.0625,-400000.0625,-400000.0625,-400000.0625,-400000.0625,-311319.625,-400000.0625,-400000.0625
47.420252084732056,-400000.0625,-400000.0625,-400000.0625,-400000.0625,-400000.0625,-315089.125,-400000.0625,-400000.0625
47.42026209831238,-400000.0625,-400000.0625,-400000.0625,-400000.0625,-400000.0625,-316854.03125,-400000.0625,-400000.0625
47.4202663898468,-400000.0625,-400000.0625,-400000.0625,-400000.0625,-400000.0625,-314088.8125,-400000.0625,-400000.0625
47.420270681381226,-400000.0625,-400000.0625,-400000.0625,-400000.0625,-400000.0625,-310079.71875,-400000.0625,-400000.0625
47.42027449607849,-400000.0625,-400000.0625,-400000.0625,-400000.0625,-400000.0625,-310468.40625,-400000.0625,-400000.0625
47.42027807235718,-400000.0625,-400000.0625,-400000.0625,-400000.0625,-400000.0625,-314232.59375,-400000.0625,-400000.0625
47.4245810508728,-400000.0625,-400000.0625,-400000.0625,-400000.0625,-400000.0625,-316089.875,-400000.0625,-400000.0625
47.42458987236023,-400000.0625,-400000.0625,-400000.0625,-400000.0625,-400000.0625,-313369.0625,-400000.0625,-400000.0625
47.42459416389465,-400000.0625,-400000.0625,-400000.0625,-400000.0625,-400000.0625,-309288.71875,-400000.0625,-400000.0625
47.42459797859192,-400000.0625,-400000.0625,-400000.0625,-400000.0625,-400000.0625,-309800.75,-400000.0625,-400000.0625
47.424601793289185,-400000.0625,-400000.0625,-400000.0625,-400000.0625,-400000.0625,-313761.125,-400000.0625,-400000.0625
47.42460560798645,-400000.0625,-400000.0625,-400000.0625,-400000.0625,-400000.0625,-315275.34375,-400000.0625,-400000.0625
47.42460894584656,-400000.0625,-400000.0625,-400000.0625,-400000.0625,-400000.0625,-312277.5625,-400000.0625,-400000.0625
47.424612522125244,-400000.0625,-400000.0625,-400000.0625,-400000.0625,-400000.0625,-308438.90625,-400000.0625,-400000.0625
47.42461705207825,-400000.0625,-400000.0625,-400000.0625,-400000.0625,-400000.0625,-308800.84375,-400000.0625,-400000.0625
47.49799418449402,-400000.0625,-400000.0625,-400000.0625,-400000.0625,-400000.0625,-312601.40625,-400000.0625,-400000.0625
47.50683283805847,-400000.0625,-400000.0625,-400000.0625,-400000.0625,-400000.0625,-314617.0,-400000.0625,-400000.0625
47.51107859611511,-400000.0625,-400000.0625,-400000.0625,-400000.0625,-400000.0625,-311954.5,-400000.0625,-400000.0625
47.511085987091064,-400000.0625,-400000.0625,-400000.0625,-400000.0625,-400000.0625,-307784.125,-400000.0625,-400000.0625
47.51109027862549,-400000.0625,-400000.0625,-400000.0625,-400000.0625,-400000.0625,-307909.53125,-400000.0625,-400000.0625
47.51109337806702,-400000.0625,-400000.0625,-400000.0625,-400000.0625,-400000.0625,-311784.34375,-400000.0625,-400000.0625
47.5110969543457,-400000.0625,-400000.0625,-400000.0625,-400000.0625,-400000.0625,-313935.59375,-400000.0625,-400000.0625
47.51110076904297,-400000.0625,-400000.0625,-400000.0625,-400000.0625,-400000.0625,-311229.59375,-400000.0625,-400000.0625
47.5111038684845,-400000.0625,-400000.0625,-400000.0625,-400000.0625,-400000.0625,-306954.71875,-400000.0625,-400000.0625
47.51110768318176,-400000.0625,-400000.0625,-400000.0625,-400000.0625,-400000.0625,-307057.6875,-400000.0625,-400000.0625
47.51111078262329,-400000.0625,-400000.0625,-400000.0625,-400000.0625,-400000.0625,-311082.21875,-400000.0625,-400000.0625
47.51111459732056,-400000.0625,-400000.0625,-400000.0625,-400000.0625,-400000.0625,-313325.0625,-400000.0625,-400000.0625
47.51111817359924,-400000.0625,-400000.0625,-400000.0625,-400000.0625,-400000.0625,-310501.34375,-400000.0625,-400000.0625
47.51112151145935,-400000.0625,-400000.0625,-400000.0625,-400000.0625,-400000.0625,-306105.3125,-400000.0625,-400000.0625
47.51112508773804,-400000.0625,-400000.0625,-400000.0625,-400000.0625,-400000.0625,-306201.15625,-400000.0625,-400000.0625
47.511128187179565,-400000.0625,-400000.0625,-400000.0625,-400000.0625,-400000.0625,-310332.0,-400000.0625,-400000.0625
47.58104658126831,-400000.0625,-400000.0625,-400000.0625,-400000.0625,-400000.0625,-312617.1875,-400000.0625,-400000.0625
47.58631229400635,-400000.0625,-400000.0625,-400000.0625,-400000.0625,-400000.0625,-309731.8125,-400000.0625,-400000.0625
47.59066462516785,-400000.0625,-400000.0625,-400000.0625,-400000.0625,-400000.0625,-305256.78125,-400000.0625,-400000.0625
47.590672969818115,-400000.0625,-400000.0625,-400000.0625,-400000.0625,-400000.0625,-305398.6875,-400000.0625,-400000.0625
47.59067702293396,-400000.0625,-400000.0625,-400000.0625,-400000.0625,-400000.0625,-309608.53125,-400000.0625,-400000.0625
47.59068059921265,-400000.0625,-400000.0625,-400000.0625,-400000.0625,-400000.0625,-311851.59375,-400000.0625,-400000.0625
47.59068417549133,-400000.0625,-400000.0625,-400000.0625,-400000.0625,-400000.0625,-308916.8125,-400000.0625,-400000.0625
47.59068751335144,-400000.0625,-400000.0625,-400000.0625,-400000.0625,-400000.0625,-304376.84375,-400000.0625,-400000.0625
47.59069108963013,-400000.0625,-400000.0625,-400000.0625,-400000.0625,-400000.0625,-304610.96875,-400000.0625,-400000.0625
47.59069466590881,-400000.0625,-400000.0625,-400000.0625,-400000.0625,-400000.0625,-308889.71875,-400000.0625,-400000.0625
47.59069800376892,-400000.0625,-400000.0625,-400000.0625,-400000.0625,-400000.0625,-311051.25,-400000.0625,-400000.0625
47.59070158004761,-400000.0625,-400000.0625,-400000.0625,-400000.0625,-400000.0625,-308043.71875,-400000.0625,-400000.0625
47.590704917907715,-400000.0625,-400000.0625,-400000.0625,-400000.0625,-400000.0625,-303482.0,-400000.0625,-400000.0625
47.5907084941864,-400000.0625,-400000.0625,-400000.0625,-400000.0625,-400000.0625,-303805.90625,-400000.0625,-400000.0625
47.59071207046509,-400000.0625,-400000.0625,-400000.0625,-400000.0625,-400000.0625,-308191.15625,-400000.0625,-400000.0625
47.590715408325195,-400000.0625,-400000.0625,-400000.0625,-400000.0625,-400000.0625,-310342.90625,-400000.0625,-400000.0625
47.63572430610657,-400000.0625,-400000.0625,-400000.0625,-400000.0625,-400000.0625,-307261.375,-400000.0625,-400000.0625
47.644490242004395,-400000.0625,-400000.0625,-400000.0625,-400000.0625,-400000.0625,-302715.875,-400000.0625,-400000.0625
47.64860200881958,-400000.0625,-400000.0625,-400000.0625,-400000.0625,-400000.0625,-303093.5625,-400000.0625,-400000.0625
47.64861178398132,-400000.0625,-400000.0625,-400000.0625,-400000.0625,-400000.0625,-307458.625,-400000.0625,-400000.0625
47.64861702919006,-400000.0625,-400000.0625,-400000.0625,-400000.0625,-400000.0625,-309549.375,-400000.0625,-400000.0625
47.64862084388733,-400000.0625,-400000.0625,-400000.0625,-400000.0625,-400000.0625,-306395.5625,-400000.0625,-400000.0625
47.648624420166016,-400000.0625,-400000.0625,-400000.0625,-400000.0625,-400000.0625,-301930.0,-400000.0625,-400000.0625
47.64862847328186,-400000.0625,-400000.0625,-400000.0625,-399695.53125,-400000.0625,-302431.34375,-400000.0625,-400000.0625
47.64863204956055,-400000.0625,-400000.0625,-400000.0625,-400000.0625,-400000.0625,-306715.0625,-400000.0625,-400000.0625
47.64863562583923,-400000.0625,-400000.0625,-400000.0625,-400000.0625,-400000.0625,-308719.875,-400000.0625,-400000.0625
47.64863920211792,-400000.0625,-400000.0625,-400000.0625,-400000.0625,-400000.0625,-305516.71875,-400000.0625,-400000.0625
47.648642778396606,-400000.0625,-400000.0625,-400000.0625,-400000.0625,-400000.0625,-301186.4375,-400000.0625,-400000.0625
47.64864635467529,-400000.0625,-400000.0625,-400000.0625,-397780.8125,-400000.0625,-301762.09375,-400000.0625,-400000.0625
47.64864993095398,-400000.0625,-400000.0625,-400000.0625,-400000.0625,-400000.0625,-305951.6875,-400000.0625,-400000.0625
47.648653507232666,-400000.0625,-400000.0625,-400000.0625,-400000.0625,-400000.0625,-307843.46875,-400000.0625,-400000.0625
47.64865708351135,-400000.0625,-400000.0625,-400000.0625,-400000.0625,-400000.0625,-304696.40625,-400000.0625,-400000.0625
47.67047166824341,-400000.0625,-400000.0625,-400000.0625,-400000.0625,-400000.0625,-300486.3125,-400000.0625,-400000.0625
47.675496339797974,-400000.0625,-400000.0625,-400000.0625,-395905.96875,-400000.0625,-301076.59375,-400000.0625,-400000.0625
47.6797080039978,-400000.0625,-400000.0625,-400000.0625,-400000.0625,-400000.0625,-305144.25,-400000.0625,-400000.0625
47.679715394973755,-400000.0625,-400000.0625,-400000.0625,-400000.0625,-400000.0625,-306984.125,-400000.0625,-400000.0625
47.67971968650818,-400000.0625,-400000.0625,-400000.0625,-400000.0625,-400000.0625,-303990.34375,-400000.0625,-400000.0625
47.67972373962402,-400000.0625,-400000.0625,-400000.0625,-400000.0625,-400000.0625,-299880.96875,-400000.0625,-400000.0625
47.67972707748413,-400000.0625,-400000.0625,-400000.0625,-394034.15625,-400000.0625,-300362.78125,-400000.0625,-400000.0625
47.6797308921814,-400000.0625,-400000.0625,-400000.0625,-400000.0625,-400000.0625,-304422.8125,-400000.0625,-400000.0625
47.67973470687866,-400000.0625,-400000.0625,-400000.0625,-400000.0625,-400000.0625,-306564.21875,-400000.0625,-400000.0625
47.67973971366882,-400000.0625,-400000.0625,-400000.0625,-400000.0625,-400000.0625,-303588.9375,-400000.0625,-400000.0625
47.67974328994751,-400000.0625,-400000.0625,-400000.0625,-400000.0625,-400000.0625,-298995.375,-400000.0625,-400000.0625
47.679746866226196,-400000.0625,-400000.0625,-400000.0625,-392275.9375,-400000.0625,-299248.125,-400000.0625,-400000.0625
47.67975044250488,-400000.0625,-400000.0625,-400000.0625,-400000.0625,-400000.0625,-303518.0625,-400000.0625,-400000.0625
47.67975401878357,-400000.0625,-400000.0625,-400000.0625,-400000.0625,-400000.0625,-305412.375,-400000.0625,-400000.0625
47.679757595062256,-400000.0625,-400000.0625,-400000.0625,-400000.0625,-400000.0625,-302479.25,-400000.0625,-400000.0625
47.6797616481781,-400000.0625,-400000.0625,-400000.0625,-400000.0625,-400000.0625,-298278.40625,-400000.0625,-400000.0625
47.73621892929077,-400000.0625,-400000.0625,-400000.0625,-390473.375,-400000.0625,-298379.28125,-400000.0625,-400000.0625
47.74529051780701,-400000.0625,-400000.0625,-400000.0625,-400000.0625,-400000.0625,-302406.96875,-400000.0625,-400000.0625
47.74971103668213,-400000.0625,-400000.0625,-400000.0625,-400000.0625,-400000.0625,-304622.78125,-400000.0625,-400000.0625
47.74972105026245,-400000.0625,-400000.0625,-400000.0625,-400000.0625,-400000.0625,-301772.71875,-400000.0625,-400000.0625
47.749725341796875,-400000.0625,-400000.0625,-400000.0625,-400000.0625,-400000.0625,-297674.40625,-400000.0625,-400000.0625
47.74972987174988,-400000.0625,-400000.0625,-400000.0625,-388726.34375,-400000.0625,-298109.21875,-400000.0625,-400000.0625
47.749733448028564,-400000.0625,-400000.0625,-400000.0625,-399915.21875,-400000.0625,-302031.5,-400000.0625,-400000.0625
47.74973702430725,-400000.0625,-400000.0625,-400000.0625,-400000.0625,-400000.0625,-303873.0,-400000.0625,-400000.0625
47.7497444152832,-400000.0625,-400000.0625,-400000.0625,-400000.0625,-400000.0625,-301128.0,-400000.0625,-400000.0625
47.74974799156189,-400000.0625,-400000.0625,-400000.0625,-400000.0625,-400000.0625,-296932.84375,-400000.0625,-400000.0625
47.749751567840576,-400000.0625,-400000.0625,-400000.0625,-387133.21875,-400000.0625,-296951.1875,-400000.0625,-400000.0625
47.74975514411926,-400000.0625,-400000.0625,-400000.0625,-398207.1875,-400000.0625,-300981.28125,-400000.0625,-400000.0625
47.74975872039795,-400000.0625,-400000.0625,-400000.0625,-400000.0625,-400000.0625,-303165.0,-400000.0625,-400000.0625
47.749762296676636,-400000.0625,-400000.0625,-400000.0625,-400000.0625,-400000.0625,-300462.65625,-400000.0625,-400000.0625
47.74976587295532,-400000.0625,-400000.0625,-400000.0625,-400000.0625,-400000.0625,-296468.1875,-400000.0625,-400000.0625
47.74976944923401,-400000.0625,-400000.0625,-400000.0625,-385452.40625,-400000.0625,-296763.78125,-400000.0625,-400000.0625
47.79830574989319,-400000.0625,-400000.0625,-400000.0625,-396481.125,-400000.0625,-300600.53125,-400000.0625,-400000.0625
47.80391001701355,-400000.0625,-400000.0625,-400000.0625,-400000.0625,-400000.0625,-302546.8125,-400000.0625,-400000.0625
47.808385610580444,-400000.0625,-400000.0625,-400000.0625,-400000.0625,-400000.0625,-299957.375,-400000.0625,-400000.0625
47.80839514732361,-400000.0625,-400000.0625,-400000.0625,-400000.0625,-400000.0625,-295972.34375,-400000.0625,-400000.0625
47.80840039253235,-400000.0625,-400000.0625,-400000.0625,-383833.75,-400000.0625,-296093.9375,-400000.0625,-400000.0625
47.80840444564819,-400000.0625,-400000.0625,-400000.0625,-394693.28125,-400000.0625,-299791.65625,-400000.0625,-400000.0625
47.80840826034546,-400000.0625,-400000.0625,-400000.0625,-400000.0625,-400000.0625,-301831.28125,-400000.0625,-400000.0625
47.808411836624146,-400000.0625,-400000.0625,-400000.0625,-400000.0625,-400000.0625,-299356.9375,-400000.0625,-400000.0625
47.80841517448425,-400000.0625,-400000.0625,-400000.0625,-399164.1875,-400000.0625,-295310.28125,-400000.0625,-400000.0625
47.80841875076294,-400000.0625,-400000.0625,-400000.0625,-382258.75,-400000.0625,-295384.78125,-400000.0625,-400000.0625
47.808422327041626,-400000.0625,-400000.0625,-400000.0625,-393158.65625,-400000.0625,-299048.15625,-400000.0625,-400000.0625
47.80842590332031,-400000.0625,-400000.0625,-400000.0625,-400000.0625,-400000.0625,-301211.3125,-400000.0625,-400000.0625
47.808429479599,-400000.0625,-400000.0625,-400000.0625,-400000.0625,-400000.0625,-298842.28125,-400000.0625,-400000.0625
47.808433055877686,-400000.0625,-400000.0625,-400000.0625,-397793.15625,-400000.0625,-294719.4375,-400000.0625,-400000.0625
47.80843639373779,-400000.0625,-400000.0625,-400000.0625,-380750.65625,-400000.0625,-294669.65625,-400000.0625,-400000.0625
47.80844020843506,-400000.0625,-400000.0625,-400000.0625,-391442.4375,-400000.0625,-298307.5625,-400000.0625,-400000.0625
47.86707830429077,-400000.0625,-400000.0625,-400000.0625,-400000.0625,-400000.0625,-300613.4375,-400000.0625,-400000.0625
47.87615132331848,-400000.0625,-400000.0625,-400000.0625,-400000.0625,-400000.0625,-298362.875,-400000.0625,-400000.0625
47.88056969642639,-400000.0625,-400000.0625,-400000.0625,-396464.40625,-400000.0625,-294140.8125,-400000.0625,-400000.0625
47.88057780265808,-400000.0625,-400000.0625,-400000.0625,-379346.6875,-400000.0625,-294187.1875,-400000.0625,-400000.0625
47.880582332611084,-400000.0625,-400000.0625,-400000.0625,-389946.40625,-400000.0625,-298053.96875,-400000.0625,-400000.0625
47.88058614730835,-400000.0625,-400000.0625,-400000.0625,-400000.0625,-400000.0625,-300006.03125,-400000.0625,-400000.0625
47.880589723587036,-400000.0625,-400000.0625,-400000.0625,-400000.0625,-400000.0625,-297372.40625,-400000.0625,-400000.0625
47.88059329986572,-400000.0625,-400000.0625,-400000.0625,-395141.46875,-400000.0625,-293374.9375,-400000.0625,-400000.0625
47.88059663772583,-400000.0625,-400000.0625,-400000.0625,-377938.84375,-400000.0625,-293322.5,-400000.0625,-400000.0625
47.88060021400452,-400000.0625,-400000.0625,-400000.0625,-388488.90625,-400000.0625,-297036.90625,-400000.0625,-400000.0625
47.8806037902832,-400000.0625,-400000.0625,-400000.0625,-400000.0625,-400000.0625,-299521.34375,-400000.0625,-400000.0625
47.88060712814331,-400000.0625,-400000.0625,-400000.0625,-400000.0625,-400000.0625,-297284.125,-400000.0625,-400000.0625
47.880610704422,-400000.0625,-400000.0625,-400000.0625,-393990.125,-400000.0625,-292937.59375,-400000.0625,-400000.0625
47.880614042282104,-400000.0625,-400000.0625,-400000.0625,-376644.875,-400000.0625,-292635.65625,-400000.0625,-400000.0625
47.88061761856079,-400000.0625,-400000.0625,-400000.0625,-387109.71875,-400000.0625,-296470.78125,-400000.0625,-400000.0625
47.8806209564209,-400000.0625,-400000.0625,-400000.0625,-400000.0625,-400000.0625,-299099.46875,-400000.0625,-400000.0625
47.96508073806763,-400000.0625,-400000.0625,-400000.0625,-400000.0625,-400000.0625,-296811.34375,-400000.0625,-400000.0625
47.97060751914978,-400000.0625,-400000.0625,-400000.0625,-392920.71875,-400000.0625,-292386.28125,-400000.0625,-400000.0625
47.97853660583496,-400000.0625,-400000.0625,-400000.0625,-375567.90625,-400000.0625,-292047.0,-400000.0625,-400000.0625
47.9827082157135,-400000.0625,-400000.0625,-400000.0625,-385922.75,-400000.0625,-295986.15625,-400000.0625,-400000.0625
47.98271727561951,-400000.0625,-400000.0625,-400000.0625,-400000.0625,-400000.0625,-298689.6875,-400000.0625,-400000.0625
47.98272132873535,-400000.0625,-400000.0625,-400000.0625,-400000.0625,-400000.0625,-296302.0625,-400000.0625,-400000.0625
47.98272490501404,-400000.0625,-400000.0625,-400000.0625,-391801.3125,-400000.0625,-291752.90625,-400000.0625,-400000.0625
47.982728481292725,-400000.0625,-400000.0625,-400000.0625,-374317.4375,-400000.0625,-291414.25,-400000.0625,-400000.0625
47.98273205757141,-400000.0625,-400000.0625,-400000.0625,-384531.6875,-400000.0625,-295450.96875,-400000.0625,-400000.0625
47.98273682594299,-400000.0625,-400000.0625,-400000.0625,-400000.0625,-400000.0625,-298193.96875,-400000.0625,-400000.0625
47.98274040222168,-400000.0625,-400000.0625,-400000.0625,-400000.0625,-400000.0625,-295752.8125,-400000.0625,-400000.0625
47.98274374008179,-400000.0625,-400000.0625,-400000.0625,-390864.6875,-400000.0625,-291154.625,-400000.0625,-400000.0625
47.98274755477905,-400000.0625,-400000.0625,-400000.0625,-373332.625,-400000.0625,-290877.40625,-400000.0625,-400000.0625
47.98275113105774,-400000.0625,-400000.0625,-400000.0625,-383401.5,-400000.0625,-295013.6875,-400000.0625,-400000.0625
47.982754707336426,-400000.0625,-400000.0625,-400000.0625,-400000.0625,-400000.0625,-297754.375,-400000.0625,-400000.0625
47.98275852203369,-400000.0625,-400000.0625,-400000.0625,-400000.0625,-400000.0625,-295248.4375,-400000.0625,-400000.0625
47.99785113334656,-400000.0625,-400000.0625,-400000.0625,-389973.625,-400000.0625,-290523.90625,-400000.0625,-400000.0625
48.002787590026855,-400000.0625,-400000.0625,-400000.0625,-372319.84375,-400000.0625,-290308.1875,-400000.0625,-400000.0625
48.00279903411865,-400000.0625,-400000.0625,-400000.0625,-382372.03125,-400000.0625,-294584.84375,-400000.0625,-400000.0625
48.002803325653076,-400000.0625,-400000.0625,-400000.0625,-400000.0625,-400000.0625,-297288.59375,-400000.0625,-400000.0625
48.00280785560608,-400000.0625,-400000.0625,-400000.0625,-400000.0625,-400000.0625,-294682.5,-400000.0625,-400000.0625
48.002811908721924,-400000.0625,-400000.0625,-400000.0625,-389211.9375,-400000.0625,-289922.84375,-400000.0625,-400000.0625
48.00281548500061,-400000.0625,-400000.0625,-400000.0625,-371499.0625,-400000.0625,-289816.84375,-400000.0625,-400000.0625
48.002819299697876,-400000.0625,-400000.0625,-400000.0625,-381422.03125,-400000.0625,-294143.90625,-400000.0625,-400000.0625
48.00282287597656,-400000.0625,-400000.0625,-400000.0625,-400000.0625,-400000.0625,-296778.375,-400000.0625,-400000.0625
48.00282621383667,-400000.0625,-400000.0625,-400000.0625,-400000.0625,-400000.0625,-294076.46875,-400000.0625,-400000.0625
48.002829790115356,-400000.0625,-400000.0625,-400000.0625,-388522.78125,-400000.0625,-289333.09375,-400000.0625,-400000.0625
48.00283336639404,-400000.0625,-400000.0625,-400000.0625,-370789.9375,-400000.0625,-289355.59375,-400000.0625,-400000.0625
48.00283670425415,-400000.0625,-400000.0625,-400000.0625,-380677.09375,-400000.0625,-293726.28125,-400000.0625,-400000.0625
48.00284004211426,-400000.0625,-400000.0625,-400000.0625,-400000.0625,-400000.0625,-296287.375,-400000.0625,-400000.0625
48.002843618392944,-400000.0625,-400000.0625,-400000.0625,-400000.0625,-400000.0625,-293491.125,-400000.0625,-400000.0625
48.00284719467163,-400000.0625,-400000.0625,-400000.0625,-387966.34375,-400000.0625,-288823.21875,-400000.0625,-400000.0625
48.05276155471802,-400000.0625,-400000.0625,-400000.0625,-370125.375,-400000.0625,-288928.25,-400000.0625,-400000.0625
48.05751585960388,-400000.0625,-400000.0625,-400000.0625,-379839.875,-400000.0625,-293225.65625,-400000.0625,-400000.0625
48.05752491950989,-400000.0625,-400000.0625,-400000.0625,-400000.0625,-400000.0625,-295716.625,-400000.0625,-400000.0625
48.05752897262573,-400000.0625,-400000.0625,-400000.0625,-400000.0625,-400000.0625,-292951.4375,-400000.0625,-400000.0625
48.05753302574158,-400000.0625,-400000.0625,-400000.0625,-387674.8125,-400000.0625,-288432.6875,-400000.0625,-400000.0625
48.057536602020264,-400000.0625,-400000.0625,-400000.0625,-369743.78125,-400000.0625,-288602.0,-400000.0625,-400000.0625
48.05754017829895,-400000.0625,-400000.0625,-400000.0625,-379297.25,-400000.0625,-292779.28125,-400000.0625,-400000.0625
48.057543992996216,-400000.0625,-400000.0625,-400000.0625,-400000.0625,-400000.0625,-295177.3125,-400000.0625,-400000.0625
48.05754733085632,-400000.0625,-400000.0625,-400000.0625,-400000.0625,-400000.0625,-292419.5625,-400000.0625,-400000.0625
48.05755090713501,-400000.0625,-400000.0625,-400000.0625,-387312.375,-400000.0625,-288003.09375,-400000.0625,-400000.0625
48.057554483413696,-400000.0625,-400000.0625,-400000.0625,-369212.15625,-400000.0625,-288177.875,-400000.0625,-400000.0625
48.05755805969238,-400000.0625,-400000.0625,-400000.0625,-378704.59375,-400000.0625,-292286.28125,-400000.0625,-400000.0625
48.05756139755249,-400000.0625,-400000.0625,-400000.0625,-400000.0625,-400000.0625,-294662.125,-400000.0625,-400000.0625
48.05756497383118,-400000.0625,-400000.0625,-400000.0625,-400000.0625,-400000.0625,-291974.65625,-400000.0625,-400000.0625
48.05756855010986,-400000.0625,-400000.0625,-400000.0625,-386954.3125,-400000.0625,-287617.28125,-400000.0625,-400000.0625
48.05757212638855,-400000.0625,-400000.0625,-400000.0625,-368722.59375,-400000.0625,-287747.125,-400000.0625,-400000.0625
48.11911106109619,-400000.0625,-400000.0625,-400000.0625,-378159.1875,-400000.0625,-291780.84375,-400000.0625,-400000.0625
48.12767958641052,-400000.0625,-400000.0625,-400000.0625,-400000.0625,-400000.0625,-294082.90625,-400000.0625,-400000.0625
48.13195514678955,-400000.0625,-400000.0625,-400000.0625,-400000.0625,-400000.0625,-291492.125,-400000.0625,-400000.0625
48.13196396827698,-400000.0625,-400000.0625,-400000.0625,-386585.84375,-400000.0625,-287243.71875,-400000.0625,-400000.0625
48.13196873664856,-400000.0625,-400000.0625,-400000.0625,-368289.40625,-400000.0625,-287292.5,-400000.0625,-400000.0625
48.131972551345825,-400000.0625,-400000.0625,-400000.0625,-377629.40625,-400000.0625,-291333.90625,-400000.0625,-400000.0625
48.13197612762451,-400000.0625,-400000.0625,-400000.0625,-400000.0625,-400000.0625,-293955.59375,-400000.0625,-400000.0625
48.1319797039032,-400000.0625,-400000.0625,-400000.0625,-400000.0625,-400000.0625,-291281.0625,-400000.0625,-400000.0625
48.131983280181885,-400000.0625,-400000.0625,-400000.0625,-386497.03125,-400000.0625,-286623.5625,-400000.0625,-400000.0625
48.13198709487915,-400000.0625,-400000.0625,-400000.0625,-368205.78125,-400000.0625,-286617.875,-400000.0625,-400000.0625
48.13199067115784,-400000.0625,-400000.0625,-400000.0625,-377411.46875,-400000.0625,-290828.25,-400000.0625,-400000.0625
48.131994009017944,-400000.0625,-400000.0625,-400000.0625,-400000.0625,-400000.0625,-293140.21875,-400000.0625,-400000.0625
48.13199758529663,-400000.0625,-400000.0625,-400000.0625,-400000.0625,-400000.0625,-290702.4375,-400000.0625,-400000.0625
48.13200092315674,-400000.0625,-400000.0625,-400000.0625,-386492.625,-400000.0625,-286570.0625,-400000.0625,-400000.0625
48.132004499435425,-400000.0625,-400000.0625,-400000.0625,-368081.375,-400000.0625,-286539.3125,-400000.0625,-400000.0625
48.13200807571411,-400000.0625,-400000.0625,-400000.0625,-377081.375,-400000.0625,-290347.46875,-400000.0625,-400000.0625
48.19565224647522,-400000.0625,-400000.0625,-400000.0625,-400000.0625,-400000.0625,-292692.75,-400000.0625,-400000.0625
48.20079278945923,-400000.0625,-400000.0625,-400000.0625,-400000.0625,-400000.0625,-290429.25,-400000.0625,-400000.0625
48.20529222488403,-400000.0625,-400000.0625,-400000.0625,-386505.5625,-400000.0625,-286324.6875,-400000.0625,-400000.0625
48.2053005695343,-400000.0625,-400000.0625,-400000.0625,-367900.28125,-400000.0625,-286129.84375,-400000.0625,-400000.0625
48.20530462265015,-400000.0625,-400000.0625,-400000.0625,-376820.5,-400000.0625,-289854.09375,-400000.0625,-400000.0625
48.20530843734741,-400000.0625,-400000.0625,-400000.0625,-400000.0625,-400000.0625,-292313.53125,-400000.0625,-400000.0625
48.2053120136261,-400000.0625,-400000.0625,-400000.0625,-400000.0625,-400000.0625,-290158.125,-400000.0625,-400000.0625
48.205315351486206,-400000.0625,-400000.0625,-400000.0625,-386378.71875,-400000.0625,-285979.21875,-400000.0625,-400000.0625
48.20531892776489,-400000.0625,-400000.0625,-400000.0625,-367727.5625,-400000.0625,-285744.8125,-400000.0625,-400000.0625
48.20532250404358,-400000.0625,-400000.0625,-400000.0625,-376613.28125,-400000.0625,-289756.53125,-400000.0625,-400000.0625
48.20532584190369,-400000.0625,-400000.0625,-400000.0625,-400000.0625,-400000.0625,-292242.625,-400000.0625,-400000.0625
48.20532941818237,-400000.0625,-400000.0625,-400000.0625,-400000.0625,-400000.0625,-289727.34375,-400000.0625,-400000.0625
48.20533275604248,-400000.0625,-400000.0625,-400000.0625,-386374.21875,-400000.0625,-285390.5,-400000.0625,-400000.0625
48.20533633232117,-400000.0625,-400000.0625,-400000.0625,-367648.96875,-400000.0625,-285348.34375,-400000.0625,-400000.0625
48.20533990859985,-400000.0625,-400000.0625,-400000.0625,-376353.6875,-400000.0625,-289027.1875,-400000.0625,-400000.0625
48.2053439617157,-400000.0625,-400000.0625,-400000.0625,-400000.0625,-400000.0625,-291651.4375,-400000.0625,-400000.0625
48.24778628349304,-400000.0625,-400000.0625,-400000.0625,-400000.0625,-400000.0625,-289671.40625,-400000.0625,-400000.0625
48.256831884384155,-400000.0625,-400000.0625,-400000.0625,-386320.875,-400000.0625,-285422.5625,-400000.0625,-400000.0625
48.26110649108887,-400000.0625,-400000.0625,-400000.0625,-367518.1875,-400000.0625,-284994.78125,-400000.0625,-400000.0625
48.261115074157715,-400000.0625,-400000.0625,-400000.0625,-376080.3125,-400000.0625,-288615.0625,-400000.0625,-400000.0625
48.26111936569214,-400000.0625,-400000.0625,-400000.0625,-399988.75,-400000.0625,-291340.09375,-400000.0625,-400000.0625
48.26112365722656,-400000.0625,-400000.0625,-400000.0625,-400000.0625,-400000.0625,-289420.125,-400000.0625,-400000.0625
48.26112747192383,-400000.0625,-400000.0625,-400000.0625,-386080.96875,-400000.0625,-285055.71875,-400000.0625,-400000.0625
48.261131048202515,-400000.0625,-400000.0625,-400000.0625,-367156.21875,-400000.0625,-284489.9375,-400000.0625,-400000.0625
48.26113438606262,-400000.0625,-400000.0625,-400000.0625,-375470.5,-400000.0625,-288107.375,-400000.0625,-400000.0625
48.26113796234131,-400000.0625,-400000.0625,-400000.0625,-399375.0625,-400000.0625,-290986.625,-400000.0625,-400000.0625
48.261141538619995,-400000.0625,-400000.0625,-400000.0625,-400000.0625,-400000.0625,-289135.34375,-400000.0625,-400000.0625
48.26114511489868,-400000.0625,-400000.0625,-400000.0625,-385817.28125,-400000.0625,-284685.15625,-400000.0625,-400000.0625
48.26114892959595,-400000.0625,-400000.0625,-400000.0625,-366778.5625,-400000.0625,-283987.84375,-400000.0625,-400000.0625
48.261152505874634,-400000.0625,-400000.0625,-400000.0625,-375045.25,-400000.0625,-287740.0625,-400000.0625,-400000.0625
48.26115655899048,-400000.0625,-400000.0625,-400000.0625,-399044.125,-400000.0625,-290797.84375,-400000.0625,-400000.0625
48.261160135269165,-400000.0625,-400000.0625,-400000.0625,-400000.0625,-400000.0625,-288883.28125,-400000.0625,-400000.0625
48.331045627593994,-400000.0625,-400000.0625,-400000.0625,-385551.75,-400000.0625,-284301.15625,-400000.0625,-400000.0625
48.336047887802124,-400000.0625,-400000.0625,-400000.0625,-366420.59375,-400000.0625,-283527.21875,-400000.0625,-400000.0625
48.33605742454529,-400000.0625,-400000.0625,-400000.0625,-374602.84375,-400000.0625,-287396.5625,-400000.0625,-400000.0625
48.34045052528381,-400000.0625,-400000.0625,-400000.0625,-398595.9375,-400000.0625,-290555.1875,-400000.0625,-400000.0625
48.3404586315155,-400000.0625,-400000.0625,-400000.0625,-400000.0625,-400000.0625,-288545.15625,-400000.0625,-400000.0625
48.34046268463135,-400000.0625,-400000.0625,-400000.0625,-385181.8125,-400000.0625,-283834.25,-400000.0625,-400000.0625
48.34046649932861,-400000.0625,-400000.0625,-400000.0625,-365984.375,-400000.0625,-283065.59375,-400000.0625,-400000.0625
48.3404700756073,-400000.0625,-400000.0625,-400000.0625,-374051.71875,-400000.0625,-287052.46875,-400000.0625,-400000.0625
48.340473651885986,-400000.0625,-400000.0625,-400000.0625,-398064.03125,-400000.0625,-290280.21875,-400000.0625,-400000.0625
48.34047722816467,-400000.0625,-400000.0625,-400000.0625,-400000.0625,-400000.0625,-288231.4375,-400000.0625,-400000.0625
48.34048104286194,-400000.0625,-400000.0625,-400000.0625,-385033.65625,-400000.0625,-283471.65625,-400000.0625,-400000.0625
48.340484619140625,-400000.0625,-400000.0625,-400000.0625,-365789.75,-400000.0625,-282760.46875,-400000.0625,-400000.0625
48.34048819541931,-400000.0625,-400000.0625,-400000.0625,-373643.96875,-400000.0625,-286816.96875,-400000.0625,-400000.0625
48.34049201011658,-400000.0625,-400000.0625,-400000.0625,-397519.4375,-400000.0625,-289983.625,-400000.0625,-400000.0625
48.340495586395264,-400000.0625,-400000.0625,-400000.0625,-400000.0625,-400000.0625,-287858.9375,-400000.0625,-400000.0625
48.34049940109253,-400000.0625,-400000.0625,-400000.0625,-384652.21875,-400000.0625,-283026.3125,-400000.0625,-400000.0625
48.39805555343628,-400000.0625,-400000.0625,-400000.0625,-365340.125,-400000.0625,-282396.3125,-400000.0625,-400000.0625
48.40664291381836,-400000.0625,-400000.0625,-400000.0625,-373021.375,-400000.0625,-286514.84375,-400000.0625,-400000.0625
48.41077661514282,-400000.0625,-400000.0625,-400000.0625,-396927.40625,-400000.0625,-289635.5625,-400000.0625,-400000.0625
48.41078329086304,-400000.0625,-400000.0625,-400000.0625,-400000.0625,-400000.0625,-287465.09375,-400000.0625,-400000.0625
48.4107871055603,-400000.0625,-400000.0625,-400000.0625,-384231.65625,-400000.0625,-282592.34375,-400000.0625,-400000.0625
48.41079020500183,-400000.0625,-400000.0625,-400000.0625,-364758.25,-400000.0625,-282017.125,-400000.0625,-400000.0625
48.41079378128052,-400000.0625,-400000.0625,-400000.0625,-372277.25,-400000.0625,-286189.4375,-400000.0625,-400000.0625
48.410796880722046,-400000.0625,-400000.0625,-400000.0625,-396243.9375,-400000.0625,-289280.84375,-400000.0625,-400000.0625
48.410799503326416,-400000.0625,-400000.0625,-400000.0625,-400000.0625,-400000.0625,-287039.46875,-400000.0625,-400000.0625
48.410802602767944,-400000.0625,-400000.0625,-400000.0625,-383714.65625,-400000.0625,-282179.1875,-400000.0625,-400000.0625
48.41080570220947,-400000.0625,-400000.0625,-400000.0625,-364150.9375,-400000.0625,-281684.34375,-400000.0625,-400000.0625
48.410808801651,-400000.0625,-400000.0625,-400000.0625,-371604.34375,-400000.0625,-285882.09375,-400000.0625,-400000.0625
48.41081213951111,-400000.0625,-400000.0625,-400000.0625,-395565.21875,-400000.0625,-288896.0625,-400000.0625,-400000.0625
48.41081523895264,-400000.0625,-400000.0625,-400000.0625,-400000.0625,-400000.0625,-286576.59375,-400000.0625,-400000.0625
48.410818099975586,-400000.0625,-400000.0625,-400000.0625,-383256.625,-400000.0625,-281820.65625,-400000.0625,-400000.0625
48.410821199417114,-400000.0625,-400000.0625,-400000.0625,-363665.28125,-400000.0625,-281432.625,-400000.0625,-400000.0625
48.442981243133545,-400000.0625,-400000.0625,-400000.0625,-370976.84375,-400000.0625,-285570.5,-400000.0625,-400000.0625
48.44761323928833,-400000.0625,-400000.0625,-400000.0625,-394876.96875,-400000.0625,-288494.71875,-400000.0625,-400000.0625
48.447622537612915,-400000.0625,-400000.0625,-400000.0625,-400000.0625,-400000.0625,-286118.625,-400000.0625,-400000.0625
48.44762682914734,-400000.0625,-400000.0625,-400000.0625,-382779.875,-400000.0625,-281498.5625,-400000.0625,-400000.0625
48.447630643844604,-400000.0625,-400000.0625,-400000.0625,-363123.78125,-399949.59375,-281188.5625,-400000.0625,-400000.0625
48.44763469696045,-400000.0625,-400000.0625,-400000.0625,-370307.25,-400000.0625,-285225.71875,-400000.0625,-400000.0625
48.447638511657715,-400000.0625,-400000.0625,-400000.0625,-394145.15625,-400000.0625,-288052.125,-400000.0625,-400000.0625
48.4476420879364,-400000.0625,-400000.0625,-400000.0625,-400000.0625,-400000.0625,-285721.0625,-400000.0625,-400000.0625
48.44764542579651,-400000.0625,-400000.0625,-400000.0625,-382236.34375,-400000.0625,-281208.6875,-400000.0625,-400000.0625
48.447649002075195,-400000.0625,-400000.0625,-400000.0625,-362511.15625,-399479.34375,-280923.03125,-400000.0625,-400000.0625
48.44765257835388,-400000.0625,-400000.0625,-400000.0625,-369503.34375,-400000.0625,-284821.96875,-400000.0625,-400000.0625
48.44765615463257,-400000.0625,-400000.0625,-400000.0625,-393350.28125,-400000.0625,-287819.625,-400000.0625,-400000.0625
48.447659730911255,-400000.0625,-400000.0625,-400000.0625,-400000.0625,-400000.0625,-285730.40625,-400000.0625,-400000.0625
48.44766306877136,-400000.0625,-400000.0625,-400000.0625,-381583.34375,-400000.0625,-280833.71875,-400000.0625,-400000.0625
48.44766688346863,-400000.0625,-400000.0625,-400000.0625,-361783.25,-398500.6875,-280144.34375,-400000.0625,-400000.0625
48.44767093658447,-400000.0625,-400000.0625,-400000.0625,-368711.21875,-400000.0625,-284274.65625,-400000.0625,-400000.0625
48.50067472457886,-400000.0625,-400000.0625,-400000.0625,-392624.09375,-400000.0625,-287222.65625,-400000.0625,-400000.0625
48.509785175323486,-400000.0625,-400000.0625,-400000.0625,-400000.0625,-400000.0625,-285016.28125,-400000.0625,-400000.0625
48.514015197753906,-400000.0625,-400000.0625,-400000.0625,-381090.875,-400000.0625,-280507.65625,-400000.0625,-400000.0625
48.51402258872986,-400000.0625,-400000.0625,-400000.0625,-361151.0625,-397948.125,-279779.40625,-400000.0625,-400000.0625
48.5140266418457,-400000.0625,-400000.0625,-400000.0625,-367951.15625,-400000.0625,-283507.1875,-400000.0625,-400000.0625
48.51403069496155,-400000.0625,-400000.0625,-400000.0625,-391815.40625,-400000.0625,-286640.25,-400000.0625,-400000.0625
48.514034271240234,-400000.0625,-400000.0625,-400000.0625,-399735.25,-400000.0625,-284572.5,-400000.0625,-400000.0625
48.51403737068176,-400000.0625,-400000.0625,-400000.0625,-380423.6875,-399739.59375,-280090.40625,-400000.0625,-400000.0625
48.51404070854187,-400000.0625,-400000.0625,-400000.0625,-360497.09375,-397733.5625,-279728.96875,-400000.0625,-400000.0625
48.51404428482056,-400000.0625,-400000.0625,-400000.0625,-367184.5,-400000.0625,-283555.875,-400000.0625,-400000.0625
48.51404809951782,-400000.0625,-400000.0625,-400000.0625,-391026.625,-400000.0625,-286288.5,-400000.0625,-400000.0625
48.51405167579651,-400000.0625,-400000.0625,-400000.0625,-399069.40625,-400000.0625,-284169.71875,-400000.0625,-400000.0625
48.51405572891235,-400000.0625,-400000.0625,-400000.0625,-379826.5,-399181.5,-279696.9375,-400000.0625,-400000.0625
48.51405906677246,-400000.0625,-400000.0625,-400000.0625,-359815.96875,-396736.0625,-278870.8125,-400000.0625,-400000.0625
48.51406288146973,-400000.0625,-400000.0625,-400000.0625,-366344.125,-400000.0625,-282619.125,-400000.0625,-400000.0625
48.51406645774841,-400000.0625,-400000.0625,-400000.0625,-390115.84375,-400000.0625,-285708.46875,-400000.0625,-400000.0625
48.57014751434326,-400000.0625,-400000.0625,-400000.0625,-398322.625,-400000.0625,-283721.4375,-400000.0625,-400000.0625
48.57488012313843,-400000.0625,-400000.0625,-400000.0625,-379198.4375,-398612.5,-279262.90625,-400000.0625,-400000.0625
48.574888706207275,-400000.0625,-400000.0625,-400000.0625,-359084.03125,-396145.25,-278420.71875,-400000.0625,-400000.0625
48.57489275932312,-400000.0625,-400000.0625,-400000.0625,-365431.4375,-400000.0625,-282128.8125,-400000.0625,-400000.0625
48.57489633560181,-400000.0625,-400000.0625,-400000.0625,-389185.65625,-400000.0625,-285514.8125,-400000.0625,-400000.0625
48.57489991188049,-400000.0625,-400000.0625,-400000.0625,-397523.78125,-400000.0625,-283711.40625,-400000.0625,-400000.0625
48.5749032497406,-400000.0625,-400000.0625,-400000.0625,-378450.78125,-397971.875,-278795.40625,-400000.0625,-400000.0625
48.574907064437866,-400000.0625,-400000.0625,-400000.0625,-358240.375,-395474.34375,-277915.21875,-400000.0625,-400000.0625
48.57491064071655,-400000.0625,-400000.0625,-400000.0625,-364449.21875,-399958.9375,-281692.8125,-400000.0625,-400000.0625
48.57491445541382,-400000.0625,-400000.0625,-400000.0625,-388275.75,-400000.0625,-284701.875,-400000.0625,-400000.0625
48.574917793273926,-400000.0625,-400000.0625,-400000.0625,-396776.8125,-400000.0625,-283044.21875,-400000.0625,-400000.0625
48.57492136955261,-400000.0625,-400000.0625,-400000.0625,-377748.59375,-397795.71875,-278773.0625,-400000.0625,-400000.0625
48.57492470741272,-400000.0625,-400000.0625,-400000.0625,-357478.71875,-395296.25,-277923.25,-400000.0625,-400000.0625
48.574928283691406,-400000.0625,-400000.0625,-400000.0625,-363688.125,-399420.5,-281330.71875,-400000.0625,-400000.0625
48.57493185997009,-400000.0625,-400000.0625,-400000.0625,-387544.34375,-400000.0625,-284348.9375,-400000.0625,-400000.0625
48.57493615150452,-400000.0625,-400000.0625,-400000.0625,-396092.75,-400000.0625,-282624.0,-400000.0625,-400000.0625
48.635863065719604,-400000.0625,-400000.0625,-400000.0625,-377133.375,-396824.75,-277929.1875,-400000.0625,-400000.0625
48.64506196975708,-400000.0625,-400000.0625,-400000.0625,-356828.5,-394406.125,-277142.03125,-400000.0625,-400000.0625
48.64995193481445,-400000.0625,-400000.0625,-400000.0625,-362850.75,-399120.875,-281185.65625,-400000.0625,-400000.0625
48.649961948394775,-400000.0625,-400000.0625,-400000.0625,-386622.75,-400000.0625,-284244.375,-400000.0625,-400000.0625
48.649967193603516,-400000.0625,-400000.0625,-400000.0625,-395242.0625,-400000.0625,-282114.25,-400000.0625,-400000.0625
48.6499707698822,-400000.0625,-400000.0625,-400000.0625,-376372.28125,-396280.4375,-277540.5625,-400000.0625,-400000.0625
48.64997434616089,-400000.0625,-400000.0625,-400000.0625,-355973.5625,-393817.5625,-276720.46875,-400000.0625,-400000.0625
48.649977922439575,-400000.0625,-400000.0625,-400000.0625,-361888.78125,-398051.15625,-280255.90625,-400000.0625,-400000.0625
48.64998173713684,-400000.0625,-400000.0625,-400000.0625,-385647.0,-400000.0625,-283568.5625,-400000.0625,-400000.0625
48.64998507499695,-400000.0625,-400000.0625,-400000.0625,-394445.75,-400000.0625,-282136.1875,-400000.0625,-400000.0625
48.649988412857056,-400000.0625,-400000.0625,-400000.0625,-375705.0625,-396134.375,-277548.0625,-400000.0625,-400000.0625
48.64999198913574,-400000.0625,-400000.0625,-400000.0625,-355234.8125,-393235.96875,-276269.9375,-400000.0625,-400000.0625
48.64999532699585,-400000.0625,-400000.0625,-400000.0625,-360936.71875,-397433.46875,-279773.21875,-400000.0625,-400000.0625
48.649998903274536,-400000.0625,-400000.0625,-400000.0625,-384693.0625,-400000.0625,-283035.6875,-400000.0625,-400000.0625
48.65000247955322,-400000.0625,-400000.0625,-400000.0625,-393658.71875,-400000.0625,-281217.8125,-400000.0625,-400000.0625
48.65000629425049,-400000.0625,-400000.0625,-400000.0625,-375021.4375,-395219.40625,-276706.1875,-400000.0625,-400000.0625
48.69926953315735,-400000.0625,-400000.0625,-400000.0625,-354463.5625,-392923.125,-276069.78125,-400000.0625,-400000.0625
48.70422124862671,-400000.0625,-400000.0625,-400000.0625,-360102.875,-397093.90625,-279580.25,-400000.0625,-400000.0625
48.704230070114136,-400000.0625,-400000.0625,-400000.0625,-383905.84375,-400000.0625,-282510.375,-400000.0625,-400000.0625
48.70423460006714,-400000.0625,-400000.0625,-400000.0625,-392929.09375,-400000.0625,-280871.8125,-400000.0625,-400000.0625
48.70423865318298,-400000.0625,-400000.0625,-400000.0625,-374323.21875,-394674.6875,-276281.53125,-400000.0625,-400000.0625
48.70424222946167,-400000.0625,-400000.0625,-400000.0625,-353688.5625,-391911.28125,-275146.1875,-400000.0625,-400000.0625
48.704245805740356,-400000.0625,-400000.0625,-400000.0625,-359166.46875,-396333.375,-278900.125,-400000.0625,-400000.0625
48.70424938201904,-400000.0625,-400000.0625,-400000.0625,-382926.21875,-400000.0625,-282022.8125,-400000.0625,-400000.0625
48.70425295829773,-400000.0625,-400000.0625,-400000.0625,-392039.5,-400000.0625,-280278.625,-400000.0625,-400000.0625
48.70425629615784,-400000.0625,-400000.0625,-400000.0625,-373495.90625,-394301.3125,-275979.6875,-400000.0625,-400000.0625
48.70425987243652,-400000.0625,-400000.0625,-400000.0625,-352898.15625,-391822.1875,-275150.0,-400000.0625,-400000.0625
48.70426344871521,-400000.0625,-400000.0625,-400000.0625,-358316.21875,-396126.28125,-278794.1875,-400000.0625,-400000.0625
48.70426678657532,-400000.0625,-400000.0625,-400000.0625,-382068.78125,-400000.0625,-281956.84375,-400000.0625,-400000.0625
48.704270362854004,-400000.0625,-400000.0625,-400000.0625,-391282.03125,-399949.25,-279901.0625,-400000.0625,-400000.0625
48.70427393913269,-400000.0625,-400000.0625,-400000.0625,-372900.4375,-393478.125,-275204.03125,-400000.0625,-400000.0625
48.704278230667114,-400000.0625,-400000.0625,-400000.0625,-352239.6875,-391108.9375,-274474.625,-400000.0625,-400000.0625
48.75798773765564,-400000.0625,-400000.0625,-400000.0625,-357494.90625,-395540.0625,-278261.65625,-400000.0625,-400000.0625
48.76719093322754,-400000.0625,-400000.0625,-400000.0625,-381204.5625,-400000.0625,-281418.375,-400000.0625,-400000.0625
48.77156448364258,-400000.0625,-400000.0625,-400000.0625,-390594.875,-399426.46875,-279418.9375,-400000.0625,-400000.0625
48.7715744972229,-400000.0625,-400000.0625,-400000.0625,-372285.5,-392975.40625,-274738.1875,-400000.0625,-400000.0625
48.77157926559448,-400000.0625,-400000.0625,-400000.0625,-351522.78125,-390573.15625,-273977.46875,-400000.0625,-400000.0625
48.771583557128906,-400000.0625,-400000.0625,-400000.0625,-356611.96875,-394951.5,-277717.0,-400000.0625,-400000.0625
48.77158713340759,-400000.0625,-400000.0625,-400000.0625,-380228.03125,-400000.0625,-280896.96875,-400000.0625,-400000.0625
48.77159094810486,-400000.0625,-400000.0625,-400000.0625,-389746.8125,-398914.71875,-278955.53125,-400000.0625,-400000.0625
48.771594762802124,-400000.0625,-400000.0625,-400000.0625,-371567.0,-392412.28125,-274208.78125,-400000.0625,-400000.0625
48.77159810066223,-400000.0625,-400000.0625,-400000.0625,-350707.28125,-389907.25,-273343.875,-400000.0625,-400000.0625
48.7716019153595,-400000.0625,-400000.0625,-400000.0625,-355693.5625,-394221.0625,-277023.3125,-400000.0625,-400000.0625
48.771605491638184,-400000.0625,-400000.0625,-400000.0625,-379466.1875,-399251.46875,-279994.09375,-400000.0625,-400000.0625
48.77160906791687,-400000.0625,-400000.0625,-400000.0625,-389088.90625,-398311.46875,-278352.375,-400000.0625,-400000.0625
48.77161240577698,-400000.0625,-400000.0625,-400000.0625,-370889.375,-391958.25,-273774.75,-400000.0625,-400000.0625
48.771615982055664,-400000.0625,-400000.0625,-400000.0625,-349926.3125,-389059.0625,-272514.28125,-400000.0625,-400000.0625
48.77161955833435,-400000.0625,-400000.0625,-400000.0625,-354826.78125,-393358.84375,-276174.65625,-400000.0625,-400000.0625
48.822798013687134,-400000.0625,-400000.0625,-400000.0625,-378522.1875,-398644.90625,-279419.75,-400000.0625,-400000.0625
48.82764387130737,-400000.0625,-400000.0625,-400000.0625,-388174.46875,-397702.25,-277782.09375,-400000.0625,-400000.0625
48.82765293121338,-400000.0625,-400000.0625,-400000.0625,-370065.40625,-391602.53125,-273473.09375,-400000.0625,-400000.0625
48.8276572227478,-400000.0625,-400000.0625,-400000.0625,-349094.34375,-388943.0,-272489.1875,-400000.0625,-400000.0625
48.82766103744507,-400000.0625,-400000.0625,-400000.0625,-353810.21875,-392889.375,-275812.3125,-400000.0625,-400000.0625
48.827664613723755,-400000.0625,-400000.0625,-400000.0625,-377399.125,-397922.625,-278792.65625,-400000.0625,-400000.0625
48.82766819000244,-400000.0625,-400000.0625,-400000.0625,-387168.75,-397140.875,-277307.21875,-400000.0625,-400000.0625
48.82767152786255,-400000.0625,-400000.0625,-400000.0625,-369180.6875,-391072.65625,-273026.3125,-400000.0625,-400000.0625
48.827674865722656,-400000.0625,-400000.0625,-400000.0625,-348198.96875,-388289.59375,-271915.1875,-400000.0625,-400000.0625
48.82767844200134,-400000.0625,-400000.0625,-400000.0625,-352816.4375,-392142.09375,-275143.125,-400000.0625,-400000.0625
48.82768201828003,-400000.0625,-400000.0625,-400000.0625,-376435.9375,-397309.875,-278253.59375,-400000.0625,-400000.0625
48.827685594558716,-400000.0625,-400000.0625,-400000.0625,-386387.59375,-396705.1875,-276936.1875,-400000.0625,-400000.0625
48.82768893241882,-400000.0625,-400000.0625,-400000.0625,-368514.53125,-390598.1875,-272603.84375,-400000.0625,-400000.0625
48.82769227027893,-400000.0625,-400000.0625,-400000.0625,-347404.25,-387744.5625,-271428.34375,-400000.0625,-400000.0625
48.82769584655762,-400000.0625,-400000.0625,-400000.0625,-351814.125,-391798.875,-274891.09375,-400000.0625,-400000.0625
48.82769966125488,-400000.0625,-400000.0625,-400000.0625,-375455.75,-396902.3125,-277949.09375,-400000.0625,-400000.0625
48.89774441719055,-400000.0625,-400000.0625,-400000.0625,-385557.5,-395897.71875,-276197.9375,-400000.0625,-400000.0625
48.90850329399109,-400000.0625,-400000.0625,-400000.0625,-367750.5625,-389698.75,-271746.5625,-400000.0625,-400000.0625
48.91288685798645,-400000.0625,-400000.0625,-400000.0625,-346540.625,-387034.3125,-270774.90625,-400000.0625,-400000.0625
48.91289448738098,-400000.0625,-400000.0625,-400000.0625,-350894.3125,-390860.09375,-273996.71875,-400000.0625,-400000.0625
48.912898778915405,-400000.0625,-400000.0625,-400000.0625,-374510.4375,-396129.65625,-277204.5625,-400000.0625,-400000.0625
48.91290259361267,-400000.0625,-400000.0625,-400000.0625,-384623.71875,-395598.3125,-275945.5,-400000.0625,-400000.0625
48.91290616989136,-400000.0625,-400000.0625,-400000.0625,-366847.875,-389429.90625,-271545.71875,-400000.0625,-400000.0625
48.912909746170044,-400000.0625,-400000.0625,-400000.0625,-345597.6875,-386398.46875,-270205.09375,-400000.0625,-400000.0625
48.91291356086731,-400000.0625,-400000.0625,-400000.0625,-349882.03125,-390165.9375,-273366.625,-400000.0625,-400000.0625
48.91291904449463,-400000.0625,-400000.0625,-400000.0625,-373532.15625,-395575.9375,-276715.59375,-400000.0625,-400000.0625
48.912922620773315,-400000.0625,-400000.0625,-400000.0625,-383791.78125,-395150.1875,-275562.125,-400000.0625,-400000.0625
48.912926197052,-400000.0625,-400000.0625,-400000.0625,-366069.375,-388878.71875,-271056.90625,-400000.0625,-400000.0625
48.91292953491211,-400000.0625,-400000.0625,-400000.0625,-344768.75,-385733.03125,-269601.5625,-400000.0625,-400000.0625
48.912933111190796,-400000.0625,-400000.0625,-400000.0625,-348920.71875,-389510.0,-272783.59375,-400000.0625,-400000.0625
48.9129364490509,-400000.0625,-400000.0625,-400000.0625,-372505.21875,-395021.6875,-276244.0625,-400000.0625,-400000.0625
48.91294002532959,-400000.0625,-400000.0625,-400000.0625,-382824.375,-394604.53125,-275098.84375,-400000.0625,-400000.0625
48.95107555389404,-400000.0625,-400000.0625,-400000.0625,-365272.28125,-388305.90625,-270547.375,-400000.0625,-400000.0625
48.956122159957886,-400000.0625,-400000.0625,-400000.0625,-343919.8125,-385058.4375,-268981.6875,-400000.0625,-400000.0625
48.960370779037476,-400000.0625,-400000.0625,-400000.0625,-347862.65625,-388876.8125,-272214.3125,-400000.0625,-400000.0625
48.960379123687744,-400000.0625,-400000.0625,-400000.0625,-371351.34375,-394498.1875,-275792.4375,-400000.0625,-400000.0625
48.96038317680359,-400000.0625,-400000.0625,-400000.0625,-381793.59375,-394079.34375,-274633.25,-400000.0625,-400000.0625
48.960386991500854,-400000.0625,-400000.0625,-400000.0625,-364263.28125,-387671.375,-269964.34375,-400000.0625,-400000.0625
48.96039032936096,-400000.0625,-400000.0625,-400000.0625,-342866.03125,-384337.90625,-268315.53125,-400000.0625,-400000.0625
48.96039390563965,-400000.0625,-400000.0625,-400000.0625,-346611.3125,-388215.6875,-271626.125,-400000.0625,-400000.0625
48.960397481918335,-400000.0625,-400000.0625,-400000.0625,-370070.375,-393940.6875,-275316.21875,-400000.0625,-400000.0625
48.96040105819702,-400000.0625,-400000.0625,-400000.0625,-380644.40625,-393480.0625,-274099.71875,-400000.0625,-400000.0625
48.96040463447571,-400000.0625,-400000.0625,-400000.0625,-363240.90625,-387009.46875,-269351.65625,-400000.0625,-400000.0625
48.960407972335815,-400000.0625,-400000.0625,-400000.0625,-341715.8125,-383630.125,-267666.40625,-400000.0625,-400000.0625
48.96041131019592,-400000.0625,-400000.0625,-400000.0625,-345323.75,-387587.5,-271076.53125,-400000.0625,-400000.0625
48.96041488647461,-400000.0625,-400000.0625,-400000.0625,-368748.09375,-393362.1875,-274821.28125,-400000.0625,-400000.0625
48.96041822433472,-400000.0625,-400000.0625,-400000.0625,-379478.6875,-392868.53125,-273557.125,-400000.0625,-400000.0625
48.96042227745056,-400000.0625,-400000.0625,-400000.0625,-362149.8125,-386300.5625,-268702.84375,-400000.0625,-400000.0625
49.065110206604004,-400000.0625,-400000.0625,-400000.0625,-340568.375,-382963.8125,-267066.9375,-400000.0625,-400000.0625
49.07430076599121,-400000.0625,-400000.0625,-400000.0625,-344180.34375,-387077.28125,-270647.8125,-400000.0625,-400000.0625
49.078734159469604,-400000.0625,-400000.0625,-400000.0625,-367662.28125,-392876.875,-274417.96875,-400000.0625,-400000.0625
49.078742265701294,-400000.0625,-400000.0625,-400000.0625,-378422.53125,-392286.625,-273044.5625,-400000.0625,-400000.0625
49.07874655723572,-400000.0625,-400000.0625,-400000.0625,-361111.21875,-385619.5,-268079.46875,-400000.0625,-400000.0625
49.07875037193298,-400000.0625,-400000.0625,-400000.0625,-339457.375,-382347.53125,-266521.15625,-400000.0625,-400000.0625
49.07875394821167,-400000.0625,-400000.0625,-400000.0625,-342888.59375,-386511.03125,-270174.90625,-400000.0625,-400000.0625
49.078757762908936,-400000.0625,-400000.0625,-400000.0625,-366347.3125,-392248.875,-273891.59375,-400000.0625,-400000.0625
49.07876110076904,-400000.0625,-400000.0625,-400000.0625,-377207.46875,-391598.3125,-272448.5625,-400000.0625,-400000.0625
49.07876467704773,-400000.0625,-400000.0625,-400000.0625,-360090.625,-384971.09375,-267503.375,-400000.0625,-400000.0625
49.078768253326416,-400000.0625,-400000.0625,-400000.0625,-338462.25,-381818.78125,-266064.46875,-400000.0625,-400000.0625
49.07877206802368,-400000.0625,-400000.0625,-400000.0625,-341715.46875,-385997.1875,-269754.53125,-400000.0625,-400000.0625
49.07877588272095,-400000.0625,-400000.0625,-400000.0625,-365084.125,-391628.03125,-273364.96875,-400000.0625,-400000.0625
49.078779220581055,-400000.0625,-400000.0625,-400000.0625,-376156.46875,-390968.875,-271892.78125,-400000.0625,-400000.0625
49.07878279685974,-400000.0625,-400000.0625,-400000.0625,-359171.8125,-384399.59375,-266991.75,-400000.0625,-400000.0625
49.07878613471985,-400000.0625,-400000.0625,-400000.0625,-337436.34375,-381294.875,-265614.78125,-400000.0625,-400000.0625
49.0811665058136,-400000.0625,-400000.0625,-400000.0625,-340524.90625,-385434.0625,-269283.90625,-400000.0625,-400000.0625
49.08608412742615,-400000.0625,-400000.0625,-400000.0625,-363941.5625,-391014.09375,-272836.0625,-400000.0625,-400000.0625
49.08609414100647,-400000.0625,-400000.0625,-400000.0625,-375190.4375,-390311.5625,-271302.71875,-400000.0625,-400000.0625
49.08609867095947,-400000.0625,-400000.0625,-400000.0625,-358311.46875,-383832.03125,-266488.3125,-400000.0625,-400000.0625
49.08610248565674,-400000.0625,-400000.0625,-400000.0625,-336468.0625,-380768.125,-265176.84375,-400000.0625,-400000.0625
49.086106300354004,-400000.0625,-400000.0625,-400000.0625,-339466.375,-384854.46875,-268812.125,-400000.0625,-400000.0625
49.08610987663269,-400000.0625,-400000.0625,-400000.0625,-362906.15625,-390383.375,-272313.15625,-400000.0625,-400000.0625
49.08611345291138,-400000.0625,-400000.0625,-400000.0625,-374212.25,-389629.96875,-270716.40625,-400000.0625,-400000.0625
49.08611726760864,-400000.0625,-400000.0625,-400000.0625,-357360.40625,-383230.875,-265983.46875,-400000.0625,-400000.0625
49.08612084388733,-400000.0625,-400000.0625,-400000.0625,-335485.59375,-380245.90625,-264767.4375,-400000.0625,-400000.0625
49.086124420166016,-400000.0625,-400000.0625,-400000.0625,-338403.0625,-384254.3125,-268333.28125,-400000.0625,-400000.0625
49.0861279964447,-400000.0625,-400000.0625,-400000.0625,-361801.09375,-389695.03125,-271743.75,-400000.0625,-400000.0625
49.08613181114197,-400000.0625,-400000.0625,-400000.0625,-373192.9375,-388955.5,-270150.78125,-400000.0625,-400000.0625
49.086135387420654,-400000.0625,-400000.0625,-400000.0625,-356407.71875,-382656.8125,-265521.40625,-400000.0625,-400000.0625
49.08613896369934,-400000.0625,-400000.0625,-400000.0625,-334510.40625,-379708.53125,-264353.125,-400000.0625,-400000.0625
49.086142778396606,-400000.0625,-400000.0625,-400000.0625,-337290.03125,-383592.03125,-267802.65625,-400000.0625,-400000.0625
49.14808487892151,-400000.0625,-400000.0625,-400000.0625,-360679.75,-388964.65625,-271136.6875,-400000.0625,-400000.0625
49.15302324295044,-400000.0625,-400000.0625,-400000.0625,-372158.4375,-388295.40625,-269606.5625,-400000.0625,-400000.0625
49.1530327796936,-400000.0625,-400000.0625,-400000.0625,-355522.625,-382123.09375,-265102.84375,-400000.0625,-400000.0625
49.153037309646606,-400000.0625,-400000.0625,-400000.0625,-333586.6875,-379127.75,-263903.5,-400000.0625,-400000.0625
49.15304160118103,-400000.0625,-400000.0625,-400000.0625,-336236.46875,-382872.53125,-267232.40625,-400000.0625,-400000.0625
49.153045654296875,-400000.0625,-400000.0625,-400000.0625,-359570.4375,-388140.8125,-270469.75,-400000.0625,-400000.0625
49.15304923057556,-400000.0625,-400000.0625,-400000.0625,-371259.125,-387656.125,-269117.90625,-400000.0625,-400000.0625
49.15305280685425,-399331.90625,-400000.0625,-400000.0625,-354837.09375,-381673.46875,-264800.375,-400000.0625,-400000.0625
49.153056383132935,-400000.0625,-400000.0625,-400000.0625,-332849.40625,-378568.75,-263504.3125,-400000.0625,-400000.0625
49.1530601978302,-400000.0625,-400000.0625,-400000.0625,-335314.5,-382165.1875,-266700.1875,-400000.0625,-400000.0625
49.15306329727173,-400000.0625,-400000.0625,-400000.0625,-358623.875,-387408.25,-269913.90625,-400000.0625,-400000.0625
49.153067111968994,-400000.0625,-400000.0625,-400000.0625,-370450.71875,-387079.34375,-268718.125,-400000.0625,-400000.0625
49.15307021141052,-398479.65625,-400000.0625,-400000.0625,-354092.125,-381161.125,-264471.0,-400000.0625,-400000.0625
49.15307378768921,-400000.0625,-400000.0625,-400000.0625,-331970.78125,-377876.0,-263009.4375,-400000.0625,-400000.0625
49.153077125549316,-400000.0625,-400000.0625,-400000.0625,-334300.75,-381335.34375,-266086.71875,-400000.0625,-400000.0625
49.153080701828,-400000.0625,-400000.0625,-400000.0625,-357637.6875,-386653.5625,-269378.03125,-400000.0625,-400000.0625
49.21495962142944,-400000.0625,-400000.0625,-400000.0625,-369589.65625,-386481.0,-268335.5625,-400000.0625,-400000.0625
49.22412610054016,-397529.03125,-400000.0625,-400000.0625,-353233.09375,-380542.625,-264079.21875,-400000.0625,-400000.0625
49.228636026382446,-400000.0625,-400000.0625,-400000.0625,-331043.0,-377117.15625,-262492.78125,-400000.0625,-400000.0625
49.22864294052124,-400000.0625,-400000.0625,-400000.0625,-333283.21875,-380464.78125,-265470.8125,-400000.0625,-400000.0625
49.228646755218506,-400000.0625,-400000.0625,-400000.0625,-356646.625,-385896.875,-268887.6875,-400000.0625,-400000.0625
49.228649854660034,-400000.0625,-400000.0625,-400000.0625,-368647.09375,-385837.40625,-267973.3125,-400000.0625,-400000.0625
49.22865319252014,-396557.25,-400000.0625,-400000.0625,-352346.875,-379827.3125,-263663.8125,-400000.0625,-400000.0625
49.22865629196167,-400000.0625,-400000.0625,-400000.0625,-330194.0,-376301.375,-262002.0625,-400000.0625,-400000.0625
49.22865915298462,-400000.0625,-400000.0625,-400000.0625,-332394.5,-379570.65625,-264924.03125,-400000.0625,-400000.0625
49.22866225242615,-400000.0625,-400000.0625,-400000.0625,-355668.6875,-385065.21875,-268434.125,-400000.0625,-400000.0625
49.228665351867676,-400000.0625,-400000.0625,-400000.0625,-367763.1875,-385109.03125,-267655.0625,-400000.0625,-400000.0625
49.228668451309204,-395589.21875,-400000.0625,-400000.0625,-351680.8125,-379070.40625,-263324.71875,-400000.0625,-400000.0625
49.22867155075073,-399861.8125,-400000.0625,-400000.0625,-329447.625,-375384.46875,-261523.515625,-400000.0625,-400000.0625
49.22867465019226,-400000.0625,-400000.0625,-400000.0625,-331454.65625,-378552.8125,-264385.78125,-400000.0625,-400000.0625
49.22867798805237,-400000.0625,-400000.0625,-400000.0625,-354697.875,-384133.65625,-268025.5625,-400000.0625,-400000.0625
49.2286810874939,-400000.0625,-400000.0625,-400000.0625,-366847.1875,-384215.03125,-267316.1875,-400000.0625,-400000.0625
49.28723406791687,-394593.0,-400000.0625,-400000.0625,-350708.90625,-378014.125,-262850.46875,-400000.0625,-400000.0625
49.29219961166382,-398805.375,-400000.0625,-400000.0625,-328435.875,-374198.8125,-260947.9375,-400000.0625,-400000.0625
49.292208433151245,-400000.0625,-400000.0625,-400000.0625,-330321.3125,-377347.09375,-263830.78125,-400000.0625,-400000.0625
49.29221248626709,-400000.0625,-400000.0625,-400000.0625,-353579.09375,-383031.75,-267613.71875,-400000.0625,-400000.0625
49.292216300964355,-400000.0625,-400000.0625,-400000.0625,-365927.78125,-383186.0,-266981.53125,-400000.0625,-400000.0625
49.29221987724304,-393895.375,-400000.0625,-400000.0625,-349936.96875,-376963.75,-262485.53125,-400000.0625,-400000.0625
49.29222345352173,-397918.5625,-400000.0625,-400000.0625,-327542.875,-373012.3125,-260453.875,-400000.0625,-400000.0625
49.292226791381836,-400000.0625,-400000.0625,-400000.0625,-329236.0625,-376210.84375,-263410.40625,-400000.0625,-400000.0625
49.29223036766052,-400000.0625,-400000.0625,-400000.0625,-352436.15625,-382019.90625,-267328.71875,-400000.0625,-400000.0625
49.29223370552063,-400000.0625,-400000.0625,-400000.0625,-364811.65625,-382124.9375,-266650.75,-400000.0625,-400000.0625
49.292237281799316,-393059.625,-400000.0625,-400000.0625,-348899.40625,-375846.46875,-262085.1875,-400000.0625,-400000.0625
49.292240858078,-397015.5625,-400000.0625,-400000.0625,-326523.0625,-371865.46875,-260022.34375,-400000.0625,-400000.0625
49.29224419593811,-400000.0625,-400000.0625,-400000.0625,-328240.90625,-375203.0,-263129.5,-400000.0625,-400000.0625
49.29655194282532,-400000.0625,-400000.0625,-400000.0625,-351486.90625,-381130.9375,-267171.28125,-400000.0625,-400000.0625
49.29655909538269,-399917.78125,-400000.0625,-400000.0625,-363951.34375,-381186.1875,-266425.21875,-400000.0625,-400000.0625
49.296563148498535,-392305.125,-400000.0625,-400000.0625,-348058.40625,-374801.78125,-261741.765625,-400000.0625,-400000.0625
49.33906412124634,-396170.34375,-399833.8125,-400000.0625,-325610.5,-370785.9375,-259654.171875,-400000.0625,-400000.0625
49.34919786453247,-400000.0625,-400000.0625,-400000.0625,-327180.28125,-374150.875,-262822.75,-400000.0625,-400000.0625
49.35366415977478,-400000.0625,-400000.0625,-400000.0625,-350368.25,-380066.0625,-266881.75,-400000.0625,-400000.0625
49.353673696517944,-399158.125,-400000.0625,-400000.0625,-362959.375,-380065.8125,-266076.3125,-400000.0625,-400000.0625
49.35367798805237,-391506.53125,-400000.0625,-400000.0625,-347276.40625,-373656.40625,-261350.0,-400000.0625,-400000.0625
49.353681802749634,-395386.28125,-399411.375,-400000.0625,-324803.34375,-369688.78125,-259322.90625,-400000.0625,-400000.0625
49.35368537902832,-400000.0625,-400000.0625,-400000.0625,-326238.15625,-373122.6875,-262594.875,-400000.0625,-400000.0625
49.35368895530701,-400000.0625,-400000.0625,-400000.0625,-349353.40625,-378976.6875,-266618.5625,-400000.0625,-400000.0625
49.35369300842285,-398432.71875,-400000.0625,-400000.0625,-362028.96875,-378901.71875,-265743.09375,-400000.0625,-400000.0625
49.35369658470154,-390643.9375,-400000.0625,-400000.0625,-346390.71875,-372410.625,-260931.90625,-400000.0625,-400000.0625
49.353700160980225,-394581.3125,-398954.375,-400000.0625,-323847.90625,-368505.5625,-258991.375,-400000.0625,-400000.0625
49.35370373725891,-400000.0625,-400000.0625,-400000.0625,-325161.59375,-372002.5,-262366.34375,-400000.0625,-400000.0625
49.3537073135376,-400000.0625,-400000.0625,-400000.0625,-348324.875,-377835.5,-266371.1875,-400000.0625,-400000.0625
49.353710889816284,-397857.875,-400000.0625,-400000.0625,-361153.84375,-377735.21875,-265453.40625,-400000.0625,-400000.0625
49.35371446609497,-390011.25,-400000.0625,-400000.0625,-345652.5625,-371251.90625,-260638.84375,-400000.0625,-400000.0625
49.353718280792236,-393937.6875,-398635.8125,-400000.0625,-323026.28125,-367395.5,-258762.8125,-400000.0625,-400000.0625
49.4319269657135,-400000.0625,-400000.0625,-400000.0625,-324153.65625,-370887.75,-262152.1875,-400000.0625,-400000.0625
49.437249183654785,-400000.0625,-400000.0625,-400000.0625,-347297.40625,-376649.53125,-266075.59375,-400000.0625,-400000.0625
49.44215273857117,-397135.40625,-400000.0625,-400000.0625,-360285.53125,-376525.875,-265099.9375,-400000.0625,-400000.0625
49.44763255119324,-389299.875,-400000.0625,-400000.0625,-344857.34375,-370110.5625,-260332.09375,-400000.0625,-400000.0625
49.452903747558594,-393230.4375,-398366.59375,-400000.0625,-322118.09375,-366302.625,-258519.15625,-400000.0625,-400000.0625
49.45686650276184,-400000.0625,-400000.0625,-400000.0625,-323102.625,-369763.9375,-261898.125,-400000.0625,-400000.0625
49.45687556266785,-400000.0625,-400000.0625,-400000.0625,-346204.6875,-375441.5,-265735.09375,-400000.0625,-400000.0625
49.45688009262085,-396354.15625,-400000.0625,-400000.0625,-359275.5625,-375247.25,-264672.78125,-400000.0625,-400000.0625
49.456883907318115,-388558.96875,-400000.0625,-400000.0625,-343953.46875,-368928.09375,-259994.34375,-400000.0625,-400000.0625
49.4568874835968,-392581.84375,-398121.3125,-400000.0625,-321201.03125,-365218.25,-258296.5625,-400000.0625,-400000.0625
49.45689105987549,-400000.0625,-400000.0625,-400000.0625,-322108.59375,-368634.40625,-261639.015625,-400000.0625,-400000.0625
49.45689558982849,-400000.0625,-400000.0625,-400000.0625,-345232.15625,-374351.6875,-265500.15625,-400000.0625,-400000.0625
49.45689940452576,-396199.6875,-400000.0625,-400000.0625,-358452.09375,-374475.75,-264746.03125,-400000.0625,-400000.0625
49.45690321922302,-388330.84375,-400000.0625,-400000.0625,-343301.96875,-368105.46875,-260002.828125,-400000.0625,-400000.0625
49.45690679550171,-391880.46875,-397535.40625,-400000.0625,-320526.71875,-363982.53125,-257867.1875,-400000.0625,-400000.0625
49.456910610198975,-400000.0625,-400000.0625,-400000.0625,-321222.78125,-367267.375,-261074.046875,-400000.0625,-400000.0625
49.46526575088501,-400000.0625,-400000.0625,-400000.0625,-344259.71875,-373144.0625,-265094.75,-400000.0625,-400000.0625
49.47096371650696,-395374.125,-400000.0625,-400000.0625,-357734.71875,-373113.34375,-264132.34375,-400000.0625,-400000.0625
49.47517538070679,-387660.625,-400000.0625,-400000.0625,-342738.71875,-367012.5,-259630.1875,-400000.0625,-400000.0625
49.47518491744995,-391489.03125,-397700.59375,-400000.0625,-319755.53125,-363253.15625,-257905.90625,-400000.0625,-400000.0625
49.475189447402954,-400000.0625,-400000.0625,-400000.0625,-320213.25,-366410.53125,-261017.96875,-400000.0625,-400000.0625
49.4751935005188,-400000.0625,-400000.0625,-400000.0625,-343314.40625,-372198.65625,-264932.71875,-400000.0625,-400000.0625
49.475197315216064,-395226.53125,-400000.0625,-400000.0625,-356977.09375,-372469.1875,-264259.6875,-400000.0625,-400000.0625
49.47520089149475,-387150.625,-400000.0625,-400000.0625,-342008.6875,-366051.15625,-259421.328125,-400000.0625,-400000.0625
49.47520470619202,-390461.25,-396806.90625,-400000.0625,-318877.9375,-361851.15625,-257236.375,-400000.0625,-400000.0625
49.475207805633545,-400000.0625,-400000.0625,-400000.0625,-319257.15625,-365179.3125,-260513.296875,-400000.0625,-400000.0625
49.47521162033081,-400000.0625,-400000.0625,-400000.0625,-342470.5,-371219.8125,-264665.96875,-400000.0625,-400000.0625
49.47521471977234,-394838.9375,-400000.0625,-400000.0625,-356322.65625,-371621.40625,-264101.15625,-400000.0625,-400000.0625
49.475218534469604,-386644.5625,-400000.0625,-400000.0625,-341396.21875,-365178.1875,-259229.265625,-400000.0625,-400000.0625
49.475221395492554,-389647.46875,-396352.90625,-400000.0625,-318048.09375,-360762.53125,-256837.34375,-400000.0625,-400000.0625
49.47522497177124,-399048.5625,-400000.0625,-400000.0625,-318165.78125,-363938.09375,-259978.84375,-400000.0625,-400000.0625
49.47522950172424,-400000.0625,-400000.0625,-400000.0625,-341409.5,-369985.09375,-264130.25,-400000.0625,-400000.0625
49.52771067619324,-393757.8125,-400000.0625,-400000.0625,-355482.0625,-370230.34375,-263354.1875,-400000.0625,-400000.0625
49.532642126083374,-385770.8125,-399939.4375,-400000.0625,-340652.65625,-364117.4375,-258795.90625,-400000.0625,-400000.0625
49.53265118598938,-389105.59375,-396534.59375,-400000.0625,-317227.0625,-360085.28125,-256831.203125,-400000.0625,-400000.0625
49.53265571594238,-398464.78125,-400000.0625,-400000.0625,-317240.1875,-363114.71875,-259845.859375,-400000.0625,-400000.0625
49.53265953063965,-400000.0625,-400000.0625,-400000.0625,-340545.15625,-368960.8125,-263761.15625,-400000.0625,-400000.0625
49.532663345336914,-393179.5,-400000.0625,-400000.0625,-354748.1875,-369321.8125,-263067.40625,-400000.0625,-400000.0625
49.53266716003418,-385243.6875,-399802.4375,-400000.0625,-340041.59375,-363330.84375,-258609.1875,-400000.0625,-400000.0625
49.532670736312866,-388401.84375,-396252.5,-400000.0625,-316471.40625,-359187.40625,-256542.515625,-400000.0625,-400000.0625
49.53267431259155,-397657.1875,-400000.0625,-400000.0625,-316315.59375,-362089.53125,-259433.734375,-400000.0625,-400000.0625
49.53267788887024,-400000.0625,-400000.0625,-400000.0625,-339629.9375,-367916.4375,-263306.375,-400000.0625,-400000.0625
49.532681465148926,-392734.96875,-400000.0625,-400000.0625,-354198.5625,-368556.125,-262847.96875,-400000.0625,-400000.0625
49.53268527984619,-384886.03125,-399792.96875,-400000.0625,-339666.375,-362706.1875,-258512.046875,-400000.0625,-400000.0625
49.5326886177063,-387749.0,-395957.9375,-400000.0625,-315883.625,-358355.1875,-256250.703125,-400000.0625,-400000.0625
49.532692432403564,-396769.5625,-400000.0625,-400000.0625,-315396.125,-361041.03125,-258949.015625,-400000.0625,-400000.0625
49.53269577026367,-399679.625,-400000.0625,-400000.0625,-338863.28125,-366979.84375,-262915.5625,-400000.0625,-400000.0625
49.53269934654236,-392406.84375,-400000.0625,-400000.0625,-353708.6875,-367895.375,-262694.59375,-400000.0625,-400000.0625
49.58910799026489,-384531.625,-399768.96875,-400000.0625,-339198.5,-362087.28125,-258389.265625,-400000.0625,-400000.0625
49.598336935043335,-386988.3125,-395575.25,-400000.0625,-315129.84375,-357452.15625,-255863.796875,-400000.0625,-400000.0625
49.60273742675781,-395841.78125,-400000.0625,-400000.0625,-314435.625,-359974.9375,-258412.734375,-400000.0625,-400000.0625
49.6027467250824,-399005.6875,-400000.0625,-400000.0625,-338003.53125,-366073.5,-262521.34375,-400000.0625,-400000.0625
49.60275077819824,-392008.6875,-400000.0625,-400000.0625,-353103.1875,-367225.75,-262512.71875,-400000.0625,-400000.0625
49.60275483131409,-384015.21875,-399615.34375,-400000.0625,-338607.15625,-361382.25,-258162.765625,-400000.0625,-400000.0625
49.60275840759277,-386128.28125,-395121.71875,-400000.0625,-314339.25,-356520.40625,-255422.765625,-400000.0625,-400000.0625
49.60276198387146,-395144.6875,-400000.0625,-400000.0625,-313508.3125,-359188.5625,-258136.640625,-400000.0625,-400000.0625
49.602765798568726,-398741.25,-400000.0625,-400000.0625,-337149.75,-365579.9375,-262543.0,-400000.0625,-400000.0625
49.60276937484741,-391566.65625,-400000.0625,-400000.0625,-352481.3125,-366470.90625,-262231.1875,-400000.0625,-400000.0625
49.602773666381836,-383137.375,-398777.625,-400000.0625,-338111.78125,-360292.75,-257494.671875,-400000.0625,-400000.0625
49.602776765823364,-385170.15625,-394481.03125,-400000.0625,-313623.3125,-355525.0,-254858.8125,-400000.0625,-400000.0625
49.60277986526489,-393960.46875,-400000.0625,-400000.0625,-312495.75,-357994.03125,-257398.59375,-400000.0625,-400000.0625
49.60278272628784,-397524.6875,-400000.0625,-400000.0625,-336151.75,-364306.5,-261704.8125,-400000.0625,-400000.0625
49.60278606414795,-390915.15625,-400000.0625,-400000.0625,-351691.34375,-365747.40625,-261929.203125,-400000.0625,-400000.0625
49.60278940200806,-382743.25,-399064.4375,-400000.0625,-337389.03125,-359882.5,-257522.140625,-400000.0625,-400000.0625
49.66443467140198,-384303.09375,-394179.71875,-400000.0625,-312741.78125,-354712.65625,-254493.703125,-400000.0625,-400000.0625
49.669743061065674,-392868.625,-399400.625,-400000.0625,-311473.6875,-356955.625,-256800.25,-400000.0625,-400000.0625
49.67405295372009,-396713.6875,-400000.0625,-400000.0625,-335230.34375,-363472.5625,-261296.40625,-400000.0625,-400000.0625
49.674060106277466,-390410.75,-400000.0625,-400000.0625,-351095.25,-365184.15625,-261763.515625,-400000.0625,-400000.0625
49.67406487464905,-382120.03125,-398869.75,-400000.0625,-336896.15625,-359261.375,-257274.375,-400000.0625,-400000.0625
49.674067974090576,-383359.53125,-393685.25,-400000.0625,-312032.6875,-353872.875,-254031.15625,-400000.0625,-400000.0625
49.674071073532104,-391740.40625,-398698.53125,-400000.0625,-310453.15625,-355955.75,-256193.484375,-400000.0625,-400000.0625
49.67407464981079,-395833.3125,-400000.0625,-400000.0625,-334194.5,-362642.53125,-260859.140625,-400000.0625,-400000.0625
49.67407774925232,-389829.0,-400000.0625,-400000.0625,-350334.3125,-364582.625,-261533.390625,-400000.0625,-400000.0625
49.67408084869385,-381445.0625,-398616.84375,-400000.0625,-336336.375,-358617.0625,-256977.203125,-400000.0625,-400000.0625
49.6740837097168,-382351.875,-393105.125,-400000.0625,-311284.4375,-353009.21875,-253515.609375,-400000.0625,-400000.0625
49.674086809158325,-390703.25,-398102.1875,-400000.0625,-309563.1875,-355074.84375,-255666.953125,-400000.0625,-400000.0625
49.67408990859985,-395088.53125,-400000.0625,-400000.0625,-333403.0625,-361976.28125,-260542.515625,-400000.0625,-400000.0625
49.67409300804138,-389218.65625,-400000.0625,-400000.0625,-349660.6875,-364016.0625,-261303.6875,-400000.0625,-400000.0625
49.67409610748291,-380647.40625,-398257.96875,-400000.0625,-335663.40625,-357920.25,-256599.59375,-400000.0625,-400000.0625
49.67409920692444,-381283.1875,-392476.875,-400000.0625,-310484.4375,-352127.4375,-252954.3125,-400000.0625,-400000.0625
49.71745324134827,-389671.09375,-397548.6875,-400000.0625,-308593.0625,-354223.90625,-255150.25,-400000.0625,-400000.0625
49.7271785736084,-394284.625,-400000.0625,-400000.0625,-332405.21875,-361275.625,-260185.265625,-400000.0625,-400000.0625
49.731741189956665,-388491.0,-400000.0625,-400000.0625,-348823.5,-363346.65625,-260972.625,-400000.0625,-400000.0625
49.73175072669983,-379809.0,-397832.0625,-400000.0625,-334959.625,-357181.4375,-256185.609375,-400000.0625,-400000.0625
49.731754779815674,-380276.78125,-391863.71875,-400000.0625,-309718.96875,-351269.90625,-252415.015625,-400000.0625,-400000.0625
49.73175883293152,-388716.375,-397039.5625,-400000.0625,-307608.6875,-353411.5625,-254673.234375,-400000.0625,-400000.0625
49.731762647628784,-393529.3125,-400000.0625,-400000.0625,-331367.15625,-360589.375,-259848.015625,-400000.0625,-400000.0625
49.73176646232605,-387734.03125,-400000.0625,-400000.0625,-347928.21875,-362632.03125,-260599.59375,-400000.0625,-400000.0625
49.731770038604736,-378919.28125,-397330.625,-400000.0625,-334203.0,-356390.375,-255718.015625,-400000.0625,-400000.0625
49.73177361488342,-379218.0625,-391227.78125,-400000.0625,-308867.90625,-350390.8125,-251860.21875,-400000.0625,-400000.0625
49.73177719116211,-387704.8125,-396516.03125,-400000.0625,-306539.75,-352573.1875,-254179.84375,-400000.0625,-400000.0625
49.731780767440796,-392676.59375,-400000.0625,-400000.0625,-330238.46875,-359829.90625,-259449.796875,-400000.0625,-400000.0625
49.73178434371948,-386985.875,-400000.0625,-400000.0625,-347066.25,-361915.625,-260218.21875,-400000.0625,-400000.0625
49.7317898273468,-378140.34375,-396898.09375,-400000.0625,-333619.125,-355675.59375,-255296.546875,-400000.0625,-400000.0625
49.73179340362549,-378297.46875,-390731.53125,-400000.0625,-308168.15625,-349632.15625,-251388.34375,-400000.0625,-400000.0625
49.73179745674133,-386758.375,-396079.4375,-400000.0625,-305559.96875,-351808.34375,-253727.84375,-400000.0625,-400000.0625
49.80909729003906,-391861.34375,-400000.0625,-400000.0625,-329294.28125,-359126.90625,-259064.75,-400000.0625,-400000.0625
49.813987493515015,-386229.5,-400000.0625,-400000.0625,-346355.78125,-361236.71875,-259837.9375,-400000.0625,-400000.0625
49.81399655342102,-377265.0625,-396379.09375,-400000.0625,-333018.59375,-354922.28125,-254818.515625,-400000.0625,-400000.0625
49.814000606536865,-377338.03125,-390237.8125,-400000.0625,-307433.5,-348876.625,-250911.5,-400000.0625,-400000.0625
