time,ch1,ch2,ch3,ch4,ch5
timestamp,ch7,ch2,ch3,ch5,is_pause
timestamp,ch7,ch2,ch3,ch5,is_pause
timestamp,ch7,ch2,ch3,ch5,is_pause
0.06055450439453125,-400000.0625,-15083.5498046875,-5906.68017578125,-400000.0625,-5691.72021484375,-400000.0625,-7619.85986328125,-400000.0625
0.06098294258117676,-400000.0625,-15062.4296875,-5881.60009765625,-400000.0625,-5659.580078125,-400000.0625,-7599.16015625,-400000.0625
0.06104898452758789,-400000.0625,-15040.259765625,-5856.7998046875,-400000.0625,-5635.7900390625,-400000.0625,-7575.18017578125,-400000.0625
0.06108260154724121,-400000.0625,-15047.83984375,-5867.43017578125,-400000.0625,-5643.7998046875,-400000.0625,-7584.0498046875,-400000.0625
0.06110811233520508,-400000.0625,-15081.740234375,-5901.18994140625,-400000.0625,-5670.35986328125,-400000.0625,-7611.3701171875,-400000.0625
0.06113123893737793,-400000.0625,-15106.3896484375,-5925.22998046875,-400000.0625,-5693.39013671875,-400000.0625,-7636.97998046875,-400000.0625
0.06115388870239258,-400000.0625,-15082.2197265625,-5901.39013671875,-400000.0625,-5678.75,-400000.0625,-7614.419921875,-400000.0625
0.061174869537353516,-400000.0625,-15041.6396484375,-5862.669921875,-400000.0625,-5658.39013671875,-400000.0625,-7576.66015625,-400000.0625
0.06119656562805176,-400000.0625,-15038.5400390625,-5862.3798828125,-400000.0625,-5660.919921875,-400000.0625,-7576.509765625,-400000.0625
0.06121826171875,-400000.0625,-15067.5302734375,-5889.93994140625,-400000.0625,-5672.259765625,-400000.0625,-7604.7001953125,-400000.0625
0.06124067306518555,-400000.0625,-15080.5,-5903.14990234375,-400000.0625,-5673.83984375,-400000.0625,-7615.14013671875,-400000.0625
0.061261892318725586,-400000.0625,-15087.7998046875,-5904.2001953125,-400000.0625,-5672.60009765625,-400000.0625,-7609.27001953125,-400000.0625
0.06128430366516113,-400000.0625,-15074.4501953125,-5882.1201171875,-400000.0625,-5652.85986328125,-400000.0625,-7602.41015625,-400000.0625
0.06130647659301758,-400000.0625,-15056.08984375,-5869.009765625,-400000.0625,-5651.669921875,-400000.0625,-7625.2001953125,-400000.0625
0.06133079528808594,-400000.0625,-15064.2900390625,-5885.22021484375,-400000.0625,-5672.5,-400000.0625,-7660.91015625,-400000.0625
0.061353445053100586,-400000.0625,-15052.9404296875,-5872.919921875,-400000.0625,-5676.3701171875,-400000.0625,-7673.8798828125,-400000.0625
timestamp,ch7,ch2,ch3,ch5,is_pause
timestamp,ch7,ch2,ch3,ch5,is_pause
0.08680987358093262,-400000.0625,-15011.5,-5833.9599609375,-400000.0625,-5649.6201171875,-400000.0625,-7672.02001953125,-400000.0625
0.08698725700378418,-400000.0625,-14983.7001953125,-5805.830078125,-400000.0625,-5625.8701171875,-400000.0625,-7693.72021484375,-400000.0625
0.08701086044311523,-400000.0625,-14968.0595703125,-5794.14013671875,-400000.0625,-5627.72998046875,-400000.0625,-7715.18017578125,-400000.0625
0.08703064918518066,-400000.0625,-14976.1201171875,-5802.06005859375,-400000.0625,-5654.72021484375,-400000.0625,-7761.10009765625,-400000.0625
0.08704996109008789,-400000.0625,-14980.9404296875,-5797.91015625,-400000.0625,-5665.10986328125,-400000.0625,-7803.2001953125,-400000.0625
0.08707070350646973,-400000.0625,-14950.7099609375,-5762.43017578125,-400000.0625,-5643.080078125,-400000.0625,-7810.06982421875,-400000.0625
0.08708953857421875,-400000.0625,-14926.009765625,-5721.669921875,-400000.0625,-5610.08984375,-400000.0625,-7817.31982421875,-400000.0625
0.08710718154907227,-400000.0625,-14915.900390625,-5700.4501953125,-400000.0625,-5617.0,-400000.0625,-7839.5400390625,-400000.0625
0.08712458610534668,-400000.0625,-14934.2998046875,-5716.3701171875,-400000.0625,-5641.93994140625,-400000.0625,-7886.83984375,-400000.0625
0.08714509010314941,-400000.0625,-14931.009765625,-5702.5400390625,-400000.0625,-5631.8798828125,-400000.0625,-7906.77001953125,-400000.0625
0.08716320991516113,-400000.0625,-14910.2197265625,-5668.259765625,-400000.0625,-5614.27978515625,-400000.0625,-7904.14990234375,-400000.0625
0.08718132972717285,-400000.0625,-14890.2900390625,-5637.31005859375,-400000.0625,-5576.1298828125,-400000.0625,-7909.10986328125,-400000.0625
0.08719944953918457,-400000.0625,-14914.75,-5649.759765625,-400000.0625,-5595.4501953125,-400000.0625,-7939.6298828125,-400000.0625
0.08721709251403809,-400000.0625,-14956.5703125,-5678.85009765625,-400000.0625,-5635.60009765625,-400000.0625,-7978.9599609375,-400000.0625
0.08724546432495117,-400000.0625,-14955.0498046875,-5673.7001953125,-400000.0625,-5627.009765625,-400000.0625,-7992.169921875,-400000.0625
0.0872652530670166,-400000.0625,-14914.3701171875,-5635.2099609375,-400000.0625,-5593.830078125,-400000.0625,-7959.64990234375,-400000.0625
timestamp,ch7,ch2,ch3,ch5,is_pause
timestamp,ch7,ch2,ch3,ch5,is_pause
timestamp,ch7,ch2,ch3,ch5,is_pause
timestamp,ch7,ch2,ch3,ch5,is_pause
0.15015292167663574,-400000.0625,-14881.849609375,-5598.97021484375,-400000.0625,-5576.330078125,-400000.0625,-7923.080078125,-400000.0625
timestamp,ch7,ch2,ch3,ch5,is_pause
0.16031837463378906,-400000.0625,-14902.6904296875,-5621.240234375,-400000.0625,-5602.83984375,-400000.0625,-7942.2001953125,-400000.0625
0.1604325771331787,-400000.0625,-14927.009765625,-5647.14013671875,-400000.0625,-5634.259765625,-400000.0625,-7966.66015625,-400000.0625
0.1604461669921875,-400000.0625,-14936.4501953125,-5650.0,-400000.0625,-5631.5400390625,-400000.0625,-7969.18994140625,-400000.0625
0.1604602336883545,-400000.0625,-14913.0400390625,-5620.91015625,-400000.0625,-5591.2001953125,-400000.0625,-7946.77978515625,-400000.0625
0.16047024726867676,-400000.0625,-14903.169921875,-5607.7998046875,-400000.0625,-5584.3798828125,-400000.0625,-7938.43017578125,-400000.0625
0.16048073768615723,-400000.0625,-14930.349609375,-5637.169921875,-400000.0625,-5612.7998046875,-400000.0625,-7963.22998046875,-400000.0625
0.16051197052001953,-400000.0625,-14973.6904296875,-5680.080078125,-400000.0625,-5634.8798828125,-400000.0625,-8001.18994140625,-400000.0625
0.1605236530303955,-400000.0625,-14965.6796875,-5670.31005859375,-400000.0625,-5618.6201171875,-400000.0625,-7995.60986328125,-400000.0625
0.16053557395935059,-400000.0625,-14931.6796875,-5631.919921875,-400000.0625,-5604.509765625,-400000.0625,-7962.56005859375,-400000.0625
0.16054558753967285,-400000.0625,-14908.8896484375,-5604.31982421875,-400000.0625,-5592.919921875,-400000.0625,-7939.14990234375,-400000.0625
0.16056084632873535,-400000.0625,-14920.330078125,-5614.7099609375,-400000.0625,-5590.72998046875,-400000.0625,-7947.8798828125,-400000.0625
0.1605684757232666,-400000.0625,-14948.7001953125,-5643.419921875,-400000.0625,-5622.81982421875,-400000.0625,-7966.27978515625,-400000.0625
0.16057634353637695,-400000.0625,-14961.5302734375,-5657.39013671875,-400000.0625,-5642.31982421875,-400000.0625,-7979.009765625,-400000.0625
0.1605849266052246,-400000.0625,-14922.7197265625,-5618.10009765625,-400000.0625,-5621.6201171875,-400000.0625,-7945.919921875,-400000.0625
0.16059279441833496,-400000.0625,-14899.0595703125,-5590.25,-400000.0625,-5589.91015625,-400000.0625,-7923.080078125,-400000.0625
timestamp,ch7,ch2,ch3,ch5,is_pause
timestamp,ch7,ch2,ch3,ch5,is_pause
timestamp,ch7,ch2,ch3,ch5,is_pause
timestamp,ch7,ch2,ch3,ch5,is_pause
0.21916913986206055,-400000.0625,-14921.0,-5606.93994140625,-400000.0625,-5582.669921875,-400000.0625,-7943.72998046875,-400000.0625
0.2193591594696045,-400000.0625,-14956.9501953125,-5645.47021484375,-400000.0625,-5600.4501953125,-400000.0625,-7976.81982421875,-400000.0625
0.21938347816467285,-400000.0625,-14967.16015625,-5657.91015625,-400000.0625,-5627.490234375,-400000.0625,-7982.10986328125,-400000.0625
0.2194051742553711,-400000.0625,-14929.9599609375,-5618.2900390625,-400000.0625,-5591.68017578125,-400000.0625,-7951.830078125,-400000.0625
0.21942353248596191,-400000.0625,-14939.0703125,-5619.3798828125,-400000.0625,-5595.2099609375,-400000.0625,-7954.5498046875,-400000.0625
0.21944165229797363,-400000.0625,-14967.1103515625,-5644.509765625,-400000.0625,-5633.35009765625,-400000.0625,-7978.25,-400000.0625
0.21946120262145996,-400000.0625,-14984.5595703125,-5664.25,-400000.0625,-5641.7900390625,-400000.0625,-7996.7001953125,-400000.0625
0.21947908401489258,-400000.0625,-14995.0498046875,-5675.89013671875,-400000.0625,-5639.35986328125,-400000.0625,-8009.2001953125,-400000.0625
0.2194969654083252,-400000.0625,-14972.9697265625,-5652.2900390625,-400000.0625,-5612.56005859375,-400000.0625,-7986.39990234375,-400000.0625
0.21952390670776367,-400000.0625,-14938.6904296875,-5615.0400390625,-400000.0625,-5585.85986328125,-400000.0625,-7947.58984375,-400000.0625
0.2195425033569336,-400000.0625,-14952.4697265625,-5630.830078125,-400000.0625,-5598.97021484375,-400000.0625,-7961.080078125,-400000.0625
0.21960854530334473,-400000.0625,-14969.73046875,-5648.18017578125,-400000.0625,-5629.8701171875,-400000.0625,-7973.47998046875,-400000.0625
0.2196366786956787,-400000.0625,-14969.259765625,-5651.52001953125,-400000.0625,-5652.3798828125,-400000.0625,-7971.85986328125,-400000.0625
0.21964550018310547,-400000.0625,-14954.9501953125,-5631.97021484375,-400000.0625,-5622.10009765625,-400000.0625,-7959.4599609375,-400000.0625
0.21965312957763672,-400000.0625,-14931.2001953125,-5602.4599609375,-400000.0625,-5574.56005859375,-400000.0625,-7939.81982421875,-400000.0625
0.21966338157653809,-400000.0625,-14954.5703125,-5624.52978515625,-400000.0625,-5595.2998046875,-400000.0625,-7958.93994140625,-400000.0625
timestamp,ch7,ch2,ch3,ch5,is_pause
timestamp,ch7,ch2,ch3,ch5,is_pause
timestamp,ch7,ch2,ch3,ch5,is_pause
timestamp,ch7,ch2,ch3,ch5,is_pause
timestamp,ch7,ch2,ch3,ch5,is_pause
0.2996644973754883,-400000.0625,-14982.419921875,-5652.81005859375,-400000.0625,-5624.490234375,-400000.0625,-7976.10009765625,-400000.0625
timestamp,ch7,ch2,ch3,ch5,is_pause
timestamp,ch7,ch2,ch3,ch5,is_pause
timestamp,ch7,ch2,ch3,ch5,is_pause
0.3590724468231201,-400000.0625,-14980.41015625,-5651.56982421875,-400000.0625,-5626.25,-400000.0625,-7976.10009765625,-400000.0625
timestamp,ch7,ch2,ch3,ch5,is_pause
0.38665032386779785,-400000.0625,-14961.009765625,-5633.5,-400000.0625,-5613.89990234375,-400000.0625,-7957.64990234375,-400000.0625
timestamp,ch7,ch2,ch3,ch5,is_pause
0.4024477005004883,-400000.0625,-14936.16015625,-5607.3701171875,-400000.0625,-5592.919921875,-400000.0625,-7940.39013671875,-400000.0625
timestamp,ch7,ch2,ch3,ch5,is_pause
timestamp,ch7,ch2,ch3,ch5,is_pause
timestamp,ch7,ch2,ch3,ch5,is_pause
0.45133543014526367,-400000.0625,-14954.759765625,-5622.91015625,-400000.0625,-5599.169921875,-400000.0625,-7956.35986328125,-400000.0625
timestamp,ch7,ch2,ch3,ch5,is_pause
0.4645845890045166,-400000.0625,-14999.8203125,-5669.68994140625,-400000.0625,-5630.16015625,-400000.0625,-7995.64990234375,-400000.0625
timestamp,ch7,ch2,ch3,ch5,is_pause
0.47777271270751953,-400000.0625,-15007.5498046875,-5679.080078125,-400000.0625,-5640.169921875,-400000.0625,-8006.0498046875,-400000.0625
timestamp,ch7,ch2,ch3,ch5,is_pause
0.49199891090393066,-400000.0625,-14972.01953125,-5644.60986328125,-400000.0625,-5622.9599609375,-400000.0625,-7969.85986328125,-400000.0625
timestamp,ch7,ch2,ch3,ch5,is_pause
0.5038254261016846,-400000.0625,-14936.830078125,-5606.27001953125,-400000.0625,-5587.9599609375,-400000.0625,-7933.89990234375,-400000.0625
timestamp,ch7,ch2,ch3,ch5,is_pause
timestamp,ch7,ch2,ch3,ch5,is_pause
timestamp,ch7,ch2,ch3,ch5,is_pause
0.557572603225708,-400000.0625,-14933.349609375,-5603.35986328125,-400000.0625,-5591.68017578125,-400000.0625,-7934.08984375,-400000.0625
timestamp,ch7,ch2,ch3,ch5,is_pause
0.5784432888031006,-400000.0625,-14983.1298828125,-5654.0498046875,-400000.0625,-5638.93017578125,-400000.0625,-7972.72021484375,-400000.0625
timestamp,ch7,ch2,ch3,ch5,is_pause
0.5930285453796387,-400000.0625,-14995.3896484375,-5667.259765625,-400000.0625,-5644.509765625,-400000.0625,-7989.740234375,-400000.0625
timestamp,ch7,ch2,ch3,ch5,is_pause
0.6047048568725586,-400000.0625,-14952.0400390625,-5633.06982421875,-400000.0625,-5616.0,-400000.0625,-7973.240234375,-400000.0625
timestamp,ch7,ch2,ch3,ch5,is_pause
timestamp,ch7,ch2,ch3,ch5,is_pause
0.6519210338592529,-400000.0625,-14918.2802734375,-5597.2099609375,-400000.0625,-5591.490234375,-400000.0625,-7947.5400390625,-400000.0625
timestamp,ch7,ch2,ch3,ch5,is_pause
0.6669008731842041,-400000.0625,-14935.919921875,-5603.1201171875,-400000.0625,-5600.169921875,-400000.0625,-7963.93994140625,-400000.0625
timestamp,ch7,ch2,ch3,ch5,is_pause
timestamp,ch7,ch2,ch3,ch5,is_pause
0.6867740154266357,-400000.0625,-14973.8798828125,-5638.5,-400000.0625,-5639.83984375,-400000.0625,-8000.85009765625,-400000.0625
timestamp,ch7,ch2,ch3,ch5,is_pause
0.7044832706451416,-400000.0625,-14982.3203125,-5648.08984375,-400000.0625,-5635.5,-400000.0625,-8012.43994140625,-400000.0625
timestamp,ch7,ch2,ch3,ch5,is_pause
0.7255175113677979,-400000.0625,-14937.9697265625,-5605.02978515625,-400000.0625,-5590.2998046875,-400000.0625,-7980.5400390625,-400000.0625
timestamp,ch7,ch2,ch3,ch5,is_pause
timestamp,ch7,ch2,ch3,ch5,is_pause
timestamp,ch7,ch2,ch3,ch5,is_pause
0.7815134525299072,-400000.0625,-14901.9296875,-5569.509765625,-400000.0625,-5572.7998046875,-400000.0625,-7951.7900390625,-400000.0625
timestamp,ch7,ch2,ch3,ch5,is_pause
timestamp,ch7,ch2,ch3,ch5,is_pause
0.8049964904785156,-400000.0625,-14899.830078125,-5567.27001953125,-400000.0625,-5591.97021484375,-400000.0625,-7947.97021484375,-400000.0625
timestamp,ch7,ch2,ch3,ch5,is_pause
0.8202352523803711,-400000.0625,-14946.41015625,-5617.18994140625,-400000.0625,-5643.89013671875,-400000.0625,-7988.93017578125,-400000.0625
timestamp,ch7,ch2,ch3,ch5,is_pause
0.837646484375,-400000.0625,-14970.1103515625,-5636.31005859375,-400000.0625,-5633.8798828125,-400000.0625,-8007.3798828125,-400000.0625
timestamp,ch7,ch2,ch3,ch5,is_pause
timestamp,ch7,ch2,ch3,ch5,is_pause
timestamp,ch7,ch2,ch3,ch5,is_pause
0.8882777690887451,-400000.0625,-14943.7001953125,-5604.02978515625,-400000.0625,-5606.41015625,-400000.0625,-7986.2099609375,-400000.0625
timestamp,ch7,ch2,ch3,ch5,is_pause
0.903313398361206,-400000.0625,-14928.6298828125,-5590.8701171875,-400000.0625,-5604.5498046875,-400000.0625,-7975.6298828125,-400000.0625
timestamp,ch7,ch2,ch3,ch5,is_pause
0.9185831546783447,-400000.0625,-14937.6904296875,-5600.97998046875,-400000.0625,-5605.169921875,-400000.0625,-7979.39013671875,-400000.0625
timestamp,ch7,ch2,ch3,ch5,is_pause
0.9312949180603027,-400000.0625,-14955.8095703125,-5619.52978515625,-400000.0625,-5634.97998046875,-400000.0625,-7993.31982421875,-400000.0625
timestamp,ch7,ch2,ch3,ch5,is_pause
0.9418618679046631,-400000.0625,-14954.330078125,-5622.91015625,-400000.0625,-5637.83984375,-400000.0625,-7993.93994140625,-400000.0625
timestamp,ch7,ch2,ch3,ch5,is_pause
timestamp,ch7,ch2,ch3,ch5,is_pause
timestamp,ch7,ch2,ch3,ch5,is_pause
0.993340253829956,-400000.0625,-14936.740234375,-5600.5,-400000.0625,-5617.18994140625,-400000.0625,-7977.009765625,-400000.0625
timestamp,ch7,ch2,ch3,ch5,is_pause
1.0035018920898438,-400000.0625,-14925.0498046875,-5585.0,-400000.0625,-5590.490234375,-400000.0625,-7964.7099609375,-400000.0625
timestamp,ch7,ch2,ch3,ch5,is_pause
1.0217468738555908,-400000.0625,-14941.2197265625,-5600.06982421875,-400000.0625,-5593.8701171875,-400000.0625,-7979.77978515625,-400000.0625
timestamp,ch7,ch2,ch3,ch5,is_pause
1.038774013519287,-400000.0625,-14967.9697265625,-5629.919921875,-400000.0625,-5618.81005859375,-400000.0625,-8004.3798828125,-400000.0625
timestamp,ch7,ch2,ch3,ch5,is_pause
1.0524702072143555,-400000.0625,-14958.099609375,-5619.91015625,-400000.0625,-5632.8798828125,-400000.0625,-7992.60009765625,-400000.0625
timestamp,ch7,ch2,ch3,ch5,is_pause
timestamp,ch7,ch2,ch3,ch5,is_pause
1.0912158489227295,-400000.0625,-14929.73046875,-5593.009765625,-400000.0625,-5630.5400390625,-400000.0625,-7962.89990234375,-400000.0625
timestamp,ch7,ch2,ch3,ch5,is_pause
1.1053481101989746,-400000.0625,-14908.5498046875,-5570.27001953125,-400000.0625,-5604.60009765625,-400000.0625,-7940.0498046875,-400000.0625
timestamp,ch7,ch2,ch3,ch5,is_pause
1.1233017444610596,-400000.0625,-14937.8798828125,-5590.919921875,-400000.0625,-5590.33984375,-400000.0625,-7963.3701171875,-400000.0625
timestamp,ch7,ch2,ch3,ch5,is_pause
1.1353991031646729,-400000.0625,-14978.26953125,-5635.93017578125,-400000.0625,-5619.72021484375,-400000.0625,-8003.52001953125,-400000.0625
1.146848201751709,-400000.0625,-14985.849609375,-5647.759765625,-400000.0625,-5651.330078125,-400000.0625,-8012.39013671875,-400000.0625
timestamp,ch7,ch2,ch3,ch5,is_pause
1.1583211421966553,-400000.0625,-14948.3203125,-5610.08984375,-400000.0625,-5620.18994140625,-400000.0625,-7979.39013671875,-400000.0625
timestamp,ch7,ch2,ch3,ch5,is_pause
timestamp,ch7,ch2,ch3,ch5,is_pause
timestamp,ch7,ch2,ch3,ch5,is_pause
1.205854892730713,-400000.0625,-14914.419921875,-5574.509765625,-400000.0625,-5610.08984375,-400000.0625,-7948.259765625,-400000.0625
timestamp,ch7,ch2,ch3,ch5,is_pause
1.2232894897460938,-400000.0625,-14920.4697265625,-5578.22998046875,-400000.0625,-5614.56982421875,-400000.0625,-7952.97998046875,-400000.0625
timestamp,ch7,ch2,ch3,ch5,is_pause
1.2407081127166748,-400000.0625,-14949.0400390625,-5609.56005859375,-400000.0625,-5651.6201171875,-400000.0625,-7979.68017578125,-400000.0625
timestamp,ch7,ch2,ch3,ch5,is_pause
1.2546794414520264,-400000.0625,-14972.16015625,-5633.830078125,-400000.0625,-5663.2001953125,-400000.0625,-7998.18017578125,-400000.0625
timestamp,ch7,ch2,ch3,ch5,is_pause
1.2712647914886475,-400000.0625,-14962.009765625,-5620.2900390625,-400000.0625,-5607.56005859375,-400000.0625,-7994.41015625,-400000.0625
timestamp,ch7,ch2,ch3,ch5,is_pause
timestamp,ch7,ch2,ch3,ch5,is_pause
timestamp,ch7,ch2,ch3,ch5,is_pause
1.335052728652954,-400000.0625,-14933.919921875,-5589.2998046875,-400000.0625,-5570.4599609375,-400000.0625,-7973.0498046875,-400000.0625
timestamp,ch7,ch2,ch3,ch5,is_pause
timestamp,ch7,ch2,ch3,ch5,is_pause
1.3552477359771729,-400000.0625,-14936.5,-5591.14990234375,-400000.0625,-5593.10986328125,-400000.0625,-7974.81982421875,-400000.0625
timestamp,ch7,ch2,ch3,ch5,is_pause
1.3720319271087646,-400000.0625,-14966.6796875,-5619.72021484375,-400000.0625,-5631.97021484375,-400000.0625,-7999.60986328125,-400000.0625
timestamp,ch7,ch2,ch3,ch5,is_pause
timestamp,ch7,ch2,ch3,ch5,is_pause
timestamp,ch7,ch2,ch3,ch5,is_pause
timestamp,ch7,ch2,ch3,ch5,is_pause
1.4352612495422363,-400000.0625,-14976.0703125,-5633.02001953125,-400000.0625,-5644.3701171875,-400000.0625,-8006.85986328125,-400000.0625
timestamp,ch7,ch2,ch3,ch5,is_pause
timestamp,ch7,ch2,ch3,ch5,is_pause
1.463932991027832,-400000.0625,-14952.4697265625,-5612.419921875,-400000.0625,-5636.1201171875,-400000.0625,-7984.5,-400000.0625
timestamp,ch7,ch2,ch3,ch5,is_pause
1.4805514812469482,-400000.0625,-14921.3798828125,-5579.66015625,-400000.0625,-5610.66015625,-400000.0625,-7955.1201171875,-400000.0625
timestamp,ch7,ch2,ch3,ch5,is_pause
timestamp,ch7,ch2,ch3,ch5,is_pause
timestamp,ch7,ch2,ch3,ch5,is_pause
timestamp,ch7,ch2,ch3,ch5,is_pause
1.5550177097320557,-400000.0625,-14918.900390625,-5576.60986328125,-400000.0625,-5610.419921875,-400000.0625,-7950.39990234375,-400000.0625
timestamp,ch7,ch2,ch3,ch5,is_pause
1.5711653232574463,-400000.0625,-14946.7998046875,-5605.27001953125,-400000.0625,-5623.68017578125,-400000.0625,-7971.47998046875,-400000.0625
timestamp,ch7,ch2,ch3,ch5,is_pause
1.5877041816711426,-400000.0625,-14970.16015625,-5626.490234375,-400000.0625,-5637.60009765625,-400000.0625,-7993.7900390625,-400000.0625
timestamp,ch7,ch2,ch3,ch5,is_pause
timestamp,ch7,ch2,ch3,ch5,is_pause
timestamp,ch7,ch2,ch3,ch5,is_pause
timestamp,ch7,ch2,ch3,ch5,is_pause
timestamp,ch7,ch2,ch3,ch5,is_pause
1.668940782546997,-400000.0625,-14963.099609375,-5614.3798828125,-400000.0625,-5625.77001953125,-400000.0625,-7987.39990234375,-400000.0625
timestamp,ch7,ch2,ch3,ch5,is_pause
1.6917457580566406,-400000.0625,-14940.3095703125,-5587.240234375,-400000.0625,-5598.4501953125,-400000.0625,-7967.52001953125,-400000.0625
timestamp,ch7,ch2,ch3,ch5,is_pause
timestamp,ch7,ch2,ch3,ch5,is_pause
timestamp,ch7,ch2,ch3,ch5,is_pause
timestamp,ch7,ch2,ch3,ch5,is_pause
1.7553205490112305,-400000.0625,-14928.2001953125,-5577.18017578125,-400000.0625,-5589.33984375,-400000.0625,-7957.509765625,-400000.0625
timestamp,ch7,ch2,ch3,ch5,is_pause
1.7735683917999268,-400000.0625,-14965.25,-5613.52001953125,-400000.0625,-5635.169921875,-400000.0625,-7983.5400390625,-400000.0625
timestamp,ch7,ch2,ch3,ch5,is_pause
1.788069725036621,-400000.0625,-14988.330078125,-5633.740234375,-400000.0625,-5668.93017578125,-400000.0625,-8000.330078125,-400000.0625
timestamp,ch7,ch2,ch3,ch5,is_pause
1.8089852333068848,-400000.0625,-14948.9404296875,-5603.41015625,-400000.0625,-5630.16015625,-400000.0625,-7984.830078125,-400000.0625
timestamp,ch7,ch2,ch3,ch5,is_pause
timestamp,ch7,ch2,ch3,ch5,is_pause
timestamp,ch7,ch2,ch3,ch5,is_pause
1.8520135879516602,-400000.0625,-14931.9697265625,-5588.2900390625,-400000.0625,-5599.5,-400000.0625,-7978.39013671875,-400000.0625
timestamp,ch7,ch2,ch3,ch5,is_pause
1.8655412197113037,-400000.0625,-14950.5595703125,-5599.31005859375,-400000.0625,-5597.830078125,-400000.0625,-7990.27001953125,-400000.0625
timestamp,ch7,ch2,ch3,ch5,is_pause
1.8807647228240967,-400000.0625,-14979.169921875,-5622.43994140625,-400000.0625,-5630.5400390625,-400000.0625,-8009.009765625,-400000.0625
timestamp,ch7,ch2,ch3,ch5,is_pause
1.8921029567718506,-400000.0625,-14982.5595703125,-5622.91015625,-400000.0625,-5638.740234375,-400000.0625,-8010.47998046875,-400000.0625
timestamp,ch7,ch2,ch3,ch5,is_pause
1.914642572402954,-400000.0625,-14943.740234375,-5588.10009765625,-400000.0625,-5610.509765625,-400000.0625,-7981.43994140625,-400000.0625
timestamp,ch7,ch2,ch3,ch5,is_pause
timestamp,ch7,ch2,ch3,ch5,is_pause
timestamp,ch7,ch2,ch3,ch5,is_pause
1.9638981819152832,-400000.0625,-14926.240234375,-5567.93017578125,-400000.0625,-5590.10986328125,-400000.0625,-7962.990234375,-400000.0625
timestamp,ch7,ch2,ch3,ch5,is_pause
1.9754626750946045,-400000.0625,-14920.5703125,-5563.06982421875,-400000.0625,-5598.35986328125,-400000.0625,-7959.7001953125,-400000.0625
timestamp,ch7,ch2,ch3,ch5,is_pause
timestamp,ch7,ch2,ch3,ch5,is_pause
2.0012147426605225,-400000.0625,-14953.0400390625,-5599.58984375,-400000.0625,-5633.97021484375,-400000.0625,-7991.02978515625,-400000.0625
timestamp,ch7,ch2,ch3,ch5,is_pause
2.0138356685638428,-400000.0625,-14960.6201171875,-5608.93994140625,-400000.0625,-5652.91015625,-400000.0625,-7995.31982421875,-400000.0625
2.0240464210510254,-400000.0625,-14912.4599609375,-5561.10986328125,-400000.0625,-5594.77978515625,-400000.0625,-7949.16015625,-400000.0625
timestamp,ch7,ch2,ch3,ch5,is_pause
timestamp,ch7,ch2,ch3,ch5,is_pause
timestamp,ch7,ch2,ch3,ch5,is_pause
timestamp,ch7,ch2,ch3,ch5,is_pause
2.091508388519287,-400000.0625,-14905.2197265625,-5550.6201171875,-400000.0625,-5581.9501953125,-400000.0625,-7941.68017578125,-400000.0625
timestamp,ch7,ch2,ch3,ch5,is_pause
2.10800838470459,-400000.0625,-14953.23046875,-5599.740234375,-400000.0625,-5617.08984375,-400000.0625,-7988.97998046875,-400000.0625
timestamp,ch7,ch2,ch3,ch5,is_pause
2.123983860015869,-400000.0625,-14992.5703125,-5637.68994140625,-400000.0625,-5642.990234375,-400000.0625,-8022.93017578125,-400000.0625
timestamp,ch7,ch2,ch3,ch5,is_pause
timestamp,ch7,ch2,ch3,ch5,is_pause
2.148838520050049,-400000.0625,-14988.7099609375,-5633.5498046875,-400000.0625,-5654.33984375,-400000.0625,-8016.77978515625,-400000.0625
timestamp,ch7,ch2,ch3,ch5,is_pause
timestamp,ch7,ch2,ch3,ch5,is_pause
timestamp,ch7,ch2,ch3,ch5,is_pause
2.205672025680542,-400000.0625,-14954.900390625,-5600.8798828125,-400000.0625,-5629.830078125,-400000.0625,-7987.35986328125,-400000.0625
timestamp,ch7,ch2,ch3,ch5,is_pause
2.231595516204834,-400000.0625,-14936.400390625,-5578.330078125,-400000.0625,-5593.25,-400000.0625,-7967.08984375,-400000.0625
timestamp,ch7,ch2,ch3,ch5,is_pause
2.2476048469543457,-400000.0625,-14941.0302734375,-5583.10009765625,-400000.0625,-5596.06982421875,-400000.0625,-7970.330078125,-400000.0625
timestamp,ch7,ch2,ch3,ch5,is_pause
timestamp,ch7,ch2,ch3,ch5,is_pause
2.2694084644317627,-400000.0625,-14960.240234375,-5605.169921875,-400000.0625,-5632.93017578125,-400000.0625,-7988.64013671875,-400000.0625
timestamp,ch7,ch2,ch3,ch5,is_pause
timestamp,ch7,ch2,ch3,ch5,is_pause
timestamp,ch7,ch2,ch3,ch5,is_pause
2.3306949138641357,-400000.0625,-14975.0302734375,-5622.580078125,-400000.0625,-5660.580078125,-400000.0625,-8003.0,-400000.0625
timestamp,ch7,ch2,ch3,ch5,is_pause
timestamp,ch7,ch2,ch3,ch5,is_pause
2.35023832321167,-400000.0625,-14939.830078125,-5584.0498046875,-400000.0625,-5618.18994140625,-400000.0625,-7972.77001953125,-400000.0625
timestamp,ch7,ch2,ch3,ch5,is_pause
2.366889715194702,-400000.0625,-14925.0,-5561.16015625,-400000.0625,-5600.7900390625,-400000.0625,-7963.1298828125,-400000.0625
timestamp,ch7,ch2,ch3,ch5,is_pause
2.379666805267334,-400000.0625,-14941.0302734375,-5577.47021484375,-400000.0625,-5611.60986328125,-400000.0625,-7977.2998046875,-400000.0625
timestamp,ch7,ch2,ch3,ch5,is_pause
timestamp,ch7,ch2,ch3,ch5,is_pause
timestamp,ch7,ch2,ch3,ch5,is_pause
2.4266774654388428,-400000.0625,-14967.16015625,-5605.93994140625,-400000.0625,-5622.81982421875,-400000.0625,-7999.66015625,-400000.0625
timestamp,ch7,ch2,ch3,ch5,is_pause
timestamp,ch7,ch2,ch3,ch5,is_pause
2.4523849487304688,-400000.0625,-14978.1201171875,-5617.47998046875,-400000.0625,-5640.1298828125,-400000.0625,-8008.39013671875,-400000.0625
timestamp,ch7,ch2,ch3,ch5,is_pause
2.4756107330322266,-400000.0625,-14957.48046875,-5591.10986328125,-400000.0625,-5619.81005859375,-400000.0625,-7988.41015625,-400000.0625
timestamp,ch7,ch2,ch3,ch5,is_pause
2.4928135871887207,-400000.0625,-14928.7197265625,-5556.919921875,-400000.0625,-5599.39990234375,-400000.0625,-7960.02978515625,-400000.0625
timestamp,ch7,ch2,ch3,ch5,is_pause
timestamp,ch7,ch2,ch3,ch5,is_pause
timestamp,ch7,ch2,ch3,ch5,is_pause
timestamp,ch7,ch2,ch3,ch5,is_pause
2.5596420764923096,-400000.0625,-14963.009765625,-5579.47021484375,-400000.0625,-5625.43994140625,-400000.0625,-7984.58984375,-400000.0625
timestamp,ch7,ch2,ch3,ch5,is_pause
timestamp,ch7,ch2,ch3,ch5,is_pause
timestamp,ch7,ch2,ch3,ch5,is_pause
2.605375289916992,-400000.0625,-15001.5400390625,-5615.759765625,-400000.0625,-5637.06982421875,-400000.0625,-8024.97998046875,-400000.0625
timestamp,ch7,ch2,ch3,ch5,is_pause
timestamp,ch7,ch2,ch3,ch5,is_pause
timestamp,ch7,ch2,ch3,ch5,is_pause
2.6623165607452393,-400000.0625,-15005.2099609375,-5624.39013671875,-400000.0625,-5627.2998046875,-400000.0625,-8027.02978515625,-400000.0625
timestamp,ch7,ch2,ch3,ch5,is_pause
2.6741998195648193,-400000.0625,-14996.8603515625,-5607.83984375,-400000.0625,-5611.0400390625,-400000.0625,-8007.240234375,-400000.0625
timestamp,ch7,ch2,ch3,ch5,is_pause
timestamp,ch7,ch2,ch3,ch5,is_pause
2.697442054748535,-400000.0625,-14998.76953125,-5594.68017578125,-400000.0625,-5591.10986328125,-400000.0625,-8003.27978515625,-400000.0625
timestamp,ch7,ch2,ch3,ch5,is_pause
2.708219289779663,-400000.0625,-15012.5498046875,-5599.02001953125,-400000.0625,-5583.72021484375,-400000.0625,-8004.27978515625,-400000.0625
timestamp,ch7,ch2,ch3,ch5,is_pause
timestamp,ch7,ch2,ch3,ch5,is_pause
timestamp,ch7,ch2,ch3,ch5,is_pause
2.764514207839966,-400000.0625,-15060.900390625,-5638.02978515625,-400000.0625,-5605.169921875,-400000.0625,-8035.14013671875,-400000.0625
timestamp,ch7,ch2,ch3,ch5,is_pause
2.7773211002349854,-400000.0625,-15117.83984375,-5676.41015625,-400000.0625,-5624.14990234375,-400000.0625,-8073.759765625,-400000.0625
timestamp,ch7,ch2,ch3,ch5,is_pause
2.796051502227783,-400000.0625,-15123.3701171875,-5669.4501953125,-400000.0625,-5598.58984375,-400000.0625,-8072.0,-400000.0625
timestamp,ch7,ch2,ch3,ch5,is_pause
2.8086137771606445,-400000.0625,-15119.169921875,-5659.39013671875,-400000.0625,-5584.85986328125,-400000.0625,-8066.4599609375,-400000.0625
timestamp,ch7,ch2,ch3,ch5,is_pause
timestamp,ch7,ch2,ch3,ch5,is_pause
timestamp,ch7,ch2,ch3,ch5,is_pause
timestamp,ch7,ch2,ch3,ch5,is_pause
2.8649280071258545,-400000.0625,-15166.8095703125,-5688.52001953125,-400000.0625,-5602.02978515625,-400000.0625,-8096.64990234375,-400000.0625
2.8746023178100586,-400000.0625,-15221.599609375,-5727.33984375,-400000.0625,-5625.81982421875,-400000.0625,-8131.27001953125,-400000.0625
timestamp,ch7,ch2,ch3,ch5,is_pause
2.8941359519958496,-400000.0625,-15239.2900390625,-5743.02978515625,-400000.0625,-5618.669921875,-400000.0625,-8138.31982421875,-400000.0625
timestamp,ch7,ch2,ch3,ch5,is_pause
timestamp,ch7,ch2,ch3,ch5,is_pause
2.9199013710021973,-400000.0625,-15236.240234375,-5727.81982421875,-400000.0625,-5590.25,-400000.0625,-8132.97998046875,-400000.0625
timestamp,ch7,ch2,ch3,ch5,is_pause
timestamp,ch7,ch2,ch3,ch5,is_pause
timestamp,ch7,ch2,ch3,ch5,is_pause
2.980297803878784,-400000.0625,-15236.0498046875,-5708.31005859375,-400000.0625,-5551.2900390625,-400000.0625,-8122.4501953125,-400000.0625
timestamp,ch7,ch2,ch3,ch5,is_pause
timestamp,ch7,ch2,ch3,ch5,is_pause
3.010531425476074,-400000.0625,-15235.5703125,-5700.2099609375,-400000.0625,-5547.47998046875,-400000.0625,-8116.72021484375,-400000.0625
timestamp,ch7,ch2,ch3,ch5,is_pause
timestamp,ch7,ch2,ch3,ch5,is_pause
3.0368220806121826,-400000.0625,-15275.0498046875,-5740.259765625,-400000.0625,-5604.7001953125,-400000.0625,-8157.2099609375,-400000.0625
timestamp,ch7,ch2,ch3,ch5,is_pause
timestamp,ch7,ch2,ch3,ch5,is_pause
timestamp,ch7,ch2,ch3,ch5,is_pause
timestamp,ch7,ch2,ch3,ch5,is_pause
3.105797052383423,-400000.0625,-15302.2802734375,-5763.43994140625,-400000.0625,-5640.22021484375,-400000.0625,-8173.0400390625,-400000.0625
timestamp,ch7,ch2,ch3,ch5,is_pause
3.12186598777771,-400000.0625,-15285.2998046875,-5742.5,-400000.0625,-5606.509765625,-400000.0625,-8158.8798828125,-400000.0625
timestamp,ch7,ch2,ch3,ch5,is_pause
timestamp,ch7,ch2,ch3,ch5,is_pause
3.146942138671875,-400000.0625,-15271.9501953125,-5719.66015625,-400000.0625,-5567.7900390625,-400000.0625,-8143.81005859375,-400000.0625
timestamp,ch7,ch2,ch3,ch5,is_pause
timestamp,ch7,ch2,ch3,ch5,is_pause
timestamp,ch7,ch2,ch3,ch5,is_pause
3.214676856994629,-400000.0625,-15286.400390625,-5728.47998046875,-400000.0625,-5575.75,-400000.0625,-8152.25,-400000.0625
timestamp,ch7,ch2,ch3,ch5,is_pause
timestamp,ch7,ch2,ch3,ch5,is_pause
3.2396864891052246,-400000.0625,-15307.240234375,-5749.080078125,-400000.0625,-5587.14990234375,-400000.0625,-8169.64990234375,-400000.0625
timestamp,ch7,ch2,ch3,ch5,is_pause
3.255811929702759,-400000.0625,-15307.8603515625,-5747.7998046875,-400000.0625,-5590.919921875,-400000.0625,-8167.4599609375,-400000.0625
timestamp,ch7,ch2,ch3,ch5,is_pause
timestamp,ch7,ch2,ch3,ch5,is_pause
timestamp,ch7,ch2,ch3,ch5,is_pause
timestamp,ch7,ch2,ch3,ch5,is_pause
3.320319414138794,-400000.0625,-15284.25,-5723.669921875,-400000.0625,-5582.2900390625,-400000.0625,-8149.0,-400000.0625
timestamp,ch7,ch2,ch3,ch5,is_pause
3.3361763954162598,-400000.0625,-15250.400390625,-5691.33984375,-400000.0625,-5561.35009765625,-400000.0625,-8119.490234375,-400000.0625
timestamp,ch7,ch2,ch3,ch5,is_pause
3.3600871562957764,-400000.0625,-15239.33984375,-5683.89990234375,-400000.0625,-5571.4599609375,-400000.0625,-8110.91015625,-400000.0625
timestamp,ch7,ch2,ch3,ch5,is_pause
timestamp,ch7,ch2,ch3,ch5,is_pause
timestamp,ch7,ch2,ch3,ch5,is_pause
timestamp,ch7,ch2,ch3,ch5,is_pause
3.41754412651062,-400000.0625,-15284.58984375,-5734.2998046875,-400000.0625,-5626.490234375,-400000.0625,-8151.14990234375,-400000.0625
timestamp,ch7,ch2,ch3,ch5,is_pause
3.4354896545410156,-400000.0625,-15298.419921875,-5747.1298828125,-400000.0625,-5618.52978515625,-400000.0625,-8156.830078125,-400000.0625
timestamp,ch7,ch2,ch3,ch5,is_pause
3.466594934463501,-400000.0625,-15285.01953125,-5727.85986328125,-400000.0625,-5581.0,-400000.0625,-8141.89990234375,-400000.0625
timestamp,ch7,ch2,ch3,ch5,is_pause
timestamp,ch7,ch2,ch3,ch5,is_pause
timestamp,ch7,ch2,ch3,ch5,is_pause
timestamp,ch7,ch2,ch3,ch5,is_pause
timestamp,ch7,ch2,ch3,ch5,is_pause
3.5529704093933105,-400000.0625,-15269.1396484375,-5709.27001953125,-400000.0625,-5569.02978515625,-400000.0625,-8124.2099609375,-400000.0625
timestamp,ch7,ch2,ch3,ch5,is_pause
3.570923089981079,-400000.0625,-15280.0595703125,-5718.66015625,-400000.0625,-5582.91015625,-400000.0625,-8131.83984375,-400000.0625
timestamp,ch7,ch2,ch3,ch5,is_pause
timestamp,ch7,ch2,ch3,ch5,is_pause
timestamp,ch7,ch2,ch3,ch5,is_pause
timestamp,ch7,ch2,ch3,ch5,is_pause
3.6377010345458984,-400000.0625,-15307.51953125,-5746.56005859375,-400000.0625,-5610.75,-400000.0625,-8153.77001953125,-400000.0625
timestamp,ch7,ch2,ch3,ch5,is_pause
timestamp,ch7,ch2,ch3,ch5,is_pause
3.6716458797454834,-400000.0625,-15306.08984375,-5745.02978515625,-400000.0625,-5617.08984375,-400000.0625,-8153.009765625,-400000.0625
timestamp,ch7,ch2,ch3,ch5,is_pause
timestamp,ch7,ch2,ch3,ch5,is_pause
timestamp,ch7,ch2,ch3,ch5,is_pause
3.729783296585083,-400000.0625,-15281.25,-5717.08984375,-400000.0625,-5585.669921875,-400000.0625,-8130.27001953125,-400000.0625
timestamp,ch7,ch2,ch3,ch5,is_pause
timestamp,ch7,ch2,ch3,ch5,is_pause
3.7526564598083496,-400000.0625,-15257.7900390625,-5690.43017578125,-400000.0625,-5565.259765625,-400000.0625,-8113.2900390625,-400000.0625
timestamp,ch7,ch2,ch3,ch5,is_pause
3.776134967803955,-400000.0625,-15257.83984375,-5690.14990234375,-400000.0625,-5572.18017578125,-400000.0625,-8114.009765625,-400000.0625
timestamp,ch7,ch2,ch3,ch5,is_pause
timestamp,ch7,ch2,ch3,ch5,is_pause
timestamp,ch7,ch2,ch3,ch5,is_pause
timestamp,ch7,ch2,ch3,ch5,is_pause
3.834484815597534,-400000.0625,-15281.9697265625,-5717.66015625,-400000.0625,-5588.25,-400000.0625,-8134.4599609375,-400000.0625
timestamp,ch7,ch2,ch3,ch5,is_pause
3.8531906604766846,-400000.0625,-15300.849609375,-5736.830078125,-400000.0625,-5621.6201171875,-400000.0625,-8147.10009765625,-400000.0625
timestamp,ch7,ch2,ch3,ch5,is_pause
3.874783754348755,-400000.0625,-15276.0,-5710.93994140625,-400000.0625,-5609.3701171875,-400000.0625,-8124.68994140625,-400000.0625
timestamp,ch7,ch2,ch3,ch5,is_pause
timestamp,ch7,ch2,ch3,ch5,is_pause
3.904435157775879,-400000.0625,-15244.6796875,-5676.7001953125,-400000.0625,-5569.97998046875,-400000.0625,-8091.740234375,-400000.0625
timestamp,ch7,ch2,ch3,ch5,is_pause
timestamp,ch7,ch2,ch3,ch5,is_pause
timestamp,ch7,ch2,ch3,ch5,is_pause
3.9568932056427,-400000.0625,-15251.4501953125,-5686.27978515625,-400000.0625,-5552.47998046875,-400000.0625,-8097.169921875,-400000.0625
timestamp,ch7,ch2,ch3,ch5,is_pause
3.9738657474517822,-400000.0625,-15292.0302734375,-5731.5400390625,-400000.0625,-5600.2099609375,-400000.0625,-8135.080078125,-400000.0625
timestamp,ch7,ch2,ch3,ch5,is_pause
3.992309808731079,-400000.0625,-15305.5703125,-5743.22021484375,-400000.0625,-5618.14013671875,-400000.0625,-8149.33984375,-400000.0625
timestamp,ch7,ch2,ch3,ch5,is_pause
timestamp,ch7,ch2,ch3,ch5,is_pause
4.014237880706787,-400000.0625,-15286.7802734375,-5721.43017578125,-400000.0625,-5587.52978515625,-400000.0625,-8134.22021484375,-400000.0625
timestamp,ch7,ch2,ch3,ch5,is_pause
timestamp,ch7,ch2,ch3,ch5,is_pause
4.0547308921813965,-400000.0625,-15267.23046875,-5699.16015625,-400000.0625,-5570.02978515625,-400000.0625,-8115.33984375,-400000.0625
timestamp,ch7,ch2,ch3,ch5,is_pause
timestamp,ch7,ch2,ch3,ch5,is_pause
4.072235345840454,-400000.0625,-15271.240234375,-5706.1201171875,-400000.0625,-5580.6201171875,-400000.0625,-8124.68994140625,-400000.0625
4.084040641784668,-400000.0625,-15296.080078125,-5733.919921875,-400000.0625,-5620.9599609375,-400000.0625,-8144.6201171875,-400000.0625
timestamp,ch7,ch2,ch3,ch5,is_pause
4.0979228019714355,-400000.0625,-15297.7998046875,-5734.8701171875,-400000.0625,-5625.77001953125,-400000.0625,-8140.52001953125,-400000.0625
timestamp,ch7,ch2,ch3,ch5,is_pause
timestamp,ch7,ch2,ch3,ch5,is_pause
4.115489482879639,-400000.0625,-15278.2001953125,-5714.3701171875,-400000.0625,-5593.2998046875,-400000.0625,-8123.490234375,-400000.0625
timestamp,ch7,ch2,ch3,ch5,is_pause
timestamp,ch7,ch2,ch3,ch5,is_pause
timestamp,ch7,ch2,ch3,ch5,is_pause
4.15678334236145,-400000.0625,-15254.4501953125,-5694.10009765625,-400000.0625,-5574.60986328125,-400000.0625,-8109.52001953125,-400000.0625
timestamp,ch7,ch2,ch3,ch5,is_pause
4.175024747848511,-400000.0625,-15253.58984375,-5691.33984375,-400000.0625,-5574.85009765625,-400000.0625,-8109.89990234375,-400000.0625
timestamp,ch7,ch2,ch3,ch5,is_pause
timestamp,ch7,ch2,ch3,ch5,is_pause
4.200269937515259,-400000.0625,-15301.08984375,-5735.97021484375,-400000.0625,-5607.41015625,-400000.0625,-8148.0498046875,-400000.0625
4.210167407989502,-400000.0625,-15311.0498046875,-5745.7900390625,-400000.0625,-5622.77001953125,-400000.0625,-8157.10986328125,-400000.0625
timestamp,ch7,ch2,ch3,ch5,is_pause
4.221339702606201,-400000.0625,-15284.58984375,-5722.7099609375,-400000.0625,-5602.06982421875,-400000.0625,-8136.4599609375,-400000.0625
timestamp,ch7,ch2,ch3,ch5,is_pause
timestamp,ch7,ch2,ch3,ch5,is_pause
timestamp,ch7,ch2,ch3,ch5,is_pause
4.266448497772217,-400000.0625,-15249.5400390625,-5682.990234375,-400000.0625,-5553.06005859375,-400000.0625,-8097.89013671875,-400000.0625
timestamp,ch7,ch2,ch3,ch5,is_pause
4.28271484375,-400000.0625,-15256.3603515625,-5689.669921875,-400000.0625,-5578.7998046875,-400000.0625,-8102.47021484375,-400000.0625
timestamp,ch7,ch2,ch3,ch5,is_pause
4.296798944473267,-400000.0625,-15303.419921875,-5740.169921875,-400000.0625,-5635.4501953125,-400000.0625,-8149.10009765625,-400000.0625
timestamp,ch7,ch2,ch3,ch5,is_pause
4.3075644969940186,-400000.0625,-15328.599609375,-5756.89990234375,-400000.0625,-5634.58984375,-400000.0625,-8164.31005859375,-400000.0625
timestamp,ch7,ch2,ch3,ch5,is_pause
4.323298454284668,-400000.0625,-15320.01953125,-5729.52978515625,-400000.0625,-5605.080078125,-400000.0625,-8144.669921875,-400000.0625
timestamp,ch7,ch2,ch3,ch5,is_pause
timestamp,ch7,ch2,ch3,ch5,is_pause
timestamp,ch7,ch2,ch3,ch5,is_pause
4.370701789855957,-400000.0625,-15272.1396484375,-5688.43017578125,-400000.0625,-5569.7900390625,-400000.0625,-8113.81005859375,-400000.0625
timestamp,ch7,ch2,ch3,ch5,is_pause
4.385733604431152,-400000.0625,-15269.7099609375,-5689.56982421875,-400000.0625,-5566.740234375,-400000.0625,-8130.169921875,-400000.0625
timestamp,ch7,ch2,ch3,ch5,is_pause
4.398839235305786,-400000.0625,-15304.4697265625,-5710.75,-400000.0625,-5593.72998046875,-400000.0625,-8162.1201171875,-400000.0625
timestamp,ch7,ch2,ch3,ch5,is_pause
4.415565729141235,-400000.0625,-15300.6103515625,-5691.81982421875,-400000.0625,-5606.22021484375,-400000.0625,-8157.10986328125,-400000.0625
timestamp,ch7,ch2,ch3,ch5,is_pause
4.4261462688446045,-400000.0625,-15299.1796875,-5673.5,-400000.0625,-5589.2001953125,-400000.0625,-8165.169921875,-400000.0625
timestamp,ch7,ch2,ch3,ch5,is_pause
timestamp,ch7,ch2,ch3,ch5,is_pause
4.4674530029296875,-400000.0625,-15311.2001953125,-5662.6298828125,-400000.0625,-5544.85009765625,-400000.0625,-8180.43017578125,-400000.0625
timestamp,ch7,ch2,ch3,ch5,is_pause
4.48120379447937,-400000.0625,-15340.51953125,-5675.41015625,-400000.0625,-5555.009765625,-400000.0625,-8215.759765625,-400000.0625
timestamp,ch7,ch2,ch3,ch5,is_pause
4.491773366928101,-400000.0625,-15385.33984375,-5698.8701171875,-400000.0625,-5594.830078125,-400000.0625,-8257.33984375,-400000.0625
timestamp,ch7,ch2,ch3,ch5,is_pause
4.509284257888794,-400000.0625,-15394.01953125,-5700.16015625,-400000.0625,-5593.6298828125,-400000.0625,-8277.23046875,-400000.0625
timestamp,ch7,ch2,ch3,ch5,is_pause
4.521886825561523,-400000.0625,-15398.0302734375,-5685.66015625,-400000.0625,-5569.64990234375,-400000.0625,-8280.759765625,-400000.0625
timestamp,ch7,ch2,ch3,ch5,is_pause
4.537319898605347,-400000.0625,-15379.1396484375,-5657.14990234375,-400000.0625,-5537.1298828125,-400000.0625,-8266.830078125,-400000.0625
timestamp,ch7,ch2,ch3,ch5,is_pause
timestamp,ch7,ch2,ch3,ch5,is_pause
4.573835134506226,-400000.0625,-15378.0,-5654.72021484375,-400000.0625,-5547.85986328125,-400000.0625,-8268.169921875,-400000.0625
timestamp,ch7,ch2,ch3,ch5,is_pause
timestamp,ch7,ch2,ch3,ch5,is_pause
4.594820737838745,-400000.0625,-15408.7998046875,-5673.5,-400000.0625,-5584.43017578125,-400000.0625,-8288.91015625,-400000.0625
4.606191635131836,-400000.0625,-15422.7802734375,-5687.240234375,-400000.0625,-5590.8701171875,-400000.0625,-8300.5400390625,-400000.0625
timestamp,ch7,ch2,ch3,ch5,is_pause
timestamp,ch7,ch2,ch3,ch5,is_pause
4.631630897521973,-400000.0625,-15410.7099609375,-5674.83984375,-400000.0625,-5573.509765625,-400000.0625,-8293.8203125,-400000.0625
timestamp,ch7,ch2,ch3,ch5,is_pause
4.644976854324341,-400000.0625,-15390.7802734375,-5649.0,-400000.0625,-5566.8798828125,-400000.0625,-8271.83984375,-400000.0625
timestamp,ch7,ch2,ch3,ch5,is_pause
timestamp,ch7,ch2,ch3,ch5,is_pause
timestamp,ch7,ch2,ch3,ch5,is_pause
4.6914732456207275,-400000.0625,-15391.2099609375,-5648.18017578125,-400000.0625,-5570.02978515625,-400000.0625,-8271.7900390625,-400000.0625
timestamp,ch7,ch2,ch3,ch5,is_pause
4.712542772293091,-400000.0625,-15422.7802734375,-5683.89990234375,-400000.0625,-5578.419921875,-400000.0625,-8300.9296875,-400000.0625
timestamp,ch7,ch2,ch3,ch5,is_pause
4.7305731773376465,-400000.0625,-15432.599609375,-5691.85986328125,-400000.0625,-5579.56982421875,-400000.0625,-8310.6103515625,-400000.0625
timestamp,ch7,ch2,ch3,ch5,is_pause
4.744892358779907,-400000.0625,-15409.900390625,-5668.740234375,-400000.0625,-5567.60009765625,-400000.0625,-8293.3896484375,-400000.0625
timestamp,ch7,ch2,ch3,ch5,is_pause
timestamp,ch7,ch2,ch3,ch5,is_pause
4.763185024261475,-400000.0625,-15387.490234375,-5645.56005859375,-400000.0625,-5547.52001953125,-400000.0625,-8272.5498046875,-400000.0625
timestamp,ch7,ch2,ch3,ch5,is_pause
timestamp,ch7,ch2,ch3,ch5,is_pause
4.796342611312866,-400000.0625,-15385.8203125,-5645.31982421875,-400000.0625,-5540.3701171875,-400000.0625,-8270.3095703125,-400000.0625
timestamp,ch7,ch2,ch3,ch5,is_pause
4.813106060028076,-400000.0625,-15400.4599609375,-5663.25,-400000.0625,-5579.52001953125,-400000.0625,-8283.66015625,-400000.0625
4.823712110519409,-400000.0625,-15419.2001953125,-5680.85009765625,-400000.0625,-5610.0400390625,-400000.0625,-8298.9697265625,-400000.0625
timestamp,ch7,ch2,ch3,ch5,is_pause
4.8366734981536865,-400000.0625,-15403.7998046875,-5662.5400390625,-400000.0625,-5581.9501953125,-400000.0625,-8283.08984375,-400000.0625
timestamp,ch7,ch2,ch3,ch5,is_pause
4.848895072937012,-400000.0625,-15374.759765625,-5628.81982421875,-400000.0625,-5534.97998046875,-400000.0625,-8254.2001953125,-400000.0625
timestamp,ch7,ch2,ch3,ch5,is_pause
4.861687660217285,-400000.0625,-15396.7900390625,-5652.2900390625,-400000.0625,-5563.93017578125,-400000.0625,-8274.650390625,-400000.0625
4.872506618499756,-400000.0625,-15421.009765625,-5680.419921875,-400000.0625,-5594.10986328125,-400000.0625,-8294.919921875,-400000.0625
timestamp,ch7,ch2,ch3,ch5,is_pause
timestamp,ch7,ch2,ch3,ch5,is_pause
4.91121244430542,-400000.0625,-15431.1201171875,-5690.91015625,-400000.0625,-5596.8798828125,-400000.0625,-8303.1201171875,-400000.0625
timestamp,ch7,ch2,ch3,ch5,is_pause
4.923635005950928,-400000.0625,-15411.66015625,-5667.39990234375,-400000.0625,-5569.080078125,-400000.0625,-8286.330078125,-400000.0625
timestamp,ch7,ch2,ch3,ch5,is_pause
timestamp,ch7,ch2,ch3,ch5,is_pause
4.944087743759155,-400000.0625,-15378.240234375,-5631.5400390625,-400000.0625,-5548.669921875,-400000.0625,-8255.8203125,-400000.0625
4.9545698165893555,-400000.0625,-15382.150390625,-5636.41015625,-400000.0625,-5570.89013671875,-400000.0625,-8257.490234375,-400000.0625
timestamp,ch7,ch2,ch3,ch5,is_pause
4.9665703773498535,-400000.0625,-15419.33984375,-5673.89013671875,-400000.0625,-5598.97021484375,-400000.0625,-8286.669921875,-400000.0625
timestamp,ch7,ch2,ch3,ch5,is_pause
4.98149847984314,-400000.0625,-15429.58984375,-5687.3798828125,-400000.0625,-5599.169921875,-400000.0625,-8298.5400390625,-400000.0625
timestamp,ch7,ch2,ch3,ch5,is_pause
timestamp,ch7,ch2,ch3,ch5,is_pause
5.016178369522095,-400000.0625,-15415.9599609375,-5670.60009765625,-400000.0625,-5581.08984375,-400000.0625,-8284.7099609375,-400000.0625
timestamp,ch7,ch2,ch3,ch5,is_pause
5.031296014785767,-400000.0625,-15384.099609375,-5637.5,-400000.0625,-5545.3798828125,-400000.0625,-8256.5302734375,-400000.0625
timestamp,ch7,ch2,ch3,ch5,is_pause
5.041385650634766,-400000.0625,-15380.669921875,-5634.5498046875,-400000.0625,-5541.60986328125,-400000.0625,-8252.33984375,-400000.0625
timestamp,ch7,ch2,ch3,ch5,is_pause
5.052681922912598,-400000.0625,-15414.7197265625,-5669.7900390625,-400000.0625,-5584.91015625,-400000.0625,-8283.1396484375,-400000.0625
5.062540531158447,-400000.0625,-15431.169921875,-5690.47998046875,-400000.0625,-5612.66015625,-400000.0625,-8302.7802734375,-400000.0625
timestamp,ch7,ch2,ch3,ch5,is_pause
5.07381534576416,-400000.0625,-15403.5595703125,-5659.81982421875,-400000.0625,-5585.47998046875,-400000.0625,-8275.5595703125,-400000.0625
timestamp,ch7,ch2,ch3,ch5,is_pause
5.088599681854248,-400000.0625,-15386.33984375,-5632.5,-400000.0625,-5563.35986328125,-400000.0625,-8252.669921875,-400000.0625
timestamp,ch7,ch2,ch3,ch5,is_pause
timestamp,ch7,ch2,ch3,ch5,is_pause
5.123935222625732,-400000.0625,-15379.4296875,-5631.8798828125,-400000.0625,-5572.990234375,-400000.0625,-8255.33984375,-400000.0625
timestamp,ch7,ch2,ch3,ch5,is_pause
5.1386754512786865,-400000.0625,-15406.5595703125,-5664.16015625,-400000.0625,-5595.2998046875,-400000.0625,-8280.6103515625,-400000.0625
timestamp,ch7,ch2,ch3,ch5,is_pause
5.153376340866089,-400000.0625,-15421.2001953125,-5676.7900390625,-400000.0625,-5598.8798828125,-400000.0625,-8292.0595703125,-400000.0625
timestamp,ch7,ch2,ch3,ch5,is_pause
5.1662516593933105,-400000.0625,-15393.4501953125,-5647.759765625,-400000.0625,-5564.740234375,-400000.0625,-8268.0703125,-400000.0625
timestamp,ch7,ch2,ch3,ch5,is_pause
5.18128228187561,-400000.0625,-15364.650390625,-5615.56982421875,-400000.0625,-5527.830078125,-400000.0625,-8236.599609375,-400000.0625
timestamp,ch7,ch2,ch3,ch5,is_pause
5.1964616775512695,-400000.0625,-15360.0703125,-5607.4599609375,-400000.0625,-5535.41015625,-400000.0625,-8227.2998046875,-400000.0625
timestamp,ch7,ch2,ch3,ch5,is_pause
timestamp,ch7,ch2,ch3,ch5,is_pause
timestamp,ch7,ch2,ch3,ch5,is_pause
5.230990409851074,-400000.0625,-15403.9404296875,-5647.0400390625,-400000.0625,-5576.1298828125,-400000.0625,-8267.01953125,-400000.0625
timestamp,ch7,ch2,ch3,ch5,is_pause
5.246009349822998,-400000.0625,-15429.3603515625,-5670.97998046875,-400000.0625,-5598.5,-400000.0625,-8293.490234375,-400000.0625
5.256350040435791,-400000.0625,-15425.6796875,-5674.740234375,-400000.0625,-5597.5400390625,-400000.0625,-8288.91015625,-400000.0625
timestamp,ch7,ch2,ch3,ch5,is_pause
5.271584749221802,-400000.0625,-15402.8896484375,-5657.77001953125,-400000.0625,-5560.77978515625,-400000.0625,-8258.76953125,-400000.0625
timestamp,ch7,ch2,ch3,ch5,is_pause
5.287280559539795,-400000.0625,-15406.6103515625,-5667.77978515625,-400000.0625,-5559.10986328125,-400000.0625,-8258.2998046875,-400000.0625
timestamp,ch7,ch2,ch3,ch5,is_pause
5.303080081939697,-400000.0625,-15431.8798828125,-5694.490234375,-400000.0625,-5601.8798828125,-400000.0625,-8273.169921875,-400000.0625
timestamp,ch7,ch2,ch3,ch5,is_pause
timestamp,ch7,ch2,ch3,ch5,is_pause
timestamp,ch7,ch2,ch3,ch5,is_pause
5.3445045948028564,-400000.0625,-15436.169921875,-5697.35009765625,-400000.0625,-5607.1298828125,-400000.0625,-8272.5498046875,-400000.0625
timestamp,ch7,ch2,ch3,ch5,is_pause
5.356305360794067,-400000.0625,-15411.330078125,-5674.64990234375,-400000.0625,-5578.9501953125,-400000.0625,-8252.7197265625,-400000.0625
timestamp,ch7,ch2,ch3,ch5,is_pause
5.379231929779053,-400000.0625,-15378.8603515625,-5644.1298828125,-400000.0625,-5546.669921875,-400000.0625,-8229.9697265625,-400000.0625
timestamp,ch7,ch2,ch3,ch5,is_pause
timestamp,ch7,ch2,ch3,ch5,is_pause
5.4008848667144775,-400000.0625,-15382.0498046875,-5642.02978515625,-400000.0625,-5537.419921875,-400000.0625,-8229.349609375,-400000.0625
timestamp,ch7,ch2,ch3,ch5,is_pause
5.412649869918823,-400000.0625,-15409.66015625,-5673.89013671875,-400000.0625,-5587.009765625,-400000.0625,-8252.1396484375,-400000.0625
timestamp,ch7,ch2,ch3,ch5,is_pause
timestamp,ch7,ch2,ch3,ch5,is_pause
timestamp,ch7,ch2,ch3,ch5,is_pause
timestamp,ch7,ch2,ch3,ch5,is_pause
5.466185808181763,-400000.0625,-15416.6201171875,-5686.56982421875,-400000.0625,-5628.35009765625,-400000.0625,-8257.8701171875,-400000.0625
timestamp,ch7,ch2,ch3,ch5,is_pause
5.480323076248169,-400000.0625,-15411.4296875,-5674.509765625,-400000.0625,-5578.08984375,-400000.0625,-8248.0,-400000.0625
timestamp,ch7,ch2,ch3,ch5,is_pause
timestamp,ch7,ch2,ch3,ch5,is_pause
5.5038464069366455,-400000.0625,-15397.650390625,-5659.009765625,-400000.0625,-5531.60009765625,-400000.0625,-8238.599609375,-400000.0625
timestamp,ch7,ch2,ch3,ch5,is_pause
5.520892381668091,-400000.0625,-15408.4697265625,-5672.02978515625,-400000.0625,-5552.85986328125,-400000.0625,-8252.1904296875,-400000.0625
timestamp,ch7,ch2,ch3,ch5,is_pause
timestamp,ch7,ch2,ch3,ch5,is_pause
timestamp,ch7,ch2,ch3,ch5,is_pause
timestamp,ch7,ch2,ch3,ch5,is_pause
5.577767610549927,-400000.0625,-15432.6904296875,-5701.5400390625,-400000.0625,-5600.5,-400000.0625,-8276.1796875,-400000.0625
timestamp,ch7,ch2,ch3,ch5,is_pause
timestamp,ch7,ch2,ch3,ch5,is_pause
5.600839376449585,-400000.0625,-15435.5498046875,-5706.35986328125,-400000.0625,-5620.580078125,-400000.0625,-8275.83984375,-400000.0625
timestamp,ch7,ch2,ch3,ch5,is_pause
5.613886594772339,-400000.0625,-15405.6103515625,-5674.22021484375,-400000.0625,-5590.2998046875,-400000.0625,-8248.1904296875,-400000.0625
timestamp,ch7,ch2,ch3,ch5,is_pause
timestamp,ch7,ch2,ch3,ch5,is_pause
5.635479688644409,-400000.0625,-15379.099609375,-5643.31982421875,-400000.0625,-5549.3798828125,-400000.0625,-8226.73046875,-400000.0625
timestamp,ch7,ch2,ch3,ch5,is_pause
timestamp,ch7,ch2,ch3,ch5,is_pause
timestamp,ch7,ch2,ch3,ch5,is_pause
5.672994613647461,-400000.0625,-15389.73046875,-5659.52978515625,-400000.0625,-5560.68017578125,-400000.0625,-8237.8896484375,-400000.0625
timestamp,ch7,ch2,ch3,ch5,is_pause
5.684723138809204,-400000.0625,-15419.2900390625,-5688.56982421875,-400000.0625,-5593.58984375,-400000.0625,-8262.8701171875,-400000.0625
timestamp,ch7,ch2,ch3,ch5,is_pause
5.696255922317505,-400000.0625,-15432.259765625,-5700.919921875,-400000.0625,-5603.83984375,-400000.0625,-8275.9404296875,-400000.0625
timestamp,ch7,ch2,ch3,ch5,is_pause
5.705713748931885,-400000.0625,-15420.7197265625,-5687.9501953125,-400000.0625,-5584.91015625,-400000.0625,-8262.8701171875,-400000.0625
timestamp,ch7,ch2,ch3,ch5,is_pause
5.722604036331177,-400000.0625,-15391.2998046875,-5655.47998046875,-400000.0625,-5562.8798828125,-400000.0625,-8231.830078125,-400000.0625
timestamp,ch7,ch2,ch3,ch5,is_pause
5.732454299926758,-400000.0625,-15396.6396484375,-5660.919921875,-400000.0625,-5572.1298828125,-400000.0625,-8237.1201171875,-400000.0625
5.7404491901397705,-400000.0625,-15414.91015625,-5680.080078125,-400000.0625,-5592.58984375,-400000.0625,-8252.91015625,-400000.0625
timestamp,ch7,ch2,ch3,ch5,is_pause
timestamp,ch7,ch2,ch3,ch5,is_pause
timestamp,ch7,ch2,ch3,ch5,is_pause
5.776130199432373,-400000.0625,-15414.669921875,-5682.89990234375,-400000.0625,-5593.77978515625,-400000.0625,-8256.6298828125,-400000.0625
timestamp,ch7,ch2,ch3,ch5,is_pause
timestamp,ch7,ch2,ch3,ch5,is_pause
5.796215057373047,-400000.0625,-15399.41015625,-5669.64013671875,-400000.0625,-5581.89990234375,-400000.0625,-8246.330078125,-400000.0625
timestamp,ch7,ch2,ch3,ch5,is_pause
5.806778430938721,-400000.0625,-15375.900390625,-5643.7998046875,-400000.0625,-5548.2900390625,-400000.0625,-8224.2001953125,-400000.0625
timestamp,ch7,ch2,ch3,ch5,is_pause
5.8248131275177,-400000.0625,-15381.8603515625,-5646.7099609375,-400000.0625,-5551.81982421875,-400000.0625,-8224.76953125,-400000.0625
timestamp,ch7,ch2,ch3,ch5,is_pause
5.838941812515259,-400000.0625,-15418.7197265625,-5684.66015625,-400000.0625,-5602.31005859375,-400000.0625,-8256.5302734375,-400000.0625
timestamp,ch7,ch2,ch3,ch5,is_pause
5.851551055908203,-400000.0625,-15435.98046875,-5705.64013671875,-400000.0625,-5613.759765625,-400000.0625,-8269.01953125,-400000.0625
timestamp,ch7,ch2,ch3,ch5,is_pause
timestamp,ch7,ch2,ch3,ch5,is_pause
timestamp,ch7,ch2,ch3,ch5,is_pause
timestamp,ch7,ch2,ch3,ch5,is_pause
5.902360916137695,-400000.0625,-15427.7802734375,-5697.77978515625,-400000.0625,-5593.490234375,-400000.0625,-8261.2001953125,-400000.0625
timestamp,ch7,ch2,ch3,ch5,is_pause
5.913805246353149,-400000.0625,-15395.1201171875,-5665.10986328125,-400000.0625,-5570.60009765625,-400000.0625,-8231.9697265625,-400000.0625
timestamp,ch7,ch2,ch3,ch5,is_pause
5.925940036773682,-400000.0625,-15385.9599609375,-5656.39013671875,-400000.0625,-5570.27001953125,-400000.0625,-8220.3896484375,-400000.0625
timestamp,ch7,ch2,ch3,ch5,is_pause
5.935603618621826,-400000.0625,-15394.58984375,-5669.169921875,-400000.0625,-5591.490234375,-400000.0625,-8229.9697265625,-400000.0625
timestamp,ch7,ch2,ch3,ch5,is_pause
5.946789503097534,-400000.0625,-15422.5400390625,-5697.2998046875,-400000.0625,-5611.60986328125,-400000.0625,-8259.73046875,-400000.0625
timestamp,ch7,ch2,ch3,ch5,is_pause
5.960988521575928,-400000.0625,-15409.0400390625,-5680.509765625,-400000.0625,-5596.5400390625,-400000.0625,-8245.5595703125,-400000.0625
timestamp,ch7,ch2,ch3,ch5,is_pause
timestamp,ch7,ch2,ch3,ch5,is_pause
timestamp,ch7,ch2,ch3,ch5,is_pause
5.996521949768066,-400000.0625,-15385.4404296875,-5652.43017578125,-400000.0625,-5572.18017578125,-400000.0625,-8225.349609375,-400000.0625
timestamp,ch7,ch2,ch3,ch5,is_pause
6.007240295410156,-400000.0625,-15383.91015625,-5650.81005859375,-400000.0625,-5565.740234375,-400000.0625,-8226.490234375,-400000.0625
timestamp,ch7,ch2,ch3,ch5,is_pause
6.025083303451538,-400000.0625,-15406.66015625,-5674.31982421875,-400000.0625,-5586.47998046875,-400000.0625,-8242.4697265625,-400000.0625
timestamp,ch7,ch2,ch3,ch5,is_pause
6.037590980529785,-400000.0625,-15425.01953125,-5694.77001953125,-400000.0625,-5597.93017578125,-400000.0625,-8266.16015625,-400000.0625
timestamp,ch7,ch2,ch3,ch5,is_pause
6.04760479927063,-400000.0625,-15401.3203125,-5672.169921875,-400000.0625,-5574.47021484375,-400000.0625,-8249.6201171875,-400000.0625
timestamp,ch7,ch2,ch3,ch5,is_pause
6.059625864028931,-400000.0625,-15363.98046875,-5640.35986328125,-400000.0625,-5555.580078125,-400000.0625,-8218.3798828125,-400000.0625
timestamp,ch7,ch2,ch3,ch5,is_pause
6.069491624832153,-400000.0625,-15342.2900390625,-5639.89013671875,-400000.0625,-5567.5498046875,-400000.0625,-8215.3798828125,-400000.0625
timestamp,ch7,ch2,ch3,ch5,is_pause
timestamp,ch7,ch2,ch3,ch5,is_pause
6.101142168045044,-400000.0625,-15385.2998046875,-5682.3701171875,-400000.0625,-5599.68994140625,-400000.0625,-8258.150390625,-400000.0625
timestamp,ch7,ch2,ch3,ch5,is_pause
6.114714860916138,-400000.0625,-15443.1796875,-5721.81005859375,-400000.0625,-5623.06005859375,-400000.0625,-8287.0498046875,-400000.0625
timestamp,ch7,ch2,ch3,ch5,is_pause
timestamp,ch7,ch2,ch3,ch5,is_pause
6.13030743598938,-400000.0625,-15407.1796875,-5711.41015625,-400000.0625,-5603.31005859375,-400000.0625,-8255.099609375,-400000.0625
6.1383583545684814,-400000.0625,-15336.5595703125,-5678.75,-400000.0625,-5585.0,-400000.0625,-8204.990234375,-400000.0625
timestamp,ch7,ch2,ch3,ch5,is_pause
6.150558948516846,-400000.0625,-15300.5595703125,-5672.41015625,-400000.0625,-5600.60009765625,-400000.0625,-8176.18017578125,-400000.0625
timestamp,ch7,ch2,ch3,ch5,is_pause
timestamp,ch7,ch2,ch3,ch5,is_pause
6.166486740112305,-400000.0625,-15283.2998046875,-5699.2099609375,-400000.0625,-5637.93017578125,-400000.0625,-8174.89990234375,-400000.0625
6.176166534423828,-400000.0625,-15249.400390625,-5707.60009765625,-400000.0625,-5652.47998046875,-400000.0625,-8157.43994140625,-400000.0625
timestamp,ch7,ch2,ch3,ch5,is_pause
timestamp,ch7,ch2,ch3,ch5,is_pause
timestamp,ch7,ch2,ch3,ch5,is_pause
6.210413932800293,-400000.0625,-15185.169921875,-5677.7001953125,-400000.0625,-5623.33984375,-400000.0625,-8104.3701171875,-400000.0625
timestamp,ch7,ch2,ch3,ch5,is_pause
6.2240517139434814,-400000.0625,-15120.169921875,-5647.3701171875,-400000.0625,-5593.2998046875,-400000.0625,-8059.8798828125,-400000.0625
timestamp,ch7,ch2,ch3,ch5,is_pause
6.238611698150635,-400000.0625,-15086.990234375,-5646.7099609375,-400000.0625,-5602.22021484375,-400000.0625,-8049.43994140625,-400000.0625
timestamp,ch7,ch2,ch3,ch5,is_pause
timestamp,ch7,ch2,ch3,ch5,is_pause
6.258422613143921,-400000.0625,-15088.8896484375,-5675.169921875,-400000.0625,-5642.56005859375,-400000.0625,-8062.22021484375,-400000.0625
timestamp,ch7,ch2,ch3,ch5,is_pause
6.272085428237915,-400000.0625,-15075.919921875,-5687.08984375,-400000.0625,-5660.490234375,-400000.0625,-8060.7900390625,-400000.0625
timestamp,ch7,ch2,ch3,ch5,is_pause
6.289271831512451,-400000.0625,-15031.580078125,-5654.18994140625,-400000.0625,-5636.169921875,-400000.0625,-8022.97998046875,-400000.0625
timestamp,ch7,ch2,ch3,ch5,is_pause
timestamp,ch7,ch2,ch3,ch5,is_pause
timestamp,ch7,ch2,ch3,ch5,is_pause
6.323462247848511,-400000.0625,-14980.8896484375,-5615.330078125,-400000.0625,-5604.41015625,-400000.0625,-7977.52978515625,-400000.0625
6.331854581832886,-400000.0625,-14971.7802734375,-5616.43017578125,-400000.0625,-5617.9501953125,-400000.0625,-7967.43017578125,-400000.0625
timestamp,ch7,ch2,ch3,ch5,is_pause
6.340466499328613,-400000.0625,-14995.8603515625,-5645.56005859375,-400000.0625,-5657.0498046875,-400000.0625,-7986.830078125,-400000.0625
timestamp,ch7,ch2,ch3,ch5,is_pause
6.352794647216797,-400000.0625,-14985.66015625,-5643.89013671875,-400000.0625,-5679.0400390625,-400000.0625,-7981.72998046875,-400000.0625
timestamp,ch7,ch2,ch3,ch5,is_pause
6.363332509994507,-400000.0625,-14948.6103515625,-5606.4599609375,-400000.0625,-5648.56982421875,-400000.0625,-7944.35009765625,-400000.0625
timestamp,ch7,ch2,ch3,ch5,is_pause
6.37226676940918,-400000.0625,-14935.2998046875,-5587.2900390625,-400000.0625,-5615.6201171875,-400000.0625,-7938.33984375,-400000.0625
timestamp,ch7,ch2,ch3,ch5,is_pause
6.386477708816528,-400000.0625,-14944.98046875,-5594.77978515625,-400000.0625,-5621.47998046875,-400000.0625,-7945.97021484375,-400000.0625
timestamp,ch7,ch2,ch3,ch5,is_pause
6.397990703582764,-400000.0625,-14980.5595703125,-5631.4501953125,-400000.0625,-5651.18994140625,-400000.0625,-7974.33984375,-400000.0625
timestamp,ch7,ch2,ch3,ch5,is_pause
timestamp,ch7,ch2,ch3,ch5,is_pause
6.427639484405518,-400000.0625,-14992.330078125,-5642.89013671875,-400000.0625,-5671.5498046875,-400000.0625,-7984.5,-400000.0625
timestamp,ch7,ch2,ch3,ch5,is_pause
6.437399625778198,-400000.0625,-14955.08984375,-5606.3701171875,-400000.0625,-5649.14013671875,-400000.0625,-7949.64013671875,-400000.0625
timestamp,ch7,ch2,ch3,ch5,is_pause
timestamp,ch7,ch2,ch3,ch5,is_pause
6.459300518035889,-400000.0625,-14911.4599609375,-5561.06982421875,-400000.0625,-5607.3701171875,-400000.0625,-7913.39990234375,-400000.0625
6.467105150222778,-400000.0625,-14938.1201171875,-5587.81982421875,-400000.0625,-5618.81005859375,-400000.0625,-7941.06005859375,-400000.0625
timestamp,ch7,ch2,ch3,ch5,is_pause
6.475597620010376,-400000.0625,-14979.41015625,-5629.77978515625,-400000.0625,-5644.419921875,-400000.0625,-7975.0498046875,-400000.0625
timestamp,ch7,ch2,ch3,ch5,is_pause
6.495956182479858,-400000.0625,-14996.9599609375,-5642.4599609375,-400000.0625,-5658.47998046875,-400000.0625,-7987.93017578125,-400000.0625
timestamp,ch7,ch2,ch3,ch5,is_pause
6.5067222118377686,-400000.0625,-14967.8701171875,-5607.990234375,-400000.0625,-5644.0400390625,-400000.0625,-7961.85009765625,-400000.0625
timestamp,ch7,ch2,ch3,ch5,is_pause
timestamp,ch7,ch2,ch3,ch5,is_pause
timestamp,ch7,ch2,ch3,ch5,is_pause
6.543336629867554,-400000.0625,-14950.1298828125,-5590.2998046875,-400000.0625,-5632.68994140625,-400000.0625,-7946.06005859375,-400000.0625
timestamp,ch7,ch2,ch3,ch5,is_pause
timestamp,ch7,ch2,ch3,ch5,is_pause
6.561699390411377,-400000.0625,-14958.7197265625,-5600.97998046875,-400000.0625,-5640.4599609375,-400000.0625,-7957.169921875,-400000.0625
timestamp,ch7,ch2,ch3,ch5,is_pause
6.5721659660339355,-400000.0625,-14988.330078125,-5633.8798828125,-400000.0625,-5676.60009765625,-400000.0625,-7980.68017578125,-400000.0625
6.582569599151611,-400000.0625,-14993.9599609375,-5639.5498046875,-400000.0625,-5678.89013671875,-400000.0625,-7981.2099609375,-400000.0625
timestamp,ch7,ch2,ch3,ch5,is_pause
timestamp,ch7,ch2,ch3,ch5,is_pause
6.597409963607788,-400000.0625,-14947.23046875,-5592.2998046875,-400000.0625,-5622.9599609375,-400000.0625,-7945.009765625,-400000.0625
6.606557369232178,-400000.0625,-14912.990234375,-5558.06005859375,-400000.0625,-5594.58984375,-400000.0625,-7910.35009765625,-400000.0625
timestamp,ch7,ch2,ch3,ch5,is_pause
6.624139785766602,-400000.0625,-14915.900390625,-5560.2099609375,-400000.0625,-5615.66015625,-400000.0625,-7908.6298828125,-400000.0625
timestamp,ch7,ch2,ch3,ch5,is_pause
timestamp,ch7,ch2,ch3,ch5,is_pause
timestamp,ch7,ch2,ch3,ch5,is_pause
6.657649517059326,-400000.0625,-14969.400390625,-5607.7998046875,-400000.0625,-5669.830078125,-400000.0625,-7954.68994140625,-400000.0625
timestamp,ch7,ch2,ch3,ch5,is_pause
6.670147657394409,-400000.0625,-15016.5595703125,-5653.669921875,-400000.0625,-5692.33984375,-400000.0625,-7996.419921875,-400000.0625
timestamp,ch7,ch2,ch3,ch5,is_pause
6.684484481811523,-400000.0625,-14984.1796875,-5625.10986328125,-400000.0625,-5667.10986328125,-400000.0625,-7969.56982421875,-400000.0625
timestamp,ch7,ch2,ch3,ch5,is_pause
6.696741342544556,-400000.0625,-14943.26953125,-5582.56982421875,-400000.0625,-5619.33984375,-400000.0625,-7935.85986328125,-400000.0625
timestamp,ch7,ch2,ch3,ch5,is_pause
6.705784559249878,-400000.0625,-14938.5,-5577.60986328125,-400000.0625,-5603.83984375,-400000.0625,-7929.9501953125,-400000.0625
6.715798616409302,-400000.0625,-14981.9404296875,-5622.72021484375,-400000.0625,-5668.5498046875,-400000.0625,-7968.3798828125,-400000.0625
timestamp,ch7,ch2,ch3,ch5,is_pause
6.7258710861206055,-400000.0625,-14998.009765625,-5641.080078125,-400000.0625,-5703.8798828125,-400000.0625,-7980.43994140625,-400000.0625
timestamp,ch7,ch2,ch3,ch5,is_pause
timestamp,ch7,ch2,ch3,ch5,is_pause
timestamp,ch7,ch2,ch3,ch5,is_pause
6.763426065444946,-400000.0625,-14967.7802734375,-5606.31982421875,-400000.0625,-5653.52978515625,-400000.0625,-7951.2099609375,-400000.0625
timestamp,ch7,ch2,ch3,ch5,is_pause
6.772141933441162,-400000.0625,-14935.830078125,-5558.25,-400000.0625,-5597.93017578125,-400000.0625,-7914.830078125,-400000.0625
timestamp,ch7,ch2,ch3,ch5,is_pause
6.7878499031066895,-400000.0625,-14949.900390625,-5567.97998046875,-400000.0625,-5623.25,-400000.0625,-7919.41015625,-400000.0625
timestamp,ch7,ch2,ch3,ch5,is_pause
6.7984278202056885,-400000.0625,-14988.900390625,-5622.009765625,-400000.0625,-5664.77978515625,-400000.0625,-7967.66015625,-400000.0625
timestamp,ch7,ch2,ch3,ch5,is_pause
6.807443141937256,-400000.0625,-15010.4501953125,-5648.22998046875,-400000.0625,-5677.080078125,-400000.0625,-7995.419921875,-400000.0625
timestamp,ch7,ch2,ch3,ch5,is_pause
6.824460744857788,-400000.0625,-14989.5703125,-5619.33984375,-400000.0625,-5658.72021484375,-400000.0625,-7981.64013671875,-400000.0625
timestamp,ch7,ch2,ch3,ch5,is_pause
6.8341357707977295,-400000.0625,-14944.75,-5563.58984375,-400000.0625,-5609.60986328125,-400000.0625,-7935.240234375,-400000.0625
timestamp,ch7,ch2,ch3,ch5,is_pause
timestamp,ch7,ch2,ch3,ch5,is_pause
timestamp,ch7,ch2,ch3,ch5,is_pause
6.865679502487183,-400000.0625,-14955.08984375,-5571.27001953125,-400000.0625,-5614.85009765625,-400000.0625,-7939.2900390625,-400000.0625
6.873572587966919,-400000.0625,-15011.0302734375,-5628.16015625,-400000.0625,-5655.47998046875,-400000.0625,-7989.41015625,-400000.0625
timestamp,ch7,ch2,ch3,ch5,is_pause
timestamp,ch7,ch2,ch3,ch5,is_pause
6.890136003494263,-400000.0625,-15039.1103515625,-5657.85986328125,-400000.0625,-5690.0,-400000.0625,-8018.77978515625,-400000.0625
6.8978657722473145,-400000.0625,-15008.5,-5626.2001953125,-400000.0625,-5664.8701171875,-400000.0625,-7993.22021484375,-400000.0625
timestamp,ch7,ch2,ch3,ch5,is_pause
6.905673265457153,-400000.0625,-14962.48046875,-5578.60986328125,-400000.0625,-5614.759765625,-400000.0625,-7951.4501953125,-400000.0625
timestamp,ch7,ch2,ch3,ch5,is_pause
6.918811798095703,-400000.0625,-14978.0302734375,-5592.68017578125,-400000.0625,-5625.68017578125,-400000.0625,-7965.66015625,-400000.0625
timestamp,ch7,ch2,ch3,ch5,is_pause
6.92772650718689,-400000.0625,-15018.8896484375,-5631.97021484375,-400000.0625,-5667.10986328125,-400000.0625,-7997.75,-400000.0625
timestamp,ch7,ch2,ch3,ch5,is_pause
6.935750484466553,-400000.0625,-15026.1904296875,-5639.83984375,-400000.0625,-5679.7998046875,-400000.0625,-8005.72021484375,-400000.0625
timestamp,ch7,ch2,ch3,ch5,is_pause
timestamp,ch7,ch2,ch3,ch5,is_pause
6.967228412628174,-400000.0625,-14989.1904296875,-5603.41015625,-400000.0625,-5641.509765625,-400000.0625,-7973.39013671875,-400000.0625
timestamp,ch7,ch2,ch3,ch5,is_pause
6.975824356079102,-400000.0625,-14950.990234375,-5569.64990234375,-400000.0625,-5617.669921875,-400000.0625,-7942.6298828125,-400000.0625
timestamp,ch7,ch2,ch3,ch5,is_pause
6.992031574249268,-400000.0625,-14959.580078125,-5575.990234375,-400000.0625,-5622.47998046875,-400000.0625,-7946.919921875,-400000.0625
timestamp,ch7,ch2,ch3,ch5,is_pause
7.002251625061035,-400000.0625,-14999.5302734375,-5615.43017578125,-400000.0625,-5652.08984375,-400000.0625,-7980.10986328125,-400000.0625
timestamp,ch7,ch2,ch3,ch5,is_pause
timestamp,ch7,ch2,ch3,ch5,is_pause
7.017171144485474,-400000.0625,-15019.0400390625,-5634.830078125,-400000.0625,-5674.509765625,-400000.0625,-7999.75,-400000.0625
timestamp,ch7,ch2,ch3,ch5,is_pause
7.028885841369629,-400000.0625,-14997.580078125,-5608.31982421875,-400000.0625,-5652.3798828125,-400000.0625,-7979.68017578125,-400000.0625
7.037332534790039,-400000.0625,-14958.48046875,-5566.41015625,-400000.0625,-5614.52001953125,-400000.0625,-7942.14990234375,-400000.0625
timestamp,ch7,ch2,ch3,ch5,is_pause
timestamp,ch7,ch2,ch3,ch5,is_pause
timestamp,ch7,ch2,ch3,ch5,is_pause
7.073341369628906,-400000.0625,-14942.8896484375,-5555.81982421875,-400000.0625,-5604.080078125,-400000.0625,-7931.419921875,-400000.0625
timestamp,ch7,ch2,ch3,ch5,is_pause
7.090724945068359,-400000.0625,-14991.6201171875,-5606.18017578125,-400000.0625,-5647.759765625,-400000.0625,-7976.06005859375,-400000.0625
timestamp,ch7,ch2,ch3,ch5,is_pause
7.1016247272491455,-400000.0625,-15039.2998046875,-5650.27978515625,-400000.0625,-5691.0498046875,-400000.0625,-8018.97021484375,-400000.0625
timestamp,ch7,ch2,ch3,ch5,is_pause
7.111465215682983,-400000.0625,-15011.650390625,-5624.490234375,-400000.0625,-5660.919921875,-400000.0625,-7996.4599609375,-400000.0625
timestamp,ch7,ch2,ch3,ch5,is_pause
7.125591278076172,-400000.0625,-14969.919921875,-5582.18994140625,-400000.0625,-5612.990234375,-400000.0625,-7959.4599609375,-400000.0625
timestamp,ch7,ch2,ch3,ch5,is_pause
7.141428232192993,-400000.0625,-14967.6298828125,-5578.3798828125,-400000.0625,-5616.240234375,-400000.0625,-7953.1201171875,-400000.0625
timestamp,ch7,ch2,ch3,ch5,is_pause
timestamp,ch7,ch2,ch3,ch5,is_pause
timestamp,ch7,ch2,ch3,ch5,is_pause
7.172138690948486,-400000.0625,-14998.150390625,-5612.0400390625,-400000.0625,-5654.10009765625,-400000.0625,-7980.39990234375,-400000.0625
timestamp,ch7,ch2,ch3,ch5,is_pause
7.185562610626221,-400000.0625,-15006.5400390625,-5624.9599609375,-400000.0625,-5668.5,-400000.0625,-7988.60009765625,-400000.0625
timestamp,ch7,ch2,ch3,ch5,is_pause
7.196149826049805,-400000.0625,-14982.0302734375,-5593.77978515625,-400000.0625,-5640.169921875,-400000.0625,-7963.52001953125,-400000.0625
7.204018831253052,-400000.0625,-14950.6103515625,-5560.68017578125,-400000.0625,-5606.41015625,-400000.0625,-7937.10009765625,-400000.0625
timestamp,ch7,ch2,ch3,ch5,is_pause
7.214354038238525,-400000.0625,-14968.349609375,-5578.759765625,-400000.0625,-5629.830078125,-400000.0625,-7948.2099609375,-400000.0625
timestamp,ch7,ch2,ch3,ch5,is_pause
7.227816581726074,-400000.0625,-15026.8095703125,-5637.02978515625,-400000.0625,-5691.0498046875,-400000.0625,-7998.7099609375,-400000.0625
timestamp,ch7,ch2,ch3,ch5,is_pause
7.237247467041016,-400000.0625,-15042.259765625,-5651.759765625,-400000.0625,-5681.93994140625,-400000.0625,-8015.72998046875,-400000.0625
timestamp,ch7,ch2,ch3,ch5,is_pause
7.24646782875061,-400000.0625,-15004.919921875,-5611.27978515625,-400000.0625,-5625.72998046875,-400000.0625,-7984.5,-400000.0625
timestamp,ch7,ch2,ch3,ch5,is_pause
timestamp,ch7,ch2,ch3,ch5,is_pause
7.276431083679199,-400000.0625,-14967.349609375,-5570.75,-400000.0625,-5598.740234375,-400000.0625,-7946.10986328125,-400000.0625
timestamp,ch7,ch2,ch3,ch5,is_pause
timestamp,ch7,ch2,ch3,ch5,is_pause
7.293114185333252,-400000.0625,-14965.73046875,-5570.1298828125,-400000.0625,-5606.75,-400000.0625,-7942.33984375,-400000.0625
timestamp,ch7,ch2,ch3,ch5,is_pause
7.303011894226074,-400000.0625,-15008.400390625,-5615.08984375,-400000.0625,-5650.330078125,-400000.0625,-7979.2998046875,-400000.0625
7.312100887298584,-400000.0625,-15042.830078125,-5648.3798828125,-400000.0625,-5685.7099609375,-400000.0625,-8009.2900390625,-400000.0625
timestamp,ch7,ch2,ch3,ch5,is_pause
7.324147939682007,-400000.0625,-15023.330078125,-5627.919921875,-400000.0625,-5658.47998046875,-400000.0625,-7993.27001953125,-400000.0625
timestamp,ch7,ch2,ch3,ch5,is_pause
7.333468675613403,-400000.0625,-14985.7099609375,-5584.9599609375,-400000.0625,-5621.2900390625,-400000.0625,-7957.22021484375,-400000.0625
timestamp,ch7,ch2,ch3,ch5,is_pause
7.341142416000366,-400000.0625,-14997.8203125,-5596.64013671875,-400000.0625,-5635.2099609375,-400000.0625,-7965.7998046875,-400000.0625
7.350085973739624,-400000.0625,-15037.16015625,-5641.169921875,-400000.0625,-5664.06005859375,-400000.0625,-8005.47998046875,-400000.0625
timestamp,ch7,ch2,ch3,ch5,is_pause
timestamp,ch7,ch2,ch3,ch5,is_pause
timestamp,ch7,ch2,ch3,ch5,is_pause
7.37801718711853,-400000.0625,-15047.599609375,-5651.89990234375,-400000.0625,-5674.740234375,-400000.0625,-8017.72998046875,-400000.0625
7.38817286491394,-400000.0625,-15011.7900390625,-5614.14013671875,-400000.0625,-5642.02978515625,-400000.0625,-7982.35009765625,-400000.0625
timestamp,ch7,ch2,ch3,ch5,is_pause
7.397486209869385,-400000.0625,-14984.7998046875,-5586.0,-400000.0625,-5615.0400390625,-400000.0625,-7961.4599609375,-400000.0625
timestamp,ch7,ch2,ch3,ch5,is_pause
7.406927824020386,-400000.0625,-14998.8203125,-5595.2099609375,-400000.0625,-5631.5,-400000.0625,-7968.330078125,-400000.0625
timestamp,ch7,ch2,ch3,ch5,is_pause
7.421606540679932,-400000.0625,-15036.2998046875,-5635.830078125,-400000.0625,-5670.7900390625,-400000.0625,-8003.52001953125,-400000.0625
timestamp,ch7,ch2,ch3,ch5,is_pause
7.432103395462036,-400000.0625,-15050.1298828125,-5652.43017578125,-400000.0625,-5687.2900390625,-400000.0625,-8015.6298828125,-400000.0625
7.4402241706848145,-400000.0625,-15012.1201171875,-5615.89990234375,-400000.0625,-5658.81982421875,-400000.0625,-7981.35009765625,-400000.0625
timestamp,ch7,ch2,ch3,ch5,is_pause
timestamp,ch7,ch2,ch3,ch5,is_pause
7.45587158203125,-400000.0625,-14966.0595703125,-5568.080078125,-400000.0625,-5611.56005859375,-400000.0625,-7941.10009765625,-400000.0625
timestamp,ch7,ch2,ch3,ch5,is_pause
timestamp,ch7,ch2,ch3,ch5,is_pause
7.4842023849487305,-400000.0625,-14971.6904296875,-5575.75,-400000.0625,-5601.93017578125,-400000.0625,-7942.2998046875,-400000.0625
timestamp,ch7,ch2,ch3,ch5,is_pause
7.494980096817017,-400000.0625,-15010.6396484375,-5619.52978515625,-400000.0625,-5648.08984375,-400000.0625,-7975.25,-400000.0625
timestamp,ch7,ch2,ch3,ch5,is_pause
7.5047101974487305,-400000.0625,-15031.0498046875,-5638.080078125,-400000.0625,-5681.1298828125,-400000.0625,-7995.18017578125,-400000.0625
7.513463258743286,-400000.0625,-15019.1796875,-5622.43994140625,-400000.0625,-5657.580078125,-400000.0625,-7989.35986328125,-400000.0625
timestamp,ch7,ch2,ch3,ch5,is_pause
timestamp,ch7,ch2,ch3,ch5,is_pause
7.53291916847229,-400000.0625,-14982.419921875,-5584.52978515625,-400000.0625,-5608.3701171875,-400000.0625,-7950.39990234375,-400000.0625
7.540223598480225,-400000.0625,-14988.759765625,-5593.490234375,-400000.0625,-5612.419921875,-400000.0625,-7959.4599609375,-400000.0625
timestamp,ch7,ch2,ch3,ch5,is_pause
7.5497801303863525,-400000.0625,-15038.2998046875,-5646.31982421875,-400000.0625,-5672.5498046875,-400000.0625,-8004.85986328125,-400000.0625
timestamp,ch7,ch2,ch3,ch5,is_pause
7.561904430389404,-400000.0625,-15055.2802734375,-5663.009765625,-400000.0625,-5699.77978515625,-400000.0625,-8015.8701171875,-400000.0625
timestamp,ch7,ch2,ch3,ch5,is_pause
timestamp,ch7,ch2,ch3,ch5,is_pause
timestamp,ch7,ch2,ch3,ch5,is_pause
7.593789100646973,-400000.0625,-15023.2802734375,-5628.35009765625,-400000.0625,-5677.41015625,-400000.0625,-7986.68994140625,-400000.0625
7.601597547531128,-400000.0625,-14980.41015625,-5585.2900390625,-400000.0625,-5616.0498046875,-400000.0625,-7951.830078125,-400000.0625
timestamp,ch7,ch2,ch3,ch5,is_pause
7.611001968383789,-400000.0625,-14986.7099609375,-5591.72998046875,-400000.0625,-5612.9501953125,-400000.0625,-7951.31005859375,-400000.0625
timestamp,ch7,ch2,ch3,ch5,is_pause
7.6230292320251465,-400000.0625,-15016.3701171875,-5623.39013671875,-400000.0625,-5646.22998046875,-400000.0625,-7976.14990234375,-400000.0625
timestamp,ch7,ch2,ch3,ch5,is_pause
7.632046222686768,-400000.0625,-15035.1103515625,-5641.02978515625,-400000.0625,-5664.77978515625,-400000.0625,-7997.85009765625,-400000.0625
7.639379978179932,-400000.0625,-15008.169921875,-5612.89990234375,-400000.0625,-5644.22998046875,-400000.0625,-7969.81005859375,-400000.0625
timestamp,ch7,ch2,ch3,ch5,is_pause
7.648717641830444,-400000.0625,-14973.2099609375,-5578.66015625,-400000.0625,-5621.39013671875,-400000.0625,-7940.33984375,-400000.0625
timestamp,ch7,ch2,ch3,ch5,is_pause
7.663438558578491,-400000.0625,-14974.6904296875,-5583.240234375,-400000.0625,-5626.919921875,-400000.0625,-7944.25,-400000.0625
timestamp,ch7,ch2,ch3,ch5,is_pause
timestamp,ch7,ch2,ch3,ch5,is_pause
timestamp,ch7,ch2,ch3,ch5,is_pause
7.6947526931762695,-400000.0625,-14992.330078125,-5601.169921875,-400000.0625,-5642.02978515625,-400000.0625,-7957.7001953125,-400000.0625
timestamp,ch7,ch2,ch3,ch5,is_pause
7.70524001121521,-400000.0625,-15014.1298828125,-5618.85986328125,-400000.0625,-5664.2998046875,-400000.0625,-7976.14990234375,-400000.0625
timestamp,ch7,ch2,ch3,ch5,is_pause
7.723067998886108,-400000.0625,-15012.650390625,-5614.9501953125,-400000.0625,-5656.6201171875,-400000.0625,-7976.8701171875,-400000.0625
timestamp,ch7,ch2,ch3,ch5,is_pause
7.735912561416626,-400000.0625,-14989.4697265625,-5589.580078125,-400000.0625,-5626.580078125,-400000.0625,-7956.31982421875,-400000.0625
timestamp,ch7,ch2,ch3,ch5,is_pause
7.747263669967651,-400000.0625,-14993.7197265625,-5594.2998046875,-400000.0625,-5626.10986328125,-400000.0625,-7956.1201171875,-400000.0625
timestamp,ch7,ch2,ch3,ch5,is_pause
7.760066986083984,-400000.0625,-15034.5302734375,-5638.60009765625,-400000.0625,-5668.5,-400000.0625,-7993.41015625,-400000.0625
timestamp,ch7,ch2,ch3,ch5,is_pause
7.768978834152222,-400000.0625,-15047.5,-5654.10009765625,-400000.0625,-5679.7998046875,-400000.0625,-8011.8701171875,-400000.0625
timestamp,ch7,ch2,ch3,ch5,is_pause
timestamp,ch7,ch2,ch3,ch5,is_pause
7.800493240356445,-400000.0625,-15010.5,-5616.7099609375,-400000.0625,-5642.509765625,-400000.0625,-7980.39990234375,-400000.0625
timestamp,ch7,ch2,ch3,ch5,is_pause
7.808468818664551,-400000.0625,-14973.2099609375,-5577.08984375,-400000.0625,-5612.08984375,-400000.0625,-7944.68017578125,-400000.0625
timestamp,ch7,ch2,ch3,ch5,is_pause
7.82111930847168,-400000.0625,-14968.2099609375,-5570.41015625,-400000.0625,-5629.97021484375,-400000.0625,-7938.47998046875,-400000.0625
7.830307245254517,-400000.0625,-15004.58984375,-5606.990234375,-400000.0625,-5660.06005859375,-400000.0625,-7963.93994140625,-400000.0625
timestamp,ch7,ch2,ch3,ch5,is_pause
7.839488744735718,-400000.0625,-15023.2802734375,-5625.77001953125,-400000.0625,-5666.77978515625,-400000.0625,-7984.02001953125,-400000.0625
timestamp,ch7,ch2,ch3,ch5,is_pause
7.850825786590576,-400000.0625,-15004.16015625,-5605.02978515625,-400000.0625,-5635.97998046875,-400000.0625,-7975.25,-400000.0625
timestamp,ch7,ch2,ch3,ch5,is_pause
7.8630170822143555,-400000.0625,-14983.23046875,-5583.3798828125,-400000.0625,-5613.3798828125,-400000.0625,-7956.5498046875,-400000.0625
timestamp,ch7,ch2,ch3,ch5,is_pause
7.872986555099487,-400000.0625,-14989.0,-5586.10009765625,-400000.0625,-5614.08984375,-400000.0625,-7957.41015625,-400000.0625
timestamp,ch7,ch2,ch3,ch5,is_pause
timestamp,ch7,ch2,ch3,ch5,is_pause
7.901437282562256,-400000.0625,-15012.3095703125,-5610.75,-400000.0625,-5643.89013671875,-400000.0625,-7976.14990234375,-400000.0625
timestamp,ch7,ch2,ch3,ch5,is_pause
timestamp,ch7,ch2,ch3,ch5,is_pause
7.91587495803833,-400000.0625,-15010.4501953125,-5609.7001953125,-400000.0625,-5651.0,-400000.0625,-7972.580078125,-400000.0625
timestamp,ch7,ch2,ch3,ch5,is_pause
7.927824258804321,-400000.0625,-14994.91015625,-5591.97021484375,-400000.0625,-5644.0400390625,-400000.0625,-7958.990234375,-400000.0625
timestamp,ch7,ch2,ch3,ch5,is_pause
7.93744969367981,-400000.0625,-14979.7001953125,-5573.64990234375,-400000.0625,-5634.5,-400000.0625,-7942.919921875,-400000.0625
7.946293115615845,-400000.0625,-14995.9599609375,-5589.81982421875,-400000.0625,-5642.4599609375,-400000.0625,-7958.080078125,-400000.0625
timestamp,ch7,ch2,ch3,ch5,is_pause
7.961621046066284,-400000.0625,-15032.9599609375,-5631.06982421875,-400000.0625,-5679.18017578125,-400000.0625,-7992.7900390625,-400000.0625
timestamp,ch7,ch2,ch3,ch5,is_pause
7.970847129821777,-400000.0625,-15039.7802734375,-5640.509765625,-400000.0625,-5687.56982421875,-400000.0625,-7999.60986328125,-400000.0625
timestamp,ch7,ch2,ch3,ch5,is_pause
7.980604648590088,-400000.0625,-15014.7001953125,-5613.85009765625,-400000.0625,-5652.3798828125,-400000.0625,-7978.25,-400000.0625
timestamp,ch7,ch2,ch3,ch5,is_pause
timestamp,ch7,ch2,ch3,ch5,is_pause
8.0106680393219,-400000.0625,-14975.5498046875,-5572.3701171875,-400000.0625,-5610.66015625,-400000.0625,-7947.830078125,-400000.0625
timestamp,ch7,ch2,ch3,ch5,is_pause
timestamp,ch7,ch2,ch3,ch5,is_pause
8.031248569488525,-400000.0625,-14968.9697265625,-5561.8798828125,-400000.0625,-5603.1201171875,-400000.0625,-7933.47021484375,-400000.0625
timestamp,ch7,ch2,ch3,ch5,is_pause
8.040192604064941,-400000.0625,-15014.98046875,-5610.509765625,-400000.0625,-5644.7998046875,-400000.0625,-7972.6201171875,-400000.0625
timestamp,ch7,ch2,ch3,ch5,is_pause
8.05502438545227,-400000.0625,-15034.33984375,-5632.68994140625,-400000.0625,-5668.68994140625,-400000.0625,-7997.080078125,-400000.0625
timestamp,ch7,ch2,ch3,ch5,is_pause
8.064958333969116,-400000.0625,-15009.6904296875,-5607.60986328125,-400000.0625,-5652.81005859375,-400000.0625,-7974.33984375,-400000.0625
8.073309659957886,-400000.0625,-14983.0400390625,-5577.27978515625,-400000.0625,-5629.16015625,-400000.0625,-7950.5,-400000.0625
timestamp,ch7,ch2,ch3,ch5,is_pause
8.08431625366211,-400000.0625,-14989.08984375,-5584.10009765625,-400000.0625,-5632.02001953125,-400000.0625,-7951.64013671875,-400000.0625
timestamp,ch7,ch2,ch3,ch5,is_pause
timestamp,ch7,ch2,ch3,ch5,is_pause
timestamp,ch7,ch2,ch3,ch5,is_pause
8.116888999938965,-400000.0625,-15012.0302734375,-5608.56005859375,-400000.0625,-5654.669921875,-400000.0625,-7969.2900390625,-400000.0625
timestamp,ch7,ch2,ch3,ch5,is_pause
8.131807327270508,-400000.0625,-15035.6796875,-5629.25,-400000.0625,-5666.919921875,-400000.0625,-7986.5,-400000.0625
timestamp,ch7,ch2,ch3,ch5,is_pause
8.14055323600769,-400000.0625,-15016.41015625,-5608.93994140625,-400000.0625,-5643.22998046875,-400000.0625,-7974.2001953125,-400000.0625
timestamp,ch7,ch2,ch3,ch5,is_pause
8.152579545974731,-400000.0625,-14974.5498046875,-5569.97998046875,-400000.0625,-5605.169921875,-400000.0625,-7940.2001953125,-400000.0625
timestamp,ch7,ch2,ch3,ch5,is_pause
8.167104482650757,-400000.0625,-14988.8095703125,-5584.0,-400000.0625,-5616.43017578125,-400000.0625,-7951.1201171875,-400000.0625
8.174698114395142,-400000.0625,-15034.0595703125,-5631.64013671875,-400000.0625,-5662.25,-400000.0625,-7995.080078125,-400000.0625
timestamp,ch7,ch2,ch3,ch5,is_pause
timestamp,ch7,ch2,ch3,ch5,is_pause
8.196068525314331,-400000.0625,-15038.830078125,-5636.259765625,-400000.0625,-5679.89013671875,-400000.0625,-7997.66015625,-400000.0625
timestamp,ch7,ch2,ch3,ch5,is_pause
timestamp,ch7,ch2,ch3,ch5,is_pause
8.228031873703003,-400000.0625,-15002.2001953125,-5596.58984375,-400000.0625,-5649.27978515625,-400000.0625,-7962.31982421875,-400000.0625
timestamp,ch7,ch2,ch3,ch5,is_pause
8.239996433258057,-400000.0625,-14973.4501953125,-5564.31005859375,-400000.0625,-5610.990234375,-400000.0625,-7937.77001953125,-400000.0625
timestamp,ch7,ch2,ch3,ch5,is_pause
8.2499418258667,-400000.0625,-14990.6201171875,-5581.47021484375,-400000.0625,-5621.91015625,-400000.0625,-7948.16015625,-400000.0625
timestamp,ch7,ch2,ch3,ch5,is_pause
8.259424448013306,-400000.0625,-15020.75,-5615.18994140625,-400000.0625,-5653.669921875,-400000.0625,-7975.8701171875,-400000.0625
timestamp,ch7,ch2,ch3,ch5,is_pause
8.268204927444458,-400000.0625,-15029.150390625,-5621.72021484375,-400000.0625,-5664.919921875,-400000.0625,-7984.02001953125,-400000.0625
8.276026964187622,-400000.0625,-15007.6904296875,-5601.259765625,-400000.0625,-5644.89013671875,-400000.0625,-7970.10009765625,-400000.0625
timestamp,ch7,ch2,ch3,ch5,is_pause
timestamp,ch7,ch2,ch3,ch5,is_pause
8.296071529388428,-400000.0625,-14985.23046875,-5575.7099609375,-400000.0625,-5609.7998046875,-400000.0625,-7955.93017578125,-400000.0625
timestamp,ch7,ch2,ch3,ch5,is_pause
timestamp,ch7,ch2,ch3,ch5,is_pause
8.32409405708313,-400000.0625,-14991.330078125,-5580.08984375,-400000.0625,-5614.3798828125,-400000.0625,-7956.83984375,-400000.0625
timestamp,ch7,ch2,ch3,ch5,is_pause
8.335218667984009,-400000.0625,-15029.099609375,-5619.85986328125,-400000.0625,-5647.47021484375,-400000.0625,-7985.8798828125,-400000.0625
timestamp,ch7,ch2,ch3,ch5,is_pause
8.344825267791748,-400000.0625,-15054.23046875,-5645.7998046875,-400000.0625,-5666.68994140625,-400000.0625,-8005.43017578125,-400000.0625
timestamp,ch7,ch2,ch3,ch5,is_pause
8.35660171508789,-400000.0625,-15017.3701171875,-5609.56005859375,-400000.0625,-5642.56005859375,-400000.0625,-7976.25,-400000.0625
8.364425420761108,-400000.0625,-14985.51953125,-5574.0400390625,-400000.0625,-5622.72021484375,-400000.0625,-7945.68017578125,-400000.0625
timestamp,ch7,ch2,ch3,ch5,is_pause
8.372393369674683,-400000.0625,-14990.900390625,-5579.3798828125,-400000.0625,-5623.6298828125,-400000.0625,-7946.68017578125,-400000.0625
timestamp,ch7,ch2,ch3,ch5,is_pause
8.382729291915894,-400000.0625,-15029.33984375,-5618.2900390625,-400000.0625,-5662.97021484375,-400000.0625,-7981.02001953125,-400000.0625
timestamp,ch7,ch2,ch3,ch5,is_pause
8.392216444015503,-400000.0625,-15045.1201171875,-5636.5498046875,-400000.0625,-5678.7001953125,-400000.0625,-7995.7001953125,-400000.0625
8.400745630264282,-400000.0625,-15021.330078125,-5614.08984375,-400000.0625,-5648.7998046875,-400000.0625,-7981.35009765625,-400000.0625
timestamp,ch7,ch2,ch3,ch5,is_pause
timestamp,ch7,ch2,ch3,ch5,is_pause
timestamp,ch7,ch2,ch3,ch5,is_pause
8.433556079864502,-400000.0625,-14978.1201171875,-5566.60009765625,-400000.0625,-5603.080078125,-400000.0625,-7938.669921875,-400000.0625
timestamp,ch7,ch2,ch3,ch5,is_pause
8.444709062576294,-400000.0625,-14977.9296875,-5565.4501953125,-400000.0625,-5615.330078125,-400000.0625,-7933.0,-400000.0625
timestamp,ch7,ch2,ch3,ch5,is_pause
8.454716205596924,-400000.0625,-15013.080078125,-5603.02978515625,-400000.0625,-5653.81005859375,-400000.0625,-7968.0498046875,-400000.0625
8.463283777236938,-400000.0625,-15041.9296875,-5631.77978515625,-400000.0625,-5683.7099609375,-400000.0625,-7993.56005859375,-400000.0625
timestamp,ch7,ch2,ch3,ch5,is_pause
8.472570419311523,-400000.0625,-15019.9404296875,-5611.47021484375,-400000.0625,-5646.0400390625,-400000.0625,-7982.58984375,-400000.0625
timestamp,ch7,ch2,ch3,ch5,is_pause
8.483581066131592,-400000.0625,-14984.849609375,-5573.18017578125,-400000.0625,-5600.169921875,-400000.0625,-7948.97021484375,-400000.0625
timestamp,ch7,ch2,ch3,ch5,is_pause
8.495050191879272,-400000.0625,-14975.5,-5561.77978515625,-400000.0625,-5598.35986328125,-400000.0625,-7933.240234375,-400000.0625
timestamp,ch7,ch2,ch3,ch5,is_pause
8.503447532653809,-400000.0625,-15004.349609375,-5593.490234375,-400000.0625,-5642.64990234375,-400000.0625,-7958.509765625,-400000.0625
timestamp,ch7,ch2,ch3,ch5,is_pause
timestamp,ch7,ch2,ch3,ch5,is_pause
8.537489175796509,-400000.0625,-15040.6904296875,-5631.97021484375,-400000.0625,-5677.60986328125,-400000.0625,-7991.64990234375,-400000.0625
timestamp,ch7,ch2,ch3,ch5,is_pause
8.54775071144104,-400000.0625,-15013.169921875,-5601.259765625,-400000.0625,-5644.60986328125,-400000.0625,-7968.240234375,-400000.0625
timestamp,ch7,ch2,ch3,ch5,is_pause
8.56007432937622,-400000.0625,-14981.080078125,-5559.2998046875,-400000.0625,-5599.7900390625,-400000.0625,-7934.81005859375,-400000.0625
timestamp,ch7,ch2,ch3,ch5,is_pause
8.569664478302002,-400000.0625,-14992.8095703125,-5573.3701171875,-400000.0625,-5611.47021484375,-400000.0625,-7949.97021484375,-400000.0625
timestamp,ch7,ch2,ch3,ch5,is_pause
8.578105926513672,-400000.0625,-15027.759765625,-5612.08984375,-400000.0625,-5653.81005859375,-400000.0625,-7979.919921875,-400000.0625
timestamp,ch7,ch2,ch3,ch5,is_pause
8.589033603668213,-400000.0625,-15036.2001953125,-5620.47998046875,-400000.0625,-5675.7001953125,-400000.0625,-7984.16015625,-400000.0625
8.596712827682495,-400000.0625,-15004.490234375,-5587.39013671875,-400000.0625,-5652.18994140625,-400000.0625,-7957.1298828125,-400000.0625
timestamp,ch7,ch2,ch3,ch5,is_pause
8.6047945022583,-400000.0625,-14972.5,-5553.06005859375,-400000.0625,-5609.7001953125,-400000.0625,-7929.9501953125,-400000.0625
timestamp,ch7,ch2,ch3,ch5,is_pause
timestamp,ch7,ch2,ch3,ch5,is_pause
8.631330966949463,-400000.0625,-14977.83984375,-5557.68017578125,-400000.0625,-5609.60986328125,-400000.0625,-7934.85986328125,-400000.0625
timestamp,ch7,ch2,ch3,ch5,is_pause
8.639625072479248,-400000.0625,-15019.6103515625,-5601.31005859375,-400000.0625,-5653.669921875,-400000.0625,-7971.81005859375,-400000.0625
timestamp,ch7,ch2,ch3,ch5,is_pause
8.650666952133179,-400000.0625,-15031.009765625,-5616.56982421875,-400000.0625,-5667.39990234375,-400000.0625,-7978.6298828125,-400000.0625
timestamp,ch7,ch2,ch3,ch5,is_pause
8.661600589752197,-400000.0625,-15010.1201171875,-5592.43994140625,-400000.0625,-5644.1298828125,-400000.0625,-7960.509765625,-400000.0625
timestamp,ch7,ch2,ch3,ch5,is_pause
8.671131372451782,-400000.0625,-14995.8603515625,-5574.27001953125,-400000.0625,-5619.0,-400000.0625,-7947.5400390625,-400000.0625
timestamp,ch7,ch2,ch3,ch5,is_pause
8.681682586669922,-400000.0625,-15001.8701171875,-5582.0498046875,-400000.0625,-5613.47021484375,-400000.0625,-7955.1201171875,-400000.0625
timestamp,ch7,ch2,ch3,ch5,is_pause
8.693522453308105,-400000.0625,-15023.5703125,-5608.990234375,-400000.0625,-5647.08984375,-400000.0625,-7975.6298828125,-400000.0625
timestamp,ch7,ch2,ch3,ch5,is_pause
8.704102754592896,-400000.0625,-15030.580078125,-5619.47998046875,-400000.0625,-5678.60986328125,-400000.0625,-7980.919921875,-400000.0625
8.712193012237549,-400000.0625,-14995.150390625,-5581.18994140625,-400000.0625,-5651.81005859375,-400000.0625,-7943.06005859375,-400000.0625
timestamp,ch7,ch2,ch3,ch5,is_pause
timestamp,ch7,ch2,ch3,ch5,is_pause
timestamp,ch7,ch2,ch3,ch5,is_pause
8.74232816696167,-400000.0625,-14971.3095703125,-5553.43994140625,-400000.0625,-5615.85009765625,-400000.0625,-7919.41015625,-400000.0625
timestamp,ch7,ch2,ch3,ch5,is_pause
8.756715536117554,-400000.0625,-14987.66015625,-5565.4501953125,-400000.0625,-5611.31982421875,-400000.0625,-7932.27978515625,-400000.0625
timestamp,ch7,ch2,ch3,ch5,is_pause
8.768845319747925,-400000.0625,-15036.8701171875,-5616.47021484375,-400000.0625,-5655.81005859375,-400000.0625,-7975.580078125,-400000.0625
8.775798320770264,-400000.0625,-15061.9501953125,-5645.1298828125,-400000.0625,-5677.89013671875,-400000.0625,-7999.47021484375,-400000.0625
timestamp,ch7,ch2,ch3,ch5,is_pause
8.786957740783691,-400000.0625,-15032.150390625,-5615.85009765625,-400000.0625,-5651.7099609375,-400000.0625,-7977.580078125,-400000.0625
timestamp,ch7,ch2,ch3,ch5,is_pause
8.796688795089722,-400000.0625,-14989.0400390625,-5570.27001953125,-400000.0625,-5606.89013671875,-400000.0625,-7932.759765625,-400000.0625
timestamp,ch7,ch2,ch3,ch5,is_pause
8.805555582046509,-400000.0625,-14989.4697265625,-5572.27001953125,-400000.0625,-5617.81005859375,-400000.0625,-7934.7099609375,-400000.0625
timestamp,ch7,ch2,ch3,ch5,is_pause
8.81635570526123,-400000.0625,-15034.5302734375,-5621.85986328125,-400000.0625,-5667.72998046875,-400000.0625,-7978.77001953125,-400000.0625
timestamp,ch7,ch2,ch3,ch5,is_pause
timestamp,ch7,ch2,ch3,ch5,is_pause
8.846457481384277,-400000.0625,-15061.51953125,-5646.52001953125,-400000.0625,-5692.91015625,-400000.0625,-8000.419921875,-400000.0625
timestamp,ch7,ch2,ch3,ch5,is_pause
8.861013174057007,-400000.0625,-15027.0,-5607.22021484375,-400000.0625,-5655.47998046875,-400000.0625,-7967.08984375,-400000.0625
timestamp,ch7,ch2,ch3,ch5,is_pause
8.871092319488525,-400000.0625,-14976.7900390625,-5557.72998046875,-400000.0625,-5614.22998046875,-400000.0625,-7922.5498046875,-400000.0625
timestamp,ch7,ch2,ch3,ch5,is_pause
8.885481119155884,-400000.0625,-14981.509765625,-5568.4599609375,-400000.0625,-5614.22998046875,-400000.0625,-7932.85009765625,-400000.0625
timestamp,ch7,ch2,ch3,ch5,is_pause
8.896681785583496,-400000.0625,-15032.150390625,-5617.0,-400000.0625,-5652.759765625,-400000.0625,-7979.97021484375,-400000.0625
timestamp,ch7,ch2,ch3,ch5,is_pause
8.906032085418701,-400000.0625,-15053.1298828125,-5636.169921875,-400000.0625,-5690.9599609375,-400000.0625,-7995.7001953125,-400000.0625
timestamp,ch7,ch2,ch3,ch5,is_pause
8.917117834091187,-400000.0625,-15024.08984375,-5605.509765625,-400000.0625,-5667.72998046875,-400000.0625,-7971.3798828125,-400000.0625
timestamp,ch7,ch2,ch3,ch5,is_pause
timestamp,ch7,ch2,ch3,ch5,is_pause
8.945160388946533,-400000.0625,-14994.91015625,-5572.990234375,-400000.0625,-5618.759765625,-400000.0625,-7941.72021484375,-400000.0625
timestamp,ch7,ch2,ch3,ch5,is_pause
8.95945429801941,-400000.0625,-14991.759765625,-5569.60009765625,-400000.0625,-5612.08984375,-400000.0625,-7938.52978515625,-400000.0625
timestamp,ch7,ch2,ch3,ch5,is_pause
8.969570636749268,-400000.0625,-15008.259765625,-5594.919921875,-400000.0625,-5641.169921875,-400000.0625,-7954.5498046875,-400000.0625
timestamp,ch7,ch2,ch3,ch5,is_pause
8.980453968048096,-400000.0625,-15035.6796875,-5623.06005859375,-400000.0625,-5676.7900390625,-400000.0625,-7977.39013671875,-400000.0625
timestamp,ch7,ch2,ch3,ch5,is_pause
8.992446899414062,-400000.0625,-15022.7998046875,-5609.60986328125,-400000.0625,-5654.81005859375,-400000.0625,-7972.81005859375,-400000.0625
timestamp,ch7,ch2,ch3,ch5,is_pause
9.001008749008179,-400000.0625,-14993.0498046875,-5576.56005859375,-400000.0625,-5615.14013671875,-400000.0625,-7944.16015625,-400000.0625
9.008004426956177,-400000.0625,-14993.8603515625,-5577.419921875,-400000.0625,-5635.8798828125,-400000.0625,-7948.830078125,-400000.0625
timestamp,ch7,ch2,ch3,ch5,is_pause
timestamp,ch7,ch2,ch3,ch5,is_pause
9.025080919265747,-400000.0625,-15040.8798828125,-5624.2900390625,-400000.0625,-5672.169921875,-400000.0625,-7990.5498046875,-400000.0625
timestamp,ch7,ch2,ch3,ch5,is_pause
timestamp,ch7,ch2,ch3,ch5,is_pause
9.054624080657959,-400000.0625,-15059.759765625,-5642.41015625,-400000.0625,-5680.509765625,-400000.0625,-8009.85986328125,-400000.0625
9.062320470809937,-400000.0625,-15026.330078125,-5608.7998046875,-400000.0625,-5645.85009765625,-400000.0625,-7977.2998046875,-400000.0625
timestamp,ch7,ch2,ch3,ch5,is_pause
9.071253061294556,-400000.0625,-14984.509765625,-5563.06982421875,-400000.0625,-5616.7099609375,-400000.0625,-7934.56982421875,-400000.0625
timestamp,ch7,ch2,ch3,ch5,is_pause
9.081320524215698,-400000.0625,-14984.1298828125,-5565.169921875,-400000.0625,-5620.77001953125,-400000.0625,-7938.0,-400000.0625
timestamp,ch7,ch2,ch3,ch5,is_pause
9.09294867515564,-400000.0625,-15036.0595703125,-5621.52978515625,-400000.0625,-5670.169921875,-400000.0625,-7984.68994140625,-400000.0625
timestamp,ch7,ch2,ch3,ch5,is_pause
9.10350227355957,-400000.0625,-15061.8095703125,-5650.14013671875,-400000.0625,-5694.43994140625,-400000.0625,-8011.14990234375,-400000.0625
timestamp,ch7,ch2,ch3,ch5,is_pause
9.115427017211914,-400000.0625,-15028.669921875,-5611.66015625,-400000.0625,-5658.6298828125,-400000.0625,-7978.39013671875,-400000.0625
timestamp,ch7,ch2,ch3,ch5,is_pause
9.12577509880066,-400000.0625,-14983.0400390625,-5561.39990234375,-400000.0625,-5611.60986328125,-400000.0625,-7940.47998046875,-400000.0625
timestamp,ch7,ch2,ch3,ch5,is_pause
timestamp,ch7,ch2,ch3,ch5,is_pause
9.15561032295227,-400000.0625,-14981.4599609375,-5558.919921875,-400000.0625,-5601.4501953125,-400000.0625,-7938.0,-400000.0625
timestamp,ch7,ch2,ch3,ch5,is_pause
9.168773174285889,-400000.0625,-15025.330078125,-5606.27001953125,-400000.0625,-5647.9501953125,-400000.0625,-7976.9599609375,-400000.0625
timestamp,ch7,ch2,ch3,ch5,is_pause
9.180796384811401,-400000.0625,-15056.66015625,-5639.1201171875,-400000.0625,-5683.47021484375,-400000.0625,-8007.33984375,-400000.0625
timestamp,ch7,ch2,ch3,ch5,is_pause
9.196196794509888,-400000.0625,-15018.8896484375,-5601.83984375,-400000.0625,-5650.81005859375,-400000.0625,-7972.10009765625,-400000.0625
timestamp,ch7,ch2,ch3,ch5,is_pause
9.205376148223877,-400000.0625,-14963.33984375,-5546.85986328125,-400000.0625,-5602.06982421875,-400000.0625,-7923.22021484375,-400000.0625
timestamp,ch7,ch2,ch3,ch5,is_pause
9.219122171401978,-400000.0625,-14976.3603515625,-5555.580078125,-400000.0625,-5615.27978515625,-400000.0625,-7929.7998046875,-400000.0625
timestamp,ch7,ch2,ch3,ch5,is_pause
9.232294797897339,-400000.0625,-15030.4296875,-5609.080078125,-400000.0625,-5663.68017578125,-400000.0625,-7974.43017578125,-400000.0625
timestamp,ch7,ch2,ch3,ch5,is_pause
timestamp,ch7,ch2,ch3,ch5,is_pause
timestamp,ch7,ch2,ch3,ch5,is_pause
9.268010377883911,-400000.0625,-15056.4697265625,-5640.169921875,-400000.0625,-5690.72021484375,-400000.0625,-8000.89990234375,-400000.0625
timestamp,ch7,ch2,ch3,ch5,is_pause
9.282483577728271,-400000.0625,-15025.8095703125,-5609.27001953125,-400000.0625,-5676.64990234375,-400000.0625,-7974.2001953125,-400000.0625
timestamp,ch7,ch2,ch3,ch5,is_pause
9.298474550247192,-400000.0625,-14980.650390625,-5560.830078125,-400000.0625,-5635.8798828125,-400000.0625,-7934.0,-400000.0625
9.306334972381592,-400000.0625,-14984.9404296875,-5562.68994140625,-400000.0625,-5615.08984375,-400000.0625,-7937.9599609375,-400000.0625
timestamp,ch7,ch2,ch3,ch5,is_pause
9.318086862564087,-400000.0625,-15041.6904296875,-5621.240234375,-400000.0625,-5653.91015625,-400000.0625,-7993.56005859375,-400000.0625
timestamp,ch7,ch2,ch3,ch5,is_pause
9.328007936477661,-400000.0625,-15061.7099609375,-5644.75,-400000.0625,-5679.66015625,-400000.0625,-8016.25,-400000.0625
timestamp,ch7,ch2,ch3,ch5,is_pause
9.336479902267456,-400000.0625,-15020.5595703125,-5604.60009765625,-400000.0625,-5650.85009765625,-400000.0625,-7980.2998046875,-400000.0625
timestamp,ch7,ch2,ch3,ch5,is_pause
timestamp,ch7,ch2,ch3,ch5,is_pause
timestamp,ch7,ch2,ch3,ch5,is_pause
9.367252349853516,-400000.0625,-14972.400390625,-5556.919921875,-400000.0625,-5618.0,-400000.0625,-7934.91015625,-400000.0625
9.374514818191528,-400000.0625,-14978.599609375,-5559.97021484375,-400000.0625,-5622.009765625,-400000.0625,-7930.7998046875,-400000.0625
timestamp,ch7,ch2,ch3,ch5,is_pause
9.386737585067749,-400000.0625,-15021.849609375,-5601.740234375,-400000.0625,-5652.759765625,-400000.0625,-7971.240234375,-400000.0625
timestamp,ch7,ch2,ch3,ch5,is_pause
9.396657466888428,-400000.0625,-15046.650390625,-5629.64013671875,-400000.0625,-5676.93994140625,-400000.0625,-8000.18017578125,-400000.0625
timestamp,ch7,ch2,ch3,ch5,is_pause
9.405683040618896,-400000.0625,-15029.2900390625,-5611.93994140625,-400000.0625,-5660.25,-400000.0625,-7982.4501953125,-400000.0625
timestamp,ch7,ch2,ch3,ch5,is_pause
9.417978763580322,-400000.0625,-14995.2001953125,-5574.419921875,-400000.0625,-5620.77001953125,-400000.0625,-7951.39990234375,-400000.0625
timestamp,ch7,ch2,ch3,ch5,is_pause
9.429947853088379,-400000.0625,-15003.400390625,-5582.9501953125,-400000.0625,-5626.5400390625,-400000.0625,-7959.31982421875,-400000.0625
timestamp,ch7,ch2,ch3,ch5,is_pause
9.438095092773438,-400000.0625,-15040.1103515625,-5624.009765625,-400000.0625,-5664.35009765625,-400000.0625,-7993.75,-400000.0625
timestamp,ch7,ch2,ch3,ch5,is_pause
timestamp,ch7,ch2,ch3,ch5,is_pause
9.46793532371521,-400000.0625,-15057.1796875,-5637.169921875,-400000.0625,-5690.6201171875,-400000.0625,-8001.60986328125,-400000.0625
timestamp,ch7,ch2,ch3,ch5,is_pause
9.475642442703247,-400000.0625,-15021.3701171875,-5600.35986328125,-400000.0625,-5664.16015625,-400000.0625,-7970.43017578125,-400000.0625
timestamp,ch7,ch2,ch3,ch5,is_pause
9.490291118621826,-400000.0625,-14986.3701171875,-5560.35009765625,-400000.0625,-5620.669921875,-400000.0625,-7940.2001953125,-400000.0625
timestamp,ch7,ch2,ch3,ch5,is_pause
9.50258207321167,-400000.0625,-14996.580078125,-5569.080078125,-400000.0625,-5624.81982421875,-400000.0625,-7944.10986328125,-400000.0625
9.509988784790039,-400000.0625,-15029.7197265625,-5608.64990234375,-400000.0625,-5665.10986328125,-400000.0625,-7973.240234375,-400000.0625
timestamp,ch7,ch2,ch3,ch5,is_pause
timestamp,ch7,ch2,ch3,ch5,is_pause
9.529593706130981,-400000.0625,-15039.490234375,-5621.43017578125,-400000.0625,-5687.759765625,-400000.0625,-7983.5400390625,-400000.0625
timestamp,ch7,ch2,ch3,ch5,is_pause
9.538810014724731,-400000.0625,-15014.0302734375,-5592.43994140625,-400000.0625,-5651.27978515625,-400000.0625,-7957.97998046875,-400000.0625
timestamp,ch7,ch2,ch3,ch5,is_pause
timestamp,ch7,ch2,ch3,ch5,is_pause
timestamp,ch7,ch2,ch3,ch5,is_pause
9.5747652053833,-400000.0625,-14983.66015625,-5559.8701171875,-400000.0625,-5608.419921875,-400000.0625,-7928.93994140625,-400000.0625
timestamp,ch7,ch2,ch3,ch5,is_pause
9.589221715927124,-400000.0625,-14999.6796875,-5574.75,-400000.0625,-5625.43994140625,-400000.0625,-7941.68017578125,-400000.0625
timestamp,ch7,ch2,ch3,ch5,is_pause
9.60105299949646,-400000.0625,-15042.7802734375,-5615.0400390625,-400000.0625,-5675.83984375,-400000.0625,-7972.2900390625,-400000.0625
timestamp,ch7,ch2,ch3,ch5,is_pause
9.61526107788086,-400000.0625,-15071.6298828125,-5644.22998046875,-400000.0625,-5706.8798828125,-400000.0625,-7998.56005859375,-400000.0625
timestamp,ch7,ch2,ch3,ch5,is_pause
9.62877607345581,-400000.0625,-15046.3603515625,-5619.85986328125,-400000.0625,-5678.93994140625,-400000.0625,-7979.580078125,-400000.0625
timestamp,ch7,ch2,ch3,ch5,is_pause
9.640861749649048,-400000.0625,-14998.7197265625,-5574.3701171875,-400000.0625,-5624.68017578125,-400000.0625,-7937.91015625,-400000.0625
timestamp,ch7,ch2,ch3,ch5,is_pause
timestamp,ch7,ch2,ch3,ch5,is_pause
timestamp,ch7,ch2,ch3,ch5,is_pause
9.675527095794678,-400000.0625,-14985.0400390625,-5558.919921875,-400000.0625,-5607.56005859375,-400000.0625,-7926.18017578125,-400000.0625
timestamp,ch7,ch2,ch3,ch5,is_pause
9.69362187385559,-400000.0625,-15024.23046875,-5597.68994140625,-400000.0625,-5653.18994140625,-400000.0625,-7959.41015625,-400000.0625
timestamp,ch7,ch2,ch3,ch5,is_pause
9.703857660293579,-400000.0625,-15046.169921875,-5619.91015625,-400000.0625,-5679.7001953125,-400000.0625,-7976.9599609375,-400000.0625
timestamp,ch7,ch2,ch3,ch5,is_pause
9.715153217315674,-400000.0625,-15024.330078125,-5596.06982421875,-400000.0625,-5649.89990234375,-400000.0625,-7963.22998046875,-400000.0625
timestamp,ch7,ch2,ch3,ch5,is_pause
9.726887702941895,-400000.0625,-14988.330078125,-5557.25,-400000.0625,-5619.47998046875,-400000.0625,-7929.0400390625,-400000.0625
timestamp,ch7,ch2,ch3,ch5,is_pause
9.735773801803589,-400000.0625,-14997.33984375,-5566.31005859375,-400000.0625,-5637.02978515625,-400000.0625,-7933.18994140625,-400000.0625
9.744321584701538,-400000.0625,-15033.580078125,-5601.5,-400000.0625,-5675.64990234375,-400000.0625,-7966.27978515625,-400000.0625
timestamp,ch7,ch2,ch3,ch5,is_pause
timestamp,ch7,ch2,ch3,ch5,is_pause
timestamp,ch7,ch2,ch3,ch5,is_pause
timestamp,ch7,ch2,ch3,ch5,is_pause
9.786239624023438,-400000.0625,-15062.48046875,-5631.10986328125,-400000.0625,-5691.6201171875,-400000.0625,-7994.27001953125,-400000.0625
9.794340372085571,-400000.0625,-15035.1103515625,-5606.7001953125,-400000.0625,-5670.2099609375,-400000.0625,-7972.14990234375,-400000.0625
timestamp,ch7,ch2,ch3,ch5,is_pause
9.80246376991272,-400000.0625,-14999.0595703125,-5567.60009765625,-400000.0625,-5629.8701171875,-400000.0625,-7942.009765625,-400000.0625
timestamp,ch7,ch2,ch3,ch5,is_pause
9.81282377243042,-400000.0625,-14994.580078125,-5563.4501953125,-400000.0625,-5624.25,-400000.0625,-7934.0,-400000.0625
timestamp,ch7,ch2,ch3,ch5,is_pause
9.826207399368286,-400000.0625,-15037.490234375,-5610.08984375,-400000.0625,-5668.97021484375,-400000.0625,-7972.91015625,-400000.0625
timestamp,ch7,ch2,ch3,ch5,is_pause
9.834970712661743,-400000.0625,-15053.5595703125,-5624.9599609375,-400000.0625,-5679.18017578125,-400000.0625,-7990.7900390625,-400000.0625
9.842200994491577,-400000.0625,-15031.2001953125,-5598.8798828125,-400000.0625,-5653.330078125,-400000.0625,-7967.89990234375,-400000.0625
timestamp,ch7,ch2,ch3,ch5,is_pause
9.856051683425903,-400000.0625,-14982.0302734375,-5550.47998046875,-400000.0625,-5607.27001953125,-400000.0625,-7921.83984375,-400000.0625
timestamp,ch7,ch2,ch3,ch5,is_pause
timestamp,ch7,ch2,ch3,ch5,is_pause
timestamp,ch7,ch2,ch3,ch5,is_pause
9.88710355758667,-400000.0625,-14973.8798828125,-5546.85986328125,-400000.0625,-5615.81005859375,-400000.0625,-7918.60009765625,-400000.0625
timestamp,ch7,ch2,ch3,ch5,is_pause
9.895470142364502,-400000.0625,-15029.1904296875,-5604.5498046875,-400000.0625,-5681.7099609375,-400000.0625,-7967.3798828125,-400000.0625
9.904365062713623,-400000.0625,-15057.759765625,-5631.2998046875,-400000.0625,-5705.169921875,-400000.0625,-7986.02001953125,-400000.0625
timestamp,ch7,ch2,ch3,ch5,is_pause
9.915595531463623,-400000.0625,-15023.08984375,-5596.58984375,-400000.0625,-5667.77978515625,-400000.0625,-7956.5498046875,-400000.0625
timestamp,ch7,ch2,ch3,ch5,is_pause
9.92512845993042,-400000.0625,-15005.6396484375,-5576.419921875,-400000.0625,-5632.2099609375,-400000.0625,-7942.009765625,-400000.0625
timestamp,ch7,ch2,ch3,ch5,is_pause
9.934690952301025,-400000.0625,-15020.3203125,-5587.85986328125,-400000.0625,-5624.9599609375,-400000.0625,-7953.4501953125,-400000.0625
9.94220232963562,-400000.0625,-15050.990234375,-5621.2900390625,-400000.0625,-5656.33984375,-400000.0625,-7984.2099609375,-400000.0625
timestamp,ch7,ch2,ch3,ch5,is_pause
9.955631017684937,-400000.0625,-15056.5595703125,-5630.259765625,-400000.0625,-5677.41015625,-400000.0625,-7990.35986328125,-400000.0625
timestamp,ch7,ch2,ch3,ch5,is_pause
9.964993476867676,-400000.0625,-15030.099609375,-5602.02978515625,-400000.0625,-5655.14990234375,-400000.0625,-7963.419921875,-400000.0625
timestamp,ch7,ch2,ch3,ch5,is_pause
timestamp,ch7,ch2,ch3,ch5,is_pause
9.992810726165771,-400000.0625,-14993.5302734375,-5566.02978515625,-400000.0625,-5619.0,-400000.0625,-7930.27978515625,-400000.0625
timestamp,ch7,ch2,ch3,ch5,is_pause
10.002361059188843,-400000.0625,-14991.48046875,-5564.35986328125,-400000.0625,-5629.02001953125,-400000.0625,-7927.0400390625,-400000.0625
timestamp,ch7,ch2,ch3,ch5,is_pause
10.011693239212036,-400000.0625,-15041.3095703125,-5612.7998046875,-400000.0625,-5688.2900390625,-400000.0625,-7969.81005859375,-400000.0625
timestamp,ch7,ch2,ch3,ch5,is_pause
10.025660514831543,-400000.0625,-15063.240234375,-5634.39990234375,-400000.0625,-5697.25,-400000.0625,-7988.5,-400000.0625
timestamp,ch7,ch2,ch3,ch5,is_pause
10.034911394119263,-400000.0625,-15033.150390625,-5603.35986328125,-400000.0625,-5655.240234375,-400000.0625,-7965.22998046875,-400000.0625
timestamp,ch7,ch2,ch3,ch5,is_pause
10.045233488082886,-400000.0625,-15003.5400390625,-5572.75,-400000.0625,-5616.47021484375,-400000.0625,-7941.39013671875,-400000.0625
timestamp,ch7,ch2,ch3,ch5,is_pause
10.056763410568237,-400000.0625,-15005.6904296875,-5574.18017578125,-400000.0625,-5624.9599609375,-400000.0625,-7943.009765625,-400000.0625
timestamp,ch7,ch2,ch3,ch5,is_pause
10.065696477890015,-400000.0625,-15051.9404296875,-5622.10009765625,-400000.0625,-5674.93994140625,-400000.0625,-7980.68017578125,-400000.0625
timestamp,ch7,ch2,ch3,ch5,is_pause
timestamp,ch7,ch2,ch3,ch5,is_pause
10.09333324432373,-400000.0625,-15055.66015625,-5627.35009765625,-400000.0625,-5683.56982421875,-400000.0625,-7984.259765625,-400000.0625
timestamp,ch7,ch2,ch3,ch5,is_pause
10.101464033126831,-400000.0625,-15019.0400390625,-5588.6298828125,-400000.0625,-5656.580078125,-400000.0625,-7951.830078125,-400000.0625
10.108397960662842,-400000.0625,-15010.3095703125,-5574.7998046875,-400000.0625,-5641.64990234375,-400000.0625,-7944.919921875,-400000.0625
timestamp,ch7,ch2,ch3,ch5,is_pause
10.120322465896606,-400000.0625,-15017.6103515625,-5585.0,-400000.0625,-5633.4501953125,-400000.0625,-7956.1201171875,-400000.0625
timestamp,ch7,ch2,ch3,ch5,is_pause
10.1298508644104,-400000.0625,-15060.2802734375,-5629.25,-400000.0625,-5676.60009765625,-400000.0625,-7991.41015625,-400000.0625
timestamp,ch7,ch2,ch3,ch5,is_pause
10.140470027923584,-400000.0625,-15072.25,-5641.41015625,-400000.0625,-5697.2001953125,-400000.0625,-8002.89990234375,-400000.0625
timestamp,ch7,ch2,ch3,ch5,is_pause
10.150851011276245,-400000.0625,-15040.7802734375,-5609.080078125,-400000.0625,-5657.240234375,-400000.0625,-7979.009765625,-400000.0625
10.158742904663086,-400000.0625,-15000.5400390625,-5568.89013671875,-400000.0625,-5621.47998046875,-400000.0625,-7940.9599609375,-400000.0625
timestamp,ch7,ch2,ch3,ch5,is_pause
10.168036937713623,-400000.0625,-15000.73046875,-5570.22021484375,-400000.0625,-5634.35986328125,-400000.0625,-7940.6298828125,-400000.0625
timestamp,ch7,ch2,ch3,ch5,is_pause
timestamp,ch7,ch2,ch3,ch5,is_pause
timestamp,ch7,ch2,ch3,ch5,is_pause
10.199277877807617,-400000.0625,-15038.919921875,-5610.7998046875,-400000.0625,-5683.14013671875,-400000.0625,-7972.2900390625,-400000.0625
10.206616163253784,-400000.0625,-15045.6904296875,-5617.08984375,-400000.0625,-5683.990234375,-400000.0625,-7980.2998046875,-400000.0625
timestamp,ch7,ch2,ch3,ch5,is_pause
timestamp,ch7,ch2,ch3,ch5,is_pause
10.219748497009277,-400000.0625,-15018.5595703125,-5587.2900390625,-400000.0625,-5646.3701171875,-400000.0625,-7955.64990234375,-400000.0625
10.229329586029053,-400000.0625,-14991.3798828125,-5558.5400390625,-400000.0625,-5617.52001953125,-400000.0625,-7932.759765625,-400000.0625
timestamp,ch7,ch2,ch3,ch5,is_pause
10.2385094165802,-400000.0625,-15008.6904296875,-5576.0400390625,-400000.0625,-5645.1298828125,-400000.0625,-7944.06005859375,-400000.0625
timestamp,ch7,ch2,ch3,ch5,is_pause
10.25001335144043,-400000.0625,-15044.400390625,-5612.66015625,-400000.0625,-5686.08984375,-400000.0625,-7974.2001953125,-400000.0625
timestamp,ch7,ch2,ch3,ch5,is_pause
10.263049364089966,-400000.0625,-15058.51953125,-5628.8701171875,-400000.0625,-5695.77001953125,-400000.0625,-7989.31005859375,-400000.0625
timestamp,ch7,ch2,ch3,ch5,is_pause
10.272053956985474,-400000.0625,-15039.73046875,-5607.83984375,-400000.0625,-5672.31005859375,-400000.0625,-7969.759765625,-400000.0625
timestamp,ch7,ch2,ch3,ch5,is_pause
timestamp,ch7,ch2,ch3,ch5,is_pause
10.30636739730835,-400000.0625,-15000.490234375,-5569.41015625,-400000.0625,-5623.8701171875,-400000.0625,-7939.52978515625,-400000.0625
timestamp,ch7,ch2,ch3,ch5,is_pause
timestamp,ch7,ch2,ch3,ch5,is_pause
10.32175612449646,-400000.0625,-15009.259765625,-5578.85009765625,-400000.0625,-5625.33984375,-400000.0625,-7945.81982421875,-400000.0625
timestamp,ch7,ch2,ch3,ch5,is_pause
10.333323001861572,-400000.0625,-15047.1201171875,-5615.08984375,-400000.0625,-5666.2998046875,-400000.0625,-7973.72021484375,-400000.0625
10.340535879135132,-400000.0625,-15047.3095703125,-5618.52978515625,-400000.0625,-5677.990234375,-400000.0625,-7976.9599609375,-400000.0625
timestamp,ch7,ch2,ch3,ch5,is_pause
10.352243423461914,-400000.0625,-15021.1796875,-5590.39013671875,-400000.0625,-5658.91015625,-400000.0625,-7955.02978515625,-400000.0625
timestamp,ch7,ch2,ch3,ch5,is_pause
10.362204790115356,-400000.0625,-14989.08984375,-5552.43994140625,-400000.0625,-5623.43994140625,-400000.0625,-7918.68994140625,-400000.0625
timestamp,ch7,ch2,ch3,ch5,is_pause
10.370390892028809,-400000.0625,-15001.2998046875,-5564.259765625,-400000.0625,-5629.35009765625,-400000.0625,-7929.419921875,-400000.0625
timestamp,ch7,ch2,ch3,ch5,is_pause
10.38121223449707,-400000.0625,-15055.900390625,-5621.72021484375,-400000.0625,-5673.5,-400000.0625,-7978.72998046875,-400000.0625
timestamp,ch7,ch2,ch3,ch5,is_pause
timestamp,ch7,ch2,ch3,ch5,is_pause
10.407934427261353,-400000.0625,-15068.009765625,-5637.60009765625,-400000.0625,-5692.43017578125,-400000.0625,-7994.60986328125,-400000.0625
timestamp,ch7,ch2,ch3,ch5,is_pause
10.424235820770264,-400000.0625,-15011.83984375,-5588.10009765625,-400000.0625,-5666.02001953125,-400000.0625,-7949.06982421875,-400000.0625
timestamp,ch7,ch2,ch3,ch5,is_pause
10.434135913848877,-400000.0625,-14985.7099609375,-5557.77978515625,-400000.0625,-5641.27001953125,-400000.0625,-7921.27001953125,-400000.0625
timestamp,ch7,ch2,ch3,ch5,is_pause
10.444544315338135,-400000.0625,-15004.919921875,-5569.02978515625,-400000.0625,-5636.7900390625,-400000.0625,-7929.7998046875,-400000.0625
timestamp,ch7,ch2,ch3,ch5,is_pause
10.457114219665527,-400000.0625,-15048.509765625,-5611.47021484375,-400000.0625,-5667.16015625,-400000.0625,-7972.2900390625,-400000.0625
timestamp,ch7,ch2,ch3,ch5,is_pause
10.466920137405396,-400000.0625,-15077.5,-5643.4599609375,-400000.0625,-5682.9501953125,-400000.0625,-8002.3798828125,-400000.0625
10.473954439163208,-400000.0625,-15046.41015625,-5612.22998046875,-400000.0625,-5661.68017578125,-400000.0625,-7973.47998046875,-400000.0625
timestamp,ch7,ch2,ch3,ch5,is_pause
10.484658479690552,-400000.0625,-15010.3095703125,-5574.31982421875,-400000.0625,-5628.6298828125,-400000.0625,-7940.6298828125,-400000.0625
timestamp,ch7,ch2,ch3,ch5,is_pause
timestamp,ch7,ch2,ch3,ch5,is_pause
10.509367227554321,-400000.0625,-14998.8701171875,-5564.35986328125,-400000.0625,-5624.490234375,-400000.0625,-7932.3798828125,-400000.0625
timestamp,ch7,ch2,ch3,ch5,is_pause
timestamp,ch7,ch2,ch3,ch5,is_pause
10.523868560791016,-400000.0625,-15034.76953125,-5601.8798828125,-400000.0625,-5660.33984375,-400000.0625,-7964.330078125,-400000.0625
10.532480478286743,-400000.0625,-15068.25,-5633.16015625,-400000.0625,-5691.240234375,-400000.0625,-7992.4599609375,-400000.0625
timestamp,ch7,ch2,ch3,ch5,is_pause
10.541200399398804,-400000.0625,-15034.0595703125,-5599.31005859375,-400000.0625,-5665.64013671875,-400000.0625,-7962.47021484375,-400000.0625
timestamp,ch7,ch2,ch3,ch5,is_pause
10.556547403335571,-400000.0625,-14982.990234375,-5547.330078125,-400000.0625,-5613.56982421875,-400000.0625,-7913.77978515625,-400000.0625
timestamp,ch7,ch2,ch3,ch5,is_pause
10.567378282546997,-400000.0625,-15002.400390625,-5567.5498046875,-400000.0625,-5632.72998046875,-400000.0625,-7929.7099609375,-400000.0625
timestamp,ch7,ch2,ch3,ch5,is_pause
10.577020645141602,-400000.0625,-15053.75,-5619.6201171875,-400000.0625,-5677.93994140625,-400000.0625,-7976.580078125,-400000.0625
timestamp,ch7,ch2,ch3,ch5,is_pause
10.587051630020142,-400000.0625,-15074.2998046875,-5642.3701171875,-400000.0625,-5702.58984375,-400000.0625,-7994.56005859375,-400000.0625
timestamp,ch7,ch2,ch3,ch5,is_pause
timestamp,ch7,ch2,ch3,ch5,is_pause
10.612675189971924,-400000.0625,-15053.23046875,-5621.669921875,-400000.0625,-5679.7998046875,-400000.0625,-7978.5400390625,-400000.0625
timestamp,ch7,ch2,ch3,ch5,is_pause
10.626139402389526,-400000.0625,-15007.58984375,-5573.56005859375,-400000.0625,-5631.16015625,-400000.0625,-7938.72021484375,-400000.0625
timestamp,ch7,ch2,ch3,ch5,is_pause
10.634734153747559,-400000.0625,-15008.7900390625,-5573.080078125,-400000.0625,-5637.22021484375,-400000.0625,-7940.33984375,-400000.0625
10.641904592514038,-400000.0625,-15058.1904296875,-5624.14990234375,-400000.0625,-5680.7001953125,-400000.0625,-7983.2998046875,-400000.0625
timestamp,ch7,ch2,ch3,ch5,is_pause
10.65328574180603,-400000.0625,-15069.5302734375,-5636.8798828125,-400000.0625,-5700.39990234375,-400000.0625,-7997.7998046875,-400000.0625
timestamp,ch7,ch2,ch3,ch5,is_pause
10.663172960281372,-400000.0625,-15036.6796875,-5602.06982421875,-400000.0625,-5662.25,-400000.0625,-7966.9501953125,-400000.0625
timestamp,ch7,ch2,ch3,ch5,is_pause
10.672229766845703,-400000.0625,-14995.0498046875,-5556.35009765625,-400000.0625,-5602.64990234375,-400000.0625,-7932.14013671875,-400000.0625
timestamp,ch7,ch2,ch3,ch5,is_pause
10.681562185287476,-400000.0625,-15002.2001953125,-5563.8798828125,-400000.0625,-5617.52001953125,-400000.0625,-7941.9599609375,-400000.0625
timestamp,ch7,ch2,ch3,ch5,is_pause
10.69365906715393,-400000.0625,-15050.7900390625,-5613.3798828125,-400000.0625,-5674.22021484375,-400000.0625,-7980.16015625,-400000.0625
timestamp,ch7,ch2,ch3,ch5,is_pause
timestamp,ch7,ch2,ch3,ch5,is_pause
10.72388482093811,-400000.0625,-15065.2900390625,-5626.68017578125,-400000.0625,-5698.16015625,-400000.0625,-7989.7900390625,-400000.0625
timestamp,ch7,ch2,ch3,ch5,is_pause
10.73342251777649,-400000.0625,-15014.7900390625,-5575.22998046875,-400000.0625,-5664.2099609375,-400000.0625,-7942.2998046875,-400000.0625
timestamp,ch7,ch2,ch3,ch5,is_pause
10.742627143859863,-400000.0625,-14991.08984375,-5551.580078125,-400000.0625,-5627.009765625,-400000.0625,-7925.31982421875,-400000.0625
timestamp,ch7,ch2,ch3,ch5,is_pause
10.753519058227539,-400000.0625,-15010.9296875,-5569.4599609375,-400000.0625,-5615.0400390625,-400000.0625,-7943.2001953125,-400000.0625
timestamp,ch7,ch2,ch3,ch5,is_pause
10.763270378112793,-400000.0625,-15051.6103515625,-5617.85986328125,-400000.0625,-5667.4501953125,-400000.0625,-7982.25,-400000.0625
10.77098822593689,-400000.0625,-15078.16015625,-5644.7001953125,-400000.0625,-5706.5498046875,-400000.0625,-8006.52978515625,-400000.0625
timestamp,ch7,ch2,ch3,ch5,is_pause
10.779592037200928,-400000.0625,-15055.0400390625,-5616.3798828125,-400000.0625,-5672.97998046875,-400000.0625,-7985.39990234375,-400000.0625
timestamp,ch7,ch2,ch3,ch5,is_pause
10.791783094406128,-400000.0625,-15009.01953125,-5567.68994140625,-400000.0625,-5621.9599609375,-400000.0625,-7945.5400390625,-400000.0625
timestamp,ch7,ch2,ch3,ch5,is_pause
10.800897598266602,-400000.0625,-15005.0703125,-5563.259765625,-400000.0625,-5622.43994140625,-400000.0625,-7940.009765625,-400000.0625
timestamp,ch7,ch2,ch3,ch5,is_pause
timestamp,ch7,ch2,ch3,ch5,is_pause
10.829889297485352,-400000.0625,-15040.2099609375,-5598.5,-400000.0625,-5668.1201171875,-400000.0625,-7969.89990234375,-400000.0625
timestamp,ch7,ch2,ch3,ch5,is_pause
10.840140104293823,-400000.0625,-15042.9296875,-5603.4599609375,-400000.0625,-5683.27978515625,-400000.0625,-7969.85986328125,-400000.0625
timestamp,ch7,ch2,ch3,ch5,is_pause
10.853820562362671,-400000.0625,-15024.51953125,-5586.240234375,-400000.0625,-5668.8798828125,-400000.0625,-7956.83984375,-400000.0625
timestamp,ch7,ch2,ch3,ch5,is_pause
10.863519191741943,-400000.0625,-14996.009765625,-5556.77001953125,-400000.0625,-5626.97021484375,-400000.0625,-7936.52978515625,-400000.0625
timestamp,ch7,ch2,ch3,ch5,is_pause
10.872492790222168,-400000.0625,-14989.66015625,-5547.91015625,-400000.0625,-5619.2900390625,-400000.0625,-7923.7001953125,-400000.0625
timestamp,ch7,ch2,ch3,ch5,is_pause
10.888460397720337,-400000.0625,-15043.259765625,-5603.7900390625,-400000.0625,-5677.60986328125,-400000.0625,-7968.9501953125,-400000.0625
timestamp,ch7,ch2,ch3,ch5,is_pause
10.897478103637695,-400000.0625,-15073.6796875,-5635.31005859375,-400000.0625,-5693.14990234375,-400000.0625,-7999.47021484375,-400000.0625
timestamp,ch7,ch2,ch3,ch5,is_pause
10.905534267425537,-400000.0625,-15040.58984375,-5600.4501953125,-400000.0625,-5652.7099609375,-400000.0625,-7967.81005859375,-400000.0625
timestamp,ch7,ch2,ch3,ch5,is_pause
timestamp,ch7,ch2,ch3,ch5,is_pause
10.935970783233643,-400000.0625,-15006.0703125,-5561.68994140625,-400000.0625,-5622.72021484375,-400000.0625,-7937.580078125,-400000.0625
timestamp,ch7,ch2,ch3,ch5,is_pause
10.946452856063843,-400000.0625,-14999.9599609375,-5557.58984375,-400000.0625,-5630.64013671875,-400000.0625,-7936.43017578125,-400000.0625
timestamp,ch7,ch2,ch3,ch5,is_pause
10.960796117782593,-400000.0625,-15034.76953125,-5595.64013671875,-400000.0625,-5668.16015625,-400000.0625,-7967.330078125,-400000.0625
timestamp,ch7,ch2,ch3,ch5,is_pause
10.969069242477417,-400000.0625,-15046.4599609375,-5608.1298828125,-400000.0625,-5691.0,-400000.0625,-7975.43994140625,-400000.0625
10.976031303405762,-400000.0625,-15023.51953125,-5583.0,-400000.0625,-5672.740234375,-400000.0625,-7959.509765625,-400000.0625
timestamp,ch7,ch2,ch3,ch5,is_pause
timestamp,ch7,ch2,ch3,ch5,is_pause
10.992037773132324,-400000.0625,-15008.3095703125,-5564.39990234375,-400000.0625,-5630.259765625,-400000.0625,-7944.6298828125,-400000.0625
10.999775409698486,-400000.0625,-15001.0595703125,-5557.81982421875,-400000.0625,-5619.47998046875,-400000.0625,-7933.81005859375,-400000.0625
timestamp,ch7,ch2,ch3,ch5,is_pause
11.00864863395691,-400000.0625,-15022.2802734375,-5581.9501953125,-400000.0625,-5652.759765625,-400000.0625,-7948.64013671875,-400000.0625
timestamp,ch7,ch2,ch3,ch5,is_pause
timestamp,ch7,ch2,ch3,ch5,is_pause
timestamp,ch7,ch2,ch3,ch5,is_pause
11.04259729385376,-400000.0625,-15058.08984375,-5616.9501953125,-400000.0625,-5685.18994140625,-400000.0625,-7977.8701171875,-400000.0625
timestamp,ch7,ch2,ch3,ch5,is_pause
11.056687116622925,-400000.0625,-15032.009765625,-5593.58984375,-400000.0625,-5661.43994140625,-400000.0625,-7962.27978515625,-400000.0625
timestamp,ch7,ch2,ch3,ch5,is_pause
11.066381454467773,-400000.0625,-14989.4296875,-5548.91015625,-400000.0625,-5630.58984375,-400000.0625,-7924.31982421875,-400000.0625
11.074529647827148,-400000.0625,-15008.8798828125,-5563.31005859375,-400000.0625,-5639.080078125,-400000.0625,-7935.240234375,-400000.0625
timestamp,ch7,ch2,ch3,ch5,is_pause
11.085304498672485,-400000.0625,-15056.7998046875,-5612.330078125,-400000.0625,-5671.5498046875,-400000.0625,-7979.39013671875,-400000.0625
timestamp,ch7,ch2,ch3,ch5,is_pause
11.096625804901123,-400000.0625,-15068.91015625,-5626.72998046875,-400000.0625,-5691.43017578125,-400000.0625,-7993.60009765625,-400000.0625
timestamp,ch7,ch2,ch3,ch5,is_pause
11.105422973632812,-400000.0625,-15040.400390625,-5596.919921875,-400000.0625,-5673.5,-400000.0625,-7962.7998046875,-400000.0625
timestamp,ch7,ch2,ch3,ch5,is_pause
11.118200778961182,-400000.0625,-14998.25,-5553.47998046875,-400000.0625,-5630.77978515625,-400000.0625,-7926.7998046875,-400000.0625
timestamp,ch7,ch2,ch3,ch5,is_pause
timestamp,ch7,ch2,ch3,ch5,is_pause
11.141982316970825,-400000.0625,-14989.7099609375,-5547.0498046875,-400000.0625,-5632.35009765625,-400000.0625,-7920.93017578125,-400000.0625
timestamp,ch7,ch2,ch3,ch5,is_pause
