time,ch1,ch2,ch3,ch4,ch5,ch6,ch7,ch8
110.61807990074158,-400000.0625,-6772.419921875,-4438.02001953125,-400000.0625,-16240.6904296875,-400000.0625,-6402.25,-400000.0625
110.64147639274597,-400000.0625,-6781.77001953125,-4446.1298828125,-400000.0625,-16253.08984375,-400000.0625,-6405.2099609375,-400000.0625
110.65166020393372,-400000.0625,-6791.93017578125,-4452.89990234375,-400000.0625,-16260.2001953125,-400000.0625,-6414.22021484375,-400000.0625
110.67146515846252,-400000.0625,-6791.5400390625,-4449.89013671875,-400000.0625,-16254.5703125,-400000.0625,-6416.0400390625,-400000.0625
110.68220162391663,-400000.0625,-6780.81982421875,-4441.97998046875,-400000.0625,-16245.1298828125,-400000.0625,-6413.27001953125,-400000.0625
110.70239043235779,-400000.0625,-6777.240234375,-4436.72998046875,-400000.0625,-16240.7900390625,-400000.0625,-6409.259765625,-400000.0625
110.71299600601196,-400000.0625,-6781.580078125,-4443.97998046875,-400000.0625,-16243.169921875,-400000.0625,-6416.7998046875,-400000.0625
110.72330665588379,-400000.0625,-6792.5,-4453.18017578125,-400000.0625,-16247.23046875,-400000.0625,-6423.43017578125,-400000.0625
110.74698805809021,-400000.0625,-6799.31982421875,-4457.27978515625,-400000.0625,-16260.240234375,-400000.0625,-6419.3701171875,-400000.0625
110.75684666633606,-400000.0625,-6788.5400390625,-4446.4599609375,-400000.0625,-16253.6201171875,-400000.0625,-6414.3701171875,-400000.0625
110.76873755455017,-400000.0625,-6779.669921875,-4437.02001953125,-400000.0625,-16246.23046875,-400000.0625,-6407.830078125,-400000.0625
110.77771210670471,-400000.0625,-6783.43994140625,-4445.27001953125,-400000.0625,-16248.849609375,-400000.0625,-6409.68994140625,-400000.0625
110.78627395629883,-400000.0625,-6791.31005859375,-4454.47021484375,-400000.0625,-16251.23046875,-400000.0625,-6419.47021484375,-400000.0625
110.7998456954956,-400000.0625,-6786.68017578125,-4454.14013671875,-400000.0625,-16253.4697265625,-400000.0625,-6419.9501953125,-400000.0625
110.80896878242493,-400000.0625,-6786.2001953125,-4448.22021484375,-400000.0625,-16246.3203125,-400000.0625,-6411.97998046875,-400000.0625
110.81710243225098,-400000.0625,-6783.919921875,-4440.740234375,-400000.0625,-16240.259765625,-400000.0625,-6404.39990234375,-400000.0625
110.83058881759644,-400000.0625,-6786.39013671875,-4446.080078125,-400000.0625,-16252.08984375,-400000.0625,-6407.8798828125,-400000.0625
110.84843015670776,-400000.0625,-6799.64990234375,-4456.0,-400000.0625,-16258.8095703125,-400000.0625,-6421.14013671875,-400000.0625
110.85920023918152,-400000.0625,-6798.22021484375,-4456.330078125,-400000.0625,-16257.48046875,-400000.0625,-6421.60986328125,-400000.0625
110.8700623512268,-400000.0625,-6785.009765625,-4446.60009765625,-400000.0625,-16251.4697265625,-400000.0625,-6411.740234375,-400000.0625
110.87861347198486,-400000.0625,-6773.330078125,-4438.830078125,-400000.0625,-16243.080078125,-400000.0625,-6409.35986328125,-400000.0625
110.88763785362244,-400000.0625,-6785.25,-4450.419921875,-400000.0625,-16248.1298828125,-400000.0625,-6414.7001953125,-400000.0625
110.89954662322998,-400000.0625,-6789.2998046875,-4453.3701171875,-400000.0625,-16249.75,-400000.0625,-6420.7099609375,-400000.0625
110.9086000919342,-400000.0625,-6791.4501953125,-4451.1298828125,-400000.0625,-16248.08984375,-400000.0625,-6417.7001953125,-400000.0625
110.91759824752808,-400000.0625,-6783.14990234375,-4443.93017578125,-400000.0625,-16240.8798828125,-400000.0625,-6403.16015625,-400000.0625
110.92945528030396,-400000.0625,-6775.43017578125,-4437.4501953125,-400000.0625,-16239.169921875,-400000.0625,-6399.35009765625,-400000.0625
110.93878269195557,-400000.0625,-6776.10009765625,-4438.58984375,-400000.0625,-16247.1796875,-400000.0625,-6413.02978515625,-400000.0625
110.95463728904724,-400000.0625,-6785.35009765625,-4448.31982421875,-400000.0625,-16250.900390625,-400000.0625,-6419.47021484375,-400000.0625
110.966224193573,-400000.0625,-6788.58984375,-4448.60986328125,-400000.0625,-16247.26953125,-400000.0625,-6417.85009765625,-400000.0625
110.97474813461304,-400000.0625,-6780.33984375,-4443.5,-400000.0625,-16239.9296875,-400000.0625,-6415.990234375,-400000.0625
110.98252081871033,-400000.0625,-6773.9501953125,-4440.39990234375,-400000.0625,-16235.3095703125,-400000.0625,-6413.169921875,-400000.0625
110.99494433403015,-400000.0625,-6783.9599609375,-4445.1201171875,-400000.0625,-16243.5595703125,-400000.0625,-6417.56005859375,-400000.0625
111.00604224205017,-400000.0625,-6791.740234375,-4452.60986328125,-400000.0625,-16249.3701171875,-400000.0625,-6424.0,-400000.0625
111.01435780525208,-400000.0625,-6793.169921875,-4455.08984375,-400000.0625,-16252.8095703125,-400000.0625,-6422.43017578125,-400000.0625
111.02301621437073,-400000.0625,-6784.25,-4448.60986328125,-400000.0625,-16244.2197265625,-400000.0625,-6414.31982421875,-400000.0625
111.03547310829163,-400000.0625,-6780.9599609375,-4441.93017578125,-400000.0625,-16240.650390625,-400000.0625,-6408.41015625,-400000.0625
111.043771982193,-400000.0625,-6785.490234375,-4449.1298828125,-400000.0625,-16244.990234375,-400000.0625,-6417.080078125,-400000.0625
111.0621964931488,-400000.0625,-6793.31005859375,-4456.0,-400000.0625,-16251.900390625,-400000.0625,-6425.43017578125,-400000.0625
111.07068300247192,-400000.0625,-6796.5,-4454.9501953125,-400000.0625,-16254.0,-400000.0625,-6424.6201171875,-400000.0625
111.07859945297241,-400000.0625,-6788.06005859375,-4449.02978515625,-400000.0625,-16244.9404296875,-400000.0625,-6418.0400390625,-400000.0625
111.08709955215454,-400000.0625,-6777.56982421875,-4445.509765625,-400000.0625,-16240.3095703125,-400000.0625,-6410.4599609375,-400000.0625
111.1015510559082,-400000.0625,-6778.6201171875,-4446.89013671875,-400000.0625,-16242.2197265625,-400000.0625,-6412.080078125,-400000.0625
111.10995507240295,-400000.0625,-6791.35009765625,-4454.7998046875,-400000.0625,-16241.3095703125,-400000.0625,-6419.7099609375,-400000.0625
111.1174635887146,-400000.0625,-6796.4599609375,-4455.60986328125,-400000.0625,-16248.990234375,-400000.0625,-6417.080078125,-400000.0625
111.13161158561707,-400000.0625,-6783.14990234375,-4445.27001953125,-400000.0625,-16243.080078125,-400000.0625,-6410.89013671875,-400000.0625
111.14136052131653,-400000.0625,-6775.89990234375,-4443.1201171875,-400000.0625,-16243.3203125,-400000.0625,-6408.83984375,-400000.0625
111.1499376296997,-400000.0625,-6783.68017578125,-4449.60986328125,-400000.0625,-16250.759765625,-400000.0625,-6414.4599609375,-400000.0625
111.16850590705872,-400000.0625,-6793.2099609375,-4455.81005859375,-400000.0625,-16251.849609375,-400000.0625,-6424.6201171875,-400000.0625
111.17714715003967,-400000.0625,-6791.06982421875,-4456.0,-400000.0625,-16247.3203125,-400000.0625,-6421.18994140625,-400000.0625
111.18761897087097,-400000.0625,-6784.2998046875,-4447.56005859375,-400000.0625,-16235.9296875,-400000.0625,-6407.93017578125,-400000.0625
111.20262145996094,-400000.0625,-6775.27978515625,-4438.02001953125,-400000.0625,-16234.6904296875,-400000.0625,-6403.16015625,-400000.0625
111.21609020233154,-400000.0625,-6783.39013671875,-4444.169921875,-400000.0625,-16246.23046875,-400000.0625,-6410.4599609375,-400000.0625
111.23528909683228,-400000.0625,-6789.72998046875,-4454.7099609375,-400000.0625,-16255.6201171875,-400000.0625,-6423.6201171875,-400000.0625
111.250643491745,-400000.0625,-6786.6298828125,-4453.22998046875,-400000.0625,-16249.7998046875,-400000.0625,-6427.43017578125,-400000.0625
111.27701234817505,-400000.0625,-6779.580078125,-4447.169921875,-400000.0625,-16240.4599609375,-400000.0625,-6417.85009765625,-400000.0625
111.28650283813477,-400000.0625,-6777.240234375,-4443.740234375,-400000.0625,-16240.41015625,-400000.0625,-6409.93017578125,-400000.0625
111.30039191246033,-400000.0625,-6786.97021484375,-4450.1298828125,-400000.0625,-16247.5595703125,-400000.0625,-6419.9501953125,-400000.0625
111.31117510795593,-400000.0625,-6794.31005859375,-4455.08984375,-400000.0625,-16250.419921875,-400000.0625,-6426.240234375,-400000.0625
111.32431054115295,-400000.0625,-6790.02001953125,-4454.7998046875,-400000.0625,-16247.849609375,-400000.0625,-6423.43017578125,-400000.0625
111.34196066856384,-400000.0625,-6780.72021484375,-4445.83984375,-400000.0625,-16239.259765625,-400000.0625,-6413.080078125,-400000.0625
111.35022377967834,-400000.0625,-6774.3798828125,-4441.31005859375,-400000.0625,-16232.5400390625,-400000.0625,-6404.97021484375,-400000.0625
111.36758422851562,-400000.0625,-6780.91015625,-4450.27001953125,-400000.0625,-16238.98046875,-400000.0625,-6413.509765625,-400000.0625
111.38503909111023,-400000.0625,-6795.83984375,-4459.43017578125,-400000.0625,-16254.51953125,-400000.0625,-6422.81005859375,-400000.0625
111.39731574058533,-400000.0625,-6793.68994140625,-4460.10009765625,-400000.0625,-16254.1904296875,-400000.0625,-6422.27978515625,-400000.0625
111.40841054916382,-400000.0625,-6787.43994140625,-4453.60986328125,-400000.0625,-16249.1298828125,-400000.0625,-6413.990234375,-400000.0625
111.41668844223022,-400000.0625,-6780.240234375,-4446.4599609375,-400000.0625,-16245.41015625,-400000.0625,-6412.5498046875,-400000.0625
111.42952609062195,-400000.0625,-6783.06005859375,-4449.3701171875,-400000.0625,-16245.1298828125,-400000.0625,-6423.08984375,-400000.0625
111.43837285041809,-400000.0625,-6794.169921875,-4458.43017578125,-400000.0625,-16250.1796875,-400000.0625,-6424.6201171875,-400000.0625
111.44663667678833,-400000.0625,-6794.1201171875,-4459.669921875,-400000.0625,-16244.83984375,-400000.0625,-6420.56982421875,-400000.0625
111.45893359184265,-400000.0625,-6784.39013671875,-4450.89013671875,-400000.0625,-16236.16015625,-400000.0625,-6411.7001953125,-400000.0625
111.47163605690002,-400000.0625,-6781.91015625,-4447.509765625,-400000.0625,-16244.599609375,-400000.0625,-6410.35986328125,-400000.0625
111.4928047657013,-400000.0625,-6791.31005859375,-4453.85009765625,-400000.0625,-16248.5595703125,-400000.0625,-6414.93994140625,-400000.0625
111.50532674789429,-400000.0625,-6791.77978515625,-4458.0498046875,-400000.0625,-16249.75,-400000.0625,-6420.9501953125,-400000.0625
111.5131504535675,-400000.0625,-6794.60009765625,-4458.27978515625,-400000.0625,-16250.1396484375,-400000.0625,-6420.330078125,-400000.0625
111.52411794662476,-400000.0625,-6790.919921875,-4453.3701171875,-400000.0625,-16247.5595703125,-400000.0625,-6411.22021484375,-400000.0625
111.53678035736084,-400000.0625,-6782.77001953125,-4442.7900390625,-400000.0625,-16241.599609375,-400000.0625,-6407.35986328125,-400000.0625
111.54541110992432,-400000.0625,-6783.72021484375,-4446.31982421875,-400000.0625,-16245.1796875,-400000.0625,-6414.93994140625,-400000.0625
111.55391812324524,-400000.0625,-6792.8798828125,-4456.47021484375,-400000.0625,-16249.2802734375,-400000.0625,-6420.3701171875,-400000.0625
111.56426215171814,-400000.0625,-6795.60009765625,-4456.6201171875,-400000.0625,-16246.990234375,-400000.0625,-6421.7099609375,-400000.0625
111.57283163070679,-400000.0625,-6785.97021484375,-4445.64990234375,-400000.0625,-16245.26953125,-400000.0625,-6416.7998046875,-400000.0625
111.58948278427124,-400000.0625,-6780.85986328125,-4441.1201171875,-400000.0625,-16239.3603515625,-400000.0625,-6408.02001953125,-400000.0625
111.60133337974548,-400000.0625,-6784.490234375,-4444.7900390625,-400000.0625,-16241.599609375,-400000.0625,-6414.93994140625,-400000.0625
111.60932898521423,-400000.0625,-6787.58984375,-4449.1298828125,-400000.0625,-16249.849609375,-400000.0625,-6421.89990234375,-400000.0625
111.61751770973206,-400000.0625,-6783.8701171875,-4448.080078125,-400000.0625,-16247.080078125,-400000.0625,-6416.93994140625,-400000.0625
111.62815380096436,-400000.0625,-6779.14990234375,-4442.259765625,-400000.0625,-16241.080078125,-400000.0625,-6410.64990234375,-400000.0625
111.63689661026001,-400000.0625,-6771.66015625,-4433.2001953125,-400000.0625,-16234.01953125,-400000.0625,-6408.93017578125,-400000.0625
111.6450662612915,-400000.0625,-6778.0498046875,-4438.58984375,-400000.0625,-16238.01953125,-400000.0625,-6417.56005859375,-400000.0625
111.65349435806274,-400000.0625,-6787.77978515625,-4451.7998046875,-400000.0625,-16249.75,-400000.0625,-6424.7099609375,-400000.0625
111.66585803031921,-400000.0625,-6794.60009765625,-4454.3701171875,-400000.0625,-16250.23046875,-400000.0625,-6418.89990234375,-400000.0625
111.67483472824097,-400000.0625,-6780.81982421875,-4441.2099609375,-400000.0625,-16241.0302734375,-400000.0625,-6410.06982421875,-400000.0625
111.69180464744568,-400000.0625,-6767.1298828125,-4433.97021484375,-400000.0625,-16236.349609375,-400000.0625,-6405.77978515625,-400000.0625
111.70368194580078,-400000.0625,-6777.3798828125,-4444.97998046875,-400000.0625,-16240.9296875,-400000.0625,-6412.22021484375,-400000.0625
111.71284866333008,-400000.0625,-6790.39990234375,-4452.89990234375,-400000.0625,-16246.3203125,-400000.0625,-6418.27978515625,-400000.0625
111.7225649356842,-400000.0625,-6792.02001953125,-4449.419921875,-400000.0625,-16246.4599609375,-400000.0625,-6415.990234375,-400000.0625
111.73755025863647,-400000.0625,-6775.669921875,-4436.77978515625,-400000.0625,-16237.4501953125,-400000.0625,-6408.22021484375,-400000.0625
111.74704003334045,-400000.0625,-6770.18017578125,-4431.580078125,-400000.0625,-16232.01953125,-400000.0625,-6402.02001953125,-400000.0625
111.76163601875305,-400000.0625,-6775.81005859375,-4435.39990234375,-400000.0625,-16230.6796875,-400000.0625,-6412.31982421875,-400000.0625
111.77182579040527,-400000.0625,-6789.97021484375,-4447.31982421875,-400000.0625,-16248.23046875,-400000.0625,-6424.0498046875,-400000.0625
111.78072261810303,-400000.0625,-6788.4501953125,-4446.41015625,-400000.0625,-16249.08984375,-400000.0625,-6420.7998046875,-400000.0625
111.80431938171387,-400000.0625,-6775.89990234375,-4437.4501953125,-400000.0625,-16238.3603515625,-400000.0625,-6409.8798828125,-400000.0625
111.81329941749573,-400000.0625,-6777.14013671875,-4439.16015625,-400000.0625,-16238.7900390625,-400000.0625,-6404.93017578125,-400000.0625
111.82205057144165,-400000.0625,-6782.47998046875,-4441.39990234375,-400000.0625,-16241.26953125,-400000.0625,-6408.68994140625,-400000.0625
111.83513331413269,-400000.0625,-6784.72998046875,-4443.97998046875,-400000.0625,-16241.41015625,-400000.0625,-6414.1298828125,-400000.0625
111.84365439414978,-400000.0625,-6784.77001953125,-4444.169921875,-400000.0625,-16245.7998046875,-400000.0625,-6413.83984375,-400000.0625
111.85174870491028,-400000.0625,-6780.33984375,-4438.93017578125,-400000.0625,-16241.2197265625,-400000.0625,-6402.5400390625,-400000.0625
111.86420249938965,-400000.0625,-6771.60986328125,-4432.2001953125,-400000.0625,-16229.4404296875,-400000.0625,-6396.81982421875,-400000.0625
111.87351846694946,-400000.0625,-6780.81982421875,-4440.35986328125,-400000.0625,-16231.2099609375,-400000.0625,-6406.4501953125,-400000.0625
111.88272833824158,-400000.0625,-6795.259765625,-4453.47021484375,-400000.0625,-16244.990234375,-400000.0625,-6413.080078125,-400000.0625
111.90365076065063,-400000.0625,-6790.02001953125,-4448.75,-400000.0625,-16241.2197265625,-400000.0625,-6414.75,-400000.0625
111.91234707832336,-400000.0625,-6785.10986328125,-4441.740234375,-400000.0625,-16241.5,-400000.0625,-6407.35986328125,-400000.0625
111.92574548721313,-400000.0625,-6771.66015625,-4434.8701171875,-400000.0625,-16237.2099609375,-400000.0625,-6407.1201171875,-400000.0625
111.93769359588623,-400000.0625,-6777.14013671875,-4438.5,-400000.0625,-16240.5498046875,-400000.0625,-6411.41015625,-400000.0625
111.94815158843994,-400000.0625,-6788.02001953125,-4446.31982421875,-400000.0625,-16248.1796875,-400000.0625,-6416.18017578125,-400000.0625
111.95799612998962,-400000.0625,-6786.2998046875,-4447.02978515625,-400000.0625,-16245.3203125,-400000.0625,-6413.60009765625,-400000.0625
111.9684956073761,-400000.0625,-6775.85986328125,-4439.77978515625,-400000.0625,-16235.2099609375,-400000.0625,-6404.97021484375,-400000.0625
111.97640585899353,-400000.0625,-6773.330078125,-4435.490234375,-400000.0625,-16232.7802734375,-400000.0625,-6401.97021484375,-400000.0625
111.98395466804504,-400000.0625,-6779.0,-4439.830078125,-400000.0625,-16241.41015625,-400000.0625,-6407.169921875,-400000.0625
112.00596046447754,-400000.0625,-6791.16015625,-4446.7900390625,-400000.0625,-16244.4599609375,-400000.0625,-6416.419921875,-400000.0625
112.01399278640747,-400000.0625,-6792.64013671875,-4449.18017578125,-400000.0625,-16244.8896484375,-400000.0625,-6420.14013671875,-400000.0625
112.0261754989624,-400000.0625,-6782.580078125,-4440.39990234375,-400000.0625,-16236.5,-400000.0625,-6408.64013671875,-400000.0625
112.03698587417603,-400000.0625,-6773.27978515625,-4434.68017578125,-400000.0625,-16230.4404296875,-400000.0625,-6403.72998046875,-400000.0625
112.04538440704346,-400000.0625,-6782.39013671875,-4443.06982421875,-400000.0625,-16238.5,-400000.0625,-6409.68994140625,-400000.0625
112.05269479751587,-400000.0625,-6790.8798828125,-4450.66015625,-400000.0625,-16246.26953125,-400000.0625,-6413.93994140625,-400000.0625
112.06297612190247,-400000.0625,-6787.77978515625,-4446.75,-400000.0625,-16243.26953125,-400000.0625,-6413.080078125,-400000.0625
112.07204103469849,-400000.0625,-6773.08984375,-4433.35009765625,-400000.0625,-16230.6796875,-400000.0625,-6401.58984375,-400000.0625
112.08048415184021,-400000.0625,-6770.08984375,-4429.669921875,-400000.0625,-16229.4404296875,-400000.0625,-6396.39013671875,-400000.0625
112.08915948867798,-400000.0625,-6779.77001953125,-4439.77978515625,-400000.0625,-16242.98046875,-400000.0625,-6408.64013671875,-400000.0625
112.10891675949097,-400000.0625,-6790.68994140625,-4447.080078125,-400000.0625,-16247.75,-400000.0625,-6412.93994140625,-400000.0625
112.11680340766907,-400000.0625,-6789.2998046875,-4445.02978515625,-400000.0625,-16245.7998046875,-400000.0625,-6409.02978515625,-400000.0625
112.13124060630798,-400000.0625,-6777.3798828125,-4441.2099609375,-400000.0625,-16236.58984375,-400000.0625,-6403.10986328125,-400000.0625
112.1402816772461,-400000.0625,-6774.56982421875,-4438.31005859375,-400000.0625,-16232.919921875,-400000.0625,-6396.81982421875,-400000.0625
112.14851546287537,-400000.0625,-6779.9599609375,-4438.10986328125,-400000.0625,-16236.58984375,-400000.0625,-6409.1201171875,-400000.0625
112.16234707832336,-400000.0625,-6785.81982421875,-4445.89013671875,-400000.0625,-16239.9296875,-400000.0625,-6418.419921875,-400000.0625
112.17065525054932,-400000.0625,-6788.5400390625,-4447.89013671875,-400000.0625,-16237.830078125,-400000.0625,-6410.5498046875,-400000.0625
112.17828273773193,-400000.0625,-6782.68017578125,-4440.68994140625,-400000.0625,-16232.6396484375,-400000.0625,-6405.830078125,-400000.0625
112.18538022041321,-400000.0625,-6775.56982421875,-4434.06005859375,-400000.0625,-16230.7802734375,-400000.0625,-6397.2001953125,-400000.0625
112.20158362388611,-400000.0625,-6780.81982421875,-4438.77978515625,-400000.0625,-16243.1298828125,-400000.0625,-6409.31005859375,-400000.0625
112.21716070175171,-400000.0625,-6787.490234375,-4444.64990234375,-400000.0625,-16245.26953125,-400000.0625,-6417.1298828125,-400000.0625
112.23527789115906,-400000.0625,-6790.4501953125,-4448.41015625,-400000.0625,-16241.740234375,-400000.0625,-6417.1298828125,-400000.0625
112.24831867218018,-400000.0625,-6777.9501953125,-4439.35009765625,-400000.0625,-16235.7802734375,-400000.0625,-6408.93017578125,-400000.0625
112.25874352455139,-400000.0625,-6769.47021484375,-4433.10986328125,-400000.0625,-16229.3896484375,-400000.0625,-6402.77978515625,-400000.0625
112.2678050994873,-400000.0625,-6784.72998046875,-4443.02978515625,-400000.0625,-16238.5,-400000.0625,-6412.7001953125,-400000.0625
112.27709436416626,-400000.0625,-6792.830078125,-4449.1298828125,-400000.0625,-16245.3203125,-400000.0625,-6420.7099609375,-400000.0625
112.28509330749512,-400000.0625,-6787.009765625,-4444.4599609375,-400000.0625,-16239.83984375,-400000.0625,-6418.89990234375,-400000.0625
112.3010995388031,-400000.0625,-6778.18994140625,-4437.490234375,-400000.0625,-16232.349609375,-400000.0625,-6410.27001953125,-400000.0625
112.30904746055603,-400000.0625,-6769.1298828125,-4433.5400390625,-400000.0625,-16228.4404296875,-400000.0625,-6400.43994140625,-400000.0625
112.32343578338623,-400000.0625,-6777.18994140625,-4439.5,-400000.0625,-16240.6904296875,-400000.0625,-6407.31005859375,-400000.0625
112.33813953399658,-400000.0625,-6787.39990234375,-4449.4599609375,-400000.0625,-16245.5595703125,-400000.0625,-6417.1298828125,-400000.0625
112.34582781791687,-400000.0625,-6787.2099609375,-4447.89013671875,-400000.0625,-16244.990234375,-400000.0625,-6416.89013671875,-400000.0625
112.35622310638428,-400000.0625,-6781.6298828125,-4439.68994140625,-400000.0625,-16238.8798828125,-400000.0625,-6407.60009765625,-400000.0625
112.36978936195374,-400000.0625,-6781.91015625,-4435.97021484375,-400000.0625,-16232.6796875,-400000.0625,-6404.5400390625,-400000.0625
112.37882971763611,-400000.0625,-6786.8701171875,-4441.31005859375,-400000.0625,-16237.2099609375,-400000.0625,-6410.02978515625,-400000.0625
112.38781142234802,-400000.0625,-6795.68994140625,-4448.02978515625,-400000.0625,-16245.7001953125,-400000.0625,-6421.66015625,-400000.0625
112.40092444419861,-400000.0625,-6793.740234375,-4445.4599609375,-400000.0625,-16244.83984375,-400000.0625,-6420.08984375,-400000.0625
112.41014790534973,-400000.0625,-6781.52978515625,-4436.2998046875,-400000.0625,-16232.5400390625,-400000.0625,-6411.60009765625,-400000.0625
112.42965936660767,-400000.0625,-6775.669921875,-4434.39990234375,-400000.0625,-16233.259765625,-400000.0625,-6407.5,-400000.0625
112.43923616409302,-400000.0625,-6784.9599609375,-4440.5,-400000.0625,-16243.26953125,-400000.0625,-6416.1298828125,-400000.0625
112.44818592071533,-400000.0625,-6792.16015625,-4446.7900390625,-400000.0625,-16249.1298828125,-400000.0625,-6426.33984375,-400000.0625
112.46045899391174,-400000.0625,-6786.25,-4444.35986328125,-400000.0625,-16248.990234375,-400000.0625,-6426.0498046875,-400000.0625
112.470130443573,-400000.0625,-6781.2001953125,-4437.8798828125,-400000.0625,-16239.41015625,-400000.0625,-6415.27001953125,-400000.0625
112.47917461395264,-400000.0625,-6773.759765625,-4429.52978515625,-400000.0625,-16232.58984375,-400000.0625,-6407.830078125,-400000.0625
112.49371290206909,-400000.0625,-6776.2900390625,-4434.16015625,-400000.0625,-16235.8798828125,-400000.0625,-6414.7998046875,-400000.0625
112.50677728652954,-400000.0625,-6790.5,-4444.64990234375,-400000.0625,-16243.75,-400000.0625,-6419.66015625,-400000.0625
112.51496839523315,-400000.0625,-6790.2998046875,-4439.77978515625,-400000.0625,-16240.740234375,-400000.0625,-6419.60986328125,-400000.0625
112.53704524040222,-400000.0625,-6780.240234375,-4432.6298828125,-400000.0625,-16236.16015625,-400000.0625,-6412.60009765625,-400000.0625
112.54641485214233,-400000.0625,-6770.0400390625,-4428.580078125,-400000.0625,-16233.6396484375,-400000.0625,-6404.830078125,-400000.0625
112.55684447288513,-400000.0625,-6780.43017578125,-4435.16015625,-400000.0625,-16240.5,-400000.0625,-6411.02978515625,-400000.0625
112.56877613067627,-400000.0625,-6790.10986328125,-4445.080078125,-400000.0625,-16245.650390625,-400000.0625,-6418.52001953125,-400000.0625
112.57799649238586,-400000.0625,-6788.97021484375,-4443.60009765625,-400000.0625,-16244.7001953125,-400000.0625,-6416.18017578125,-400000.0625
112.59193658828735,-400000.0625,-6782.6298828125,-4437.06982421875,-400000.0625,-16239.3095703125,-400000.0625,-6408.31005859375,-400000.0625
112.60381054878235,-400000.0625,-6775.240234375,-4431.10986328125,-400000.0625,-16232.5400390625,-400000.0625,-6407.169921875,-400000.0625
112.6125123500824,-400000.0625,-6785.009765625,-4441.64013671875,-400000.0625,-16238.259765625,-400000.0625,-6411.93017578125,-400000.0625
112.62149119377136,-400000.0625,-6791.31005859375,-4448.27001953125,-400000.0625,-16243.3203125,-400000.0625,-6418.08984375,-400000.0625
112.63686919212341,-400000.0625,-6781.72021484375,-4439.77978515625,-400000.0625,-16238.41015625,-400000.0625,-6416.509765625,-400000.0625
112.65029311180115,-400000.0625,-6770.419921875,-4428.72021484375,-400000.0625,-16230.16015625,-400000.0625,-6409.259765625,-400000.0625
112.65910005569458,-400000.0625,-6769.3701171875,-4428.6298828125,-400000.0625,-16233.8798828125,-400000.0625,-6404.58984375,-400000.0625
112.66673493385315,-400000.0625,-6773.08984375,-4437.64013671875,-400000.0625,-16240.650390625,-400000.0625,-6408.259765625,-400000.0625
112.67838668823242,-400000.0625,-6783.6298828125,-4441.1201171875,-400000.0625,-16242.3603515625,-400000.0625,-6415.89013671875,-400000.0625
112.68704795837402,-400000.0625,-6784.25,-4440.35986328125,-400000.0625,-16240.4599609375,-400000.0625,-6412.4599609375,-400000.0625
112.6954517364502,-400000.0625,-6777.759765625,-4436.02001953125,-400000.0625,-16233.6396484375,-400000.0625,-6406.39990234375,-400000.0625
112.70353603363037,-400000.0625,-6770.7998046875,-4429.39013671875,-400000.0625,-16229.0595703125,-400000.0625,-6403.830078125,-400000.0625
112.7171082496643,-400000.0625,-6775.47998046875,-4436.39990234375,-400000.0625,-16232.58984375,-400000.0625,-6410.97998046875,-400000.0625
112.72583174705505,-400000.0625,-6787.919921875,-4445.89013671875,-400000.0625,-16240.650390625,-400000.0625,-6416.75,-400000.0625
112.74832820892334,-400000.0625,-6783.009765625,-4440.5,-400000.0625,-16235.1201171875,-400000.0625,-6412.4599609375,-400000.0625
112.75873708724976,-400000.0625,-6770.7998046875,-4431.25,-400000.0625,-16230.6298828125,-400000.0625,-6403.2998046875,-400000.0625
112.76670289039612,-400000.0625,-6772.47021484375,-4433.10986328125,-400000.0625,-16233.58984375,-400000.0625,-6403.68994140625,-400000.0625
112.78043341636658,-400000.0625,-6778.14990234375,-4440.830078125,-400000.0625,-16238.01953125,-400000.0625,-6408.259765625,-400000.0625
112.79086256027222,-400000.0625,-6787.72998046875,-4448.60986328125,-400000.0625,-16243.7900390625,-400000.0625,-6416.419921875,-400000.0625
112.79954814910889,-400000.0625,-6795.7900390625,-4448.41015625,-400000.0625,-16245.1298828125,-400000.0625,-6417.1298828125,-400000.0625
112.8108057975769,-400000.0625,-6778.0498046875,-4438.02001953125,-400000.0625,-16232.9697265625,-400000.0625,-6412.7900390625,-400000.0625
112.82195520401001,-400000.0625,-6771.14013671875,-4435.58984375,-400000.0625,-16230.009765625,-400000.0625,-6404.97021484375,-400000.0625
112.8300712108612,-400000.0625,-6781.2900390625,-4439.97021484375,-400000.0625,-16234.259765625,-400000.0625,-6409.259765625,-400000.0625
112.85501742362976,-400000.0625,-6787.97021484375,-4446.83984375,-400000.0625,-16240.98046875,-400000.0625,-6416.93994140625,-400000.0625
112.86277556419373,-400000.0625,-6785.16015625,-4442.64013671875,-400000.0625,-16237.8798828125,-400000.0625,-6414.3701171875,-400000.0625
112.87162804603577,-400000.0625,-6773.27978515625,-4431.81982421875,-400000.0625,-16224.240234375,-400000.0625,-6405.16015625,-400000.0625
112.88677310943604,-400000.0625,-6768.31982421875,-4428.240234375,-400000.0625,-16230.349609375,-400000.0625,-6402.68017578125,-400000.0625
112.89490580558777,-400000.0625,-6784.68017578125,-4439.39990234375,-400000.0625,-16241.080078125,-400000.0625,-6408.64013671875,-400000.0625
112.90321755409241,-400000.0625,-6793.740234375,-4448.080078125,-400000.0625,-16245.83984375,-400000.0625,-6417.27978515625,-400000.0625
112.913729429245,-400000.0625,-6790.4501953125,-4447.02978515625,-400000.0625,-16240.8798828125,-400000.0625,-6416.7001953125,-400000.0625
112.92252516746521,-400000.0625,-6779.72021484375,-4436.39990234375,-400000.0625,-16228.25,-400000.0625,-6410.5498046875,-400000.0625
112.93054509162903,-400000.0625,-6774.0,-4431.77001953125,-400000.0625,-16223.3798828125,-400000.0625,-6408.35986328125,-400000.0625
112.94959354400635,-400000.0625,-6783.43994140625,-4440.5,-400000.0625,-16231.16015625,-400000.0625,-6411.509765625,-400000.0625
112.9581573009491,-400000.0625,-6790.2998046875,-4447.64990234375,-400000.0625,-16239.83984375,-400000.0625,-6417.85009765625,-400000.0625
112.96579551696777,-400000.0625,-6786.009765625,-4444.22021484375,-400000.0625,-16243.98046875,-400000.0625,-6416.85009765625,-400000.0625
112.97731161117554,-400000.0625,-6780.47998046875,-4438.259765625,-400000.0625,-16234.9697265625,-400000.0625,-6404.97021484375,-400000.0625
112.98635768890381,-400000.0625,-6778.56982421875,-4434.6298828125,-400000.0625,-16226.2001953125,-400000.0625,-6398.2998046875,-400000.0625
112.99741411209106,-400000.0625,-6787.77978515625,-4441.830078125,-400000.0625,-16230.2001953125,-400000.0625,-6405.31005859375,-400000.0625
113.00737309455872,-400000.0625,-6794.68994140625,-4450.1298828125,-400000.0625,-16237.7900390625,-400000.0625,-6421.330078125,-400000.0625
113.01817774772644,-400000.0625,-6787.43994140625,-4446.1298828125,-400000.0625,-16235.830078125,-400000.0625,-6415.56005859375,-400000.0625
113.02668857574463,-400000.0625,-6781.009765625,-4437.16015625,-400000.0625,-16236.5,-400000.0625,-6403.97021484375,-400000.0625
113.03409337997437,-400000.0625,-6778.33984375,-4433.10986328125,-400000.0625,-16230.919921875,-400000.0625,-6403.64013671875,-400000.0625
113.05527019500732,-400000.0625,-6782.43994140625,-4435.68017578125,-400000.0625,-16225.76953125,-400000.0625,-6412.7900390625,-400000.0625
113.06297898292542,-400000.0625,-6793.93017578125,-4447.89013671875,-400000.0625,-16233.5400390625,-400000.0625,-6421.759765625,-400000.0625
113.07187581062317,-400000.0625,-6790.35009765625,-4444.7900390625,-400000.0625,-16242.5498046875,-400000.0625,-6419.1298828125,-400000.0625
113.08324790000916,-400000.0625,-6781.91015625,-4437.02001953125,-400000.0625,-16231.400390625,-400000.0625,-6408.06982421875,-400000.0625
113.09194469451904,-400000.0625,-6778.77001953125,-4434.2001953125,-400000.0625,-16221.8603515625,-400000.0625,-6402.25,-400000.0625
113.10010504722595,-400000.0625,-6782.25,-4438.97021484375,-400000.0625,-16226.91015625,-400000.0625,-6407.830078125,-400000.0625
113.11009049415588,-400000.0625,-6787.10986328125,-4445.02978515625,-400000.0625,-16238.5498046875,-400000.0625,-6419.75,-400000.0625
113.12048935890198,-400000.0625,-6792.35986328125,-4443.97998046875,-400000.0625,-16235.7802734375,-400000.0625,-6411.080078125,-400000.0625
113.12891459465027,-400000.0625,-6782.77001953125,-4432.72998046875,-400000.0625,-16232.490234375,-400000.0625,-6407.35986328125,-400000.0625
113.13886737823486,-400000.0625,-6773.759765625,-4427.47998046875,-400000.0625,-16225.009765625,-400000.0625,-6405.64013671875,-400000.0625
113.15822529792786,-400000.0625,-6781.85986328125,-4433.97021484375,-400000.0625,-16224.099609375,-400000.0625,-6407.39990234375,-400000.0625
113.16545677185059,-400000.0625,-6789.06982421875,-4442.06982421875,-400000.0625,-16233.4501953125,-400000.0625,-6415.64990234375,-400000.0625
113.17646169662476,-400000.0625,-6786.919921875,-4441.2099609375,-400000.0625,-16234.6396484375,-400000.0625,-6415.56005859375,-400000.0625
113.18542623519897,-400000.0625,-6779.39013671875,-4433.490234375,-400000.0625,-16227.6796875,-400000.0625,-6402.72998046875,-400000.0625
113.19305443763733,-400000.0625,-6773.18994140625,-4429.14990234375,-400000.0625,-16221.0498046875,-400000.0625,-6396.72021484375,-400000.0625
113.20058846473694,-400000.0625,-6782.580078125,-4434.81982421875,-400000.0625,-16229.25,-400000.0625,-6403.06982421875,-400000.0625
113.21031546592712,-400000.0625,-6791.830078125,-4443.5,-400000.0625,-16243.3603515625,-400000.0625,-6412.4599609375,-400000.0625
113.21900367736816,-400000.0625,-6787.16015625,-4440.39990234375,-400000.0625,-16238.41015625,-400000.0625,-6411.83984375,-400000.0625
113.23019242286682,-400000.0625,-6775.330078125,-4428.0498046875,-400000.0625,-16224.3896484375,-400000.0625,-6402.2998046875,-400000.0625
113.24007773399353,-400000.0625,-6774.0400390625,-4422.6201171875,-400000.0625,-16218.8095703125,-400000.0625,-6398.10986328125,-400000.0625
113.26064276695251,-400000.0625,-6782.25,-4434.6298828125,-400000.0625,-16228.580078125,-400000.0625,-6406.1201171875,-400000.0625
113.26779842376709,-400000.0625,-6788.8701171875,-4441.830078125,-400000.0625,-16234.58984375,-400000.0625,-6415.60986328125,-400000.0625
113.28089261054993,-400000.0625,-6784.77001953125,-4440.169921875,-400000.0625,-16235.259765625,-400000.0625,-6411.5498046875,-400000.0625
113.28948020935059,-400000.0625,-6774.6201171875,-4431.43994140625,-400000.0625,-16227.33984375,-400000.0625,-6400.8701171875,-400000.0625
113.29690861701965,-400000.0625,-6766.02978515625,-4423.240234375,-400000.0625,-16219.6201171875,-400000.0625,-6396.52978515625,-400000.0625
113.30680131912231,-400000.0625,-6770.52001953125,-4430.6298828125,-400000.0625,-16225.7197265625,-400000.0625,-6404.2099609375,-400000.0625
113.32020616531372,-400000.0625,-6781.85986328125,-4437.16015625,-400000.0625,-16232.490234375,-400000.0625,-6416.89013671875,-400000.0625
113.32867550849915,-400000.0625,-6790.5,-4438.8798828125,-400000.0625,-16236.58984375,-400000.0625,-6415.93994140625,-400000.0625
113.33835196495056,-400000.0625,-6780.81982421875,-4430.14990234375,-400000.0625,-16230.4404296875,-400000.0625,-6406.4501953125,-400000.0625
113.35131859779358,-400000.0625,-6770.7998046875,-4424.14013671875,-400000.0625,-16221.8603515625,-400000.0625,-6400.5400390625,-400000.0625
113.36543869972229,-400000.0625,-6776.52001953125,-4431.68017578125,-400000.0625,-16227.2900390625,-400000.0625,-6403.39990234375,-400000.0625
113.37612080574036,-400000.0625,-6781.39013671875,-4436.2099609375,-400000.0625,-16225.150390625,-400000.0625,-6413.89013671875,-400000.0625
113.38585472106934,-400000.0625,-6780.009765625,-4436.8701171875,-400000.0625,-16224.580078125,-400000.0625,-6411.89013671875,-400000.0625
113.3943886756897,-400000.0625,-6776.43017578125,-4431.68017578125,-400000.0625,-16232.830078125,-400000.0625,-6401.830078125,-400000.0625
113.40848684310913,-400000.0625,-6766.27001953125,-4419.9501953125,-400000.0625,-16222.5703125,-400000.0625,-6399.72998046875,-400000.0625
113.41855692863464,-400000.0625,-6777.81005859375,-4432.72998046875,-400000.0625,-16230.3896484375,-400000.0625,-6408.06982421875,-400000.0625
113.42636108398438,-400000.0625,-6789.5400390625,-4445.22021484375,-400000.0625,-16237.3603515625,-400000.0625,-6413.56005859375,-400000.0625
113.4364218711853,-400000.0625,-6780.240234375,-4435.97021484375,-400000.0625,-16230.16015625,-400000.0625,-6411.7001953125,-400000.0625
113.44776797294617,-400000.0625,-6768.509765625,-4425.6201171875,-400000.0625,-16219.9501953125,-400000.0625,-6403.06982421875,-400000.0625
113.45576643943787,-400000.0625,-6769.27978515625,-4420.81005859375,-400000.0625,-16213.990234375,-400000.0625,-6400.81982421875,-400000.0625
113.46976971626282,-400000.0625,-6778.240234375,-4430.14990234375,-400000.0625,-16226.9599609375,-400000.0625,-6409.68994140625,-400000.0625
113.48007369041443,-400000.0625,-6781.85986328125,-4438.02001953125,-400000.0625,-16238.6904296875,-400000.0625,-6417.31982421875,-400000.0625
113.48930048942566,-400000.0625,-6782.33984375,-4436.06005859375,-400000.0625,-16229.009765625,-400000.0625,-6414.18017578125,-400000.0625
113.49972128868103,-400000.0625,-6777.85986328125,-4429.72021484375,-400000.0625,-16223.8603515625,-400000.0625,-6404.68994140625,-400000.0625
113.51035666465759,-400000.0625,-6770.47021484375,-4424.2900390625,-400000.0625,-16220.3798828125,-400000.0625,-6395.91015625,-400000.0625
113.5192358493805,-400000.0625,-6777.0,-4430.6298828125,-400000.0625,-16223.76953125,-400000.0625,-6408.5498046875,-400000.0625
113.52702593803406,-400000.0625,-6781.25,-4438.259765625,-400000.0625,-16229.25,-400000.0625,-6416.31982421875,-400000.0625
113.5339982509613,-400000.0625,-6780.39013671875,-4435.8701171875,-400000.0625,-16226.580078125,-400000.0625,-6413.60009765625,-400000.0625
113.54465556144714,-400000.0625,-6772.3798828125,-4425.9599609375,-400000.0625,-16218.2802734375,-400000.0625,-6403.919921875,-400000.0625
113.55384421348572,-400000.0625,-6770.18017578125,-4426.10009765625,-400000.0625,-16214.51953125,-400000.0625,-6400.39990234375,-400000.0625
113.56193947792053,-400000.0625,-6780.669921875,-4430.39013671875,-400000.0625,-16221.5302734375,-400000.0625,-6406.8798828125,-400000.0625
113.581866979599,-400000.0625,-6787.39990234375,-4436.830078125,-400000.0625,-16231.8203125,-400000.0625,-6414.93994140625,-400000.0625
113.59178233146667,-400000.0625,-6781.39013671875,-4436.2998046875,-400000.0625,-16227.009765625,-400000.0625,-6413.83984375,-400000.0625
113.5994188785553,-400000.0625,-6769.7099609375,-4424.43017578125,-400000.0625,-16216.4697265625,-400000.0625,-6407.5498046875,-400000.0625
113.61162567138672,-400000.0625,-6769.18017578125,-4422.759765625,-400000.0625,-16215.6103515625,-400000.0625,-6403.68994140625,-400000.0625
113.62135124206543,-400000.0625,-6780.10009765625,-4432.6298828125,-400000.0625,-16221.1396484375,-400000.0625,-6416.0400390625,-400000.0625
113.62951612472534,-400000.0625,-6789.97021484375,-4441.06982421875,-400000.0625,-16228.1103515625,-400000.0625,-6423.43017578125,-400000.0625
113.64086556434631,-400000.0625,-6787.16015625,-4440.1201171875,-400000.0625,-16230.3896484375,-400000.0625,-6418.31982421875,-400000.0625
113.65236496925354,-400000.0625,-6776.2900390625,-4427.9599609375,-400000.0625,-16221.240234375,-400000.0625,-6408.169921875,-400000.0625
113.66151642799377,-400000.0625,-6771.419921875,-4423.7099609375,-400000.0625,-16215.5595703125,-400000.0625,-6400.10986328125,-400000.0625
113.66882610321045,-400000.0625,-6780.2001953125,-4429.72021484375,-400000.0625,-16221.330078125,-400000.0625,-6410.06982421875,-400000.0625
113.68823719024658,-400000.0625,-6786.009765625,-4439.5498046875,-400000.0625,-16230.5400390625,-400000.0625,-6420.7998046875,-400000.0625
113.6956193447113,-400000.0625,-6786.77978515625,-4438.16015625,-400000.0625,-16226.4404296875,-400000.0625,-6418.18017578125,-400000.0625
113.70276665687561,-400000.0625,-6777.47998046875,-4427.39013671875,-400000.0625,-16215.0400390625,-400000.0625,-6405.4501953125,-400000.0625
113.71406316757202,-400000.0625,-6770.56005859375,-4420.9501953125,-400000.0625,-16211.1298828125,-400000.0625,-6402.68017578125,-400000.0625
113.72268676757812,-400000.0625,-6780.9599609375,-4432.77001953125,-400000.0625,-16226.7197265625,-400000.0625,-6412.7001953125,-400000.0625
113.73070096969604,-400000.0625,-6792.4501953125,-4442.64013671875,-400000.0625,-16230.6298828125,-400000.0625,-6417.7001953125,-400000.0625
113.74022245407104,-400000.0625,-6784.72998046875,-4438.02001953125,-400000.0625,-16225.580078125,-400000.0625,-6415.4599609375,-400000.0625
113.75079774856567,-400000.0625,-6780.009765625,-4433.490234375,-400000.0625,-16221.669921875,-400000.0625,-6408.31005859375,-400000.0625
113.75996899604797,-400000.0625,-6777.72021484375,-4429.39013671875,-400000.0625,-16214.1796875,-400000.0625,-6407.68994140625,-400000.0625
113.76700901985168,-400000.0625,-6782.8701171875,-4432.68017578125,-400000.0625,-16222.91015625,-400000.0625,-6417.22998046875,-400000.0625
113.77669143676758,-400000.0625,-6789.16015625,-4440.1201171875,-400000.0625,-16227.4404296875,-400000.0625,-6419.85009765625,-400000.0625
113.79196906089783,-400000.0625,-6786.35009765625,-4434.25,-400000.0625,-16223.6201171875,-400000.0625,-6415.419921875,-400000.0625
113.79889988899231,-400000.0625,-6777.18994140625,-4426.669921875,-400000.0625,-16220.1904296875,-400000.0625,-6403.490234375,-400000.0625
113.81083106994629,-400000.0625,-6761.89013671875,-4414.75,-400000.0625,-16206.1201171875,-400000.0625,-6395.6298828125,-400000.0625
113.82050466537476,-400000.0625,-6773.419921875,-4427.0498046875,-400000.0625,-16215.419921875,-400000.0625,-6411.1201171875,-400000.0625
113.8284204006195,-400000.0625,-6787.97021484375,-4441.830078125,-400000.0625,-16229.919921875,-400000.0625,-6426.91015625,-400000.0625
113.83566975593567,-400000.0625,-6790.72998046875,-4440.31005859375,-400000.0625,-16226.91015625,-400000.0625,-6423.27978515625,-400000.0625
113.84719133377075,-400000.0625,-6780.33984375,-4429.669921875,-400000.0625,-16222.4296875,-400000.0625,-6411.4599609375,-400000.0625
113.85515213012695,-400000.0625,-6770.7998046875,-4422.47021484375,-400000.0625,-16216.4697265625,-400000.0625,-6406.8798828125,-400000.0625
113.86285042762756,-400000.0625,-6778.9599609375,-4429.72021484375,-400000.0625,-16219.900390625,-400000.0625,-6411.7001953125,-400000.0625
113.87062168121338,-400000.0625,-6784.25,-4434.39990234375,-400000.0625,-16221.6201171875,-400000.0625,-6420.7099609375,-400000.0625
113.87967777252197,-400000.0625,-6781.0498046875,-4430.580078125,-400000.0625,-16223.76953125,-400000.0625,-6415.31982421875,-400000.0625
113.89396905899048,-400000.0625,-6770.7099609375,-4422.3798828125,-400000.0625,-16215.66015625,-400000.0625,-6408.5498046875,-400000.0625
113.90105485916138,-400000.0625,-6772.85009765625,-4423.18994140625,-400000.0625,-16217.1396484375,-400000.0625,-6403.77978515625,-400000.0625
113.91304230690002,-400000.0625,-6780.81982421875,-4431.919921875,-400000.0625,-16221.240234375,-400000.0625,-6413.22021484375,-400000.0625
113.9224967956543,-400000.0625,-6792.06982421875,-4438.06982421875,-400000.0625,-16229.3896484375,-400000.0625,-6421.9501953125,-400000.0625
113.92999362945557,-400000.0625,-6784.2998046875,-4429.8701171875,-400000.0625,-16224.0,-400000.0625,-6416.85009765625,-400000.0625
113.93850255012512,-400000.0625,-6775.9501953125,-4419.14013671875,-400000.0625,-16221.8095703125,-400000.0625,-6408.4501953125,-400000.0625
113.94896411895752,-400000.0625,-6769.990234375,-4417.52001953125,-400000.0625,-16218.5703125,-400000.0625,-6407.259765625,-400000.0625
113.95806002616882,-400000.0625,-6771.18017578125,-4417.52001953125,-400000.0625,-16212.419921875,-400000.0625,-6413.7900390625,-400000.0625
113.96594834327698,-400000.0625,-6779.81005859375,-4428.9599609375,-400000.0625,-16221.1396484375,-400000.0625,-6424.3798828125,-400000.0625
113.97513484954834,-400000.0625,-6779.85986328125,-4430.6298828125,-400000.0625,-16226.25,-400000.0625,-6419.52001953125,-400000.0625
113.984934091568,-400000.0625,-6771.330078125,-4417.75,-400000.0625,-16216.900390625,-400000.0625,-6412.169921875,-400000.0625
113.99891138076782,-400000.0625,-6769.85009765625,-4413.27001953125,-400000.0625,-16210.0302734375,-400000.0625,-6406.31005859375,-400000.0625
114.00688028335571,-400000.0625,-6772.47021484375,-4420.60986328125,-400000.0625,-16223.33984375,-400000.0625,-6414.22021484375,-400000.0625
114.01803183555603,-400000.0625,-6782.10009765625,-4427.10009765625,-400000.0625,-16225.6298828125,-400000.0625,-6420.22998046875,-400000.0625
114.02670288085938,-400000.0625,-6778.0498046875,-4425.52978515625,-400000.0625,-16219.669921875,-400000.0625,-6415.89013671875,-400000.0625
114.03386449813843,-400000.0625,-6773.66015625,-4421.43017578125,-400000.0625,-16218.849609375,-400000.0625,-6411.02978515625,-400000.0625
114.04520750045776,-400000.0625,-6772.3798828125,-4421.7099609375,-400000.0625,-16223.1904296875,-400000.0625,-6409.93017578125,-400000.0625
114.05409407615662,-400000.0625,-6781.39013671875,-4428.009765625,-400000.0625,-16228.1103515625,-400000.0625,-6410.35986328125,-400000.0625
114.06201791763306,-400000.0625,-6782.33984375,-4429.2900390625,-400000.0625,-16227.7197265625,-400000.0625,-6420.89990234375,-400000.0625
114.06965160369873,-400000.0625,-6777.85986328125,-4425.33984375,-400000.0625,-16226.009765625,-400000.0625,-6418.52001953125,-400000.0625
114.08113169670105,-400000.0625,-6771.0400390625,-4419.85009765625,-400000.0625,-16218.240234375,-400000.0625,-6409.68994140625,-400000.0625
114.08888745307922,-400000.0625,-6765.4599609375,-4416.31982421875,-400000.0625,-16208.599609375,-400000.0625,-6401.97021484375,-400000.0625
114.10236167907715,-400000.0625,-6768.419921875,-4419.52001953125,-400000.0625,-16210.83984375,-400000.0625,-6412.5498046875,-400000.0625
114.11607909202576,-400000.0625,-6782.14990234375,-4432.490234375,-400000.0625,-16226.6796875,-400000.0625,-6422.14013671875,-400000.0625
114.12390947341919,-400000.0625,-6787.009765625,-4433.5400390625,-400000.0625,-16222.0498046875,-400000.0625,-6422.14013671875,-400000.0625
114.13089227676392,-400000.0625,-6781.6298828125,-4425.91015625,-400000.0625,-16223.76953125,-400000.0625,-6413.990234375,-400000.0625
114.14021158218384,-400000.0625,-6774.08984375,-4420.14013671875,-400000.0625,-16219.900390625,-400000.0625,-6408.93017578125,-400000.0625
114.15099859237671,-400000.0625,-6775.81005859375,-4422.759765625,-400000.0625,-16221.5703125,-400000.0625,-6415.56005859375,-400000.0625
114.15917110443115,-400000.0625,-6786.68017578125,-4435.2998046875,-400000.0625,-16225.2900390625,-400000.0625,-6424.0498046875,-400000.0625
114.16610217094421,-400000.0625,-6779.14990234375,-4429.2001953125,-400000.0625,-16218.759765625,-400000.0625,-6423.240234375,-400000.0625
114.1756386756897,-400000.0625,-6769.22998046875,-4418.419921875,-400000.0625,-16210.5595703125,-400000.0625,-6413.75,-400000.0625
114.1866455078125,-400000.0625,-6768.75,-4415.4599609375,-400000.0625,-16210.83984375,-400000.0625,-6408.259765625,-400000.0625
114.19462966918945,-400000.0625,-6778.56982421875,-4422.0,-400000.0625,-16215.1796875,-400000.0625,-6418.47021484375,-400000.0625
114.21016335487366,-400000.0625,-6781.25,-4428.81982421875,-400000.0625,-16221.240234375,-400000.0625,-6428.39013671875,-400000.0625
114.2188651561737,-400000.0625,-6782.33984375,-4428.240234375,-400000.0625,-16218.9501953125,-400000.0625,-6425.91015625,-400000.0625
114.22794580459595,-400000.0625,-6779.240234375,-4422.47021484375,-400000.0625,-16216.5703125,-400000.0625,-6414.7001953125,-400000.0625
114.23578214645386,-400000.0625,-6772.14013671875,-4414.7001953125,-400000.0625,-16210.9404296875,-400000.0625,-6411.35986328125,-400000.0625
114.25114750862122,-400000.0625,-6778.9599609375,-4418.60986328125,-400000.0625,-16210.7998046875,-400000.0625,-6417.47021484375,-400000.0625
114.25880599021912,-400000.0625,-6786.6298828125,-4427.77001953125,-400000.0625,-16221.5703125,-400000.0625,-6426.14013671875,-400000.0625
114.26578521728516,-400000.0625,-6785.77978515625,-4429.0498046875,-400000.0625,-16222.5302734375,-400000.0625,-6424.3798828125,-400000.0625
114.27416920661926,-400000.0625,-6775.85986328125,-4420.330078125,-400000.0625,-16213.990234375,-400000.0625,-6415.1298828125,-400000.0625
114.28442358970642,-400000.0625,-6765.60009765625,-4408.64990234375,-400000.0625,-16201.2099609375,-400000.0625,-6409.83984375,-400000.0625
114.29249215126038,-400000.0625,-6775.669921875,-4420.89990234375,-400000.0625,-16211.080078125,-400000.0625,-6422.6201171875,-400000.0625
114.3004379272461,-400000.0625,-6790.2099609375,-4434.35009765625,-400000.0625,-16227.6796875,-400000.0625,-6432.43994140625,-400000.0625
114.31762361526489,-400000.0625,-6787.16015625,-4430.81982421875,-400000.0625,-16223.7197265625,-400000.0625,-6429.72021484375,-400000.0625
114.32566213607788,-400000.0625,-6775.6201171875,-4419.0400390625,-400000.0625,-16213.1796875,-400000.0625,-6417.75,-400000.0625
114.33287310600281,-400000.0625,-6771.52001953125,-4415.31982421875,-400000.0625,-16212.990234375,-400000.0625,-6411.27001953125,-400000.0625
114.3475546836853,-400000.0625,-6781.52978515625,-4425.3798828125,-400000.0625,-16214.4697265625,-400000.0625,-6419.3701171875,-400000.0625
114.35689616203308,-400000.0625,-6794.41015625,-4434.39990234375,-400000.0625,-16215.66015625,-400000.0625,-6430.91015625,-400000.0625
114.36414885520935,-400000.0625,-6789.06982421875,-4429.580078125,-400000.0625,-16218.3798828125,-400000.0625,-6427.81005859375,-400000.0625
114.3719117641449,-400000.0625,-6774.240234375,-4417.0400390625,-400000.0625,-16211.7001953125,-400000.0625,-6421.759765625,-400000.0625
114.3838620185852,-400000.0625,-6766.83984375,-4412.56005859375,-400000.0625,-16210.41015625,-400000.0625,-6418.66015625,-400000.0625
114.39235639572144,-400000.0625,-6781.72021484375,-4425.56982421875,-400000.0625,-16220.91015625,-400000.0625,-6423.47021484375,-400000.0625
114.40046191215515,-400000.0625,-6792.58984375,-4435.68017578125,-400000.0625,-16226.150390625,-400000.0625,-6430.2001953125,-400000.0625
114.41811013221741,-400000.0625,-6787.77978515625,-4430.52978515625,-400000.0625,-16222.759765625,-400000.0625,-6427.85986328125,-400000.0625
114.42655515670776,-400000.0625,-6776.759765625,-4421.08984375,-400000.0625,-16213.4697265625,-400000.0625,-6413.64990234375,-400000.0625
114.43348383903503,-400000.0625,-6771.7099609375,-4419.18017578125,-400000.0625,-16208.650390625,-400000.0625,-6413.64990234375,-400000.0625
114.44808959960938,-400000.0625,-6779.85986328125,-4424.3798828125,-400000.0625,-16214.419921875,-400000.0625,-6420.7099609375,-400000.0625
114.4577305316925,-400000.0625,-6782.52978515625,-4426.2900390625,-400000.0625,-16215.900390625,-400000.0625,-6430.669921875,-400000.0625
114.46534419059753,-400000.0625,-6784.39013671875,-4424.240234375,-400000.0625,-16208.83984375,-400000.0625,-6426.759765625,-400000.0625
114.47653651237488,-400000.0625,-6777.81005859375,-4417.7099609375,-400000.0625,-16213.7099609375,-400000.0625,-6412.5498046875,-400000.0625
114.48536777496338,-400000.0625,-6769.509765625,-4412.75,-400000.0625,-16209.9404296875,-400000.0625,-6409.68994140625,-400000.0625
114.49522924423218,-400000.0625,-6781.2900390625,-4423.56982421875,-400000.0625,-16214.7998046875,-400000.0625,-6417.7998046875,-400000.0625
114.50382232666016,-400000.0625,-6788.58984375,-4427.14990234375,-400000.0625,-16220.669921875,-400000.0625,-6425.47998046875,-400000.0625
114.52249956130981,-400000.0625,-6781.6298828125,-4422.6201171875,-400000.0625,-16220.240234375,-400000.0625,-6422.0400390625,-400000.0625
114.52990579605103,-400000.0625,-6778.2900390625,-4419.52001953125,-400000.0625,-16211.8896484375,-400000.0625,-6412.509765625,-400000.0625
114.54084348678589,-400000.0625,-6770.66015625,-4411.27001953125,-400000.0625,-16206.3603515625,-400000.0625,-6412.1298828125,-400000.0625
114.55144095420837,-400000.0625,-6780.009765625,-4418.759765625,-400000.0625,-16211.23046875,-400000.0625,-6421.18994140625,-400000.0625
114.5591492652893,-400000.0625,-6790.5,-4425.14013671875,-400000.0625,-16211.5595703125,-400000.0625,-6429.240234375,-400000.0625
114.56608438491821,-400000.0625,-6781.85986328125,-4420.9501953125,-400000.0625,-16215.900390625,-400000.0625,-6424.7099609375,-400000.0625
114.57755708694458,-400000.0625,-6772.56982421875,-4415.66015625,-400000.0625,-16216.900390625,-400000.0625,-6418.75,-400000.0625
114.58612537384033,-400000.0625,-6767.1298828125,-4412.7001953125,-400000.0625,-16209.5595703125,-400000.0625,-6416.1298828125,-400000.0625
114.59462881088257,-400000.0625,-6781.39013671875,-4422.330078125,-400000.0625,-16214.08984375,-400000.0625,-6423.240234375,-400000.0625
114.60157012939453,-400000.0625,-6786.77978515625,-4427.2900390625,-400000.0625,-16214.9404296875,-400000.0625,-6428.0,-400000.0625
114.61428833007812,-400000.0625,-6783.33984375,-4422.9501953125,-400000.0625,-16211.7001953125,-400000.0625,-6423.3798828125,-400000.0625
114.63250613212585,-400000.0625,-6774.9501953125,-4415.0400390625,-400000.0625,-16211.7001953125,-400000.0625,-6417.7998046875,-400000.0625
114.647292137146,-400000.0625,-6770.330078125,-4411.35986328125,-400000.0625,-16204.5,-400000.0625,-6414.27001953125,-400000.0625
114.65584182739258,-400000.0625,-6777.47998046875,-4421.14013671875,-400000.0625,-16212.26953125,-400000.0625,-6416.75,-400000.0625
114.66372537612915,-400000.0625,-6781.2001953125,-4426.47998046875,-400000.0625,-16221.8095703125,-400000.0625,-6422.3798828125,-400000.0625
114.67196369171143,-400000.0625,-6780.81982421875,-4423.08984375,-400000.0625,-16219.4296875,-400000.0625,-6425.81005859375,-400000.0625
114.6825430393219,-400000.0625,-6774.47021484375,-4414.85009765625,-400000.0625,-16211.6103515625,-400000.0625,-6420.419921875,-400000.0625
114.69073605537415,-400000.0625,-6770.22998046875,-4415.22998046875,-400000.0625,-16211.1298828125,-400000.0625,-6416.1298828125,-400000.0625
114.69795894622803,-400000.0625,-6779.0498046875,-4421.43017578125,-400000.0625,-16212.509765625,-400000.0625,-6426.14013671875,-400000.0625
114.70882773399353,-400000.0625,-6790.72998046875,-4429.77001953125,-400000.0625,-16217.1396484375,-400000.0625,-6433.2001953125,-400000.0625
114.71822738647461,-400000.0625,-6789.2998046875,-4428.9599609375,-400000.0625,-16219.4296875,-400000.0625,-6426.3798828125,-400000.0625
114.73267221450806,-400000.0625,-6778.43017578125,-4420.60986328125,-400000.0625,-16208.98046875,-400000.0625,-6415.31982421875,-400000.0625
114.74675607681274,-400000.0625,-6775.18994140625,-4414.02978515625,-400000.0625,-16209.9404296875,-400000.0625,-6412.97998046875,-400000.0625
114.75447201728821,-400000.0625,-6780.9599609375,-4423.56982421875,-400000.0625,-16215.7998046875,-400000.0625,-6423.27978515625,-400000.0625
114.76180028915405,-400000.0625,-6782.33984375,-4425.669921875,-400000.0625,-16218.1396484375,-400000.0625,-6433.14990234375,-400000.0625
114.76937627792358,-400000.0625,-6776.0498046875,-4421.0400390625,-400000.0625,-16216.330078125,-400000.0625,-6422.3798828125,-400000.0625
114.78222012519836,-400000.0625,-6769.85009765625,-4410.740234375,-400000.0625,-16206.9296875,-400000.0625,-6412.64990234375,-400000.0625
114.7899796962738,-400000.0625,-6769.56005859375,-4408.41015625,-400000.0625,-16203.6396484375,-400000.0625,-6409.169921875,-400000.0625
114.79728889465332,-400000.0625,-6780.33984375,-4420.759765625,-400000.0625,-16213.3203125,-400000.0625,-6421.419921875,-400000.0625
114.808420419693,-400000.0625,-6779.52978515625,-4419.9501953125,-400000.0625,-16213.23046875,-400000.0625,-6430.580078125,-400000.0625
114.82203507423401,-400000.0625,-6780.580078125,-4421.52001953125,-400000.0625,-16214.7998046875,-400000.0625,-6426.91015625,-400000.0625
114.83593392372131,-400000.0625,-6773.0,-4412.3701171875,-400000.0625,-16210.3203125,-400000.0625,-6413.990234375,-400000.0625
114.8467583656311,-400000.0625,-6764.1298828125,-4406.06982421875,-400000.0625,-16204.169921875,-400000.0625,-6411.64990234375,-400000.0625
114.8553032875061,-400000.0625,-6776.2900390625,-4417.93994140625,-400000.0625,-16212.419921875,-400000.0625,-6424.0,-400000.0625
114.86309003829956,-400000.0625,-6788.10986328125,-4431.009765625,-400000.0625,-16217.759765625,-400000.0625,-6427.0,-400000.0625
114.87094306945801,-400000.0625,-6779.6201171875,-4424.0,-400000.0625,-16211.9404296875,-400000.0625,-6421.759765625,-400000.0625
114.8834662437439,-400000.0625,-6768.31982421875,-4410.93017578125,-400000.0625,-16201.2099609375,-400000.0625,-6418.56005859375,-400000.0625
114.8917326927185,-400000.0625,-6770.47021484375,-4410.7900390625,-400000.0625,-16201.5,-400000.0625,-6413.990234375,-400000.0625
114.90304851531982,-400000.0625,-6775.81005859375,-4417.7998046875,-400000.0625,-16205.5498046875,-400000.0625,-6418.93994140625,-400000.0625
114.91636419296265,-400000.0625,-6780.240234375,-4424.3798828125,-400000.0625,-16216.4697265625,-400000.0625,-6431.009765625,-400000.0625
114.9250762462616,-400000.0625,-6779.81005859375,-4420.9501953125,-400000.0625,-16213.7998046875,-400000.0625,-6426.3798828125,-400000.0625
114.94086194038391,-400000.0625,-6773.47021484375,-4414.31982421875,-400000.0625,-16206.3603515625,-400000.0625,-6414.22021484375,-400000.0625
114.95212960243225,-400000.0625,-6768.31982421875,-4410.5498046875,-400000.0625,-16200.9697265625,-400000.0625,-6413.56005859375,-400000.0625
114.96074414253235,-400000.0625,-6778.240234375,-4418.419921875,-400000.0625,-16207.1201171875,-400000.0625,-6420.330078125,-400000.0625
114.96840524673462,-400000.0625,-6782.9599609375,-4423.669921875,-400000.0625,-16211.4599609375,-400000.0625,-6425.81005859375,-400000.0625
114.97912120819092,-400000.0625,-6779.77001953125,-4421.81005859375,-400000.0625,-16213.0400390625,-400000.0625,-6422.22998046875,-400000.0625
114.98741364479065,-400000.0625,-6773.81005859375,-4410.93017578125,-400000.0625,-16201.7802734375,-400000.0625,-6410.27001953125,-400000.0625
114.99560070037842,-400000.0625,-6770.08984375,-4407.02001953125,-400000.0625,-16204.9296875,-400000.0625,-6411.509765625,-400000.0625
115.00323581695557,-400000.0625,-6771.7099609375,-4415.75,-400000.0625,-16210.3701171875,-400000.0625,-6423.08984375,-400000.0625
115.01499629020691,-400000.0625,-6784.43994140625,-4422.85986328125,-400000.0625,-16216.5703125,-400000.0625,-6428.52978515625,-400000.0625
115.02367854118347,-400000.0625,-6781.72021484375,-4416.0400390625,-400000.0625,-16211.080078125,-400000.0625,-6422.6201171875,-400000.0625
115.03085279464722,-400000.0625,-6767.18017578125,-4405.06982421875,-400000.0625,-16196.1103515625,-400000.0625,-6415.64990234375,-400000.0625
115.05100965499878,-400000.0625,-6764.83984375,-4406.2099609375,-400000.0625,-16198.2099609375,-400000.0625,-6416.080078125,-400000.0625
115.05937767028809,-400000.0625,-6775.85986328125,-4416.75,-400000.0625,-16208.3603515625,-400000.0625,-6421.7099609375,-400000.0625
115.06729674339294,-400000.0625,-6785.97021484375,-4423.2900390625,-400000.0625,-16213.4697265625,-400000.0625,-6426.0498046875,-400000.0625
115.07711982727051,-400000.0625,-6777.0498046875,-4417.27978515625,-400000.0625,-16214.900390625,-400000.0625,-6417.56005859375,-400000.0625
115.08512902259827,-400000.0625,-6767.419921875,-4407.5,-400000.0625,-16205.599609375,-400000.0625,-6412.7900390625,-400000.0625
115.09270977973938,-400000.0625,-6761.35986328125,-4401.490234375,-400000.0625,-16198.58984375,-400000.0625,-6413.83984375,-400000.0625
115.09964776039124,-400000.0625,-6769.3701171875,-4409.89013671875,-400000.0625,-16206.83984375,-400000.0625,-6421.0400390625,-400000.0625
115.11202645301819,-400000.0625,-6778.33984375,-4418.08984375,-400000.0625,-16209.990234375,-400000.0625,-6424.52001953125,-400000.0625
115.12099575996399,-400000.0625,-6775.52001953125,-4416.080078125,-400000.0625,-16203.01953125,-400000.0625,-6422.81005859375,-400000.0625
115.12918543815613,-400000.0625,-6765.4599609375,-4404.77978515625,-400000.0625,-16196.7802734375,-400000.0625,-6407.5498046875,-400000.0625
115.13719582557678,-400000.0625,-6762.41015625,-4400.43994140625,-400000.0625,-16192.76953125,-400000.0625,-6403.8798828125,-400000.0625
115.16228103637695,-400000.0625,-6771.18017578125,-4410.64990234375,-400000.0625,-16207.080078125,-400000.0625,-6417.93994140625,-400000.0625
115.16990351676941,-400000.0625,-6779.52978515625,-4417.85009765625,-400000.0625,-16214.66015625,-400000.0625,-6428.10009765625,-400000.0625
115.1812686920166,-400000.0625,-6775.08984375,-4414.4599609375,-400000.0625,-16209.650390625,-400000.0625,-6418.85009765625,-400000.0625
115.19009256362915,-400000.0625,-6762.31005859375,-4404.5,-400000.0625,-16197.9697265625,-400000.0625,-6409.02978515625,-400000.0625
115.19805216789246,-400000.0625,-6757.58984375,-4401.919921875,-400000.0625,-16194.150390625,-400000.0625,-6407.169921875,-400000.0625
115.20627951622009,-400000.0625,-6768.7998046875,-4410.080078125,-400000.0625,-16204.98046875,-400000.0625,-6414.1298828125,-400000.0625
115.21867322921753,-400000.0625,-6779.6201171875,-4417.93994140625,-400000.0625,-16213.4697265625,-400000.0625,-6415.22021484375,-400000.0625
115.22775530815125,-400000.0625,-6772.18994140625,-4411.97998046875,-400000.0625,-16207.2197265625,-400000.0625,-6412.22021484375,-400000.0625
115.23528623580933,-400000.0625,-6758.830078125,-4399.06005859375,-400000.0625,-16193.8203125,-400000.0625,-6406.259765625,-400000.0625
115.24929642677307,-400000.0625,-6749.580078125,-4390.91015625,-400000.0625,-16189.3896484375,-400000.0625,-6399.81982421875,-400000.0625
115.26383519172668,-400000.0625,-6764.89013671875,-4404.39990234375,-400000.0625,-16199.400390625,-400000.0625,-6413.41015625,-400000.0625
115.27165079116821,-400000.0625,-6778.52978515625,-4416.22998046875,-400000.0625,-16204.4501953125,-400000.0625,-6420.60986328125,-400000.0625
115.28134369850159,-400000.0625,-6771.330078125,-4412.509765625,-400000.0625,-16204.5498046875,-400000.0625,-6417.93994140625,-400000.0625
115.2896842956543,-400000.0625,-6761.27001953125,-4399.2998046875,-400000.0625,-16197.01953125,-400000.0625,-6413.22021484375,-400000.0625
115.29765915870667,-400000.0625,-6761.64990234375,-4398.009765625,-400000.0625,-16194.8203125,-400000.0625,-6408.83984375,-400000.0625
115.30561518669128,-400000.0625,-6769.60986328125,-4408.06982421875,-400000.0625,-16199.400390625,-400000.0625,-6417.31982421875,-400000.0625
115.31503772735596,-400000.0625,-6774.0,-4413.75,-400000.0625,-16199.4501953125,-400000.0625,-6423.27978515625,-400000.0625
115.32340383529663,-400000.0625,-6773.08984375,-4414.31982421875,-400000.0625,-16206.080078125,-400000.0625,-6420.66015625,-400000.0625
115.33090806007385,-400000.0625,-6767.080078125,-4405.58984375,-400000.0625,-16199.830078125,-400000.0625,-6410.740234375,-400000.0625
115.34123945236206,-400000.0625,-6764.3701171875,-4404.06982421875,-400000.0625,-16195.3896484375,-400000.0625,-6404.64013671875,-400000.0625
115.35035371780396,-400000.0625,-6769.27978515625,-4409.02978515625,-400000.0625,-16200.5,-400000.0625,-6413.41015625,-400000.0625
115.36526226997375,-400000.0625,-6778.47998046875,-4418.14013671875,-400000.0625,-16207.599609375,-400000.0625,-6423.85986328125,-400000.0625
115.37505054473877,-400000.0625,-6771.3701171875,-4413.31982421875,-400000.0625,-16202.6396484375,-400000.0625,-6423.240234375,-400000.0625
115.38671445846558,-400000.0625,-6757.93017578125,-4399.81982421875,-400000.0625,-16195.8701171875,-400000.0625,-6414.75,-400000.0625
115.39533591270447,-400000.0625,-6759.259765625,-4396.919921875,-400000.0625,-16188.8603515625,-400000.0625,-6411.7001953125,-400000.0625
115.40212321281433,-400000.0625,-6771.990234375,-4409.7900390625,-400000.0625,-16197.4404296875,-400000.0625,-6415.60986328125,-400000.0625
115.41660904884338,-400000.0625,-6778.3798828125,-4413.56005859375,-400000.0625,-16205.0302734375,-400000.0625,-6427.18994140625,-400000.0625
115.42434191703796,-400000.0625,-6778.2900390625,-4415.080078125,-400000.0625,-16205.83984375,-400000.0625,-6420.0400390625,-400000.0625
115.43161392211914,-400000.0625,-6768.56005859375,-4405.5498046875,-400000.0625,-16196.25,-400000.0625,-6409.60009765625,-400000.0625
115.44360256195068,-400000.0625,-6759.5,-4398.580078125,-400000.0625,-16190.009765625,-400000.0625,-6411.02978515625,-400000.0625
115.45245933532715,-400000.0625,-6765.7998046875,-4404.2099609375,-400000.0625,-16190.2001953125,-400000.0625,-6416.3701171875,-400000.0625
115.4669361114502,-400000.0625,-6775.7099609375,-4408.93017578125,-400000.0625,-16195.8701171875,-400000.0625,-6421.7099609375,-400000.0625
115.47851610183716,-400000.0625,-6770.47021484375,-4405.93017578125,-400000.0625,-16199.4501953125,-400000.0625,-6418.66015625,-400000.0625
115.48633289337158,-400000.0625,-6760.22021484375,-4397.009765625,-400000.0625,-16191.33984375,-400000.0625,-6410.41015625,-400000.0625
115.49364113807678,-400000.0625,-6756.1201171875,-4391.240234375,-400000.0625,-16189.099609375,-400000.0625,-6409.06982421875,-400000.0625
115.50075721740723,-400000.0625,-6762.740234375,-4397.580078125,-400000.0625,-16193.919921875,-400000.0625,-6418.419921875,-400000.0625
115.51071238517761,-400000.0625,-6769.56005859375,-4405.830078125,-400000.0625,-16198.01953125,-400000.0625,-6426.0498046875,-400000.0625
115.5186517238617,-400000.0625,-6769.75,-4408.64990234375,-400000.0625,-16196.5400390625,-400000.0625,-6417.93994140625,-400000.0625
115.5267562866211,-400000.0625,-6763.169921875,-4401.97021484375,-400000.0625,-16190.33984375,-400000.0625,-6410.97998046875,-400000.0625
115.5337393283844,-400000.0625,-6758.64013671875,-4395.2001953125,-400000.0625,-16183.4697265625,-400000.0625,-6410.27001953125,-400000.0625
115.54816055297852,-400000.0625,-6764.02978515625,-4401.8798828125,-400000.0625,-16189.6201171875,-400000.0625,-6418.7998046875,-400000.0625
115.55583095550537,-400000.0625,-6772.89990234375,-4410.7900390625,-400000.0625,-16203.259765625,-400000.0625,-6426.85986328125,-400000.0625
115.56891012191772,-400000.0625,-6773.0,-4409.02978515625,-400000.0625,-16201.5498046875,-400000.0625,-6422.89990234375,-400000.0625
115.5798590183258,-400000.0625,-6762.93017578125,-4403.58984375,-400000.0625,-16194.150390625,-400000.0625,-6412.509765625,-400000.0625
115.5890383720398,-400000.0625,-6761.41015625,-4400.02001953125,-400000.0625,-16191.580078125,-400000.0625,-6416.509765625,-400000.0625
115.59678864479065,-400000.0625,-6771.9501953125,-4407.93017578125,-400000.0625,-16196.58984375,-400000.0625,-6429.77001953125,-400000.0625
115.60526299476624,-400000.0625,-6780.33984375,-4413.83984375,-400000.0625,-16200.0703125,-400000.0625,-6432.490234375,-400000.0625
115.6144106388092,-400000.0625,-6774.0,-4409.60009765625,-400000.0625,-16194.76953125,-400000.0625,-6427.72021484375,-400000.0625
115.62212085723877,-400000.0625,-6762.7001953125,-4398.8701171875,-400000.0625,-16185.8603515625,-400000.0625,-6417.27978515625,-400000.0625
115.63525462150574,-400000.0625,-6770.22998046875,-4416.419921875,-400000.0625,-16189.3896484375,-400000.0625,-6413.75,-400000.0625
115.63598108291626,-400000.0625,-6774.6201171875,-4424.47998046875,-400000.0625,-16198.16015625,-400000.0625,-6420.759765625,-400000.0625
115.63601183891296,-400000.0625,-6802.60986328125,-4473.35009765625,-400000.0625,-16226.48046875,-400000.0625,-6423.52001953125,-400000.0625
115.63602638244629,-400000.0625,-6795.169921875,-4469.2001953125,-400000.0625,-16223.5302734375,-400000.0625,-6414.93994140625,-400000.0625
115.636057138443,-400000.0625,-6783.2001953125,-4460.759765625,-400000.0625,-16214.7998046875,-400000.0625,-6403.16015625,-400000.0625
115.63607788085938,-400000.0625,-6792.97998046875,-4463.9599609375,-400000.0625,-16215.2802734375,-400000.0625,-6408.97998046875,-400000.0625
115.63608884811401,-400000.0625,-6806.66015625,-4474.68994140625,-400000.0625,-16225.6298828125,-400000.0625,-6420.08984375,-400000.0625
115.63609480857849,-400000.0625,-6807.52001953125,-4478.97998046875,-400000.0625,-16233.400390625,-400000.0625,-6430.72021484375,-400000.0625
115.63610029220581,-400000.0625,-6804.419921875,-4471.68017578125,-400000.0625,-16225.8603515625,-400000.0625,-6423.330078125,-400000.0625
115.63610625267029,-400000.0625,-6799.56005859375,-4468.97021484375,-400000.0625,-16223.9599609375,-400000.0625,-6409.02978515625,-400000.0625
115.63611149787903,-400000.0625,-6796.35986328125,-4469.72998046875,-400000.0625,-16221.3798828125,-400000.0625,-6408.06982421875,-400000.0625
115.63611698150635,-400000.0625,-6802.1298828125,-4473.64013671875,-400000.0625,-16219.9501953125,-400000.0625,-6420.47021484375,-400000.0625
115.63612270355225,-400000.0625,-6806.47021484375,-4475.8798828125,-400000.0625,-16220.6201171875,-400000.0625,-6422.85009765625,-400000.0625
115.63612794876099,-400000.0625,-6795.97998046875,-4469.25,-400000.0625,-16220.759765625,-400000.0625,-6414.990234375,-400000.0625
115.63613319396973,-400000.0625,-6793.68994140625,-4465.6298828125,-400000.0625,-16228.8701171875,-400000.0625,-6409.22021484375,-400000.0625
115.63613867759705,-400000.0625,-6795.4501953125,-4469.58984375,-400000.0625,-16226.9599609375,-400000.0625,-6414.22021484375,-400000.0625
115.63614392280579,-400000.0625,-6802.85009765625,-4477.60009765625,-400000.0625,-16229.919921875,-400000.0625,-6424.18994140625,-400000.0625
115.6361494064331,-400000.0625,-6809.759765625,-4482.31982421875,-400000.0625,-16233.400390625,-400000.0625,-6421.18994140625,-400000.0625
115.63615465164185,-400000.0625,-6800.080078125,-4475.93017578125,-400000.0625,-16224.3896484375,-400000.0625,-6410.06982421875,-400000.0625
115.636159658432,-400000.0625,-6789.5400390625,-4466.580078125,-400000.0625,-16211.419921875,-400000.0625,-6405.77978515625,-400000.0625
115.63616466522217,-400000.0625,-6798.31982421875,-4472.77978515625,-400000.0625,-16218.66015625,-400000.0625,-6409.64990234375,-400000.0625
115.63617014884949,-400000.0625,-6811.9501953125,-4485.31982421875,-400000.0625,-16228.6298828125,-400000.0625,-6415.4599609375,-400000.0625
115.6361756324768,-400000.0625,-6809.6201171875,-4486.7998046875,-400000.0625,-16233.6396484375,-400000.0625,-6423.89990234375,-400000.0625
115.63618087768555,-400000.0625,-6804.75,-4480.169921875,-400000.0625,-16230.0595703125,-400000.0625,-6420.18017578125,-400000.0625
115.63618588447571,-400000.0625,-6794.22021484375,-4469.72998046875,-400000.0625,-16222.9599609375,-400000.0625,-6409.259765625,-400000.0625
115.63619089126587,-400000.0625,-6797.35986328125,-4472.64013671875,-400000.0625,-16222.669921875,-400000.0625,-6411.35986328125,-400000.0625
115.63619637489319,-400000.0625,-6808.6201171875,-4483.080078125,-400000.0625,-16224.48046875,-400000.0625,-6420.52001953125,-400000.0625
115.63620138168335,-400000.0625,-6812.3798828125,-4485.75,-400000.0625,-16224.2001953125,-400000.0625,-6426.0498046875,-400000.0625
115.63620662689209,-400000.0625,-6806.22998046875,-4477.740234375,-400000.0625,-16223.150390625,-400000.0625,-6425.0498046875,-400000.0625
115.63621163368225,-400000.0625,-6800.75,-4472.64013671875,-400000.0625,-16219.9501953125,-400000.0625,-6417.990234375,-400000.0625
115.63621711730957,-400000.0625,-6796.64990234375,-4472.919921875,-400000.0625,-16218.900390625,-400000.0625,-6418.7099609375,-400000.0625
115.63622236251831,-400000.0625,-6805.75,-4479.97998046875,-400000.0625,-16226.8701171875,-400000.0625,-6427.72021484375,-400000.0625
115.63622760772705,-400000.0625,-6806.89990234375,-4477.68994140625,-400000.0625,-16226.099609375,-400000.0625,-6431.580078125,-400000.0625
115.63623356819153,-400000.0625,-6798.83984375,-4476.02001953125,-400000.0625,-16223.150390625,-400000.0625,-6425.18994140625,-400000.0625
115.63623881340027,-400000.0625,-6799.64990234375,-4471.8701171875,-400000.0625,-16219.8095703125,-400000.0625,-6414.3701171875,-400000.0625
115.63624429702759,-400000.0625,-6797.35986328125,-4472.2998046875,-400000.0625,-16218.66015625,-400000.0625,-6411.97998046875,-400000.0625
115.63624954223633,-400000.0625,-6804.08984375,-4478.83984375,-400000.0625,-16224.5302734375,-400000.0625,-6427.81005859375,-400000.0625
115.63625478744507,-400000.0625,-6810.08984375,-4481.75,-400000.0625,-16226.8701171875,-400000.0625,-6433.10986328125,-400000.0625
115.63626027107239,-400000.0625,-6802.27001953125,-4473.64013671875,-400000.0625,-16219.5703125,-400000.0625,-6423.66015625,-400000.0625
115.63626527786255,-400000.0625,-6795.259765625,-4465.14990234375,-400000.0625,-16210.1796875,-400000.0625,-6413.22021484375,-400000.0625
115.63627052307129,-400000.0625,-6799.7900390625,-4468.72998046875,-400000.0625,-16218.0,-400000.0625,-6418.89990234375,-400000.0625
115.63627576828003,-400000.0625,-6803.75,-4476.97998046875,-400000.0625,-16226.25,-400000.0625,-6433.33984375,-400000.0625
115.63628077507019,-400000.0625,-6803.56005859375,-4480.7001953125,-400000.0625,-16222.150390625,-400000.0625,-6429.39013671875,-400000.0625
115.63628602027893,-400000.0625,-6796.27001953125,-4473.58984375,-400000.0625,-16218.6201171875,-400000.0625,-6423.9501953125,-400000.0625
115.63629126548767,-400000.0625,-6792.16015625,-4465.68017578125,-400000.0625,-16218.849609375,-400000.0625,-6419.60986328125,-400000.0625
115.63629627227783,-400000.0625,-6799.75,-4466.10986328125,-400000.0625,-16217.0400390625,-400000.0625,-6416.4599609375,-400000.0625
115.636301279068,-400000.0625,-6803.85009765625,-4474.77978515625,-400000.0625,-16224.669921875,-400000.0625,-6421.9501953125,-400000.0625
115.63630652427673,-400000.0625,-6811.330078125,-4484.31982421875,-400000.0625,-16231.5400390625,-400000.0625,-6423.18994140625,-400000.0625
115.63631176948547,-400000.0625,-6803.27001953125,-4474.68994140625,-400000.0625,-16225.669921875,-400000.0625,-6415.7998046875,-400000.0625
115.63631701469421,-400000.0625,-6795.93017578125,-4469.8701171875,-400000.0625,-16218.0,-400000.0625,-6406.58984375,-400000.0625
115.6363217830658,-400000.0625,-6796.31005859375,-4469.81982421875,-400000.0625,-16221.6201171875,-400000.0625,-6412.35986328125,-400000.0625
115.63632822036743,-400000.0625,-6800.7001953125,-4474.58984375,-400000.0625,-16226.7197265625,-400000.0625,-6421.89990234375,-400000.0625
115.63633370399475,-400000.0625,-6805.0400390625,-4479.35986328125,-400000.0625,-16230.3896484375,-400000.0625,-6426.43017578125,-400000.0625
115.63633894920349,-400000.0625,-6801.990234375,-4474.06982421875,-400000.0625,-16223.150390625,-400000.0625,-6417.60986328125,-400000.0625
115.63634395599365,-400000.0625,-6794.02001953125,-4466.39013671875,-400000.0625,-16226.48046875,-400000.0625,-6405.16015625,-400000.0625
115.63634943962097,-400000.0625,-6792.5,-4467.43994140625,-400000.0625,-16226.150390625,-400000.0625,-6409.740234375,-400000.0625
115.63635444641113,-400000.0625,-6800.56005859375,-4475.35986328125,-400000.0625,-16227.4404296875,-400000.0625,-6420.52001953125,-400000.0625
115.6363594532013,-400000.0625,-6806.47021484375,-4481.169921875,-400000.0625,-16229.76953125,-400000.0625,-6425.47998046875,-400000.0625
115.63636445999146,-400000.0625,-6800.3701171875,-4475.16015625,-400000.0625,-16232.1103515625,-400000.0625,-6415.56005859375,-400000.0625
115.63636994361877,-400000.0625,-6794.06982421875,-4467.68017578125,-400000.0625,-16222.9599609375,-400000.0625,-6405.68994140625,-400000.0625
115.63637495040894,-400000.0625,-6796.5,-4469.5400390625,-400000.0625,-16224.240234375,-400000.0625,-6409.31005859375,-400000.0625
115.6363799571991,-400000.0625,-6798.080078125,-4473.02001953125,-400000.0625,-16222.0498046875,-400000.0625,-6419.419921875,-400000.0625
115.63638520240784,-400000.0625,-6806.9501953125,-4479.93017578125,-400000.0625,-16228.5302734375,-400000.0625,-6423.56982421875,-400000.0625
115.636390209198,-400000.0625,-6806.47021484375,-4481.64990234375,-400000.0625,-16240.6904296875,-400000.0625,-6422.330078125,-400000.0625
115.63639545440674,-400000.0625,-6795.60009765625,-4466.9599609375,-400000.0625,-16226.25,-400000.0625,-6412.7001953125,-400000.0625
115.6364004611969,-400000.0625,-6797.41015625,-4470.2099609375,-400000.0625,-16226.33984375,-400000.0625,-6408.5498046875,-400000.0625
115.63640570640564,-400000.0625,-6804.31982421875,-4479.64990234375,-400000.0625,-16235.349609375,-400000.0625,-6419.3701171875,-400000.0625
115.63641095161438,-400000.0625,-6803.31982421875,-4478.169921875,-400000.0625,-16239.169921875,-400000.0625,-6424.240234375,-400000.0625
115.63641619682312,-400000.0625,-6793.4501953125,-4469.490234375,-400000.0625,-16228.5302734375,-400000.0625,-6416.66015625,-400000.0625
115.63642120361328,-400000.0625,-6787.43994140625,-4463.2001953125,-400000.0625,-16216.419921875,-400000.0625,-6409.06982421875,-400000.0625
115.63642621040344,-400000.0625,-6789.2099609375,-4463.72021484375,-400000.0625,-16216.330078125,-400000.0625,-6414.080078125,-400000.0625
115.63643145561218,-400000.0625,-6807.85009765625,-4480.4599609375,-400000.0625,-16229.76953125,-400000.0625,-6419.27978515625,-400000.0625
115.63643670082092,-400000.0625,-6812.18994140625,-4483.89013671875,-400000.0625,-16235.8798828125,-400000.0625,-6424.52001953125,-400000.0625
115.63644218444824,-400000.0625,-6798.7900390625,-4474.02001953125,-400000.0625,-16227.5302734375,-400000.0625,-6418.60986328125,-400000.0625
115.6364471912384,-400000.0625,-6795.4501953125,-4469.490234375,-400000.0625,-16226.009765625,-400000.0625,-6411.60009765625,-400000.0625
115.63645243644714,-400000.0625,-6797.83984375,-4471.8701171875,-400000.0625,-16228.6298828125,-400000.0625,-6414.27001953125,-400000.0625
115.63645768165588,-400000.0625,-6802.509765625,-4478.8798828125,-400000.0625,-16230.9697265625,-400000.0625,-6423.85986328125,-400000.0625
115.6364631652832,-400000.0625,-6809.56982421875,-4486.419921875,-400000.0625,-16234.5400390625,-400000.0625,-6427.85986328125,-400000.0625
115.63646793365479,-400000.0625,-6801.419921875,-4479.64990234375,-400000.0625,-16230.490234375,-400000.0625,-6420.66015625,-400000.0625
115.63647317886353,-400000.0625,-6798.27001953125,-4473.64013671875,-400000.0625,-16228.919921875,-400000.0625,-6413.02978515625,-400000.0625
115.63647842407227,-400000.0625,-6799.02978515625,-4475.77978515625,-400000.0625,-16227.76953125,-400000.0625,-6412.509765625,-400000.0625
115.63648390769958,-400000.0625,-6804.89990234375,-4481.1298828125,-400000.0625,-16231.349609375,-400000.0625,-6423.18994140625,-400000.0625
115.6364893913269,-400000.0625,-6811.91015625,-4487.85009765625,-400000.0625,-16236.6396484375,-400000.0625,-6425.330078125,-400000.0625
115.63649463653564,-400000.0625,-6800.75,-4480.5498046875,-400000.0625,-16233.01953125,-400000.0625,-6418.75,-400000.0625
115.6364996433258,-400000.0625,-6789.72998046875,-4472.2998046875,-400000.0625,-16225.6298828125,-400000.0625,-6413.509765625,-400000.0625
115.63650488853455,-400000.0625,-6797.93017578125,-4472.830078125,-400000.0625,-16226.9599609375,-400000.0625,-6416.4599609375,-400000.0625
115.6365098953247,-400000.0625,-6806.22998046875,-4481.75,-400000.0625,-16234.259765625,-400000.0625,-6424.330078125,-400000.0625
115.63651537895203,-400000.0625,-6806.7998046875,-4487.60986328125,-400000.0625,-16235.7802734375,-400000.0625,-6425.91015625,-400000.0625
115.63652014732361,-400000.0625,-6804.85009765625,-4484.1298828125,-400000.0625,-16231.1103515625,-400000.0625,-6418.0400390625,-400000.0625
115.63652539253235,-400000.0625,-6796.7900390625,-4473.77978515625,-400000.0625,-16225.91015625,-400000.0625,-6409.93017578125,-400000.0625
115.63653063774109,-400000.0625,-6793.93017578125,-4473.97021484375,-400000.0625,-16226.009765625,-400000.0625,-6414.02978515625,-400000.0625
115.63653564453125,-400000.0625,-6800.509765625,-4482.7001953125,-400000.0625,-16234.1103515625,-400000.0625,-6418.89990234375,-400000.0625
115.63654065132141,-400000.0625,-6801.93994140625,-4482.60009765625,-400000.0625,-16232.5400390625,-400000.0625,-6424.85986328125,-400000.0625
115.63654565811157,-400000.0625,-6801.7998046875,-4476.39990234375,-400000.0625,-16226.48046875,-400000.0625,-6419.0400390625,-400000.0625
115.63655114173889,-400000.0625,-6794.169921875,-4470.06005859375,-400000.0625,-16222.0,-400000.0625,-6411.41015625,-400000.0625
115.63655638694763,-400000.0625,-6792.64013671875,-4471.77978515625,-400000.0625,-16224.7197265625,-400000.0625,-6414.27001953125,-400000.0625
115.6365613937378,-400000.0625,-6805.1298828125,-4478.93017578125,-400000.0625,-16228.76953125,-400000.0625,-6423.81005859375,-400000.0625
115.63656687736511,-400000.0625,-6815.33984375,-4486.85009765625,-400000.0625,-16234.58984375,-400000.0625,-6427.9599609375,-400000.0625
115.63657188415527,-400000.0625,-6804.1298828125,-4479.68994140625,-400000.0625,-16232.830078125,-400000.0625,-6424.759765625,-400000.0625
115.63657689094543,-400000.0625,-6799.60009765625,-4475.5498046875,-400000.0625,-16229.349609375,-400000.0625,-6420.759765625,-400000.0625
115.63658237457275,-400000.0625,-6801.4599609375,-4480.080078125,-400000.0625,-16230.009765625,-400000.0625,-6419.47021484375,-400000.0625
115.63658714294434,-400000.0625,-6804.18017578125,-4484.27001953125,-400000.0625,-16229.580078125,-400000.0625,-6425.0498046875,-400000.0625
115.63659238815308,-400000.0625,-6804.990234375,-4487.08984375,-400000.0625,-16233.5400390625,-400000.0625,-6432.72021484375,-400000.0625
115.63659763336182,-400000.0625,-6801.1298828125,-4479.27001953125,-400000.0625,-16228.8203125,-400000.0625,-6422.85009765625,-400000.0625
115.63660287857056,-400000.0625,-6792.97998046875,-4466.490234375,-400000.0625,-16221.2900390625,-400000.0625,-6414.02978515625,-400000.0625
115.63660788536072,-400000.0625,-6799.509765625,-4469.39990234375,-400000.0625,-16222.91015625,-400000.0625,-6420.419921875,-400000.0625
115.63661289215088,-400000.0625,-6806.7099609375,-4480.22021484375,-400000.0625,-16232.25,-400000.0625,-6430.33984375,-400000.0625
115.63661789894104,-400000.0625,-6814.33984375,-4489.9501953125,-400000.0625,-16242.4599609375,-400000.0625,-6434.06005859375,-400000.0625
115.63662314414978,-400000.0625,-6807.60986328125,-4481.97998046875,-400000.0625,-16233.16015625,-400000.0625,-6428.43017578125,-400000.0625
115.63662815093994,-400000.0625,-6795.5498046875,-4473.16015625,-400000.0625,-16223.5302734375,-400000.0625,-6420.990234375,-400000.0625
115.6366331577301,-400000.0625,-6796.64990234375,-4472.490234375,-400000.0625,-16224.3896484375,-400000.0625,-6420.14013671875,-400000.0625
115.63663840293884,-400000.0625,-6803.31982421875,-4482.169921875,-400000.0625,-16231.490234375,-400000.0625,-6434.25,-400000.0625
115.63664364814758,-400000.0625,-6811.91015625,-4485.22998046875,-400000.0625,-16230.5400390625,-400000.0625,-6437.77978515625,-400000.0625
115.63664889335632,-400000.0625,-6808.7099609375,-4477.1201171875,-400000.0625,-16227.150390625,-400000.0625,-6428.77001953125,-400000.0625
115.63665413856506,-400000.0625,-6793.740234375,-4467.10986328125,-400000.0625,-16225.5302734375,-400000.0625,-6421.27978515625,-400000.0625
115.63665914535522,-400000.0625,-6796.22021484375,-4469.68017578125,-400000.0625,-16227.2001953125,-400000.0625,-6425.669921875,-400000.0625
115.63666415214539,-400000.0625,-6801.7001953125,-4478.97998046875,-400000.0625,-16231.400390625,-400000.0625,-6435.58984375,-400000.0625
115.63666915893555,-400000.0625,-6809.85986328125,-4485.89013671875,-400000.0625,-16235.9697265625,-400000.0625,-6436.43994140625,-400000.0625
115.63667464256287,-400000.0625,-6798.60009765625,-4473.2099609375,-400000.0625,-16231.0595703125,-400000.0625,-6429.39013671875,-400000.0625
115.63667941093445,-400000.0625,-6795.259765625,-4467.490234375,-400000.0625,-16228.76953125,-400000.0625,-6420.18017578125,-400000.0625
115.63668441772461,-400000.0625,-6794.93017578125,-4471.830078125,-400000.0625,-16225.150390625,-400000.0625,-6419.9501953125,-400000.0625
115.63668966293335,-400000.0625,-6806.56982421875,-4483.18017578125,-400000.0625,-16224.8603515625,-400000.0625,-6427.3798828125,-400000.0625
115.63669466972351,-400000.0625,-6810.0498046875,-4485.85009765625,-400000.0625,-16239.650390625,-400000.0625,-6434.72998046875,-400000.0625
115.63670182228088,-400000.0625,-6798.4599609375,-4476.5,-400000.0625,-16234.349609375,-400000.0625,-6427.9599609375,-400000.0625
115.63670706748962,-400000.0625,-6793.97998046875,-4470.5400390625,-400000.0625,-16223.0,-400000.0625,-6414.27001953125,-400000.0625
115.63671207427979,-400000.0625,-6798.5498046875,-4470.10986328125,-400000.0625,-16222.240234375,-400000.0625,-6414.60009765625,-400000.0625
115.63671875,-400000.0625,-6801.990234375,-4476.60009765625,-400000.0625,-16232.7802734375,-400000.0625,-6420.7099609375,-400000.0625
115.63672423362732,-400000.0625,-6801.990234375,-4481.169921875,-400000.0625,-16236.400390625,-400000.0625,-6422.330078125,-400000.0625
115.63672924041748,-400000.0625,-6792.2099609375,-4470.830078125,-400000.0625,-16227.6796875,-400000.0625,-6414.7001953125,-400000.0625
115.6367347240448,-400000.0625,-6791.39990234375,-4465.580078125,-400000.0625,-16219.3798828125,-400000.0625,-6408.7900390625,-400000.0625
115.63673973083496,-400000.0625,-6801.509765625,-4476.8798828125,-400000.0625,-16221.9501953125,-400000.0625,-6411.1201171875,-400000.0625
115.63674473762512,-400000.0625,-6810.0,-4487.27978515625,-400000.0625,-16236.58984375,-400000.0625,-6424.18994140625,-400000.0625
115.63674974441528,-400000.0625,-6810.7099609375,-4489.89990234375,-400000.0625,-16239.0302734375,-400000.0625,-6429.14990234375,-400000.0625
115.63675498962402,-400000.0625,-6804.75,-4477.68994140625,-400000.0625,-16234.400390625,-400000.0625,-6420.52001953125,-400000.0625
115.63675999641418,-400000.0625,-6794.259765625,-4471.919921875,-400000.0625,-16234.1103515625,-400000.0625,-6408.41015625,-400000.0625
115.63676524162292,-400000.0625,-6795.02978515625,-4475.06982421875,-400000.0625,-16232.0595703125,-400000.0625,-6409.259765625,-400000.0625
115.63677048683167,-400000.0625,-6809.0400390625,-4488.27978515625,-400000.0625,-16235.349609375,-400000.0625,-6418.89990234375,-400000.0625
115.63677549362183,-400000.0625,-6810.9501953125,-4489.22998046875,-400000.0625,-16236.259765625,-400000.0625,-6420.3701171875,-400000.0625
115.63678050041199,-400000.0625,-6800.22021484375,-4480.31005859375,-400000.0625,-16232.919921875,-400000.0625,-6412.35986328125,-400000.0625
115.63678574562073,-400000.0625,-6790.97021484375,-4470.06005859375,-400000.0625,-16228.009765625,-400000.0625,-6404.2099609375,-400000.0625
115.63679122924805,-400000.0625,-6797.97998046875,-4475.8798828125,-400000.0625,-16231.490234375,-400000.0625,-6408.259765625,-400000.0625
115.63679671287537,-400000.0625,-6810.0,-4484.64990234375,-400000.0625,-16237.8798828125,-400000.0625,-6415.1298828125,-400000.0625
115.6368019580841,-400000.0625,-6809.14013671875,-4485.7998046875,-400000.0625,-16242.4599609375,-400000.0625,-6423.0400390625,-400000.0625
115.63680720329285,-400000.0625,-6801.1298828125,-4483.080078125,-400000.0625,-16235.5400390625,-400000.0625,-6417.3701171875,-400000.0625
115.63681221008301,-400000.0625,-6795.02978515625,-4478.02978515625,-400000.0625,-16226.009765625,-400000.0625,-6408.5498046875,-400000.0625
115.63681745529175,-400000.0625,-6799.93994140625,-4479.68994140625,-400000.0625,-16226.2900390625,-400000.0625,-6412.27001953125,-400000.0625
115.63682246208191,-400000.0625,-6809.89990234375,-4486.60986328125,-400000.0625,-16234.4501953125,-400000.0625,-6419.60986328125,-400000.0625
115.63682770729065,-400000.0625,-6811.18994140625,-4487.27978515625,-400000.0625,-16246.6103515625,-400000.0625,-6424.27978515625,-400000.0625
115.63683295249939,-400000.0625,-6802.1298828125,-4481.1298828125,-400000.0625,-16236.7802734375,-400000.0625,-6417.56005859375,-400000.0625
115.63683843612671,-400000.0625,-6791.259765625,-4471.97021484375,-400000.0625,-16224.76953125,-400000.0625,-6407.2099609375,-400000.0625
115.63684344291687,-400000.0625,-6796.83984375,-4475.39990234375,-400000.0625,-16230.6298828125,-400000.0625,-6408.41015625,-400000.0625
115.63684892654419,-400000.0625,-6814.0,-4486.85009765625,-400000.0625,-16238.6396484375,-400000.0625,-6420.7099609375,-400000.0625
115.63685417175293,-400000.0625,-6823.25,-4494.9501953125,-400000.0625,-16243.3603515625,-400000.0625,-6424.6201171875,-400000.0625
115.63685965538025,-400000.0625,-6807.14013671875,-4484.4599609375,-400000.0625,-16242.4599609375,-400000.0625,-6419.85009765625,-400000.0625
115.63686466217041,-400000.0625,-6794.740234375,-4474.35009765625,-400000.0625,-16230.5400390625,-400000.0625,-6413.83984375,-400000.0625
115.63686990737915,-400000.0625,-6800.4599609375,-4477.4501953125,-400000.0625,-16234.58984375,-400000.0625,-6409.22021484375,-400000.0625
115.63687491416931,-400000.0625,-6811.47998046875,-4485.31982421875,-400000.0625,-16243.26953125,-400000.0625,-6415.509765625,-400000.0625
115.63688015937805,-400000.0625,-6811.18994140625,-4481.4599609375,-400000.0625,-16236.16015625,-400000.0625,-6417.66015625,-400000.0625
115.63688540458679,-400000.0625,-6799.97998046875,-4474.5498046875,-400000.0625,-16230.8701171875,-400000.0625,-6415.64990234375,-400000.0625
115.63689064979553,-400000.0625,-6792.1201171875,-4468.72998046875,-400000.0625,-16231.8203125,-400000.0625,-6400.16015625,-400000.0625
115.6368956565857,-400000.0625,-6795.1201171875,-4471.10986328125,-400000.0625,-16232.919921875,-400000.0625,-6397.2001953125,-400000.0625
115.63690090179443,-400000.0625,-6802.7998046875,-4479.89013671875,-400000.0625,-16236.8798828125,-400000.0625,-6418.419921875,-400000.0625
115.63690614700317,-400000.0625,-6814.18994140625,-4490.66015625,-400000.0625,-16242.650390625,-400000.0625,-6422.47021484375,-400000.0625
115.6369116306305,-400000.0625,-6809.89990234375,-4481.7001953125,-400000.0625,-16232.58984375,-400000.0625,-6412.83984375,-400000.0625
115.63691711425781,-400000.0625,-6799.080078125,-4470.43994140625,-400000.0625,-16219.759765625,-400000.0625,-6405.5498046875,-400000.0625
115.63692235946655,-400000.0625,-6794.64013671875,-4471.02001953125,-400000.0625,-16229.25,-400000.0625,-6408.169921875,-400000.0625
115.6369276046753,-400000.0625,-6802.18017578125,-4478.06982421875,-400000.0625,-16240.1201171875,-400000.0625,-6415.31982421875,-400000.0625
115.63693284988403,-400000.0625,-6810.52001953125,-4482.41015625,-400000.0625,-16244.169921875,-400000.0625,-6420.419921875,-400000.0625
115.6369378566742,-400000.0625,-6801.22021484375,-4473.93017578125,-400000.0625,-16234.830078125,-400000.0625,-6412.7900390625,-400000.0625
115.63694334030151,-400000.0625,-6786.06005859375,-4463.39013671875,-400000.0625,-16224.3896484375,-400000.0625,-6407.259765625,-400000.0625
115.63694882392883,-400000.0625,-6794.830078125,-4470.35009765625,-400000.0625,-16230.2001953125,-400000.0625,-6408.02001953125,-400000.0625
115.636953830719,-400000.0625,-6804.22998046875,-4480.27001953125,-400000.0625,-16244.7001953125,-400000.0625,-6412.27001953125,-400000.0625
115.63695931434631,-400000.0625,-6811.0498046875,-4485.1298828125,-400000.0625,-16242.080078125,-400000.0625,-6415.31982421875,-400000.0625
115.63696432113647,-400000.0625,-6800.02978515625,-4476.97998046875,-400000.0625,-16234.0703125,-400000.0625,-6408.5498046875,-400000.0625
115.63696956634521,-400000.0625,-6783.68017578125,-4465.77001953125,-400000.0625,-16227.580078125,-400000.0625,-6399.919921875,-400000.0625
115.63697457313538,-400000.0625,-6792.64013671875,-4469.06005859375,-400000.0625,-16231.16015625,-400000.0625,-6398.490234375,-400000.0625
115.63698053359985,-400000.0625,-6803.22998046875,-4479.35986328125,-400000.0625,-16238.169921875,-400000.0625,-6409.41015625,-400000.0625
115.6369857788086,-400000.0625,-6803.31982421875,-4481.83984375,-400000.0625,-16242.4599609375,-400000.0625,-6413.27001953125,-400000.0625
115.63699126243591,-400000.0625,-6795.97998046875,-4475.259765625,-400000.0625,-16236.9296875,-400000.0625,-6409.97998046875,-400000.0625
115.63699626922607,-400000.0625,-6789.5400390625,-4471.919921875,-400000.0625,-16231.8203125,-400000.0625,-6408.41015625,-400000.0625
115.6370017528534,-400000.0625,-6793.7900390625,-4472.5400390625,-400000.0625,-16227.76953125,-400000.0625,-6405.06982421875,-400000.0625
115.63700675964355,-400000.0625,-6809.47021484375,-4483.4599609375,-400000.0625,-16236.1201171875,-400000.0625,-6414.83984375,-400000.0625
115.6370120048523,-400000.0625,-6814.14990234375,-4492.47021484375,-400000.0625,-16249.3701171875,-400000.0625,-6418.990234375,-400000.0625
115.63701701164246,-400000.0625,-6798.31982421875,-4478.259765625,-400000.0625,-16238.98046875,-400000.0625,-6411.1201171875,-400000.0625
115.63702249526978,-400000.0625,-6793.39990234375,-4471.10986328125,-400000.0625,-16232.4404296875,-400000.0625,-6398.39013671875,-400000.0625
115.63702774047852,-400000.0625,-6790.68994140625,-4472.4501953125,-400000.0625,-16233.5400390625,-400000.0625,-6405.77978515625,-400000.0625
115.63703465461731,-400000.0625,-6803.22998046875,-4481.509765625,-400000.0625,-16240.2197265625,-400000.0625,-6414.3701171875,-400000.0625
115.63703989982605,-400000.0625,-6809.9501953125,-4485.1298828125,-400000.0625,-16241.8896484375,-400000.0625,-6418.7099609375,-400000.0625
115.63704514503479,-400000.0625,-6801.990234375,-4477.68994140625,-400000.0625,-16233.400390625,-400000.0625,-6415.080078125,-400000.0625
115.63705039024353,-400000.0625,-6798.35986328125,-4471.830078125,-400000.0625,-16232.6396484375,-400000.0625,-6407.259765625,-400000.0625
115.63705563545227,-400000.0625,-6796.5498046875,-4476.740234375,-400000.0625,-16233.0595703125,-400000.0625,-6406.68994140625,-400000.0625
115.63706088066101,-400000.0625,-6806.759765625,-4485.080078125,-400000.0625,-16244.2197265625,-400000.0625,-6417.1298828125,-400000.0625
115.63706588745117,-400000.0625,-6813.52978515625,-4491.0400390625,-400000.0625,-16251.51953125,-400000.0625,-6420.47021484375,-400000.0625
115.63707113265991,-400000.0625,-6800.7998046875,-4482.4599609375,-400000.0625,-16239.5498046875,-400000.0625,-6413.7900390625,-400000.0625
115.63707613945007,-400000.0625,-6792.39990234375,-4474.77978515625,-400000.0625,-16231.8203125,-400000.0625,-6406.2099609375,-400000.0625
115.63708138465881,-400000.0625,-6797.97998046875,-4477.60009765625,-400000.0625,-16231.16015625,-400000.0625,-6411.60009765625,-400000.0625
115.6370861530304,-400000.0625,-6804.3701171875,-4484.1298828125,-400000.0625,-16235.58984375,-400000.0625,-6420.990234375,-400000.0625
115.63709163665771,-400000.0625,-6810.52001953125,-4486.66015625,-400000.0625,-16239.1201171875,-400000.0625,-6416.85009765625,-400000.0625
115.6370964050293,-400000.0625,-6804.0400390625,-4481.83984375,-400000.0625,-16237.2099609375,-400000.0625,-6410.64990234375,-400000.0625
115.63710188865662,-400000.0625,-6787.77978515625,-4468.97021484375,-400000.0625,-16232.5400390625,-400000.0625,-6405.06982421875,-400000.0625
115.63710689544678,-400000.0625,-6795.93017578125,-4475.2099609375,-400000.0625,-16233.490234375,-400000.0625,-6398.8701171875,-400000.0625
115.63711190223694,-400000.0625,-6812.330078125,-4488.08984375,-400000.0625,-16242.650390625,-400000.0625,-6411.740234375,-400000.0625
115.63711667060852,-400000.0625,-6809.3798828125,-4490.3798828125,-400000.0625,-16245.4599609375,-400000.0625,-6413.64990234375,-400000.0625
115.637122631073,-400000.0625,-6795.22021484375,-4483.31982421875,-400000.0625,-16239.6904296875,-400000.0625,-6410.7900390625,-400000.0625
115.63712739944458,-400000.0625,-6791.77978515625,-4480.5498046875,-400000.0625,-16237.9296875,-400000.0625,-6403.5400390625,-400000.0625
115.63713216781616,-400000.0625,-6798.1298828125,-4479.22021484375,-400000.0625,-16238.259765625,-400000.0625,-6405.1201171875,-400000.0625
115.6371374130249,-400000.0625,-6801.419921875,-4482.990234375,-400000.0625,-16242.5498046875,-400000.0625,-6410.5,-400000.0625
115.63714241981506,-400000.0625,-6805.47021484375,-4487.93994140625,-400000.0625,-16244.26953125,-400000.0625,-6406.2099609375,-400000.0625
115.63714742660522,-400000.0625,-6803.22998046875,-4480.27001953125,-400000.0625,-16240.2197265625,-400000.0625,-6399.72998046875,-400000.0625
115.6371521949768,-400000.0625,-6792.58984375,-4473.10986328125,-400000.0625,-16235.16015625,-400000.0625,-6399.10986328125,-400000.0625
115.63715767860413,-400000.0625,-6800.3701171875,-4481.27001953125,-400000.0625,-16238.5,-400000.0625,-6400.919921875,-400000.0625
115.63716268539429,-400000.0625,-6806.14013671875,-4485.7998046875,-400000.0625,-16241.740234375,-400000.0625,-6412.83984375,-400000.0625
115.63716769218445,-400000.0625,-6809.56982421875,-4490.14013671875,-400000.0625,-16245.8896484375,-400000.0625,-6414.83984375,-400000.0625
115.63717269897461,-400000.0625,-6799.41015625,-4482.27001953125,-400000.0625,-16241.41015625,-400000.0625,-6400.16015625,-400000.0625
115.63717746734619,-400000.0625,-6789.2998046875,-4471.58984375,-400000.0625,-16233.6396484375,-400000.0625,-6396.490234375,-400000.0625
115.63718247413635,-400000.0625,-6795.259765625,-4475.39990234375,-400000.0625,-16235.9296875,-400000.0625,-6400.68017578125,-400000.0625
115.63718724250793,-400000.0625,-6805.22998046875,-4486.1298828125,-400000.0625,-16244.4599609375,-400000.0625,-6413.64990234375,-400000.0625
115.63719248771667,-400000.0625,-6813.10009765625,-4494.240234375,-400000.0625,-16246.1796875,-400000.0625,-6412.5498046875,-400000.0625
115.63719725608826,-400000.0625,-6803.7998046875,-4484.4599609375,-400000.0625,-16238.5,-400000.0625,-6404.2099609375,-400000.0625
115.637202501297,-400000.0625,-6792.35986328125,-4477.06982421875,-400000.0625,-16237.2099609375,-400000.0625,-6402.5400390625,-400000.0625
115.63720750808716,-400000.0625,-6795.1201171875,-4478.7900390625,-400000.0625,-16237.8798828125,-400000.0625,-6405.4501953125,-400000.0625
115.63721299171448,-400000.0625,-6804.419921875,-4485.56005859375,-400000.0625,-16239.5,-400000.0625,-6415.75,-400000.0625
115.63721799850464,-400000.0625,-6810.56982421875,-4491.85009765625,-400000.0625,-16248.1796875,-400000.0625,-6422.7099609375,-400000.0625
115.63722324371338,-400000.0625,-6809.18994140625,-4488.47021484375,-400000.0625,-16246.26953125,-400000.0625,-6414.27001953125,-400000.0625
115.63722801208496,-400000.0625,-6798.02978515625,-4476.740234375,-400000.0625,-16238.0703125,-400000.0625,-6402.77978515625,-400000.0625
115.63723301887512,-400000.0625,-6797.740234375,-4481.35986328125,-400000.0625,-16239.599609375,-400000.0625,-6406.39990234375,-400000.0625
115.63723802566528,-400000.0625,-6811.10009765625,-4492.3798828125,-400000.0625,-16246.26953125,-400000.0625,-6414.83984375,-400000.0625
115.63724303245544,-400000.0625,-6813.0,-4493.27978515625,-400000.0625,-16249.849609375,-400000.0625,-6422.759765625,-400000.0625
115.63724827766418,-400000.0625,-6800.83984375,-4483.83984375,-400000.0625,-16242.740234375,-400000.0625,-6417.0400390625,-400000.0625
115.63725304603577,-400000.0625,-6795.1201171875,-4477.06982421875,-400000.0625,-16238.01953125,-400000.0625,-6405.31005859375,-400000.0625
115.6372582912445,-400000.0625,-6795.35986328125,-4476.35986328125,-400000.0625,-16244.4599609375,-400000.0625,-6408.740234375,-400000.0625
115.63726329803467,-400000.0625,-6806.7998046875,-4486.85009765625,-400000.0625,-16245.7998046875,-400000.0625,-6422.08984375,-400000.0625
115.63726854324341,-400000.0625,-6811.7099609375,-4489.7099609375,-400000.0625,-16248.3701171875,-400000.0625,-6426.85986328125,-400000.0625
115.63727355003357,-400000.0625,-6804.31982421875,-4480.7001953125,-400000.0625,-16243.3603515625,-400000.0625,-6415.64990234375,-400000.0625
115.63727855682373,-400000.0625,-6795.259765625,-4471.830078125,-400000.0625,-16238.6396484375,-400000.0625,-6407.169921875,-400000.0625
115.63728356361389,-400000.0625,-6797.27001953125,-4478.22021484375,-400000.0625,-16240.5498046875,-400000.0625,-6414.3701171875,-400000.0625
115.63728857040405,-400000.0625,-6802.509765625,-4487.990234375,-400000.0625,-16248.08984375,-400000.0625,-6419.990234375,-400000.0625
115.6372938156128,-400000.0625,-6801.93994140625,-4487.85009765625,-400000.0625,-16246.26953125,-400000.0625,-6418.7998046875,-400000.0625
115.63729882240295,-400000.0625,-6799.31982421875,-4481.75,-400000.0625,-16237.58984375,-400000.0625,-6410.5,-400000.0625
115.63730430603027,-400000.0625,-6792.97998046875,-4472.16015625,-400000.0625,-16232.7802734375,-400000.0625,-6409.22021484375,-400000.0625
115.63730931282043,-400000.0625,-6792.64013671875,-4471.68017578125,-400000.0625,-16235.4501953125,-400000.0625,-6415.31982421875,-400000.0625
115.63731455802917,-400000.0625,-6804.7998046875,-4481.35986328125,-400000.0625,-16239.4501953125,-400000.0625,-6422.89990234375,-400000.0625
115.63731932640076,-400000.0625,-6816.72021484375,-4490.60986328125,-400000.0625,-16249.419921875,-400000.0625,-6422.56982421875,-400000.0625
115.6373245716095,-400000.0625,-6801.080078125,-4484.4599609375,-400000.0625,-16242.98046875,-400000.0625,-6413.990234375,-400000.0625
115.63732957839966,-400000.0625,-6786.5400390625,-4469.97021484375,-400000.0625,-16233.5400390625,-400000.0625,-6404.8798828125,-400000.0625
115.63733458518982,-400000.0625,-6793.259765625,-4474.68994140625,-400000.0625,-16241.1201171875,-400000.0625,-6408.31005859375,-400000.0625
115.63733959197998,-400000.0625,-6806.7099609375,-4491.56982421875,-400000.0625,-16251.3798828125,-400000.0625,-6417.31982421875,-400000.0625
115.63734483718872,-400000.0625,-6811.0498046875,-4492.240234375,-400000.0625,-16251.0400390625,-400000.0625,-6417.080078125,-400000.0625
115.6373496055603,-400000.0625,-6805.18017578125,-4483.080078125,-400000.0625,-16241.1201171875,-400000.0625,-6408.02001953125,-400000.0625
115.63735508918762,-400000.0625,-6794.5,-4473.77978515625,-400000.0625,-16236.0703125,-400000.0625,-6401.35009765625,-400000.0625
115.63736033439636,-400000.0625,-6796.89013671875,-4479.02978515625,-400000.0625,-16244.0302734375,-400000.0625,-6404.10986328125,-400000.0625
115.6373655796051,-400000.0625,-6802.1298828125,-4485.3701171875,-400000.0625,-16247.5595703125,-400000.0625,-6413.02978515625,-400000.0625
115.63737058639526,-400000.0625,-6806.759765625,-4483.990234375,-400000.0625,-16246.1796875,-400000.0625,-6411.27001953125,-400000.0625
115.637375831604,-400000.0625,-6797.97998046875,-4474.4501953125,-400000.0625,-16240.7900390625,-400000.0625,-6405.8798828125,-400000.0625
115.63738107681274,-400000.0625,-6790.77978515625,-4469.490234375,-400000.0625,-16239.98046875,-400000.0625,-6396.6298828125,-400000.0625
115.63738632202148,-400000.0625,-6795.02978515625,-4475.39990234375,-400000.0625,-16237.3095703125,-400000.0625,-6395.0498046875,-400000.0625
115.63739132881165,-400000.0625,-6800.02978515625,-4484.18017578125,-400000.0625,-16244.650390625,-400000.0625,-6406.2099609375,-400000.0625
115.63739657402039,-400000.0625,-6798.35986328125,-4482.27001953125,-400000.0625,-16243.7900390625,-400000.0625,-6411.27001953125,-400000.0625
115.63740181922913,-400000.0625,-6791.06982421875,-4477.259765625,-400000.0625,-16242.509765625,-400000.0625,-6410.97998046875,-400000.0625
115.63740706443787,-400000.0625,-6786.2998046875,-4471.72998046875,-400000.0625,-16238.0703125,-400000.0625,-6400.43994140625,-400000.0625
115.6374123096466,-400000.0625,-6791.31005859375,-4473.39990234375,-400000.0625,-16238.3095703125,-400000.0625,-6399.2001953125,-400000.0625
115.63741755485535,-400000.0625,-6799.97998046875,-4480.4599609375,-400000.0625,-16249.990234375,-400000.0625,-6406.39990234375,-400000.0625
115.63742256164551,-400000.0625,-6800.60009765625,-4482.83984375,-400000.0625,-16252.5703125,-400000.0625,-6410.60009765625,-400000.0625
115.63742733001709,-400000.0625,-6797.1201171875,-4475.259765625,-400000.0625,-16243.2197265625,-400000.0625,-6403.16015625,-400000.0625
115.63743257522583,-400000.0625,-6792.740234375,-4468.77978515625,-400000.0625,-16232.73046875,-400000.0625,-6395.669921875,-400000.0625
115.63743734359741,-400000.0625,-6792.830078125,-4473.5400390625,-400000.0625,-16237.5498046875,-400000.0625,-6400.919921875,-400000.0625
115.63744282722473,-400000.0625,-6799.64990234375,-4483.56005859375,-400000.0625,-16250.9501953125,-400000.0625,-6413.1298828125,-400000.0625
115.63744783401489,-400000.0625,-6802.419921875,-4485.080078125,-400000.0625,-16255.240234375,-400000.0625,-6413.080078125,-400000.0625
115.63745307922363,-400000.0625,-6796.31005859375,-4474.35009765625,-400000.0625,-16245.3203125,-400000.0625,-6407.7900390625,-400000.0625
115.6374580860138,-400000.0625,-6788.10986328125,-4466.580078125,-400000.0625,-16234.9697265625,-400000.0625,-6398.2998046875,-400000.0625
115.63746333122253,-400000.0625,-6789.259765625,-4469.25,-400000.0625,-16238.98046875,-400000.0625,-6399.72998046875,-400000.0625
115.6374683380127,-400000.0625,-6791.77978515625,-4473.8798828125,-400000.0625,-16241.9296875,-400000.0625,-6407.259765625,-400000.0625
115.63747358322144,-400000.0625,-6803.1298828125,-4478.02978515625,-400000.0625,-16247.3203125,-400000.0625,-6409.169921875,-400000.0625
115.6374785900116,-400000.0625,-6800.02978515625,-4476.93017578125,-400000.0625,-16245.9404296875,-400000.0625,-6403.830078125,-400000.0625
115.63748383522034,-400000.0625,-6787.97021484375,-4468.06005859375,-400000.0625,-16243.509765625,-400000.0625,-6400.43994140625,-400000.0625
115.6374888420105,-400000.0625,-6786.5400390625,-4469.009765625,-400000.0625,-16245.41015625,-400000.0625,-6401.02001953125,-400000.0625
115.63749384880066,-400000.0625,-6798.080078125,-4476.830078125,-400000.0625,-16248.2802734375,-400000.0625,-6407.5,-400000.0625
115.63749861717224,-400000.0625,-6800.7001953125,-4478.5498046875,-400000.0625,-16246.7998046875,-400000.0625,-6407.35986328125,-400000.0625
115.6375036239624,-400000.0625,-6788.58984375,-4468.6298828125,-400000.0625,-16239.9296875,-400000.0625,-6405.31005859375,-400000.0625
115.63750886917114,-400000.0625,-6791.1201171875,-4470.25,-400000.0625,-16235.9697265625,-400000.0625,-6394.43017578125,-400000.0625
115.63751363754272,-400000.0625,-6795.31005859375,-4473.259765625,-400000.0625,-16238.169921875,-400000.0625,-6397.77001953125,-400000.0625
115.63751864433289,-400000.0625,-6798.97998046875,-4477.06982421875,-400000.0625,-16243.4599609375,-400000.0625,-6409.06982421875,-400000.0625
115.63752365112305,-400000.0625,-6801.419921875,-4479.4599609375,-400000.0625,-16248.3203125,-400000.0625,-6409.259765625,-400000.0625
115.63752865791321,-400000.0625,-6796.60009765625,-4475.2099609375,-400000.0625,-16245.7001953125,-400000.0625,-6406.259765625,-400000.0625
115.63753390312195,-400000.0625,-6784.2998046875,-4465.2001953125,-400000.0625,-16236.740234375,-400000.0625,-6397.10986328125,-400000.0625
115.63753890991211,-400000.0625,-6786.16015625,-4465.14990234375,-400000.0625,-16238.0703125,-400000.0625,-6401.10986328125,-400000.0625
115.63754367828369,-400000.0625,-6796.31005859375,-4475.93017578125,-400000.0625,-16244.4599609375,-400000.0625,-6405.93017578125,-400000.0625
115.63754892349243,-400000.0625,-6801.27001953125,-4480.080078125,-400000.0625,-16244.4599609375,-400000.0625,-6411.89013671875,-400000.0625
115.63755393028259,-400000.0625,-6797.41015625,-4474.58984375,-400000.0625,-16236.9697265625,-400000.0625,-6408.7900390625,-400000.0625
115.63755893707275,-400000.0625,-6790.919921875,-4469.72998046875,-400000.0625,-16234.73046875,-400000.0625,-6396.43994140625,-400000.0625
115.6375641822815,-400000.0625,-6786.06005859375,-4466.490234375,-400000.0625,-16230.8203125,-400000.0625,-6398.43994140625,-400000.0625
115.63757109642029,-400000.0625,-6800.27001953125,-4478.64990234375,-400000.0625,-16240.7900390625,-400000.0625,-6405.4501953125,-400000.0625
115.63757586479187,-400000.0625,-6798.41015625,-4477.68994140625,-400000.0625,-16248.1298828125,-400000.0625,-6409.02978515625,-400000.0625
115.63758111000061,-400000.0625,-6787.58984375,-4467.8701171875,-400000.0625,-16239.599609375,-400000.0625,-6404.02001953125,-400000.0625
115.63758587837219,-400000.0625,-6782.6298828125,-4463.85986328125,-400000.0625,-16233.400390625,-400000.0625,-6399.2001953125,-400000.0625
115.63759112358093,-400000.0625,-6794.02001953125,-4471.02001953125,-400000.0625,-16239.4501953125,-400000.0625,-6402.39990234375,-400000.0625
115.63759565353394,-400000.0625,-6800.93994140625,-4479.4599609375,-400000.0625,-16248.0400390625,-400000.0625,-6413.27001953125,-400000.0625
115.6376006603241,-400000.0625,-6802.3701171875,-4481.7900390625,-400000.0625,-16251.1796875,-400000.0625,-6418.990234375,-400000.0625
115.63760590553284,-400000.0625,-6797.080078125,-4474.31005859375,-400000.0625,-16236.8798828125,-400000.0625,-6409.41015625,-400000.0625
115.63761067390442,-400000.0625,-6793.60009765625,-4467.009765625,-400000.0625,-16236.16015625,-400000.0625,-6399.6298828125,-400000.0625
115.63761615753174,-400000.0625,-6792.16015625,-4468.77978515625,-400000.0625,-16241.650390625,-400000.0625,-6402.8701171875,-400000.0625
115.63762092590332,-400000.0625,-6802.0400390625,-4476.8798828125,-400000.0625,-16244.3203125,-400000.0625,-6410.5498046875,-400000.0625
115.63762617111206,-400000.0625,-6805.3701171875,-4479.35986328125,-400000.0625,-16248.7001953125,-400000.0625,-6412.60009765625,-400000.0625
115.63763117790222,-400000.0625,-6794.740234375,-4469.10986328125,-400000.0625,-16243.509765625,-400000.0625,-6407.93017578125,-400000.0625
115.63763618469238,-400000.0625,-6788.64013671875,-4464.10009765625,-400000.0625,-16239.0703125,-400000.0625,-6398.490234375,-400000.0625
115.63764119148254,-400000.0625,-6791.31005859375,-4472.35009765625,-400000.0625,-16241.3603515625,-400000.0625,-6404.830078125,-400000.0625
115.6376461982727,-400000.0625,-6795.97998046875,-4476.35986328125,-400000.0625,-16244.509765625,-400000.0625,-6419.1298828125,-400000.0625
115.63765120506287,-400000.0625,-6805.85009765625,-4477.93017578125,-400000.0625,-16244.509765625,-400000.0625,-6414.080078125,-400000.0625
115.63765621185303,-400000.0625,-6799.509765625,-4472.02001953125,-400000.0625,-16245.650390625,-400000.0625,-6404.68994140625,-400000.0625
115.63766145706177,-400000.0625,-6789.72998046875,-4463.009765625,-400000.0625,-16239.9296875,-400000.0625,-6401.2099609375,-400000.0625
115.63766646385193,-400000.0625,-6799.7900390625,-4468.97021484375,-400000.0625,-16239.259765625,-400000.0625,-6406.16015625,-400000.0625
115.63767170906067,-400000.0625,-6807.47021484375,-4480.7001953125,-400000.0625,-16246.9404296875,-400000.0625,-6414.509765625,-400000.0625
115.63767719268799,-400000.0625,-6807.60986328125,-4484.509765625,-400000.0625,-16251.849609375,-400000.0625,-6418.1298828125,-400000.0625
115.63768267631531,-400000.0625,-6797.02978515625,-4472.2998046875,-400000.0625,-16240.6904296875,-400000.0625,-6410.41015625,-400000.0625
115.63768744468689,-400000.0625,-6790.4501953125,-4463.39013671875,-400000.0625,-16229.919921875,-400000.0625,-6397.580078125,-400000.0625
115.63769268989563,-400000.0625,-6789.919921875,-4466.6298828125,-400000.0625,-16239.259765625,-400000.0625,-6402.2998046875,-400000.0625
115.63769769668579,-400000.0625,-6799.31982421875,-4476.93017578125,-400000.0625,-16251.9501953125,-400000.0625,-6411.35986328125,-400000.0625
115.63770294189453,-400000.0625,-6812.18994140625,-4486.080078125,-400000.0625,-16252.7099609375,-400000.0625,-6416.509765625,-400000.0625
115.63770818710327,-400000.0625,-6809.56982421875,-4481.509765625,-400000.0625,-16245.4599609375,-400000.0625,-6408.83984375,-400000.0625
115.63771343231201,-400000.0625,-6799.93994140625,-4469.8701171875,-400000.0625,-16238.5,-400000.0625,-6399.490234375,-400000.0625
115.63771867752075,-400000.0625,-6803.1298828125,-4472.06982421875,-400000.0625,-16239.5,-400000.0625,-6402.4501953125,-400000.0625
115.63772392272949,-400000.0625,-6809.52001953125,-4479.97998046875,-400000.0625,-16245.5595703125,-400000.0625,-6417.3701171875,-400000.0625
115.63772892951965,-400000.0625,-6812.56982421875,-4483.56005859375,-400000.0625,-16252.759765625,-400000.0625,-6418.89990234375,-400000.0625
115.63773393630981,-400000.0625,-6805.0400390625,-4479.64990234375,-400000.0625,-16243.509765625,-400000.0625,-6406.259765625,-400000.0625
115.63773894309998,-400000.0625,-6798.4599609375,-4471.490234375,-400000.0625,-16238.259765625,-400000.0625,-6395.6298828125,-400000.0625
115.63774418830872,-400000.0625,-6799.080078125,-4469.06005859375,-400000.0625,-16238.3095703125,-400000.0625,-6405.2099609375,-400000.0625
115.63774919509888,-400000.0625,-6809.27978515625,-4478.5498046875,-400000.0625,-16245.6103515625,-400000.0625,-6415.7998046875,-400000.0625
115.6377546787262,-400000.0625,-6814.10009765625,-4486.22998046875,-400000.0625,-16249.7099609375,-400000.0625,-6416.89013671875,-400000.0625
115.63775944709778,-400000.0625,-6804.75,-4480.93017578125,-400000.0625,-16244.2197265625,-400000.0625,-6409.22021484375,-400000.0625
115.6377649307251,-400000.0625,-6800.75,-4477.83984375,-400000.0625,-16237.0703125,-400000.0625,-6399.009765625,-400000.0625
115.63777017593384,-400000.0625,-6804.56005859375,-4479.740234375,-400000.0625,-16241.1201171875,-400000.0625,-6402.25,-400000.0625
115.63777565956116,-400000.0625,-6816.10009765625,-4489.27978515625,-400000.0625,-16249.2802734375,-400000.0625,-6410.89013671875,-400000.0625
115.63778066635132,-400000.0625,-6814.52978515625,-4489.47021484375,-400000.0625,-16251.900390625,-400000.0625,-6416.1298828125,-400000.0625
115.63778591156006,-400000.0625,-6809.0400390625,-4482.4599609375,-400000.0625,-16249.7099609375,-400000.0625,-6405.39990234375,-400000.0625
115.6377911567688,-400000.0625,-6798.75,-4477.8798828125,-400000.0625,-16239.3095703125,-400000.0625,-6398.33984375,-400000.0625
115.63779616355896,-400000.0625,-6801.02978515625,-4483.41015625,-400000.0625,-16245.4599609375,-400000.0625,-6406.740234375,-400000.0625
115.63780117034912,-400000.0625,-6814.14990234375,-4488.18017578125,-400000.0625,-16252.6201171875,-400000.0625,-6417.22998046875,-400000.0625
115.63780617713928,-400000.0625,-6818.8701171875,-4489.14013671875,-400000.0625,-16252.7099609375,-400000.0625,-6417.31982421875,-400000.0625
115.63781094551086,-400000.0625,-6811.9501953125,-4483.3701171875,-400000.0625,-16247.080078125,-400000.0625,-6408.64013671875,-400000.0625
115.63781595230103,-400000.0625,-6793.259765625,-4469.35009765625,-400000.0625,-16238.3095703125,-400000.0625,-6396.6298828125,-400000.0625
115.63782095909119,-400000.0625,-6788.919921875,-4468.5400390625,-400000.0625,-16241.0302734375,-400000.0625,-6401.10986328125,-400000.0625
115.63782596588135,-400000.0625,-6802.0400390625,-4479.1201171875,-400000.0625,-16246.7998046875,-400000.0625,-6406.5,-400000.0625
115.63783097267151,-400000.0625,-6806.9501953125,-4483.080078125,-400000.0625,-16246.7001953125,-400000.0625,-6413.7900390625,-400000.0625
115.63783597946167,-400000.0625,-6797.740234375,-4472.10986328125,-400000.0625,-16238.259765625,-400000.0625,-6403.06982421875,-400000.0625
115.63784122467041,-400000.0625,-6791.16015625,-4467.06005859375,-400000.0625,-16237.5498046875,-400000.0625,-6393.9599609375,-400000.0625
115.63784599304199,-400000.0625,-6798.080078125,-4472.830078125,-400000.0625,-16242.0302734375,-400000.0625,-6403.39990234375,-400000.0625
115.63785076141357,-400000.0625,-6806.419921875,-4481.080078125,-400000.0625,-16248.990234375,-400000.0625,-6409.1201171875,-400000.0625
115.63785600662231,-400000.0625,-6808.27978515625,-4481.35986328125,-400000.0625,-16244.7001953125,-400000.0625,-6404.68994140625,-400000.0625
115.6378607749939,-400000.0625,-6799.27001953125,-4474.8798828125,-400000.0625,-16236.7802734375,-400000.0625,-6400.16015625,-400000.0625
115.63786578178406,-400000.0625,-6791.8798828125,-4468.25,-400000.0625,-16235.0703125,-400000.0625,-6397.43994140625,-400000.0625
115.6378710269928,-400000.0625,-6794.830078125,-4468.8701171875,-400000.0625,-16236.9296875,-400000.0625,-6396.81982421875,-400000.0625
115.63787603378296,-400000.0625,-6800.93994140625,-4478.740234375,-400000.0625,-16242.3603515625,-400000.0625,-6403.77978515625,-400000.0625
115.63788104057312,-400000.0625,-6802.990234375,-4480.02978515625,-400000.0625,-16245.8896484375,-400000.0625,-6406.97998046875,-400000.0625
115.63788676261902,-400000.0625,-6798.5498046875,-4471.72998046875,-400000.0625,-16242.9404296875,-400000.0625,-6402.58984375,-400000.0625
115.6378915309906,-400000.0625,-6797.64990234375,-4469.10986328125,-400000.0625,-16242.169921875,-400000.0625,-6399.43994140625,-400000.0625
115.63789677619934,-400000.0625,-6798.5498046875,-4472.72998046875,-400000.0625,-16234.7802734375,-400000.0625,-6404.64013671875,-400000.0625
115.6379017829895,-400000.0625,-6804.60986328125,-4482.64990234375,-400000.0625,-16237.01953125,-400000.0625,-6412.89013671875,-400000.0625
115.63790655136108,-400000.0625,-6813.10009765625,-4490.81005859375,-400000.0625,-16256.669921875,-400000.0625,-6414.4599609375,-400000.0625
115.63791179656982,-400000.0625,-6802.7998046875,-4479.22021484375,-400000.0625,-16249.2802734375,-400000.0625,-6407.06982421875,-400000.0625
115.6379165649414,-400000.0625,-6793.60009765625,-4468.06005859375,-400000.0625,-16232.4404296875,-400000.0625,-6394.91015625,-400000.0625
115.63792157173157,-400000.0625,-6802.0400390625,-4474.1201171875,-400000.0625,-16237.1201171875,-400000.0625,-6398.14990234375,-400000.0625
115.63792657852173,-400000.0625,-6810.0498046875,-4486.990234375,-400000.0625,-16253.1396484375,-400000.0625,-6410.4599609375,-400000.0625
115.63793182373047,-400000.0625,-6810.52001953125,-4486.1298828125,-400000.0625,-16251.23046875,-400000.0625,-6408.5,-400000.0625
115.63793659210205,-400000.0625,-6802.7001953125,-4480.4599609375,-400000.0625,-16241.599609375,-400000.0625,-6404.5,-400000.0625
115.63794183731079,-400000.0625,-6799.35986328125,-4475.02001953125,-400000.0625,-16244.0302734375,-400000.0625,-6400.8701171875,-400000.0625
115.63794660568237,-400000.0625,-6803.93994140625,-4479.169921875,-400000.0625,-16246.990234375,-400000.0625,-6395.33984375,-400000.0625
115.63795137405396,-400000.0625,-6812.2900390625,-4486.509765625,-400000.0625,-16249.0400390625,-400000.0625,-6401.8701171875,-400000.0625
115.6379566192627,-400000.0625,-6809.27978515625,-4488.7998046875,-400000.0625,-16245.3203125,-400000.0625,-6405.16015625,-400000.0625
115.63796162605286,-400000.0625,-6803.60986328125,-4482.56005859375,-400000.0625,-16241.26953125,-400000.0625,-6397.009765625,-400000.0625
115.63796663284302,-400000.0625,-6799.41015625,-4475.39990234375,-400000.0625,-16242.1201171875,-400000.0625,-6393.91015625,-400000.0625
115.63797163963318,-400000.0625,-6795.7900390625,-4473.8798828125,-400000.0625,-16245.2197265625,-400000.0625,-6396.8701171875,-400000.0625
115.63797688484192,-400000.0625,-6805.66015625,-4482.56005859375,-400000.0625,-16250.23046875,-400000.0625,-6404.35009765625,-400000.0625
115.63798189163208,-400000.0625,-6806.89990234375,-4485.27001953125,-400000.0625,-16248.3203125,-400000.0625,-6404.68994140625,-400000.0625
115.63798713684082,-400000.0625,-6802.75,-4480.93017578125,-400000.0625,-16246.6103515625,-400000.0625,-6404.10986328125,-400000.0625
115.6379919052124,-400000.0625,-6798.02978515625,-4471.2998046875,-400000.0625,-16238.6904296875,-400000.0625,-6397.6298828125,-400000.0625
115.63799715042114,-400000.0625,-6800.4599609375,-4476.169921875,-400000.0625,-16239.83984375,-400000.0625,-6396.43994140625,-400000.0625
115.63800191879272,-400000.0625,-6808.759765625,-4485.56005859375,-400000.0625,-16242.5498046875,-400000.0625,-6405.259765625,-400000.0625
115.63800692558289,-400000.0625,-6812.85986328125,-4487.3701171875,-400000.0625,-16249.5595703125,-400000.0625,-6403.490234375,-400000.0625
115.63801217079163,-400000.0625,-6803.22998046875,-4477.8798828125,-400000.0625,-16244.599609375,-400000.0625,-6396.06005859375,-400000.0625
115.63801693916321,-400000.0625,-6787.2998046875,-4462.43017578125,-400000.0625,-16235.73046875,-400000.0625,-6392.10009765625,-400000.0625
115.63802218437195,-400000.0625,-6796.7900390625,-4466.8701171875,-400000.0625,-16242.3203125,-400000.0625,-6395.39013671875,-400000.0625
115.63802695274353,-400000.0625,-6801.27001953125,-4477.5,-400000.0625,-16246.7001953125,-400000.0625,-6405.259765625,-400000.0625
115.63803195953369,-400000.0625,-6807.7998046875,-4480.83984375,-400000.0625,-16250.330078125,-400000.0625,-6410.27001953125,-400000.0625
115.63803696632385,-400000.0625,-6802.22998046875,-4476.35986328125,-400000.0625,-16242.98046875,-400000.0625,-6403.2998046875,-400000.0625
115.63804364204407,-400000.0625,-6792.16015625,-4470.72998046875,-400000.0625,-16235.830078125,-400000.0625,-6391.0,-400000.0625
115.63804888725281,-400000.0625,-6795.8798828125,-4472.5400390625,-400000.0625,-16239.259765625,-400000.0625,-6395.6298828125,-400000.0625
115.63805413246155,-400000.0625,-6802.60986328125,-4478.169921875,-400000.0625,-16244.9404296875,-400000.0625,-6408.31005859375,-400000.0625
115.63805961608887,-400000.0625,-6805.990234375,-4479.02978515625,-400000.0625,-16245.2197265625,-400000.0625,-6410.5,-400000.0625
115.63806462287903,-400000.0625,-6802.419921875,-4473.02001953125,-400000.0625,-16240.6904296875,-400000.0625,-6402.35009765625,-400000.0625
115.63806962966919,-400000.0625,-6794.35986328125,-4466.81982421875,-400000.0625,-16236.740234375,-400000.0625,-6391.9599609375,-400000.0625
115.63807511329651,-400000.0625,-6793.5498046875,-4465.8701171875,-400000.0625,-16238.3603515625,-400000.0625,-6396.25,-400000.0625
115.63808107376099,-400000.0625,-6801.31982421875,-4474.39990234375,-400000.0625,-16246.26953125,-400000.0625,-6405.8798828125,-400000.0625
115.63808608055115,-400000.0625,-6811.9501953125,-4484.18017578125,-400000.0625,-16251.7099609375,-400000.0625,-6404.68994140625,-400000.0625
115.63809132575989,-400000.0625,-6807.18994140625,-4479.93017578125,-400000.0625,-16248.66015625,-400000.0625,-6399.009765625,-400000.0625
115.63809609413147,-400000.0625,-6797.64990234375,-4470.16015625,-400000.0625,-16242.3603515625,-400000.0625,-6396.8701171875,-400000.0625
115.63810157775879,-400000.0625,-6798.080078125,-4472.2099609375,-400000.0625,-16239.7900390625,-400000.0625,-6401.10986328125,-400000.0625
115.63810658454895,-400000.0625,-6809.7099609375,-4483.509765625,-400000.0625,-16250.1796875,-400000.0625,-6408.64013671875,-400000.0625
115.63811135292053,-400000.0625,-6813.240234375,-4487.60986328125,-400000.0625,-16255.6201171875,-400000.0625,-6410.5,-400000.0625
