time,ch1,ch2,ch3,ch4,ch5,ch6,ch7,ch8
152.67433786392212,-400000.0625,-7005.97998046875,-4671.47998046875,-400000.0625,-16211.26953125,-400000.0625,-6222.10986328125,-400000.0625
152.69842433929443,-400000.0625,-7008.93017578125,-4673.580078125,-400000.0625,-16207.5498046875,-400000.0625,-6223.39013671875,-400000.0625
152.71994972229004,-400000.0625,-7014.18017578125,-4680.2001953125,-400000.0625,-16211.23046875,-400000.0625,-6230.06982421875,-400000.0625
152.7658634185791,-400000.0625,-7013.89013671875,-4682.830078125,-400000.0625,-16215.66015625,-400000.0625,-6230.4501953125,-400000.0625
152.78239369392395,-400000.0625,-7018.52001953125,-4684.16015625,-400000.0625,-16215.1396484375,-400000.0625,-6228.58984375,-400000.0625
152.80078983306885,-400000.0625,-7016.330078125,-4683.77978515625,-400000.0625,-16210.83984375,-400000.0625,-6224.97021484375,-400000.0625
152.81545233726501,-400000.0625,-7019.56982421875,-4683.35009765625,-400000.0625,-16212.419921875,-400000.0625,-6224.68017578125,-400000.0625
152.82839465141296,-400000.0625,-7013.89013671875,-4675.81982421875,-400000.0625,-16208.599609375,-400000.0625,-6224.39013671875,-400000.0625
152.85781168937683,-400000.0625,-7014.75,-4675.009765625,-400000.0625,-16211.9404296875,-400000.0625,-6226.64013671875,-400000.0625
152.8823983669281,-400000.0625,-7019.85009765625,-4677.81982421875,-400000.0625,-16214.5595703125,-400000.0625,-6224.81982421875,-400000.0625
152.9123022556305,-400000.0625,-7013.66015625,-4683.2099609375,-400000.0625,-16216.330078125,-400000.0625,-6223.77001953125,-400000.0625
152.93157243728638,-400000.0625,-7010.7900390625,-4685.58984375,-400000.0625,-16216.759765625,-400000.0625,-6221.33984375,-400000.0625
152.97580885887146,-400000.0625,-7018.3798828125,-4687.93017578125,-400000.0625,-16212.419921875,-400000.0625,-6220.52978515625,-400000.0625
152.99471235275269,-400000.0625,-7015.0400390625,-4681.830078125,-400000.0625,-16204.6904296875,-400000.0625,-6218.43017578125,-400000.0625
153.0181884765625,-400000.0625,-7022.47998046875,-4683.919921875,-400000.0625,-16211.4599609375,-400000.0625,-6218.9599609375,-400000.0625
153.03328132629395,-400000.0625,-7020.669921875,-4684.39990234375,-400000.0625,-16211.3203125,-400000.0625,-6222.68017578125,-400000.0625
153.08225774765015,-400000.0625,-7007.83984375,-4676.490234375,-400000.0625,-16206.1201171875,-400000.0625,-6220.25,-400000.0625
153.0988199710846,-400000.0625,-7016.7099609375,-4681.10986328125,-400000.0625,-16209.080078125,-400000.0625,-6219.72021484375,-400000.0625
153.11823630332947,-400000.0625,-7018.3798828125,-4686.31005859375,-400000.0625,-16210.7998046875,-400000.0625,-6218.43017578125,-400000.0625
153.13287258148193,-400000.0625,-7018.419921875,-4687.5,-400000.0625,-16211.9404296875,-400000.0625,-6220.68017578125,-400000.0625
153.15426206588745,-400000.0625,-7020.7099609375,-4685.8798828125,-400000.0625,-16210.8896484375,-400000.0625,-6217.39013671875,-400000.0625
153.18913531303406,-400000.0625,-7011.89013671875,-4680.490234375,-400000.0625,-16206.5,-400000.0625,-6213.47998046875,-400000.0625
153.20910692214966,-400000.0625,-7013.0400390625,-4683.02001953125,-400000.0625,-16206.7900390625,-400000.0625,-6214.9501953125,-400000.0625
153.22251510620117,-400000.0625,-7016.9501953125,-4685.39990234375,-400000.0625,-16202.740234375,-400000.0625,-6218.2001953125,-400000.0625
153.2394416332245,-400000.0625,-7023.91015625,-4690.83984375,-400000.0625,-16206.3095703125,-400000.0625,-6221.39013671875,-400000.0625
153.25510168075562,-400000.0625,-7013.7998046875,-4683.72998046875,-400000.0625,-16205.169921875,-400000.0625,-6214.330078125,-400000.0625
153.2892622947693,-400000.0625,-7016.7099609375,-4683.2099609375,-400000.0625,-16208.7900390625,-400000.0625,-6212.759765625,-400000.0625
153.3111355304718,-400000.0625,-7026.6298828125,-4690.1201171875,-400000.0625,-16212.4697265625,-400000.0625,-6217.0498046875,-400000.0625
153.32796621322632,-400000.0625,-7021.240234375,-4684.39990234375,-400000.0625,-16208.7001953125,-400000.0625,-6219.6298828125,-400000.0625
153.34567213058472,-400000.0625,-7013.75,-4677.9599609375,-400000.0625,-16207.599609375,-400000.0625,-6218.14990234375,-400000.0625
153.36859154701233,-400000.0625,-7013.990234375,-4680.58984375,-400000.0625,-16205.26953125,-400000.0625,-6219.14990234375,-400000.0625
153.40179324150085,-400000.0625,-7013.0400390625,-4678.580078125,-400000.0625,-16203.6904296875,-400000.0625,-6212.330078125,-400000.0625
153.41588878631592,-400000.0625,-7012.7998046875,-4680.919921875,-400000.0625,-16205.0302734375,-400000.0625,-6213.56982421875,-400000.0625
153.43939757347107,-400000.0625,-7021.14013671875,-4684.64013671875,-400000.0625,-16208.1298828125,-400000.0625,-6215.0,-400000.0625
153.4572594165802,-400000.0625,-7022.72021484375,-4687.35986328125,-400000.0625,-16206.9296875,-400000.0625,-6212.81005859375,-400000.0625
153.47660112380981,-400000.0625,-7019.47021484375,-4683.4501953125,-400000.0625,-16204.0302734375,-400000.0625,-6214.85986328125,-400000.0625
153.51297569274902,-400000.0625,-7017.9501953125,-4682.2998046875,-400000.0625,-16211.4599609375,-400000.0625,-6216.33984375,-400000.0625
153.53578281402588,-400000.0625,-7016.7998046875,-4681.97021484375,-400000.0625,-16208.7900390625,-400000.0625,-6214.240234375,-400000.0625
153.55537962913513,-400000.0625,-7019.27978515625,-4684.97021484375,-400000.0625,-16208.599609375,-400000.0625,-6218.9599609375,-400000.0625
153.57195568084717,-400000.0625,-7024.240234375,-4689.740234375,-400000.0625,-16215.1396484375,-400000.0625,-6223.490234375,-400000.0625
153.59039425849915,-400000.0625,-7013.509765625,-4680.68017578125,-400000.0625,-16210.7998046875,-400000.0625,-6218.10009765625,-400000.0625
153.62456130981445,-400000.0625,-7008.35986328125,-4674.14990234375,-400000.0625,-16202.4501953125,-400000.0625,-6210.14013671875,-400000.0625
153.64532804489136,-400000.0625,-7015.66015625,-4679.06005859375,-400000.0625,-16200.5,-400000.0625,-6212.27978515625,-400000.0625
153.66787934303284,-400000.0625,-7023.85986328125,-4686.31005859375,-400000.0625,-16205.7900390625,-400000.0625,-6219.39013671875,-400000.0625
153.68090081214905,-400000.0625,-7031.16015625,-4686.39990234375,-400000.0625,-16208.41015625,-400000.0625,-6219.240234375,-400000.0625
153.69987106323242,-400000.0625,-7026.47998046875,-4685.830078125,-400000.0625,-16206.9296875,-400000.0625,-6199.89013671875,-400000.0625
153.7245090007782,-400000.0625,-7024.91015625,-4698.85009765625,-400000.0625,-16211.849609375,-400000.0625,-6190.10986328125,-400000.0625
153.73902249336243,-400000.0625,-7032.5400390625,-4708.47998046875,-400000.0625,-16215.1396484375,-400000.0625,-6187.39013671875,-400000.0625
153.75772356987,-400000.0625,-7033.43994140625,-4710.52978515625,-400000.0625,-16213.990234375,-400000.0625,-6191.64013671875,-400000.0625
153.77217626571655,-400000.0625,-7026.77001953125,-4703.330078125,-400000.0625,-16208.080078125,-400000.0625,-6185.06005859375,-400000.0625
153.78801131248474,-400000.0625,-7021.240234375,-4704.08984375,-400000.0625,-16202.740234375,-400000.0625,-6178.56982421875,-400000.0625
153.80117106437683,-400000.0625,-7024.14990234375,-4711.52978515625,-400000.0625,-16202.8798828125,-400000.0625,-6173.419921875,-400000.0625
153.83047223091125,-400000.0625,-7038.4501953125,-4726.41015625,-400000.0625,-16212.1298828125,-400000.0625,-6178.330078125,-400000.0625
153.84840559959412,-400000.0625,-7046.1298828125,-4732.990234375,-400000.0625,-16218.2802734375,-400000.0625,-6185.39013671875,-400000.0625
153.86115264892578,-400000.0625,-7042.4599609375,-4727.080078125,-400000.0625,-16208.5595703125,-400000.0625,-6182.9599609375,-400000.0625
153.87928342819214,-400000.0625,-7036.58984375,-4719.58984375,-400000.0625,-16203.5498046875,-400000.0625,-6176.7099609375,-400000.0625
153.88915634155273,-400000.0625,-7020.18994140625,-4712.81982421875,-400000.0625,-16197.5400390625,-400000.0625,-6170.419921875,-400000.0625
153.9180727005005,-400000.0625,-7018.759765625,-4714.43994140625,-400000.0625,-16198.6396484375,-400000.0625,-6172.3701171875,-400000.0625
153.95672297477722,-400000.0625,-7026.47998046875,-4721.169921875,-400000.0625,-16206.0302734375,-400000.0625,-6177.0,-400000.0625
153.97648763656616,-400000.0625,-7026.2900390625,-4721.259765625,-400000.0625,-16206.599609375,-400000.0625,-6177.52001953125,-400000.0625
153.99150776863098,-400000.0625,-7022.2900390625,-4717.58984375,-400000.0625,-16203.98046875,-400000.0625,-6172.7998046875,-400000.0625
154.01121973991394,-400000.0625,-7022.18994140625,-4710.52978515625,-400000.0625,-16202.4501953125,-400000.0625,-6167.4599609375,-400000.0625
154.02926445007324,-400000.0625,-7027.81982421875,-4716.490234375,-400000.0625,-16204.41015625,-400000.0625,-6168.27001953125,-400000.0625
154.06246137619019,-400000.0625,-7035.02001953125,-4724.02978515625,-400000.0625,-16211.23046875,-400000.0625,-6177.240234375,-400000.0625
154.07837200164795,-400000.0625,-7034.35009765625,-4726.7900390625,-400000.0625,-16213.990234375,-400000.0625,-6179.759765625,-400000.0625
154.09707307815552,-400000.0625,-7024.580078125,-4720.31005859375,-400000.0625,-16210.83984375,-400000.0625,-6174.66015625,-400000.0625
154.11505913734436,-400000.0625,-7022.669921875,-4712.52978515625,-400000.0625,-16203.599609375,-400000.0625,-6169.64990234375,-400000.0625
154.12621927261353,-400000.0625,-7031.5400390625,-4717.5400390625,-400000.0625,-16202.5,-400000.0625,-6169.7998046875,-400000.0625
154.14371824264526,-400000.0625,-7033.39990234375,-4721.31005859375,-400000.0625,-16203.740234375,-400000.0625,-6176.419921875,-400000.0625
154.16833972930908,-400000.0625,-7034.72998046875,-4722.68994140625,-400000.0625,-16211.4599609375,-400000.0625,-6174.08984375,-400000.0625
154.18673038482666,-400000.0625,-7030.919921875,-4719.31005859375,-400000.0625,-16212.9404296875,-400000.0625,-6167.509765625,-400000.0625
154.20268416404724,-400000.0625,-7031.6298828125,-4720.97021484375,-400000.0625,-16212.75,-400000.0625,-6171.419921875,-400000.0625
154.22001242637634,-400000.0625,-7038.16015625,-4728.22021484375,-400000.0625,-16215.759765625,-400000.0625,-6178.240234375,-400000.0625
154.2349452972412,-400000.0625,-7040.259765625,-4731.4599609375,-400000.0625,-16217.08984375,-400000.0625,-6179.669921875,-400000.0625
154.25262236595154,-400000.0625,-7031.39013671875,-4722.2099609375,-400000.0625,-16209.8896484375,-400000.0625,-6171.080078125,-400000.0625
154.28227925300598,-400000.0625,-7026.6298828125,-4715.009765625,-400000.0625,-16203.599609375,-400000.0625,-6160.35986328125,-400000.0625
154.2978479862213,-400000.0625,-7029.6298828125,-4720.02001953125,-400000.0625,-16209.9404296875,-400000.0625,-6166.89013671875,-400000.0625
154.315500497818,-400000.0625,-7033.830078125,-4729.41015625,-400000.0625,-16213.1298828125,-400000.0625,-6179.3798828125,-400000.0625
154.3294816017151,-400000.0625,-7038.830078125,-4730.89013671875,-400000.0625,-16213.23046875,-400000.0625,-6178.18994140625,-400000.0625
154.3505539894104,-400000.0625,-7036.2099609375,-4730.27001953125,-400000.0625,-16215.1796875,-400000.0625,-6174.18017578125,-400000.0625
154.3655846118927,-400000.0625,-7037.02001953125,-4727.89013671875,-400000.0625,-16213.6103515625,-400000.0625,-6168.1298828125,-400000.0625
154.39110612869263,-400000.0625,-7036.5,-4726.35986328125,-400000.0625,-16214.3203125,-400000.0625,-6167.83984375,-400000.0625
154.41098475456238,-400000.0625,-7030.06005859375,-4724.06982421875,-400000.0625,-16209.3203125,-400000.0625,-6171.31982421875,-400000.0625
154.42528581619263,-400000.0625,-7033.64013671875,-4722.68994140625,-400000.0625,-16201.9296875,-400000.0625,-6170.1298828125,-400000.0625
154.44149374961853,-400000.0625,-7042.080078125,-4733.18017578125,-400000.0625,-16216.330078125,-400000.0625,-6174.330078125,-400000.0625
154.45943593978882,-400000.0625,-7041.31005859375,-4735.66015625,-400000.0625,-16219.240234375,-400000.0625,-6173.22998046875,-400000.0625
154.4736328125,-400000.0625,-7031.81982421875,-4726.22021484375,-400000.0625,-16213.7099609375,-400000.0625,-6171.7998046875,-400000.0625
154.50269150733948,-400000.0625,-7032.8701171875,-4725.5,-400000.0625,-16212.26953125,-400000.0625,-6173.7099609375,-400000.0625
154.52076268196106,-400000.0625,-7040.31005859375,-4730.75,-400000.0625,-16213.419921875,-400000.0625,-6176.330078125,-400000.0625
154.53406810760498,-400000.0625,-7035.58984375,-4728.990234375,-400000.0625,-16211.849609375,-400000.0625,-6168.02978515625,-400000.0625
154.55633091926575,-400000.0625,-7025.33984375,-4719.31005859375,-400000.0625,-16206.1201171875,-400000.0625,-6160.06982421875,-400000.0625
154.57171297073364,-400000.0625,-7026.43017578125,-4721.58984375,-400000.0625,-16207.740234375,-400000.0625,-6167.02978515625,-400000.0625
154.5884804725647,-400000.0625,-7043.27001953125,-4734.14013671875,-400000.0625,-16217.51953125,-400000.0625,-6173.27978515625,-400000.0625
154.6217246055603,-400000.0625,-7043.93017578125,-4734.08984375,-400000.0625,-16217.759765625,-400000.0625,-6172.60986328125,-400000.0625
154.64565634727478,-400000.0625,-7033.25,-4722.93017578125,-400000.0625,-16207.4599609375,-400000.0625,-6161.2099609375,-400000.0625
154.66400790214539,-400000.0625,-7025.39013671875,-4717.72998046875,-400000.0625,-16203.169921875,-400000.0625,-6153.68017578125,-400000.0625
154.67563128471375,-400000.0625,-7028.91015625,-4724.22021484375,-400000.0625,-16205.0703125,-400000.0625,-6163.740234375,-400000.0625
154.69159388542175,-400000.0625,-7035.64013671875,-4726.60009765625,-400000.0625,-16205.26953125,-400000.0625,-6162.5,-400000.0625
154.7172727584839,-400000.0625,-7040.35986328125,-4731.1298828125,-400000.0625,-16208.7900390625,-400000.0625,-6162.1201171875,-400000.0625
154.7361228466034,-400000.0625,-7036.2099609375,-4728.89013671875,-400000.0625,-16206.5498046875,-400000.0625,-6163.68994140625,-400000.0625
154.75170183181763,-400000.0625,-7031.16015625,-4722.5498046875,-400000.0625,-16210.6103515625,-400000.0625,-6157.35009765625,-400000.0625
154.77124643325806,-400000.0625,-7029.39013671875,-4723.60009765625,-400000.0625,-16212.990234375,-400000.0625,-6156.39990234375,-400000.0625
154.7838909626007,-400000.0625,-7034.830078125,-4728.4599609375,-400000.0625,-16216.419921875,-400000.0625,-6164.1201171875,-400000.0625
154.80219674110413,-400000.0625,-7033.919921875,-4729.89013671875,-400000.0625,-16211.23046875,-400000.0625,-6161.8798828125,-400000.0625
154.8346607685089,-400000.0625,-7032.43994140625,-4728.3701171875,-400000.0625,-16210.509765625,-400000.0625,-6155.5400390625,-400000.0625
154.85116600990295,-400000.0625,-7031.009765625,-4728.41015625,-400000.0625,-16214.3701171875,-400000.0625,-6159.64013671875,-400000.0625
154.86963272094727,-400000.0625,-7031.6298828125,-4729.60986328125,-400000.0625,-16212.6103515625,-400000.0625,-6154.39013671875,-400000.0625
154.88226675987244,-400000.0625,-7034.64013671875,-4733.1298828125,-400000.0625,-16215.08984375,-400000.0625,-6158.10986328125,-400000.0625
154.90659642219543,-400000.0625,-7033.490234375,-4730.509765625,-400000.0625,-16217.66015625,-400000.0625,-6164.89013671875,-400000.0625
154.93941569328308,-400000.0625,-7036.58984375,-4734.60986328125,-400000.0625,-16214.2802734375,-400000.0625,-6165.02978515625,-400000.0625
154.9611256122589,-400000.0625,-7033.919921875,-4733.0400390625,-400000.0625,-16211.3701171875,-400000.0625,-6161.830078125,-400000.0625
154.9823899269104,-400000.0625,-7027.009765625,-4726.169921875,-400000.0625,-16209.83984375,-400000.0625,-6158.2998046875,-400000.0625
155.00355982780457,-400000.0625,-7033.02001953125,-4727.89013671875,-400000.0625,-16208.83984375,-400000.0625,-6158.2099609375,-400000.0625
155.02224731445312,-400000.0625,-7035.2998046875,-4731.85009765625,-400000.0625,-16208.75,-400000.0625,-6162.7900390625,-400000.0625
155.05494594573975,-400000.0625,-7034.64013671875,-4731.93994140625,-400000.0625,-16210.41015625,-400000.0625,-6167.97998046875,-400000.0625
155.0730128288269,-400000.0625,-7036.10986328125,-4731.27001953125,-400000.0625,-16209.7001953125,-400000.0625,-6164.740234375,-400000.0625
155.09046006202698,-400000.0625,-7024.240234375,-4726.169921875,-400000.0625,-16205.1201171875,-400000.0625,-6162.830078125,-400000.0625
155.11177802085876,-400000.0625,-7024.10009765625,-4720.93017578125,-400000.0625,-16205.8798828125,-400000.0625,-6158.2099609375,-400000.0625
155.12497735023499,-400000.0625,-7027.25,-4724.5,-400000.0625,-16204.1201171875,-400000.0625,-6162.740234375,-400000.0625
155.15883088111877,-400000.0625,-7027.81982421875,-4728.83984375,-400000.0625,-16200.8798828125,-400000.0625,-6163.02978515625,-400000.0625
155.1784918308258,-400000.0625,-7035.4501953125,-4734.60986328125,-400000.0625,-16208.509765625,-400000.0625,-6167.02978515625,-400000.0625
155.1912980079651,-400000.0625,-7032.16015625,-4732.47021484375,-400000.0625,-16213.75,-400000.0625,-6168.31982421875,-400000.0625
155.21613240242004,-400000.0625,-7025.669921875,-4726.7001953125,-400000.0625,-16204.8798828125,-400000.0625,-6165.02978515625,-400000.0625
155.23003602027893,-400000.0625,-7033.77978515625,-4728.27001953125,-400000.0625,-16206.2197265625,-400000.0625,-6162.35986328125,-400000.0625
155.26326608657837,-400000.0625,-7036.06982421875,-4731.22998046875,-400000.0625,-16214.7998046875,-400000.0625,-6165.7001953125,-400000.0625
155.28368520736694,-400000.0625,-7030.10986328125,-4728.990234375,-400000.0625,-16212.419921875,-400000.0625,-6165.60009765625,-400000.0625
155.2979645729065,-400000.0625,-7024.77001953125,-4726.22021484375,-400000.0625,-16209.3203125,-400000.0625,-6160.259765625,-400000.0625
155.31749629974365,-400000.0625,-7023.91015625,-4724.1201171875,-400000.0625,-16205.599609375,-400000.0625,-6151.72021484375,-400000.0625
155.32908368110657,-400000.0625,-7026.240234375,-4727.509765625,-400000.0625,-16205.7900390625,-400000.0625,-6153.2998046875,-400000.0625
155.3520655632019,-400000.0625,-7041.35986328125,-4740.52001953125,-400000.0625,-16214.419921875,-400000.0625,-6166.7001953125,-400000.0625
155.3861255645752,-400000.0625,-7041.97998046875,-4740.2900390625,-400000.0625,-16216.9501953125,-400000.0625,-6170.1298828125,-400000.0625
155.40867495536804,-400000.0625,-7035.4501953125,-4736.66015625,-400000.0625,-16214.23046875,-400000.0625,-6163.68994140625,-400000.0625
155.42426991462708,-400000.0625,-7024.10009765625,-4726.509765625,-400000.0625,-16202.740234375,-400000.0625,-6153.6298828125,-400000.0625
155.44255423545837,-400000.0625,-7024.91015625,-4726.31982421875,-400000.0625,-16201.2099609375,-400000.0625,-6151.25,-400000.0625
155.45630860328674,-400000.0625,-7034.68017578125,-4733.56005859375,-400000.0625,-16214.2802734375,-400000.0625,-6160.58984375,-400000.0625
155.48734593391418,-400000.0625,-7030.009765625,-4730.990234375,-400000.0625,-16214.4697265625,-400000.0625,-6160.31005859375,-400000.0625
155.50583028793335,-400000.0625,-7028.68017578125,-4731.27001953125,-400000.0625,-16209.83984375,-400000.0625,-6153.2001953125,-400000.0625
155.52479362487793,-400000.0625,-7023.43017578125,-4727.080078125,-400000.0625,-16206.1201171875,-400000.0625,-6148.669921875,-400000.0625
155.54694318771362,-400000.0625,-7027.2001953125,-4730.89013671875,-400000.0625,-16205.740234375,-400000.0625,-6151.6298828125,-400000.0625
155.56211113929749,-400000.0625,-7033.2998046875,-4734.330078125,-400000.0625,-16208.98046875,-400000.0625,-6157.64013671875,-400000.0625
155.59324741363525,-400000.0625,-7032.06005859375,-4732.1298828125,-400000.0625,-16211.8896484375,-400000.0625,-6158.64013671875,-400000.0625
155.61539673805237,-400000.0625,-7024.18994140625,-4726.41015625,-400000.0625,-16204.0703125,-400000.0625,-6155.5400390625,-400000.0625
155.6282570362091,-400000.0625,-7016.60986328125,-4718.58984375,-400000.0625,-16198.830078125,-400000.0625,-6147.10009765625,-400000.0625
155.64770936965942,-400000.0625,-7022.2900390625,-4724.60009765625,-400000.0625,-16199.400390625,-400000.0625,-6149.77001953125,-400000.0625
155.65850138664246,-400000.0625,-7031.10986328125,-4732.31982421875,-400000.0625,-16204.5498046875,-400000.0625,-6157.58984375,-400000.0625
155.68217086791992,-400000.0625,-7027.72021484375,-4730.509765625,-400000.0625,-16206.26953125,-400000.0625,-6158.919921875,-400000.0625
155.71236062049866,-400000.0625,-7023.33984375,-4729.3701171875,-400000.0625,-16206.1201171875,-400000.0625,-6156.06005859375,-400000.0625
155.72632813453674,-400000.0625,-7016.18017578125,-4721.4501953125,-400000.0625,-16200.16015625,-400000.0625,-6153.6298828125,-400000.0625
155.74762678146362,-400000.0625,-7023.669921875,-4728.509765625,-400000.0625,-16203.830078125,-400000.0625,-6153.580078125,-400000.0625
155.76351404190063,-400000.0625,-7028.39013671875,-4732.60986328125,-400000.0625,-16207.080078125,-400000.0625,-6157.68994140625,-400000.0625
155.78513312339783,-400000.0625,-7027.47998046875,-4730.18017578125,-400000.0625,-16204.3095703125,-400000.0625,-6156.68017578125,-400000.0625
155.82069420814514,-400000.0625,-7022.14013671875,-4727.35986328125,-400000.0625,-16201.58984375,-400000.0625,-6151.8701171875,-400000.0625
155.84032726287842,-400000.0625,-7019.89990234375,-4728.89013671875,-400000.0625,-16208.5595703125,-400000.0625,-6152.919921875,-400000.0625
155.85693359375,-400000.0625,-7021.669921875,-4728.89013671875,-400000.0625,-16209.2197265625,-400000.0625,-6154.10986328125,-400000.0625
155.8779811859131,-400000.0625,-7029.72021484375,-4734.759765625,-400000.0625,-16212.3203125,-400000.0625,-6159.16015625,-400000.0625
155.8934395313263,-400000.0625,-7032.06005859375,-4734.330078125,-400000.0625,-16214.1796875,-400000.0625,-6163.64990234375,-400000.0625
155.93828701972961,-400000.0625,-7026.009765625,-4729.509765625,-400000.0625,-16209.41015625,-400000.0625,-6157.10986328125,-400000.0625
155.96264243125916,-400000.0625,-7018.89990234375,-4724.1201171875,-400000.0625,-16195.58984375,-400000.0625,-6146.2900390625,-400000.0625
155.98883533477783,-400000.0625,-7018.52001953125,-4724.7900390625,-400000.0625,-16199.0703125,-400000.0625,-6152.580078125,-400000.0625
156.01187658309937,-400000.0625,-7029.81982421875,-4734.08984375,-400000.0625,-16212.1796875,-400000.0625,-6160.06982421875,-400000.0625
156.0489571094513,-400000.0625,-7030.68017578125,-4736.7099609375,-400000.0625,-16212.75,-400000.0625,-6162.97998046875,-400000.0625
156.06925415992737,-400000.0625,-7021.27978515625,-4729.75,-400000.0625,-16208.75,-400000.0625,-6154.009765625,-400000.0625
156.08797359466553,-400000.0625,-7020.43017578125,-4730.419921875,-400000.0625,-16208.599609375,-400000.0625,-6154.58984375,-400000.0625
156.10557961463928,-400000.0625,-7023.85986328125,-4731.75,-400000.0625,-16209.7998046875,-400000.0625,-6154.10986328125,-400000.0625
156.12831282615662,-400000.0625,-7030.10986328125,-4735.990234375,-400000.0625,-16211.509765625,-400000.0625,-6157.58984375,-400000.0625
156.16339302062988,-400000.0625,-7028.72021484375,-4733.08984375,-400000.0625,-16203.7900390625,-400000.0625,-6157.8798828125,-400000.0625
156.17570281028748,-400000.0625,-7017.330078125,-4723.06982421875,-400000.0625,-16195.6298828125,-400000.0625,-6146.240234375,-400000.0625
156.18954396247864,-400000.0625,-7011.509765625,-4719.02001953125,-400000.0625,-16192.580078125,-400000.0625,-6141.6201171875,-400000.0625
156.2016565799713,-400000.0625,-7023.72021484375,-4730.60986328125,-400000.0625,-16206.599609375,-400000.0625,-6157.10986328125,-400000.0625
156.22044920921326,-400000.0625,-7031.2998046875,-4741.10009765625,-400000.0625,-16216.23046875,-400000.0625,-6159.35009765625,-400000.0625
156.23635625839233,-400000.0625,-7029.6298828125,-4741.52978515625,-400000.0625,-16211.650390625,-400000.0625,-6158.64013671875,-400000.0625
156.26956701278687,-400000.0625,-7023.18994140625,-4734.7099609375,-400000.0625,-16204.3603515625,-400000.0625,-6151.06005859375,-400000.0625
156.28915357589722,-400000.0625,-7026.14990234375,-4734.0400390625,-400000.0625,-16204.650390625,-400000.0625,-6150.14990234375,-400000.0625
156.30775785446167,-400000.0625,-7029.6298828125,-4739.2900390625,-400000.0625,-16210.509765625,-400000.0625,-6153.16015625,-400000.0625
156.3208749294281,-400000.0625,-7019.22998046875,-4735.56982421875,-400000.0625,-16203.98046875,-400000.0625,-6159.5,-400000.0625
156.3333396911621,-400000.0625,-7022.6201171875,-4734.3701171875,-400000.0625,-16199.4501953125,-400000.0625,-6157.490234375,-400000.0625
156.3534471988678,-400000.0625,-7019.6201171875,-4731.60986328125,-400000.0625,-16203.9296875,-400000.0625,-6157.68994140625,-400000.0625
156.3861153125763,-400000.0625,-7016.7998046875,-4730.56005859375,-400000.0625,-16206.4599609375,-400000.0625,-6160.5498046875,-400000.0625
156.40085101127625,-400000.0625,-7020.330078125,-4732.22998046875,-400000.0625,-16209.080078125,-400000.0625,-6160.31005859375,-400000.0625
156.4233193397522,-400000.0625,-7022.14013671875,-4734.56005859375,-400000.0625,-16206.41015625,-400000.0625,-6158.5400390625,-400000.0625
156.4373915195465,-400000.0625,-7018.0400390625,-4730.85009765625,-400000.0625,-16200.5400390625,-400000.0625,-6155.43994140625,-400000.0625
156.45475506782532,-400000.0625,-7008.7900390625,-4724.60009765625,-400000.0625,-16194.5400390625,-400000.0625,-6150.52978515625,-400000.0625
156.4835548400879,-400000.0625,-7010.60009765625,-4726.60009765625,-400000.0625,-16195.8203125,-400000.0625,-6150.25,-400000.0625
156.50111961364746,-400000.0625,-7018.66015625,-4728.080078125,-400000.0625,-16204.259765625,-400000.0625,-6156.5400390625,-400000.0625
156.52245807647705,-400000.0625,-7020.81005859375,-4730.89013671875,-400000.0625,-16206.2197265625,-400000.0625,-6161.5,-400000.0625
156.54651999473572,-400000.0625,-7022.52001953125,-4731.60986328125,-400000.0625,-16202.1201171875,-400000.0625,-6156.64013671875,-400000.0625
156.55953645706177,-400000.0625,-7019.52001953125,-4729.7001953125,-400000.0625,-16202.259765625,-400000.0625,-6155.68017578125,-400000.0625
156.58887934684753,-400000.0625,-7010.080078125,-4723.02001953125,-400000.0625,-16200.58984375,-400000.0625,-6154.39013671875,-400000.0625
156.6162178516388,-400000.0625,-7010.169921875,-4725.64990234375,-400000.0625,-16199.0703125,-400000.0625,-6155.58984375,-400000.0625
156.63237166404724,-400000.0625,-7021.330078125,-4732.509765625,-400000.0625,-16206.26953125,-400000.0625,-6160.93017578125,-400000.0625
156.65056490898132,-400000.0625,-7021.0498046875,-4737.0400390625,-400000.0625,-16205.5498046875,-400000.0625,-6160.830078125,-400000.0625
156.66230821609497,-400000.0625,-7011.990234375,-4728.41015625,-400000.0625,-16195.73046875,-400000.0625,-6153.81982421875,-400000.0625
156.69612741470337,-400000.0625,-7015.56005859375,-4732.47021484375,-400000.0625,-16202.740234375,-400000.0625,-6158.77978515625,-400000.0625
156.7169451713562,-400000.0625,-7023.6201171875,-4739.85986328125,-400000.0625,-16210.5595703125,-400000.0625,-6162.02001953125,-400000.0625
156.73137784004211,-400000.0625,-7028.91015625,-4740.91015625,-400000.0625,-16212.849609375,-400000.0625,-6166.31982421875,-400000.0625
156.75239324569702,-400000.0625,-7025.47998046875,-4737.56982421875,-400000.0625,-16207.41015625,-400000.0625,-6162.35986328125,-400000.0625
156.77152037620544,-400000.0625,-7020.89990234375,-4735.56982421875,-400000.0625,-16200.1201171875,-400000.0625,-6157.02001953125,-400000.0625
156.8008382320404,-400000.0625,-7016.990234375,-4733.66015625,-400000.0625,-16199.6396484375,-400000.0625,-6159.58984375,-400000.0625
156.81940841674805,-400000.0625,-7015.27978515625,-4729.7998046875,-400000.0625,-16194.8701171875,-400000.0625,-6157.2099609375,-400000.0625
156.83362650871277,-400000.0625,-7011.02978515625,-4727.60009765625,-400000.0625,-16197.2099609375,-400000.0625,-6157.2099609375,-400000.0625
156.8522617816925,-400000.0625,-7012.18017578125,-4729.31982421875,-400000.0625,-16202.169921875,-400000.0625,-6156.8701171875,-400000.0625
156.86758375167847,-400000.0625,-7016.9501953125,-4733.52001953125,-400000.0625,-16205.83984375,-400000.0625,-6162.5,-400000.0625
156.88508892059326,-400000.0625,-7013.509765625,-4731.509765625,-400000.0625,-16199.830078125,-400000.0625,-6160.31005859375,-400000.0625
156.92816948890686,-400000.0625,-7016.60986328125,-4735.759765625,-400000.0625,-16198.2099609375,-400000.0625,-6159.1201171875,-400000.0625
156.94139981269836,-400000.0625,-7018.85009765625,-4736.9501953125,-400000.0625,-16204.3095703125,-400000.0625,-6162.68994140625,-400000.0625
156.96263766288757,-400000.0625,-7019.14013671875,-4732.66015625,-400000.0625,-16204.169921875,-400000.0625,-6157.97021484375,-400000.0625
156.97884392738342,-400000.0625,-7008.60009765625,-4726.02978515625,-400000.0625,-16197.5400390625,-400000.0625,-6150.77001953125,-400000.0625
156.99881267547607,-400000.0625,-7004.39990234375,-4721.68994140625,-400000.0625,-16193.9599609375,-400000.0625,-6148.77001953125,-400000.0625
157.04084491729736,-400000.0625,-7014.89990234375,-4733.52001953125,-400000.0625,-16200.830078125,-400000.0625,-6158.35009765625,-400000.0625
157.05289006233215,-400000.0625,-7022.56982421875,-4738.669921875,-400000.0625,-16201.830078125,-400000.0625,-6161.740234375,-400000.0625
157.07313323020935,-400000.0625,-7024.10009765625,-4740.47998046875,-400000.0625,-16205.169921875,-400000.0625,-6163.31005859375,-400000.0625
157.08850026130676,-400000.0625,-7019.66015625,-4735.56982421875,-400000.0625,-16199.9697265625,-400000.0625,-6155.58984375,-400000.0625
157.10004830360413,-400000.0625,-7016.18017578125,-4731.18017578125,-400000.0625,-16194.0595703125,-400000.0625,-6149.10009765625,-400000.0625
157.14201307296753,-400000.0625,-7014.85009765625,-4732.31982421875,-400000.0625,-16198.16015625,-400000.0625,-6155.5400390625,-400000.0625
157.1575150489807,-400000.0625,-7023.72021484375,-4737.43017578125,-400000.0625,-16204.41015625,-400000.0625,-6163.7900390625,-400000.0625
157.17320609092712,-400000.0625,-7024.81005859375,-4742.18994140625,-400000.0625,-16207.7900390625,-400000.0625,-6171.990234375,-400000.0625
157.19660925865173,-400000.0625,-7016.66015625,-4735.7998046875,-400000.0625,-16200.830078125,-400000.0625,-6163.93017578125,-400000.0625
157.21445536613464,-400000.0625,-7013.1298828125,-4731.0400390625,-400000.0625,-16194.8203125,-400000.0625,-6154.490234375,-400000.0625
157.24702072143555,-400000.0625,-7012.7998046875,-4732.1298828125,-400000.0625,-16194.3896484375,-400000.0625,-6151.39013671875,-400000.0625
157.2624533176422,-400000.0625,-7016.47021484375,-4733.66015625,-400000.0625,-16197.73046875,-400000.0625,-6158.97021484375,-400000.0625
157.28631782531738,-400000.0625,-7021.52001953125,-4735.52001953125,-400000.0625,-16199.8798828125,-400000.0625,-6160.77978515625,-400000.0625
157.30470323562622,-400000.0625,-7010.89013671875,-4729.02978515625,-400000.0625,-16191.33984375,-400000.0625,-6156.72998046875,-400000.0625
157.32162618637085,-400000.0625,-7010.75,-4730.89013671875,-400000.0625,-16192.25,-400000.0625,-6156.64013671875,-400000.0625
157.35394430160522,-400000.0625,-7019.81005859375,-4734.56005859375,-400000.0625,-16195.6298828125,-400000.0625,-6158.2998046875,-400000.0625
157.3751425743103,-400000.0625,-7022.47998046875,-4739.56982421875,-400000.0625,-16194.2998046875,-400000.0625,-6164.68994140625,-400000.0625
157.39366555213928,-400000.0625,-7024.580078125,-4741.759765625,-400000.0625,-16195.0595703125,-400000.0625,-6166.7900390625,-400000.0625
157.41236352920532,-400000.0625,-7019.47021484375,-4737.14013671875,-400000.0625,-16191.76953125,-400000.0625,-6157.77978515625,-400000.0625
157.42239999771118,-400000.0625,-7007.5,-4729.7001953125,-400000.0625,-16185.240234375,-400000.0625,-6152.68017578125,-400000.0625
157.45178079605103,-400000.0625,-7011.02978515625,-4738.3798828125,-400000.0625,-16192.8203125,-400000.0625,-6160.93017578125,-400000.0625
157.4648597240448,-400000.0625,-7024.47998046875,-4747.580078125,-400000.0625,-16203.98046875,-400000.0625,-6170.7001953125,-400000.0625
157.48816633224487,-400000.0625,-7025.2900390625,-4741.18994140625,-400000.0625,-16204.4501953125,-400000.0625,-6171.31982421875,-400000.0625
157.5053834915161,-400000.0625,-7016.9501953125,-4737.08984375,-400000.0625,-16195.3896484375,-400000.0625,-6164.27001953125,-400000.0625
157.52009773254395,-400000.0625,-7013.89013671875,-4739.43017578125,-400000.0625,-16188.0,-400000.0625,-6163.7900390625,-400000.0625
157.53440856933594,-400000.0625,-7022.0,-4743.43017578125,-400000.0625,-16193.1103515625,-400000.0625,-6167.83984375,-400000.0625
157.56881976127625,-400000.0625,-7025.9599609375,-4746.06005859375,-400000.0625,-16203.830078125,-400000.0625,-6173.330078125,-400000.0625
157.58769965171814,-400000.0625,-7021.52001953125,-4742.47998046875,-400000.0625,-16200.01953125,-400000.0625,-6167.60009765625,-400000.0625
157.60114169120789,-400000.0625,-7015.990234375,-4734.990234375,-400000.0625,-16193.25,-400000.0625,-6162.02001953125,-400000.0625
157.62226223945618,-400000.0625,-7013.89013671875,-4733.60986328125,-400000.0625,-16188.7197265625,-400000.0625,-6158.830078125,-400000.0625
157.6392583847046,-400000.0625,-7015.31982421875,-4735.7998046875,-400000.0625,-16189.2001953125,-400000.0625,-6160.93017578125,-400000.0625
157.6740016937256,-400000.0625,-7022.10009765625,-4741.240234375,-400000.0625,-16193.919921875,-400000.0625,-6166.97998046875,-400000.0625
157.74056196212769,-400000.0625,-7019.81005859375,-4741.759765625,-400000.0625,-16191.580078125,-400000.0625,-6163.35986328125,-400000.0625
157.76972436904907,-400000.0625,-7017.419921875,-4739.56982421875,-400000.0625,-16190.580078125,-400000.0625,-6162.740234375,-400000.0625
157.7990210056305,-400000.0625,-7022.14013671875,-4745.6298828125,-400000.0625,-16198.2099609375,-400000.0625,-6163.259765625,-400000.0625
157.82330060005188,-400000.0625,-7029.490234375,-4754.02001953125,-400000.0625,-16208.5595703125,-400000.0625,-6167.93994140625,-400000.0625
157.836656332016,-400000.0625,-7031.490234375,-4753.5400390625,-400000.0625,-16208.7001953125,-400000.0625,-6164.5,-400000.0625
157.86020922660828,-400000.0625,-7028.580078125,-4751.06005859375,-400000.0625,-16203.01953125,-400000.0625,-6159.830078125,-400000.0625
157.91883182525635,-400000.0625,-7015.75,-4742.10009765625,-400000.0625,-16197.6396484375,-400000.0625,-6150.47998046875,-400000.0625
157.94404101371765,-400000.0625,-7019.08984375,-4740.85986328125,-400000.0625,-16191.76953125,-400000.0625,-6147.10009765625,-400000.0625
157.9668412208557,-400000.0625,-7028.06005859375,-4753.39990234375,-400000.0625,-16201.4501953125,-400000.0625,-6155.830078125,-400000.0625
158.00342273712158,-400000.0625,-7023.669921875,-4754.72998046875,-400000.0625,-16201.3095703125,-400000.0625,-6155.06005859375,-400000.0625
158.02339553833008,-400000.0625,-7013.509765625,-4747.919921875,-400000.0625,-16201.8798828125,-400000.0625,-6153.8701171875,-400000.0625
158.06299543380737,-400000.0625,-7003.7900390625,-4741.3798828125,-400000.0625,-16194.9697265625,-400000.0625,-6149.39013671875,-400000.0625
158.08087968826294,-400000.0625,-7007.7900390625,-4742.0,-400000.0625,-16191.580078125,-400000.0625,-6147.9599609375,-400000.0625
158.11209177970886,-400000.0625,-7011.41015625,-4747.33984375,-400000.0625,-16196.9697265625,-400000.0625,-6154.58984375,-400000.0625
158.14128923416138,-400000.0625,-7012.22998046875,-4747.919921875,-400000.0625,-16198.919921875,-400000.0625,-6156.25,-400000.0625
158.16148114204407,-400000.0625,-7009.31982421875,-4741.759765625,-400000.0625,-16197.6396484375,-400000.0625,-6150.10009765625,-400000.0625
158.19766473770142,-400000.0625,-7007.93017578125,-4742.81005859375,-400000.0625,-16198.2998046875,-400000.0625,-6147.47998046875,-400000.0625
158.23340940475464,-400000.0625,-7011.990234375,-4750.2998046875,-400000.0625,-16203.4501953125,-400000.0625,-6150.2900390625,-400000.0625
158.25716710090637,-400000.0625,-7012.56005859375,-4750.919921875,-400000.0625,-16201.5,-400000.0625,-6149.2001953125,-400000.0625
158.2782371044159,-400000.0625,-7009.83984375,-4749.35009765625,-400000.0625,-16200.8798828125,-400000.0625,-6148.43017578125,-400000.0625
158.35727787017822,-400000.0625,-7019.14013671875,-4752.8701171875,-400000.0625,-16204.0703125,-400000.0625,-6147.91015625,-400000.0625
158.39732933044434,-400000.0625,-7015.47021484375,-4749.72998046875,-400000.0625,-16199.919921875,-400000.0625,-6145.43017578125,-400000.0625
158.43070006370544,-400000.0625,-7010.509765625,-4745.77001953125,-400000.0625,-16197.01953125,-400000.0625,-6145.6201171875,-400000.0625
158.45273780822754,-400000.0625,-7008.60009765625,-4745.10009765625,-400000.0625,-16198.5400390625,-400000.0625,-6147.669921875,-400000.0625
158.47891759872437,-400000.0625,-7018.18994140625,-4749.009765625,-400000.0625,-16203.98046875,-400000.0625,-6152.43994140625,-400000.0625
158.51897311210632,-400000.0625,-7015.0400390625,-4743.580078125,-400000.0625,-16199.8798828125,-400000.0625,-6145.669921875,-400000.0625
158.5382435321808,-400000.0625,-7010.27001953125,-4746.14990234375,-400000.0625,-16198.1103515625,-400000.0625,-6142.43017578125,-400000.0625
158.55882477760315,-400000.0625,-7013.080078125,-4751.2099609375,-400000.0625,-16198.6396484375,-400000.0625,-6146.6201171875,-400000.0625
158.58127284049988,-400000.0625,-7020.669921875,-4753.97021484375,-400000.0625,-16201.1201171875,-400000.0625,-6150.72021484375,-400000.0625
158.61426305770874,-400000.0625,-7016.0400390625,-4749.72998046875,-400000.0625,-16199.2099609375,-400000.0625,-6151.2001953125,-400000.0625
158.6309380531311,-400000.0625,-7008.740234375,-4743.39013671875,-400000.0625,-16194.25,-400000.0625,-6139.27978515625,-400000.0625
158.65239477157593,-400000.0625,-7013.66015625,-4745.33984375,-400000.0625,-16198.73046875,-400000.0625,-6142.52001953125,-400000.0625
158.6673707962036,-400000.0625,-7018.14013671875,-4751.919921875,-400000.0625,-16200.6396484375,-400000.0625,-6147.39013671875,-400000.0625
158.6776626110077,-400000.0625,-7016.18017578125,-4752.68017578125,-400000.0625,-16200.349609375,-400000.0625,-6154.68017578125,-400000.0625
158.68937587738037,-400000.0625,-7016.75,-4751.39990234375,-400000.0625,-16204.9296875,-400000.0625,-6151.2998046875,-400000.0625
158.70753836631775,-400000.0625,-7009.7900390625,-4745.77001953125,-400000.0625,-16200.740234375,-400000.0625,-6141.14013671875,-400000.0625
158.71724700927734,-400000.0625,-7006.740234375,-4744.47998046875,-400000.0625,-16199.4501953125,-400000.0625,-6137.47021484375,-400000.0625
158.72926473617554,-400000.0625,-7015.419921875,-4754.10986328125,-400000.0625,-16204.8798828125,-400000.0625,-6146.0,-400000.0625
158.7374725341797,-400000.0625,-7018.759765625,-4756.02001953125,-400000.0625,-16206.5498046875,-400000.0625,-6145.0498046875,-400000.0625
158.7506296634674,-400000.0625,-7016.27978515625,-4746.9599609375,-400000.0625,-16199.8798828125,-400000.0625,-6141.9501953125,-400000.0625
158.75931930541992,-400000.0625,-7014.60986328125,-4740.759765625,-400000.0625,-16199.7802734375,-400000.0625,-6136.419921875,-400000.0625
158.76711010932922,-400000.0625,-7006.64990234375,-4739.89990234375,-400000.0625,-16196.1103515625,-400000.0625,-6131.93994140625,-400000.0625
158.78215098381042,-400000.0625,-7001.97021484375,-4743.43017578125,-400000.0625,-16190.6298828125,-400000.0625,-6138.47021484375,-400000.0625
158.79184341430664,-400000.0625,-7012.080078125,-4753.02001953125,-400000.0625,-16196.16015625,-400000.0625,-6145.9501953125,-400000.0625
158.80896258354187,-400000.0625,-7020.43017578125,-4753.39990234375,-400000.0625,-16202.5498046875,-400000.0625,-6148.52978515625,-400000.0625
158.81967735290527,-400000.0625,-7015.56005859375,-4746.25,-400000.0625,-16193.580078125,-400000.0625,-6142.56982421875,-400000.0625
158.82735013961792,-400000.0625,-7014.1298828125,-4744.72021484375,-400000.0625,-16193.8701171875,-400000.0625,-6141.7099609375,-400000.0625
158.83480954170227,-400000.0625,-7018.60986328125,-4747.72998046875,-400000.0625,-16200.5400390625,-400000.0625,-6144.669921875,-400000.0625
158.84861969947815,-400000.0625,-7016.60986328125,-4754.97021484375,-400000.0625,-16204.6904296875,-400000.0625,-6145.52978515625,-400000.0625
158.8574640750885,-400000.0625,-7012.419921875,-4752.68017578125,-400000.0625,-16200.349609375,-400000.0625,-6137.93994140625,-400000.0625
158.86517429351807,-400000.0625,-7011.75,-4746.14990234375,-400000.0625,-16193.6298828125,-400000.0625,-6135.89013671875,-400000.0625
158.87328386306763,-400000.0625,-7011.89013671875,-4746.8701171875,-400000.0625,-16194.2998046875,-400000.0625,-6135.7998046875,-400000.0625
158.88598442077637,-400000.0625,-7018.56982421875,-4752.02001953125,-400000.0625,-16200.8798828125,-400000.0625,-6141.0400390625,-400000.0625
158.89453864097595,-400000.0625,-7021.43017578125,-4754.259765625,-400000.0625,-16199.919921875,-400000.0625,-6141.22998046875,-400000.0625
158.9152672290802,-400000.0625,-7015.08984375,-4748.81982421875,-400000.0625,-16196.349609375,-400000.0625,-6140.52001953125,-400000.0625
158.92520999908447,-400000.0625,-7006.93017578125,-4741.3798828125,-400000.0625,-16189.0498046875,-400000.0625,-6133.7001953125,-400000.0625
158.93656396865845,-400000.0625,-7015.22998046875,-4748.490234375,-400000.0625,-16190.91015625,-400000.0625,-6134.7001953125,-400000.0625
158.95107245445251,-400000.0625,-7026.9599609375,-4759.259765625,-400000.0625,-16199.9697265625,-400000.0625,-6144.330078125,-400000.0625
158.95982885360718,-400000.0625,-7026.39013671875,-4758.7900390625,-400000.0625,-16200.01953125,-400000.0625,-6149.33984375,-400000.0625
158.96734309196472,-400000.0625,-7023.18994140625,-4751.58984375,-400000.0625,-16192.490234375,-400000.0625,-6140.89990234375,-400000.0625
158.9828851222992,-400000.0625,-7018.66015625,-4742.0,-400000.0625,-16184.9501953125,-400000.0625,-6133.509765625,-400000.0625
158.99988913536072,-400000.0625,-7014.7998046875,-4743.52978515625,-400000.0625,-16189.33984375,-400000.0625,-6135.93994140625,-400000.0625
159.0287160873413,-400000.0625,-7017.3701171875,-4747.6298828125,-400000.0625,-16193.9599609375,-400000.0625,-6141.89990234375,-400000.0625
159.03933358192444,-400000.0625,-7021.6201171875,-4749.25,-400000.0625,-16194.150390625,-400000.0625,-6141.52001953125,-400000.0625
159.05096650123596,-400000.0625,-7017.52001953125,-4748.2001953125,-400000.0625,-16194.490234375,-400000.0625,-6138.60986328125,-400000.0625
159.0623152256012,-400000.0625,-7017.08984375,-4745.33984375,-400000.0625,-16185.1904296875,-400000.0625,-6132.64990234375,-400000.0625
159.07335138320923,-400000.0625,-7017.7998046875,-4740.72021484375,-400000.0625,-16183.759765625,-400000.0625,-6132.7001953125,-400000.0625
159.08757615089417,-400000.0625,-7020.0498046875,-4745.77001953125,-400000.0625,-16188.8603515625,-400000.0625,-6133.93994140625,-400000.0625
159.09932827949524,-400000.0625,-7021.0,-4749.6298828125,-400000.0625,-16194.2001953125,-400000.0625,-6142.0,-400000.0625
159.11256742477417,-400000.0625,-7021.47998046875,-4749.43994140625,-400000.0625,-16193.009765625,-400000.0625,-6143.759765625,-400000.0625
159.1345317363739,-400000.0625,-7019.6201171875,-4744.85986328125,-400000.0625,-16187.76953125,-400000.0625,-6137.419921875,-400000.0625
159.1494586467743,-400000.0625,-7013.3701171875,-4742.580078125,-400000.0625,-16188.33984375,-400000.0625,-6137.93994140625,-400000.0625
159.15908455848694,-400000.0625,-7015.08984375,-4744.39013671875,-400000.0625,-16192.76953125,-400000.0625,-6142.18994140625,-400000.0625
159.1882357597351,-400000.0625,-7016.18017578125,-4745.2900390625,-400000.0625,-16190.6298828125,-400000.0625,-6139.85009765625,-400000.0625
159.20038175582886,-400000.0625,-7020.18994140625,-4747.490234375,-400000.0625,-16188.9599609375,-400000.0625,-6141.14013671875,-400000.0625
159.21990418434143,-400000.0625,-7019.52001953125,-4746.2900390625,-400000.0625,-16189.2001953125,-400000.0625,-6133.93994140625,-400000.0625
159.2503490447998,-400000.0625,-7013.1298828125,-4741.240234375,-400000.0625,-16186.91015625,-400000.0625,-6129.7900390625,-400000.0625
159.26608967781067,-400000.0625,-7011.56005859375,-4741.2900390625,-400000.0625,-16181.419921875,-400000.0625,-6136.93994140625,-400000.0625
159.29584121704102,-400000.0625,-7023.3798828125,-4748.06005859375,-400000.0625,-16185.8095703125,-400000.0625,-6144.91015625,-400000.0625
159.31111812591553,-400000.0625,-7022.10009765625,-4746.580078125,-400000.0625,-16187.6201171875,-400000.0625,-6143.08984375,-400000.0625
159.32452058792114,-400000.0625,-7020.43017578125,-4745.0498046875,-400000.0625,-16189.240234375,-400000.0625,-6140.27978515625,-400000.0625
159.34737706184387,-400000.0625,-7018.759765625,-4745.2900390625,-400000.0625,-16185.1904296875,-400000.0625,-6138.60986328125,-400000.0625
159.36536169052124,-400000.0625,-7014.7998046875,-4744.43017578125,-400000.0625,-16184.759765625,-400000.0625,-6144.3798828125,-400000.0625
159.38117170333862,-400000.0625,-7024.85986328125,-4749.81982421875,-400000.0625,-16191.4404296875,-400000.0625,-6148.2900390625,-400000.0625
159.39904928207397,-400000.0625,-7021.52001953125,-4747.43994140625,-400000.0625,-16184.0498046875,-400000.0625,-6144.669921875,-400000.0625
159.41810035705566,-400000.0625,-7015.56005859375,-4745.2001953125,-400000.0625,-16181.419921875,-400000.0625,-6138.419921875,-400000.0625
159.4309949874878,-400000.0625,-7012.27001953125,-4743.10009765625,-400000.0625,-16180.23046875,-400000.0625,-6135.419921875,-400000.0625
159.45724201202393,-400000.0625,-7023.85986328125,-4749.8701171875,-400000.0625,-16184.8603515625,-400000.0625,-6140.18994140625,-400000.0625
159.47536611557007,-400000.0625,-7026.0498046875,-4751.490234375,-400000.0625,-16183.8603515625,-400000.0625,-6143.14013671875,-400000.0625
159.49395155906677,-400000.0625,-7024.669921875,-4748.490234375,-400000.0625,-16178.9404296875,-400000.0625,-6139.08984375,-400000.0625
159.50395226478577,-400000.0625,-7018.759765625,-4743.2900390625,-400000.0625,-16177.0400390625,-400000.0625,-6136.27978515625,-400000.0625
159.5190351009369,-400000.0625,-7015.56005859375,-4737.81005859375,-400000.0625,-16176.7998046875,-400000.0625,-6133.7998046875,-400000.0625
159.5332362651825,-400000.0625,-7024.91015625,-4746.2001953125,-400000.0625,-16185.0498046875,-400000.0625,-6137.56005859375,-400000.0625
159.56044840812683,-400000.0625,-7032.35009765625,-4752.97021484375,-400000.0625,-16188.9599609375,-400000.0625,-6145.56982421875,-400000.0625
159.5685362815857,-400000.0625,-7028.06005859375,-4750.68017578125,-400000.0625,-16185.1904296875,-400000.0625,-6142.3798828125,-400000.0625
159.58129978179932,-400000.0625,-7023.52978515625,-4746.580078125,-400000.0625,-16176.650390625,-400000.0625,-6137.18017578125,-400000.0625
159.59280014038086,-400000.0625,-7022.0,-4748.39013671875,-400000.0625,-16181.08984375,-400000.0625,-6140.56982421875,-400000.0625
159.6006305217743,-400000.0625,-7031.490234375,-4756.02001953125,-400000.0625,-16188.7197265625,-400000.0625,-6146.2900390625,-400000.0625
159.611412525177,-400000.0625,-7030.68017578125,-4753.919921875,-400000.0625,-16188.91015625,-400000.0625,-6146.91015625,-400000.0625
159.6198399066925,-400000.0625,-7025.52978515625,-4749.580078125,-400000.0625,-16184.9501953125,-400000.0625,-6141.85009765625,-400000.0625
159.62718224525452,-400000.0625,-7021.27978515625,-4746.52978515625,-400000.0625,-16180.849609375,-400000.0625,-6138.990234375,-400000.0625
159.63380241394043,-400000.0625,-7028.52978515625,-4752.35009765625,-400000.0625,-16183.4697265625,-400000.0625,-6140.759765625,-400000.0625
159.65610432624817,-400000.0625,-7032.10986328125,-4755.2099609375,-400000.0625,-16184.900390625,-400000.0625,-6142.66015625,-400000.0625
159.66318893432617,-400000.0625,-7034.64013671875,-4759.60009765625,-400000.0625,-16184.08984375,-400000.0625,-6144.47998046875,-400000.0625
159.67108750343323,-400000.0625,-7031.25,-4752.16015625,-400000.0625,-16182.9501953125,-400000.0625,-6138.330078125,-400000.0625
159.68190503120422,-400000.0625,-7035.35009765625,-4750.58984375,-400000.0625,-16187.240234375,-400000.0625,-6139.9501953125,-400000.0625
159.69014072418213,-400000.0625,-7034.06005859375,-4753.97021484375,-400000.0625,-16190.099609375,-400000.0625,-6144.91015625,-400000.0625
159.69784355163574,-400000.0625,-7021.0,-4746.2900390625,-400000.0625,-16182.6201171875,-400000.0625,-6153.72998046875,-400000.0625
159.70618391036987,-400000.0625,-7018.0400390625,-4746.580078125,-400000.0625,-16180.6103515625,-400000.0625,-6162.740234375,-400000.0625
159.71581411361694,-400000.0625,-7019.0400390625,-4741.85986328125,-400000.0625,-16179.66015625,-400000.0625,-6161.97998046875,-400000.0625
159.72324419021606,-400000.0625,-7013.27001953125,-4733.990234375,-400000.0625,-16179.330078125,-400000.0625,-6160.5498046875,-400000.0625
159.73109078407288,-400000.0625,-7013.0400390625,-4732.419921875,-400000.0625,-16181.419921875,-400000.0625,-6160.4501953125,-400000.0625
159.74119591712952,-400000.0625,-7012.22998046875,-4732.56005859375,-400000.0625,-16177.1796875,-400000.0625,-6162.02001953125,-400000.0625
159.7579391002655,-400000.0625,-7017.60986328125,-4736.759765625,-400000.0625,-16178.66015625,-400000.0625,-6166.22021484375,-400000.0625
159.7648730278015,-400000.0625,-7015.75,-4733.990234375,-400000.0625,-16180.849609375,-400000.0625,-6169.7998046875,-400000.0625
159.7736599445343,-400000.0625,-7010.27001953125,-4727.31982421875,-400000.0625,-16175.2197265625,-400000.0625,-6159.39990234375,-400000.0625
159.78329801559448,-400000.0625,-7009.1298828125,-4724.93017578125,-400000.0625,-16174.75,-400000.0625,-6159.58984375,-400000.0625
159.7905900478363,-400000.0625,-7010.7001953125,-4727.5498046875,-400000.0625,-16174.599609375,-400000.0625,-6162.259765625,-400000.0625
159.79750227928162,-400000.0625,-7012.31982421875,-4729.7998046875,-400000.0625,-16176.849609375,-400000.0625,-6158.5400390625,-400000.0625
159.80501651763916,-400000.0625,-7010.56005859375,-4727.7001953125,-400000.0625,-16177.23046875,-400000.0625,-6160.2099609375,-400000.0625
159.81772089004517,-400000.0625,-7005.22021484375,-4723.22021484375,-400000.0625,-16170.650390625,-400000.0625,-6160.97998046875,-400000.0625
159.82659888267517,-400000.0625,-7009.22021484375,-4726.02978515625,-400000.0625,-16172.740234375,-400000.0625,-6161.259765625,-400000.0625
159.83330583572388,-400000.0625,-7020.330078125,-4734.56005859375,-400000.0625,-16182.330078125,-400000.0625,-6165.509765625,-400000.0625
159.84239673614502,-400000.0625,-7024.240234375,-4737.08984375,-400000.0625,-16185.1396484375,-400000.0625,-6164.5,-400000.0625
159.86038756370544,-400000.0625,-7015.0400390625,-4732.31982421875,-400000.0625,-16178.75,-400000.0625,-6160.5498046875,-400000.0625
159.86756443977356,-400000.0625,-7012.93994140625,-4728.83984375,-400000.0625,-16175.3701171875,-400000.0625,-6159.5,-400000.0625
159.8766474723816,-400000.0625,-7015.0400390625,-4730.60986328125,-400000.0625,-16180.7099609375,-400000.0625,-6159.1201171875,-400000.0625
159.8858449459076,-400000.0625,-7021.47998046875,-4738.3798828125,-400000.0625,-16182.330078125,-400000.0625,-6161.93017578125,-400000.0625
159.89372181892395,-400000.0625,-7022.240234375,-4739.7099609375,-400000.0625,-16183.4697265625,-400000.0625,-6165.41015625,-400000.0625
159.9074535369873,-400000.0625,-7019.52001953125,-4735.9501953125,-400000.0625,-16181.7099609375,-400000.0625,-6159.35009765625,-400000.0625
159.9196059703827,-400000.0625,-7013.60986328125,-4727.93994140625,-400000.0625,-16174.83984375,-400000.0625,-6152.580078125,-400000.0625
159.92762231826782,-400000.0625,-7023.52978515625,-4735.419921875,-400000.0625,-16182.4697265625,-400000.0625,-6158.64013671875,-400000.0625
159.93459224700928,-400000.0625,-7026.580078125,-4743.77001953125,-400000.0625,-16191.099609375,-400000.0625,-6168.89013671875,-400000.0625
159.9474642276764,-400000.0625,-7026.9599609375,-4744.240234375,-400000.0625,-16188.8095703125,-400000.0625,-6166.169921875,-400000.0625
159.96233344078064,-400000.0625,-7024.3798828125,-4741.0498046875,-400000.0625,-16182.23046875,-400000.0625,-6158.77978515625,-400000.0625
159.9690272808075,-400000.0625,-7020.240234375,-4735.56982421875,-400000.0625,-16178.990234375,-400000.0625,-6153.43994140625,-400000.0625
159.9823215007782,-400000.0625,-7015.89990234375,-4732.22998046875,-400000.0625,-16177.509765625,-400000.0625,-6149.14990234375,-400000.0625
159.98988962173462,-400000.0625,-7022.759765625,-4739.2900390625,-400000.0625,-16179.7998046875,-400000.0625,-6156.919921875,-400000.0625
159.99736952781677,-400000.0625,-7029.72021484375,-4742.81005859375,-400000.0625,-16184.0498046875,-400000.0625,-6163.169921875,-400000.0625
160.00957489013672,-400000.0625,-7024.81005859375,-4733.75,-400000.0625,-16176.509765625,-400000.0625,-6157.77978515625,-400000.0625
160.02093815803528,-400000.0625,-7022.10009765625,-4731.60986328125,-400000.0625,-16179.419921875,-400000.0625,-6157.39990234375,-400000.0625
160.0285120010376,-400000.0625,-7026.85986328125,-4739.6201171875,-400000.0625,-16185.1396484375,-400000.0625,-6165.93017578125,-400000.0625
160.03511881828308,-400000.0625,-7034.16015625,-4746.33984375,-400000.0625,-16188.91015625,-400000.0625,-6167.080078125,-400000.0625
160.04606103897095,-400000.0625,-7035.02001953125,-4745.2900390625,-400000.0625,-16187.6201171875,-400000.0625,-6162.4501953125,-400000.0625
160.05549716949463,-400000.0625,-7027.47998046875,-4739.85986328125,-400000.0625,-16182.23046875,-400000.0625,-6158.8798828125,-400000.0625
160.0746328830719,-400000.0625,-7020.669921875,-4735.85009765625,-400000.0625,-16178.6103515625,-400000.0625,-6155.39990234375,-400000.0625
160.08903646469116,-400000.0625,-7022.14013671875,-4739.9501953125,-400000.0625,-16182.1904296875,-400000.0625,-6159.16015625,-400000.0625
160.10117030143738,-400000.0625,-7024.9599609375,-4738.7099609375,-400000.0625,-16182.0,-400000.0625,-6162.5,-400000.0625
160.11771893501282,-400000.0625,-7032.81982421875,-4743.47998046875,-400000.0625,-16186.0498046875,-400000.0625,-6163.64990234375,-400000.0625
160.12863850593567,-400000.0625,-7035.06982421875,-4743.0498046875,-400000.0625,-16186.099609375,-400000.0625,-6164.7900390625,-400000.0625
160.14842748641968,-400000.0625,-7031.06005859375,-4734.08984375,-400000.0625,-16180.7099609375,-400000.0625,-6159.740234375,-400000.0625
160.16332149505615,-400000.0625,-7028.43994140625,-4735.56982421875,-400000.0625,-16179.6103515625,-400000.0625,-6149.14990234375,-400000.0625
160.18812775611877,-400000.0625,-7032.10986328125,-4747.919921875,-400000.0625,-16184.6201171875,-400000.0625,-6153.490234375,-400000.0625
160.20148038864136,-400000.0625,-7039.06982421875,-4756.93017578125,-400000.0625,-16188.7197265625,-400000.0625,-6151.8701171875,-400000.0625
160.21852469444275,-400000.0625,-7033.72998046875,-4754.31005859375,-400000.0625,-16176.26953125,-400000.0625,-6142.89990234375,-400000.0625
160.23098134994507,-400000.0625,-7038.16015625,-4756.830078125,-400000.0625,-16184.1396484375,-400000.0625,-6139.3701171875,-400000.0625
160.24177432060242,-400000.0625,-7047.93994140625,-4766.89013671875,-400000.0625,-16182.4697265625,-400000.0625,-6137.509765625,-400000.0625
160.2537717819214,-400000.0625,-7053.81005859375,-4775.9501953125,-400000.0625,-16185.7099609375,-400000.0625,-6138.60986328125,-400000.0625
160.2636320590973,-400000.0625,-7048.080078125,-4773.43017578125,-400000.0625,-16185.48046875,-400000.0625,-6138.7998046875,-400000.0625
160.2902672290802,-400000.0625,-7044.1298828125,-4767.31982421875,-400000.0625,-16181.51953125,-400000.0625,-6129.169921875,-400000.0625
160.30213904380798,-400000.0625,-7038.2099609375,-4762.31982421875,-400000.0625,-16173.3603515625,-400000.0625,-6125.1201171875,-400000.0625
160.32125115394592,-400000.0625,-7031.97021484375,-4758.68994140625,-400000.0625,-16169.83984375,-400000.0625,-6124.31005859375,-400000.0625
160.33464193344116,-400000.0625,-7034.4501953125,-4764.41015625,-400000.0625,-16177.7998046875,-400000.0625,-6130.97998046875,-400000.0625
160.3508141040802,-400000.0625,-7042.1201171875,-4767.75,-400000.0625,-16183.9501953125,-400000.0625,-6134.02978515625,-400000.0625
160.3654956817627,-400000.0625,-7042.68994140625,-4767.56005859375,-400000.0625,-16181.2802734375,-400000.0625,-6127.06982421875,-400000.0625
160.3896083831787,-400000.0625,-7030.5400390625,-4757.5,-400000.0625,-16171.7900390625,-400000.0625,-6117.8701171875,-400000.0625
160.40106177330017,-400000.0625,-7035.4501953125,-4759.64990234375,-400000.0625,-16175.5595703125,-400000.0625,-6125.8798828125,-400000.0625
160.4207227230072,-400000.0625,-7047.7001953125,-4771.47021484375,-400000.0625,-16188.240234375,-400000.0625,-6135.3701171875,-400000.0625
160.43851161003113,-400000.0625,-7049.60986328125,-4775.72021484375,-400000.0625,-16191.7197265625,-400000.0625,-6138.3701171875,-400000.0625
160.45686054229736,-400000.0625,-7045.4599609375,-4768.7099609375,-400000.0625,-16186.5302734375,-400000.0625,-6135.0400390625,-400000.0625
160.46885180473328,-400000.0625,-7042.31005859375,-4763.64990234375,-400000.0625,-16181.900390625,-400000.0625,-6128.5,-400000.0625
160.49863290786743,-400000.0625,-7041.60009765625,-4765.60986328125,-400000.0625,-16179.849609375,-400000.0625,-6132.31982421875,-400000.0625
160.51725244522095,-400000.0625,-7038.64013671875,-4764.27001953125,-400000.0625,-16180.9501953125,-400000.0625,-6135.85009765625,-400000.0625
160.5295467376709,-400000.0625,-7051.75,-4770.66015625,-400000.0625,-16187.8603515625,-400000.0625,-6137.509765625,-400000.0625
160.54656147956848,-400000.0625,-7054.52001953125,-4771.419921875,-400000.0625,-16188.099609375,-400000.0625,-6136.31982421875,-400000.0625
160.560307264328,-400000.0625,-7045.169921875,-4763.1298828125,-400000.0625,-16180.23046875,-400000.0625,-6129.5498046875,-400000.0625
160.57505750656128,-400000.0625,-7041.02978515625,-4765.1298828125,-400000.0625,-16176.509765625,-400000.0625,-6131.1298828125,-400000.0625
160.60538172721863,-400000.0625,-7046.18017578125,-4769.27978515625,-400000.0625,-16179.6103515625,-400000.0625,-6139.330078125,-400000.0625
160.6184549331665,-400000.0625,-7054.47021484375,-4774.6201171875,-400000.0625,-16185.1904296875,-400000.0625,-6146.9599609375,-400000.0625
160.62920475006104,-400000.0625,-7051.56005859375,-4770.22998046875,-400000.0625,-16186.4296875,-400000.0625,-6138.1298828125,-400000.0625
160.6432158946991,-400000.0625,-7042.64990234375,-4764.89013671875,-400000.0625,-16178.1796875,-400000.0625,-6129.60009765625,-400000.0625
160.66063022613525,-400000.0625,-7047.4599609375,-4766.89013671875,-400000.0625,-16183.9501953125,-400000.0625,-6135.1298828125,-400000.0625
160.67256927490234,-400000.0625,-7053.9501953125,-4770.27978515625,-400000.0625,-16187.150390625,-400000.0625,-6141.47021484375,-400000.0625
160.68646335601807,-400000.0625,-7049.66015625,-4771.18994140625,-400000.0625,-16185.1396484375,-400000.0625,-6141.7099609375,-400000.0625
160.71638774871826,-400000.0625,-7049.75,-4767.22998046875,-400000.0625,-16180.2802734375,-400000.0625,-6138.85009765625,-400000.0625
160.72705388069153,-400000.0625,-7044.60009765625,-4763.7900390625,-400000.0625,-16176.4599609375,-400000.0625,-6133.83984375,-400000.0625
160.74202847480774,-400000.0625,-7046.7001953125,-4765.7001953125,-400000.0625,-16179.2802734375,-400000.0625,-6137.56005859375,-400000.0625
160.7565610408783,-400000.0625,-7058.91015625,-4775.240234375,-400000.0625,-16189.2900390625,-400000.0625,-6146.85986328125,-400000.0625
160.7729835510254,-400000.0625,-7058.81005859375,-4781.10009765625,-400000.0625,-16192.91015625,-400000.0625,-6145.240234375,-400000.0625
160.7875919342041,-400000.0625,-7054.0,-4774.43017578125,-400000.0625,-16182.2802734375,-400000.0625,-6142.47021484375,-400000.0625
160.81845355033875,-400000.0625,-7051.330078125,-4770.3701171875,-400000.0625,-16181.900390625,-400000.0625,-6139.419921875,-400000.0625
160.83085536956787,-400000.0625,-7054.330078125,-4772.85009765625,-400000.0625,-16189.91015625,-400000.0625,-6138.22998046875,-400000.0625
160.84243822097778,-400000.0625,-7063.25,-4777.0498046875,-400000.0625,-16194.009765625,-400000.0625,-6141.66015625,-400000.0625
160.856516122818,-400000.0625,-7067.97021484375,-4781.52978515625,-400000.0625,-16199.6904296875,-400000.0625,-6145.91015625,-400000.0625
160.86960220336914,-400000.0625,-7049.080078125,-4763.7900390625,-400000.0625,-16183.5703125,-400000.0625,-6136.93994140625,-400000.0625
160.88516902923584,-400000.0625,-7022.10009765625,-4746.06005859375,-400000.0625,-16166.5,-400000.0625,-6129.93017578125,-400000.0625
160.91410040855408,-400000.0625,-7033.39990234375,-4759.8798828125,-400000.0625,-16182.6201171875,-400000.0625,-6141.85009765625,-400000.0625
160.94252586364746,-400000.0625,-7046.18017578125,-4765.56005859375,-400000.0625,-16187.8603515625,-400000.0625,-6145.91015625,-400000.0625
160.9584596157074,-400000.0625,-7049.93994140625,-4762.83984375,-400000.0625,-16189.2001953125,-400000.0625,-6150.91015625,-400000.0625
160.96798133850098,-400000.0625,-7047.509765625,-4760.27001953125,-400000.0625,-16192.0595703125,-400000.0625,-6146.3798828125,-400000.0625
160.98449635505676,-400000.0625,-7041.31005859375,-4755.02001953125,-400000.0625,-16186.330078125,-400000.0625,-6141.0400390625,-400000.0625
160.99447894096375,-400000.0625,-7036.5,-4754.02001953125,-400000.0625,-16185.08984375,-400000.0625,-6140.759765625,-400000.0625
161.01865100860596,-400000.0625,-7036.5400390625,-4750.919921875,-400000.0625,-16181.900390625,-400000.0625,-6138.990234375,-400000.0625
161.05025386810303,-400000.0625,-7037.16015625,-4749.580078125,-400000.0625,-16180.5595703125,-400000.0625,-6134.419921875,-400000.0625
161.0616581439972,-400000.0625,-7034.77978515625,-4752.4501953125,-400000.0625,-16183.1904296875,-400000.0625,-6138.66015625,-400000.0625
161.08150792121887,-400000.0625,-7029.14990234375,-4744.33984375,-400000.0625,-16178.7998046875,-400000.0625,-6133.990234375,-400000.0625
161.09480118751526,-400000.0625,-7029.68017578125,-4741.56982421875,-400000.0625,-16175.1298828125,-400000.0625,-6133.509765625,-400000.0625
161.1175434589386,-400000.0625,-7034.39990234375,-4748.81982421875,-400000.0625,-16180.5595703125,-400000.0625,-6142.0400390625,-400000.0625
161.1325273513794,-400000.0625,-7040.60009765625,-4752.06005859375,-400000.0625,-16181.5703125,-400000.0625,-6144.9501953125,-400000.0625
161.16417717933655,-400000.0625,-7032.58984375,-4744.10009765625,-400000.0625,-16175.5595703125,-400000.0625,-6138.18017578125,-400000.0625
161.18426156044006,-400000.0625,-7024.240234375,-4737.56982421875,-400000.0625,-16168.6396484375,-400000.0625,-6130.7001953125,-400000.0625
161.19491982460022,-400000.0625,-7030.77001953125,-4744.14990234375,-400000.0625,-16174.41015625,-400000.0625,-6138.18017578125,-400000.0625
161.2147035598755,-400000.0625,-7042.4599609375,-4752.16015625,-400000.0625,-16189.0,-400000.0625,-6151.10009765625,-400000.0625
161.22637009620667,-400000.0625,-7048.18017578125,-4756.06982421875,-400000.0625,-16190.150390625,-400000.0625,-6154.06005859375,-400000.0625
161.2408890724182,-400000.0625,-7042.35986328125,-4751.2998046875,-400000.0625,-16182.0,-400000.0625,-6146.2900390625,-400000.0625
161.2714192867279,-400000.0625,-7033.25,-4743.39013671875,-400000.0625,-16174.1298828125,-400000.0625,-6139.9501953125,-400000.0625
161.28272891044617,-400000.0625,-7035.58984375,-4746.490234375,-400000.0625,-16178.1796875,-400000.0625,-6142.66015625,-400000.0625
161.29979181289673,-400000.0625,-7036.8798828125,-4745.91015625,-400000.0625,-16179.08984375,-400000.0625,-6144.91015625,-400000.0625
161.30926775932312,-400000.0625,-7044.64990234375,-4752.490234375,-400000.0625,-16179.5595703125,-400000.0625,-6144.81005859375,-400000.0625
161.3263030052185,-400000.0625,-7042.68994140625,-4751.64013671875,-400000.0625,-16176.650390625,-400000.0625,-6146.43017578125,-400000.0625
161.34354162216187,-400000.0625,-7040.06982421875,-4748.8701171875,-400000.0625,-16177.990234375,-400000.0625,-6141.3798828125,-400000.0625
161.37082624435425,-400000.0625,-7045.93994140625,-4756.5,-400000.0625,-16185.0,-400000.0625,-6146.2900390625,-400000.0625
161.38184690475464,-400000.0625,-7050.990234375,-4757.169921875,-400000.0625,-16185.48046875,-400000.0625,-6154.68017578125,-400000.0625
161.39855098724365,-400000.0625,-7048.75,-4755.1201171875,-400000.0625,-16182.1396484375,-400000.0625,-6150.2900390625,-400000.0625
161.4145472049713,-400000.0625,-7044.509765625,-4750.58984375,-400000.0625,-16177.7001953125,-400000.0625,-6144.9501953125,-400000.0625
161.43085885047913,-400000.0625,-7041.60009765625,-4745.2001953125,-400000.0625,-16175.7998046875,-400000.0625,-6143.52001953125,-400000.0625
161.44217491149902,-400000.0625,-7048.22998046875,-4753.68994140625,-400000.0625,-16185.0,-400000.0625,-6148.2900390625,-400000.0625
161.45352244377136,-400000.0625,-7053.60986328125,-4757.4501953125,-400000.0625,-16186.1396484375,-400000.0625,-6147.47998046875,-400000.0625
161.48320627212524,-400000.0625,-7048.93994140625,-4753.64013671875,-400000.0625,-16181.51953125,-400000.0625,-6149.77001953125,-400000.0625
161.50027871131897,-400000.0625,-7039.1201171875,-4745.77001953125,-400000.0625,-16176.3203125,-400000.0625,-6139.3701171875,-400000.0625
161.51074123382568,-400000.0625,-7042.27001953125,-4749.39013671875,-400000.0625,-16176.509765625,-400000.0625,-6131.509765625,-400000.0625
161.53059577941895,-400000.0625,-7052.14013671875,-4758.1201171875,-400000.0625,-16184.2802734375,-400000.0625,-6136.93994140625,-400000.0625
161.54105591773987,-400000.0625,-7064.580078125,-4764.18017578125,-400000.0625,-16189.91015625,-400000.0625,-6149.10009765625,-400000.0625
161.552392244339,-400000.0625,-7060.0,-4761.169921875,-400000.0625,-16188.91015625,-400000.0625,-6157.830078125,-400000.0625
161.57442617416382,-400000.0625,-7052.14013671875,-4753.16015625,-400000.0625,-16183.8095703125,-400000.0625,-6147.52978515625,-400000.0625
161.6015968322754,-400000.0625,-7044.64990234375,-4744.0498046875,-400000.0625,-16176.1298828125,-400000.0625,-6134.64990234375,-400000.0625
161.61250066757202,-400000.0625,-7049.990234375,-4750.2001953125,-400000.0625,-16177.7001953125,-400000.0625,-6134.7998046875,-400000.0625
161.62299799919128,-400000.0625,-7056.0498046875,-4756.02001953125,-400000.0625,-16184.900390625,-400000.0625,-6141.89990234375,-400000.0625
161.63275170326233,-400000.0625,-7057.2900390625,-4756.64013671875,-400000.0625,-16187.2900390625,-400000.0625,-6142.759765625,-400000.0625
161.65020561218262,-400000.0625,-7051.7099609375,-4755.77978515625,-400000.0625,-16186.91015625,-400000.0625,-6140.08984375,-400000.0625
161.66713404655457,-400000.0625,-7053.22998046875,-4757.740234375,-400000.0625,-16191.7197265625,-400000.0625,-6141.08984375,-400000.0625
161.68497443199158,-400000.0625,-7062.72021484375,-4763.02978515625,-400000.0625,-16191.2900390625,-400000.0625,-6146.47998046875,-400000.0625
161.7144706249237,-400000.0625,-7068.39990234375,-4765.7001953125,-400000.0625,-16189.5302734375,-400000.0625,-6149.10009765625,-400000.0625
161.72627067565918,-400000.0625,-7058.6201171875,-4757.4501953125,-400000.0625,-16184.1904296875,-400000.0625,-6142.47021484375,-400000.0625
161.745530128479,-400000.0625,-7052.60986328125,-4752.259765625,-400000.0625,-16178.509765625,-400000.0625,-6137.89990234375,-400000.0625
161.76152563095093,-400000.0625,-7047.27001953125,-4746.580078125,-400000.0625,-16177.66015625,-400000.0625,-6132.93994140625,-400000.0625
161.7826657295227,-400000.0625,-7048.93994140625,-4751.06005859375,-400000.0625,-16183.0400390625,-400000.0625,-6137.22998046875,-400000.0625
161.79490518569946,-400000.0625,-7066.43994140625,-4765.1298828125,-400000.0625,-16191.150390625,-400000.0625,-6145.52978515625,-400000.0625
161.82726502418518,-400000.0625,-7071.72998046875,-4767.85009765625,-400000.0625,-16191.25,-400000.0625,-6151.8701171875,-400000.0625
161.84729027748108,-400000.0625,-7060.47998046875,-4762.509765625,-400000.0625,-16185.330078125,-400000.0625,-6144.6201171875,-400000.0625
161.86038184165955,-400000.0625,-7053.81005859375,-4753.8798828125,-400000.0625,-16180.419921875,-400000.0625,-6133.02978515625,-400000.0625
161.87795972824097,-400000.0625,-7055.6201171875,-4756.259765625,-400000.0625,-16181.7998046875,-400000.0625,-6136.0400390625,-400000.0625
161.89326524734497,-400000.0625,-7055.18994140625,-4757.830078125,-400000.0625,-16185.240234375,-400000.0625,-6137.990234375,-400000.0625
161.92271280288696,-400000.0625,-7058.72021484375,-4762.75,-400000.0625,-16184.3798828125,-400000.0625,-6140.60986328125,-400000.0625
161.95246863365173,-400000.0625,-7060.39013671875,-4763.4599609375,-400000.0625,-16181.51953125,-400000.0625,-6142.759765625,-400000.0625
161.96851348876953,-400000.0625,-7055.66015625,-4755.68994140625,-400000.0625,-16180.7099609375,-400000.0625,-6137.56005859375,-400000.0625
161.98772168159485,-400000.0625,-7056.669921875,-4754.10986328125,-400000.0625,-16178.419921875,-400000.0625,-6137.47021484375,-400000.0625
162.0062735080719,-400000.0625,-7058.72021484375,-4759.4599609375,-400000.0625,-16183.4697265625,-400000.0625,-6140.08984375,-400000.0625
162.024418592453,-400000.0625,-7062.6298828125,-4763.080078125,-400000.0625,-16187.8603515625,-400000.0625,-6144.0,-400000.0625
162.05241799354553,-400000.0625,-7056.52001953125,-4757.93017578125,-400000.0625,-16181.66015625,-400000.0625,-6141.89990234375,-400000.0625
162.06776642799377,-400000.0625,-7046.7998046875,-4751.25,-400000.0625,-16172.740234375,-400000.0625,-6136.27978515625,-400000.0625
162.0884964466095,-400000.0625,-7061.10009765625,-4757.93017578125,-400000.0625,-16182.330078125,-400000.0625,-6142.14013671875,-400000.0625
162.10452032089233,-400000.0625,-7077.93017578125,-4771.330078125,-400000.0625,-16195.3896484375,-400000.0625,-6147.669921875,-400000.0625
162.1201958656311,-400000.0625,-7070.77978515625,-4767.93994140625,-400000.0625,-16193.33984375,-400000.0625,-6144.0,-400000.0625
162.13325190544128,-400000.0625,-7049.7001953125,-4751.72998046875,-400000.0625,-16175.4599609375,-400000.0625,-6144.91015625,-400000.0625
162.16379165649414,-400000.0625,-7037.35009765625,-4740.43017578125,-400000.0625,-16164.2099609375,-400000.0625,-6144.0498046875,-400000.0625
162.18622732162476,-400000.0625,-7045.31982421875,-4745.10009765625,-400000.0625,-16168.2099609375,-400000.0625,-6145.43017578125,-400000.0625
162.20445728302002,-400000.0625,-7046.41015625,-4748.6298828125,-400000.0625,-16172.740234375,-400000.0625,-6151.81982421875,-400000.0625
162.2251718044281,-400000.0625,-7045.7001953125,-4746.72021484375,-400000.0625,-16179.1298828125,-400000.0625,-6152.25,-400000.0625
162.24059796333313,-400000.0625,-7055.330078125,-4751.490234375,-400000.0625,-16184.1904296875,-400000.0625,-6153.68017578125,-400000.0625
162.26724791526794,-400000.0625,-7057.2900390625,-4755.16015625,-400000.0625,-16189.3896484375,-400000.0625,-6153.43994140625,-400000.0625
162.28676891326904,-400000.0625,-7055.3798828125,-4751.72998046875,-400000.0625,-16187.7197265625,-400000.0625,-6153.81982421875,-400000.0625
162.30082511901855,-400000.0625,-7053.08984375,-4751.77978515625,-400000.0625,-16186.91015625,-400000.0625,-6155.68017578125,-400000.0625
162.32294726371765,-400000.0625,-7052.22998046875,-4752.06005859375,-400000.0625,-16183.5703125,-400000.0625,-6152.490234375,-400000.0625
162.33619165420532,-400000.0625,-7053.9501953125,-4752.259765625,-400000.0625,-16179.4697265625,-400000.0625,-6149.0498046875,-400000.0625
162.35535883903503,-400000.0625,-7050.31982421875,-4750.490234375,-400000.0625,-16178.900390625,-400000.0625,-6144.2900390625,-400000.0625
162.39011073112488,-400000.0625,-7041.740234375,-4744.2900390625,-400000.0625,-16177.4697265625,-400000.0625,-6141.330078125,-400000.0625
162.41270661354065,-400000.0625,-7050.27978515625,-4748.06005859375,-400000.0625,-16178.66015625,-400000.0625,-6141.81005859375,-400000.0625
162.427752494812,-400000.0625,-7058.43017578125,-4751.5400390625,-400000.0625,-16183.4296875,-400000.0625,-6147.18994140625,-400000.0625
162.44398093223572,-400000.0625,-7058.14013671875,-4753.919921875,-400000.0625,-16184.0498046875,-400000.0625,-6155.009765625,-400000.0625
162.45596575737,-400000.0625,-7055.3798828125,-4751.2998046875,-400000.0625,-16177.26953125,-400000.0625,-6150.14990234375,-400000.0625
162.4905846118927,-400000.0625,-7058.85986328125,-4752.490234375,-400000.0625,-16182.0,-400000.0625,-6149.33984375,-400000.0625
162.5017192363739,-400000.0625,-7062.8701171875,-4756.8798828125,-400000.0625,-16190.76953125,-400000.0625,-6152.580078125,-400000.0625
162.51745796203613,-400000.0625,-7062.91015625,-4759.4599609375,-400000.0625,-16189.099609375,-400000.0625,-6153.77001953125,-400000.0625
162.5315806865692,-400000.0625,-7062.33984375,-4759.259765625,-400000.0625,-16187.3798828125,-400000.0625,-6155.35009765625,-400000.0625
162.5494360923767,-400000.0625,-7065.77001953125,-4759.41015625,-400000.0625,-16192.150390625,-400000.0625,-6157.5400390625,-400000.0625
162.56019186973572,-400000.0625,-7055.9501953125,-4752.68017578125,-400000.0625,-16184.5703125,-400000.0625,-6149.33984375,-400000.0625
162.5803153514862,-400000.0625,-7053.7099609375,-4751.02001953125,-400000.0625,-16177.1796875,-400000.0625,-6148.2001953125,-400000.0625
162.5937614440918,-400000.0625,-7057.2900390625,-4754.5,-400000.0625,-16181.900390625,-400000.0625,-6150.77001953125,-400000.0625
162.60572934150696,-400000.0625,-7069.490234375,-4764.60986328125,-400000.0625,-16192.5302734375,-400000.0625,-6160.4501953125,-400000.0625
162.6232078075409,-400000.0625,-7070.2099609375,-4762.4599609375,-400000.0625,-16192.33984375,-400000.0625,-6158.5,-400000.0625
162.63602709770203,-400000.0625,-7056.27978515625,-4753.16015625,-400000.0625,-16184.3798828125,-400000.0625,-6156.35009765625,-400000.0625
162.65006232261658,-400000.0625,-7050.31982421875,-4746.009765625,-400000.0625,-16180.0400390625,-400000.0625,-6146.77001953125,-400000.0625
162.66653633117676,-400000.0625,-7067.68017578125,-4756.58984375,-400000.0625,-16189.4296875,-400000.0625,-6156.8701171875,-400000.0625
162.68815732002258,-400000.0625,-7078.7001953125,-4768.08984375,-400000.0625,-16195.5400390625,-400000.0625,-6169.1298828125,-400000.0625
162.70114612579346,-400000.0625,-7069.4501953125,-4761.080078125,-400000.0625,-16190.7197265625,-400000.0625,-6166.64990234375,-400000.0625
162.71293759346008,-400000.0625,-7058.14013671875,-4752.4501953125,-400000.0625,-16185.1396484375,-400000.0625,-6157.919921875,-400000.0625
162.7290496826172,-400000.0625,-7055.47021484375,-4749.72998046875,-400000.0625,-16180.08984375,-400000.0625,-6150.52978515625,-400000.0625
162.73899245262146,-400000.0625,-7071.39990234375,-4760.60009765625,-400000.0625,-16193.6298828125,-400000.0625,-6159.4501953125,-400000.0625
162.75213313102722,-400000.0625,-7077.89013671875,-4767.509765625,-400000.0625,-16196.2998046875,-400000.0625,-6167.169921875,-400000.0625
162.7670772075653,-400000.0625,-7067.490234375,-4760.31005859375,-400000.0625,-16185.6201171875,-400000.0625,-6159.5,-400000.0625
162.78943872451782,-400000.0625,-7064.39013671875,-4755.1201171875,-400000.0625,-16179.75,-400000.0625,-6153.39013671875,-400000.0625
162.79927682876587,-400000.0625,-7063.8701171875,-4757.35986328125,-400000.0625,-16181.66015625,-400000.0625,-6151.33984375,-400000.0625
162.8130762577057,-400000.0625,-7068.35009765625,-4761.31005859375,-400000.0625,-16186.2900390625,-400000.0625,-6154.919921875,-400000.0625
162.82578134536743,-400000.0625,-7078.93017578125,-4770.56982421875,-400000.0625,-16194.0595703125,-400000.0625,-6168.7998046875,-400000.0625
162.84424138069153,-400000.0625,-7075.7900390625,-4767.93994140625,-400000.0625,-16191.5302734375,-400000.0625,-6166.97998046875,-400000.0625
162.8603196144104,-400000.0625,-7060.9599609375,-4757.60009765625,-400000.0625,-16183.0,-400000.0625,-6155.25,-400000.0625
162.87548065185547,-400000.0625,-7052.22998046875,-4748.39013671875,-400000.0625,-16176.0302734375,-400000.0625,-6144.56982421875,-400000.0625
162.91825652122498,-400000.0625,-7055.85986328125,-4751.77978515625,-400000.0625,-16180.6103515625,-400000.0625,-6151.8701171875,-400000.0625
162.9333300590515,-400000.0625,-7071.259765625,-4762.22021484375,-400000.0625,-16194.919921875,-400000.0625,-6164.1201171875,-400000.0625
162.95051980018616,-400000.0625,-7074.2099609375,-4761.509765625,-400000.0625,-16192.6796875,-400000.0625,-6162.5,-400000.0625
162.96162843704224,-400000.0625,-7062.2900390625,-4754.31005859375,-400000.0625,-16184.1396484375,-400000.0625,-6153.490234375,-400000.0625
162.97397756576538,-400000.0625,-7043.89013671875,-4739.89990234375,-400000.0625,-16169.0703125,-400000.0625,-6141.9501953125,-400000.0625
162.98822355270386,-400000.0625,-7046.27001953125,-4742.43017578125,-400000.0625,-16171.650390625,-400000.0625,-6146.72021484375,-400000.0625
163.01704168319702,-400000.0625,-7062.0498046875,-4754.02001953125,-400000.0625,-16181.7099609375,-400000.0625,-6156.2998046875,-400000.0625
163.02916264533997,-400000.0625,-7063.009765625,-4754.58984375,-400000.0625,-16183.0400390625,-400000.0625,-6156.64013671875,-400000.0625
163.0458254814148,-400000.0625,-7064.77001953125,-4754.8798828125,-400000.0625,-16184.3798828125,-400000.0625,-6152.009765625,-400000.0625
163.06505513191223,-400000.0625,-7053.9501953125,-4748.5400390625,-400000.0625,-16182.4697265625,-400000.0625,-6143.18994140625,-400000.0625
163.08434414863586,-400000.0625,-7052.18017578125,-4746.14990234375,-400000.0625,-16179.990234375,-400000.0625,-6150.47998046875,-400000.0625
163.09970021247864,-400000.0625,-7058.669921875,-4754.5400390625,-400000.0625,-16189.9599609375,-400000.0625,-6156.72998046875,-400000.0625
163.11892795562744,-400000.0625,-7059.85986328125,-4759.35986328125,-400000.0625,-16186.2900390625,-400000.0625,-6154.97021484375,-400000.0625
163.14588904380798,-400000.0625,-7049.85009765625,-4749.10986328125,-400000.0625,-16174.990234375,-400000.0625,-6142.240234375,-400000.0625
163.1672568321228,-400000.0625,-7042.27001953125,-4739.6201171875,-400000.0625,-16170.0302734375,-400000.0625,-6131.4599609375,-400000.0625
163.17991638183594,-400000.0625,-7051.85009765625,-4752.8701171875,-400000.0625,-16184.51953125,-400000.0625,-6145.669921875,-400000.0625
163.20027375221252,-400000.0625,-7072.16015625,-4766.60986328125,-400000.0625,-16197.400390625,-400000.0625,-6159.1201171875,-400000.0625
163.23191595077515,-400000.0625,-7067.2001953125,-4762.31982421875,-400000.0625,-16192.8701171875,-400000.0625,-6157.35009765625,-400000.0625
163.24705123901367,-400000.0625,-7051.419921875,-4749.10986328125,-400000.0625,-16181.2802734375,-400000.0625,-6148.0498046875,-400000.0625
163.2673258781433,-400000.0625,-7046.02978515625,-4742.0,-400000.0625,-16177.6103515625,-400000.0625,-6135.89013671875,-400000.0625
163.28270816802979,-400000.0625,-7052.759765625,-4750.06005859375,-400000.0625,-16182.9501953125,-400000.0625,-6138.89990234375,-400000.0625
163.30309772491455,-400000.0625,-7067.919921875,-4761.4599609375,-400000.0625,-16191.9599609375,-400000.0625,-6152.43994140625,-400000.0625
163.3328685760498,-400000.0625,-7072.5,-4761.7900390625,-400000.0625,-16193.580078125,-400000.0625,-6154.39013671875,-400000.0625
163.3427402973175,-400000.0625,-7062.43994140625,-4753.2099609375,-400000.0625,-16183.5703125,-400000.0625,-6140.0400390625,-400000.0625
163.36119031906128,-400000.0625,-7043.89013671875,-4747.10986328125,-400000.0625,-16176.419921875,-400000.0625,-6125.39990234375,-400000.0625
163.37787199020386,-400000.0625,-7050.89990234375,-4762.169921875,-400000.0625,-16184.240234375,-400000.0625,-6131.93994140625,-400000.0625
163.4000883102417,-400000.0625,-7073.259765625,-4775.72021484375,-400000.0625,-16197.490234375,-400000.0625,-6145.91015625,-400000.0625
163.41711688041687,-400000.0625,-7076.60009765625,-4776.0498046875,-400000.0625,-16193.9599609375,-400000.0625,-6142.240234375,-400000.0625
163.44457340240479,-400000.0625,-7065.580078125,-4767.7001953125,-400000.0625,-16180.9501953125,-400000.0625,-6128.22021484375,-400000.0625
163.46184873580933,-400000.0625,-7057.47998046875,-4761.35986328125,-400000.0625,-16183.4697265625,-400000.0625,-6122.68994140625,-400000.0625
163.4751591682434,-400000.0625,-7059.47998046875,-4767.0400390625,-400000.0625,-16185.1396484375,-400000.0625,-6129.60009765625,-400000.0625
163.48951148986816,-400000.0625,-7066.39013671875,-4775.759765625,-400000.0625,-16193.76953125,-400000.0625,-6145.10009765625,-400000.0625
163.50472974777222,-400000.0625,-7068.6298828125,-4774.89990234375,-400000.0625,-16191.9599609375,-400000.0625,-6147.0,-400000.0625
163.52211117744446,-400000.0625,-7065.490234375,-4767.60986328125,-400000.0625,-16185.1396484375,-400000.0625,-6131.22021484375,-400000.0625
163.5494065284729,-400000.0625,-7055.43017578125,-4761.509765625,-400000.0625,-16182.8095703125,-400000.0625,-6126.7900390625,-400000.0625
163.56856441497803,-400000.0625,-7061.91015625,-4771.89990234375,-400000.0625,-16192.3896484375,-400000.0625,-6132.89013671875,-400000.0625
163.58202147483826,-400000.0625,-7073.5,-4782.490234375,-400000.0625,-16200.9697265625,-400000.0625,-6147.47998046875,-400000.0625
163.60006260871887,-400000.0625,-7073.830078125,-4782.43994140625,-400000.0625,-16196.7802734375,-400000.0625,-6144.47998046875,-400000.0625
163.61160516738892,-400000.0625,-7061.77001953125,-4769.7099609375,-400000.0625,-16188.91015625,-400000.0625,-6129.83984375,-400000.0625
163.63234210014343,-400000.0625,-7048.419921875,-4758.169921875,-400000.0625,-16180.330078125,-400000.0625,-6123.39990234375,-400000.0625
163.66115188598633,-400000.0625,-7052.990234375,-4758.8798828125,-400000.0625,-16180.5595703125,-400000.0625,-6123.97021484375,-400000.0625
163.6747760772705,-400000.0625,-7068.35009765625,-4771.18994140625,-400000.0625,-16193.2001953125,-400000.0625,-6140.0400390625,-400000.0625
163.6888084411621,-400000.0625,-7074.97998046875,-4777.2900390625,-400000.0625,-16197.73046875,-400000.0625,-6146.43017578125,-400000.0625
163.7032618522644,-400000.0625,-7058.56982421875,-4764.990234375,-400000.0625,-16189.5302734375,-400000.0625,-6131.7900390625,-400000.0625
163.71657872200012,-400000.0625,-7044.169921875,-4750.5400390625,-400000.0625,-16177.7998046875,-400000.0625,-6115.47998046875,-400000.0625
163.7335467338562,-400000.0625,-7054.66015625,-4760.22021484375,-400000.0625,-16184.240234375,-400000.0625,-6123.06982421875,-400000.0625
163.75603771209717,-400000.0625,-7076.1201171875,-4775.9501953125,-400000.0625,-16194.6298828125,-400000.0625,-6139.330078125,-400000.0625
163.77140045166016,-400000.0625,-7077.64990234375,-4778.669921875,-400000.0625,-16203.5,-400000.0625,-6142.0,-400000.0625
163.78521394729614,-400000.0625,-7060.14990234375,-4768.89990234375,-400000.0625,-16193.33984375,-400000.0625,-6132.41015625,-400000.0625
163.79936981201172,-400000.0625,-7047.93994140625,-4757.93017578125,-400000.0625,-16180.900390625,-400000.0625,-6118.009765625,-400000.0625
163.81706953048706,-400000.0625,-7051.419921875,-4763.080078125,-400000.0625,-16188.3896484375,-400000.0625,-6128.41015625,-400000.0625
163.83143019676208,-400000.0625,-7066.81982421875,-4773.08984375,-400000.0625,-16200.1201171875,-400000.0625,-6149.2001953125,-400000.0625
163.84978890419006,-400000.0625,-7072.97021484375,-4777.3798828125,-400000.0625,-16200.01953125,-400000.0625,-6149.2001953125,-400000.0625
163.88574266433716,-400000.0625,-7057.52001953125,-4763.4599609375,-400000.0625,-16186.1904296875,-400000.0625,-6133.75,-400000.0625
163.90488815307617,-400000.0625,-7040.35986328125,-4753.2099609375,-400000.0625,-16178.23046875,-400000.0625,-6121.02001953125,-400000.0625
163.92515063285828,-400000.0625,-7050.3701171875,-4759.93017578125,-400000.0625,-16182.900390625,-400000.0625,-6130.35986328125,-400000.0625
163.9479854106903,-400000.0625,-7070.4501953125,-4774.85986328125,-400000.0625,-16196.73046875,-400000.0625,-6146.3798828125,-400000.0625
163.9620213508606,-400000.0625,-7069.25,-4777.47998046875,-400000.0625,-16201.0703125,-400000.0625,-6149.669921875,-400000.0625
163.99226808547974,-400000.0625,-7053.56982421875,-4765.27001953125,-400000.0625,-16189.4296875,-400000.0625,-6136.22998046875,-400000.0625
164.00970339775085,-400000.0625,-7042.35986328125,-4751.64013671875,-400000.0625,-16179.1298828125,-400000.0625,-6121.10986328125,-400000.0625
164.02512001991272,-400000.0625,-7051.52001953125,-4757.93017578125,-400000.0625,-16184.7099609375,-400000.0625,-6131.7001953125,-400000.0625
164.0474090576172,-400000.0625,-7062.81982421875,-4770.60986328125,-400000.0625,-16192.580078125,-400000.0625,-6153.919921875,-400000.0625
164.0601716041565,-400000.0625,-7073.259765625,-4776.0498046875,-400000.0625,-16195.58984375,-400000.0625,-6154.6298828125,-400000.0625
164.0715262889862,-400000.0625,-7056.6201171875,-4762.02978515625,-400000.0625,-16188.7197265625,-400000.0625,-6133.4599609375,-400000.0625
164.0989909172058,-400000.0625,-7041.31005859375,-4748.9599609375,-400000.0625,-16177.4697265625,-400000.0625,-6121.10986328125,-400000.0625
164.11387252807617,-400000.0625,-7052.759765625,-4757.93017578125,-400000.0625,-16188.580078125,-400000.0625,-6130.5498046875,-400000.0625
164.13312768936157,-400000.0625,-7065.25,-4768.419921875,-400000.0625,-16196.73046875,-400000.0625,-6150.52978515625,-400000.0625
164.1492419242859,-400000.0625,-7063.72021484375,-4769.14013671875,-400000.0625,-16195.8203125,-400000.0625,-6156.58984375,-400000.0625
164.16820526123047,-400000.0625,-7048.419921875,-4752.72998046875,-400000.0625,-16184.1904296875,-400000.0625,-6137.18017578125,-400000.0625
164.18381762504578,-400000.0625,-7036.5,-4745.0498046875,-400000.0625,-16179.75,-400000.0625,-6122.5400390625,-400000.0625
164.22340512275696,-400000.0625,-7048.93994140625,-4756.35986328125,-400000.0625,-16186.3798828125,-400000.0625,-6134.080078125,-400000.0625
164.24150371551514,-400000.0625,-7063.91015625,-4768.22998046875,-400000.0625,-16198.830078125,-400000.0625,-6149.9599609375,-400000.0625
164.26110744476318,-400000.0625,-7067.06005859375,-4765.83984375,-400000.0625,-16196.349609375,-400000.0625,-6150.72021484375,-400000.0625
164.27435564994812,-400000.0625,-7047.89013671875,-4748.77001953125,-400000.0625,-16182.23046875,-400000.0625,-6132.60009765625,-400000.0625
164.29622793197632,-400000.0625,-7031.39013671875,-4740.0498046875,-400000.0625,-16175.9404296875,-400000.0625,-6119.5400390625,-400000.0625
164.32620644569397,-400000.0625,-7049.66015625,-4754.64013671875,-400000.0625,-16188.91015625,-400000.0625,-6132.4599609375,-400000.0625
164.33892846107483,-400000.0625,-7060.14990234375,-4766.89013671875,-400000.0625,-16201.58984375,-400000.0625,-6148.91015625,-400000.0625
164.35315680503845,-400000.0625,-7060.580078125,-4765.990234375,-400000.0625,-16199.5400390625,-400000.0625,-6149.10009765625,-400000.0625
164.36358904838562,-400000.0625,-7049.0400390625,-4754.259765625,-400000.0625,-16188.4296875,-400000.0625,-6134.509765625,-400000.0625
164.3766782283783,-400000.0625,-7038.31005859375,-4742.10009765625,-400000.0625,-16177.1298828125,-400000.0625,-6119.2998046875,-400000.0625
164.3901424407959,-400000.0625,-7047.4599609375,-4755.06982421875,-400000.0625,-16189.4296875,-400000.0625,-6137.22998046875,-400000.0625
164.40469551086426,-400000.0625,-7067.25,-4768.66015625,-400000.0625,-16199.349609375,-400000.0625,-6154.68017578125,-400000.0625
164.43022322654724,-400000.0625,-7062.9599609375,-4765.7998046875,-400000.0625,-16192.009765625,-400000.0625,-6151.39013671875,-400000.0625
164.4478361606598,-400000.0625,-7041.06982421875,-4752.16015625,-400000.0625,-16182.23046875,-400000.0625,-6135.56005859375,-400000.0625
164.45626616477966,-400000.0625,-7034.77978515625,-4745.580078125,-400000.0625,-16181.4697265625,-400000.0625,-6128.64990234375,-400000.0625
164.469473361969,-400000.0625,-7040.93017578125,-4746.490234375,-400000.0625,-16181.51953125,-400000.0625,-6134.56005859375,-400000.0625
164.48666954040527,-400000.0625,-7065.2998046875,-4761.31005859375,-400000.0625,-16192.91015625,-400000.0625,-6152.2001953125,-400000.0625
164.50178265571594,-400000.0625,-7070.490234375,-4770.60986328125,-400000.0625,-16201.16015625,-400000.0625,-6156.16015625,-400000.0625
164.51868176460266,-400000.0625,-7051.89990234375,-4765.83984375,-400000.0625,-16191.6796875,-400000.0625,-6140.18994140625,-400000.0625
164.54942846298218,-400000.0625,-7042.97998046875,-4758.7900390625,-400000.0625,-16180.419921875,-400000.0625,-6124.58984375,-400000.0625
164.55977606773376,-400000.0625,-7050.7998046875,-4763.41015625,-400000.0625,-16188.8095703125,-400000.0625,-6134.89013671875,-400000.0625
164.57115125656128,-400000.0625,-7067.97021484375,-4775.0498046875,-400000.0625,-16200.6396484375,-400000.0625,-6148.2001953125,-400000.0625
164.58941769599915,-400000.0625,-7065.68017578125,-4777.10009765625,-400000.0625,-16196.8701171875,-400000.0625,-6143.669921875,-400000.0625
164.60062718391418,-400000.0625,-7048.7001953125,-4763.990234375,-400000.0625,-16183.7099609375,-400000.0625,-6130.97998046875,-400000.0625
164.61300230026245,-400000.0625,-7038.06982421875,-4752.72998046875,-400000.0625,-16173.7001953125,-400000.0625,-6121.64013671875,-400000.0625
164.62967324256897,-400000.0625,-7050.47021484375,-4764.3701171875,-400000.0625,-16180.849609375,-400000.0625,-6129.740234375,-400000.0625
164.65571784973145,-400000.0625,-7066.009765625,-4781.06005859375,-400000.0625,-16196.2998046875,-400000.0625,-6147.10009765625,-400000.0625
164.66515040397644,-400000.0625,-7067.43994140625,-4779.81982421875,-400000.0625,-16202.6396484375,-400000.0625,-6150.77001953125,-400000.0625
164.67925119400024,-400000.0625,-7053.08984375,-4765.3701171875,-400000.0625,-16189.8203125,-400000.0625,-6133.64990234375,-400000.0625
164.68855094909668,-400000.0625,-7031.8701171875,-4750.490234375,-400000.0625,-16176.5595703125,-400000.0625,-6118.39013671875,-400000.0625
164.702698469162,-400000.0625,-7036.93017578125,-4753.97021484375,-400000.0625,-16180.66015625,-400000.0625,-6122.72998046875,-400000.0625
164.7196021080017,-400000.0625,-7057.759765625,-4769.60986328125,-400000.0625,-16195.6298828125,-400000.0625,-6145.10009765625,-400000.0625
164.7317771911621,-400000.0625,-7055.14013671875,-4765.93994140625,-400000.0625,-16191.2001953125,-400000.0625,-6142.47021484375,-400000.0625
164.75633478164673,-400000.0625,-7049.0400390625,-4761.35986328125,-400000.0625,-16188.1904296875,-400000.0625,-6129.93017578125,-400000.0625
164.76794743537903,-400000.0625,-7037.64013671875,-4753.39990234375,-400000.0625,-16180.419921875,-400000.0625,-6119.81982421875,-400000.0625
164.78386569023132,-400000.0625,-7044.22021484375,-4756.31005859375,-400000.0625,-16183.9501953125,-400000.0625,-6129.4599609375,-400000.0625
164.79779052734375,-400000.0625,-7056.9501953125,-4769.0400390625,-400000.0625,-16196.400390625,-400000.0625,-6146.9599609375,-400000.0625
164.81329941749573,-400000.0625,-7056.6201171875,-4769.08984375,-400000.0625,-16194.919921875,-400000.0625,-6147.9599609375,-400000.0625
164.83406591415405,-400000.0625,-7047.60986328125,-4757.830078125,-400000.0625,-16183.2802734375,-400000.0625,-6130.83984375,-400000.0625
164.86491584777832,-400000.0625,-7042.27001953125,-4752.58984375,-400000.0625,-16176.650390625,-400000.0625,-6126.740234375,-400000.0625
164.87448859214783,-400000.0625,-7047.83984375,-4757.7900390625,-400000.0625,-16183.240234375,-400000.0625,-6135.7998046875,-400000.0625
164.8864381313324,-400000.0625,-7060.10009765625,-4770.7998046875,-400000.0625,-16196.919921875,-400000.0625,-6150.06005859375,-400000.0625
164.8990020751953,-400000.0625,-7060.39013671875,-4768.56005859375,-400000.0625,-16198.4501953125,-400000.0625,-6149.6298828125,-400000.0625
164.92318773269653,-400000.0625,-7042.02978515625,-4755.35009765625,-400000.0625,-16188.33984375,-400000.0625,-6135.7998046875,-400000.0625
164.93865299224854,-400000.0625,-7034.5400390625,-4745.91015625,-400000.0625,-16179.330078125,-400000.0625,-6124.830078125,-400000.0625
164.96783876419067,-400000.0625,-7046.18017578125,-4755.68994140625,-400000.0625,-16185.1396484375,-400000.0625,-6134.22021484375,-400000.0625
164.9823751449585,-400000.0625,-7066.81982421875,-4775.6201171875,-400000.0625,-16200.349609375,-400000.0625,-6152.10986328125,-400000.0625
165.000492811203,-400000.0625,-7071.4501953125,-4776.0498046875,-400000.0625,-16202.400390625,-400000.0625,-6153.5400390625,-400000.0625
165.0117163658142,-400000.0625,-7055.0498046875,-4762.4599609375,-400000.0625,-16190.8603515625,-400000.0625,-6139.330078125,-400000.0625
165.0298616886139,-400000.0625,-7047.3701171875,-4760.83984375,-400000.0625,-16187.2900390625,-400000.0625,-6138.1298828125,-400000.0625
165.04572534561157,-400000.0625,-7054.52001953125,-4769.18017578125,-400000.0625,-16190.0498046875,-400000.0625,-6138.7099609375,-400000.0625
165.0763976573944,-400000.0625,-7063.8701171875,-4774.18994140625,-400000.0625,-16192.7197265625,-400000.0625,-6145.3798828125,-400000.0625
165.11132645606995,-400000.0625,-7063.10009765625,-4770.66015625,-400000.0625,-16190.9599609375,-400000.0625,-6141.47021484375,-400000.0625
165.15656757354736,-400000.0625,-7055.0498046875,-4765.83984375,-400000.0625,-16187.7197265625,-400000.0625,-6134.419921875,-400000.0625
165.1974492073059,-400000.0625,-7046.27001953125,-4759.97998046875,-400000.0625,-16181.5703125,-400000.0625,-6131.89013671875,-400000.0625
165.2370138168335,-400000.0625,-7055.330078125,-4766.080078125,-400000.0625,-16184.6201171875,-400000.0625,-6140.56982421875,-400000.0625
165.25125288963318,-400000.0625,-7065.919921875,-4776.14013671875,-400000.0625,-16197.830078125,-400000.0625,-6148.6298828125,-400000.0625
165.27468180656433,-400000.0625,-7065.10986328125,-4775.2900390625,-400000.0625,-16197.349609375,-400000.0625,-6152.33984375,-400000.0625
165.309876203537,-400000.0625,-7061.2001953125,-4767.56005859375,-400000.0625,-16190.91015625,-400000.0625,-6149.009765625,-400000.0625
165.35176634788513,-400000.0625,-7054.85009765625,-4763.080078125,-400000.0625,-16190.099609375,-400000.0625,-6143.759765625,-400000.0625
165.3699507713318,-400000.0625,-7052.990234375,-4763.31982421875,-400000.0625,-16188.8095703125,-400000.0625,-6146.6201171875,-400000.0625
165.38460564613342,-400000.0625,-7063.490234375,-4768.27978515625,-400000.0625,-16189.4296875,-400000.0625,-6153.580078125,-400000.0625
165.41576480865479,-400000.0625,-7069.77978515625,-4771.08984375,-400000.0625,-16190.2900390625,-400000.0625,-6151.580078125,-400000.0625
165.45137429237366,-400000.0625,-7059.0498046875,-4766.75,-400000.0625,-16183.8603515625,-400000.0625,-6145.14013671875,-400000.0625
165.47345900535583,-400000.0625,-7054.08984375,-4764.02978515625,-400000.0625,-16181.6103515625,-400000.0625,-6139.56982421875,-400000.0625
165.48362255096436,-400000.0625,-7061.009765625,-4766.990234375,-400000.0625,-16190.33984375,-400000.0625,-6142.7099609375,-400000.0625
165.50292825698853,-400000.0625,-7070.68994140625,-4775.72021484375,-400000.0625,-16197.349609375,-400000.0625,-6154.81982421875,-400000.0625
165.52691388130188,-400000.0625,-7065.81982421875,-4771.89990234375,-400000.0625,-16194.580078125,-400000.0625,-6154.5400390625,-400000.0625
165.5512888431549,-400000.0625,-7063.68017578125,-4769.3701171875,-400000.0625,-16191.2900390625,-400000.0625,-6147.77001953125,-400000.0625
165.57097673416138,-400000.0625,-7055.9501953125,-4766.18017578125,-400000.0625,-16185.240234375,-400000.0625,-6139.3701171875,-400000.0625
165.60269021987915,-400000.0625,-7059.81005859375,-4765.7001953125,-400000.0625,-16184.669921875,-400000.0625,-6137.75,-400000.0625
165.6151134967804,-400000.0625,-7068.2998046875,-4772.85009765625,-400000.0625,-16195.6796875,-400000.0625,-6151.14990234375,-400000.0625
165.64756894111633,-400000.0625,-7070.35009765625,-4775.330078125,-400000.0625,-16195.6298828125,-400000.0625,-6154.39013671875,-400000.0625
165.65984630584717,-400000.0625,-7061.10009765625,-4769.56005859375,-400000.0625,-16189.8203125,-400000.0625,-6143.81005859375,-400000.0625
165.7020184993744,-400000.0625,-7057.2900390625,-4767.93994140625,-400000.0625,-16191.6796875,-400000.0625,-6140.89990234375,-400000.0625
165.71699213981628,-400000.0625,-7062.10009765625,-4771.14013671875,-400000.0625,-16197.25,-400000.0625,-6145.6201171875,-400000.0625
165.75702595710754,-400000.0625,-7069.77978515625,-4777.47998046875,-400000.0625,-16199.4501953125,-400000.0625,-6151.580078125,-400000.0625
165.77739644050598,-400000.0625,-7073.2099609375,-4780.580078125,-400000.0625,-16198.6796875,-400000.0625,-6148.2001953125,-400000.0625
165.79252529144287,-400000.0625,-7063.2001953125,-4769.990234375,-400000.0625,-16191.5302734375,-400000.0625,-6143.0,-400000.0625
165.81205487251282,-400000.0625,-7059.77001953125,-4765.509765625,-400000.0625,-16187.7197265625,-400000.0625,-6136.419921875,-400000.0625
165.82795763015747,-400000.0625,-7063.10009765625,-4768.60986328125,-400000.0625,-16185.0498046875,-400000.0625,-6142.3798828125,-400000.0625
165.86329317092896,-400000.0625,-7070.64013671875,-4776.72021484375,-400000.0625,-16192.6298828125,-400000.0625,-6150.2001953125,-400000.0625
165.88346648216248,-400000.0625,-7071.02001953125,-4776.47998046875,-400000.0625,-16195.1103515625,-400000.0625,-6151.8701171875,-400000.0625
165.91840195655823,-400000.0625,-7066.6298828125,-4772.27978515625,-400000.0625,-16188.580078125,-400000.0625,-6142.66015625,-400000.0625
165.94252634048462,-400000.0625,-7067.8701171875,-4770.9501953125,-400000.0625,-16190.2900390625,-400000.0625,-6145.91015625,-400000.0625
165.973788022995,-400000.0625,-7070.830078125,-4774.6201171875,-400000.0625,-16200.6904296875,-400000.0625,-6150.52978515625,-400000.0625
165.98186421394348,-400000.0625,-7069.10986328125,-4776.43017578125,-400000.0625,-16197.25,-400000.0625,-6151.10009765625,-400000.0625
165.9911994934082,-400000.0625,-7069.68017578125,-4777.47998046875,-400000.0625,-16194.349609375,-400000.0625,-6154.919921875,-400000.0625
166.00145363807678,-400000.0625,-7074.68994140625,-4778.33984375,-400000.0625,-16198.58984375,-400000.0625,-6152.8701171875,-400000.0625
166.00987124443054,-400000.0625,-7068.8701171875,-4775.240234375,-400000.0625,-16194.4404296875,-400000.0625,-6146.47998046875,-400000.0625
166.01699829101562,-400000.0625,-7067.25,-4773.0,-400000.0625,-16187.6201171875,-400000.0625,-6149.33984375,-400000.0625
166.02614212036133,-400000.0625,-7069.64013671875,-4774.27978515625,-400000.0625,-16192.9599609375,-400000.0625,-6154.35009765625,-400000.0625
166.03546571731567,-400000.0625,-7070.77978515625,-4773.47021484375,-400000.0625,-16196.349609375,-400000.0625,-6157.8798828125,-400000.0625
166.04363465309143,-400000.0625,-7070.68994140625,-4773.240234375,-400000.0625,-16196.73046875,-400000.0625,-6155.5400390625,-400000.0625
166.05953073501587,-400000.0625,-7063.68017578125,-4767.7998046875,-400000.0625,-16190.76953125,-400000.0625,-6148.10009765625,-400000.0625
166.0704481601715,-400000.0625,-7067.77978515625,-4774.27978515625,-400000.0625,-16195.6298828125,-400000.0625,-6152.77001953125,-400000.0625
166.07825565338135,-400000.0625,-7068.009765625,-4776.759765625,-400000.0625,-16198.6396484375,-400000.0625,-6159.58984375,-400000.0625
166.08622217178345,-400000.0625,-7062.39013671875,-4770.47021484375,-400000.0625,-16190.2001953125,-400000.0625,-6155.25,-400000.0625
166.09678268432617,-400000.0625,-7062.47998046875,-4766.509765625,-400000.0625,-16187.6201171875,-400000.0625,-6147.85986328125,-400000.0625
166.108562707901,-400000.0625,-7059.669921875,-4762.60009765625,-400000.0625,-16189.2001953125,-400000.0625,-6144.85986328125,-400000.0625
166.11724591255188,-400000.0625,-7067.8701171875,-4769.990234375,-400000.0625,-16198.2998046875,-400000.0625,-6152.580078125,-400000.0625
166.12941551208496,-400000.0625,-7068.919921875,-4771.759765625,-400000.0625,-16200.400390625,-400000.0625,-6157.5400390625,-400000.0625
166.1379635334015,-400000.0625,-7069.830078125,-4772.43017578125,-400000.0625,-16192.8203125,-400000.0625,-6155.2998046875,-400000.0625
166.14584517478943,-400000.0625,-7067.2998046875,-4768.89990234375,-400000.0625,-16188.099609375,-400000.0625,-6149.14990234375,-400000.0625
166.1645531654358,-400000.0625,-7060.91015625,-4765.60986328125,-400000.0625,-16188.8095703125,-400000.0625,-6147.33984375,-400000.0625
166.17333388328552,-400000.0625,-7063.10009765625,-4769.22998046875,-400000.0625,-16193.33984375,-400000.0625,-6151.8701171875,-400000.0625
166.18074488639832,-400000.0625,-7076.5498046875,-4775.0,-400000.0625,-16196.5400390625,-400000.0625,-6158.02001953125,-400000.0625
166.1920623779297,-400000.0625,-7073.77978515625,-4774.3798828125,-400000.0625,-16196.5400390625,-400000.0625,-6154.16015625,-400000.0625
166.20652556419373,-400000.0625,-7069.4501953125,-4772.14013671875,-400000.0625,-16194.9697265625,-400000.0625,-6151.10009765625,-400000.0625
166.21420240402222,-400000.0625,-7067.16015625,-4769.18017578125,-400000.0625,-16192.0595703125,-400000.0625,-6153.77001953125,-400000.0625
166.22340846061707,-400000.0625,-7069.02001953125,-4770.85009765625,-400000.0625,-16193.25,-400000.0625,-6159.8798828125,-400000.0625
166.23631644248962,-400000.0625,-7065.580078125,-4768.47021484375,-400000.0625,-16190.2900390625,-400000.0625,-6161.97998046875,-400000.0625
166.2463984489441,-400000.0625,-7067.8701171875,-4768.93994140625,-400000.0625,-16189.150390625,-400000.0625,-6158.77978515625,-400000.0625
166.26475405693054,-400000.0625,-7063.72021484375,-4766.990234375,-400000.0625,-16193.1103515625,-400000.0625,-6153.10986328125,-400000.0625
166.27398681640625,-400000.0625,-7061.580078125,-4761.89013671875,-400000.0625,-16188.7197265625,-400000.0625,-6153.35009765625,-400000.0625
166.28183484077454,-400000.0625,-7071.97021484375,-4767.93994140625,-400000.0625,-16192.580078125,-400000.0625,-6156.72998046875,-400000.0625
166.29930019378662,-400000.0625,-7079.75,-4777.240234375,-400000.0625,-16201.8798828125,-400000.0625,-6161.97998046875,-400000.0625
166.30907773971558,-400000.0625,-7072.35009765625,-4776.56982421875,-400000.0625,-16204.41015625,-400000.0625,-6161.39990234375,-400000.0625
166.31771397590637,-400000.0625,-7064.52978515625,-4768.22998046875,-400000.0625,-16196.919921875,-400000.0625,-6154.06005859375,-400000.0625
166.32755994796753,-400000.0625,-7063.77001953125,-4763.56005859375,-400000.0625,-16187.5703125,-400000.0625,-6148.52978515625,-400000.0625
166.33726692199707,-400000.0625,-7072.64013671875,-4766.66015625,-400000.0625,-16191.4404296875,-400000.0625,-6156.490234375,-400000.0625
166.34609031677246,-400000.0625,-7078.97998046875,-4774.43017578125,-400000.0625,-16198.6796875,-400000.0625,-6165.4599609375,-400000.0625
166.3553478717804,-400000.0625,-7078.83984375,-4778.0,-400000.0625,-16201.9296875,-400000.0625,-6161.97998046875,-400000.0625
166.37770676612854,-400000.0625,-7065.580078125,-4773.14013671875,-400000.0625,-16194.009765625,-400000.0625,-6156.8701171875,-400000.0625
166.38897800445557,-400000.0625,-7071.8798828125,-4774.240234375,-400000.0625,-16190.8603515625,-400000.0625,-6158.06982421875,-400000.0625
166.40400218963623,-400000.0625,-7090.9501953125,-4779.2001953125,-400000.0625,-16198.1103515625,-400000.0625,-6158.77978515625,-400000.0625
166.4124915599823,-400000.0625,-7087.66015625,-4781.77001953125,-400000.0625,-16200.8798828125,-400000.0625,-6164.41015625,-400000.0625
166.4209132194519,-400000.0625,-7085.66015625,-4780.9599609375,-400000.0625,-16198.6396484375,-400000.0625,-6164.35986328125,-400000.0625
166.4326286315918,-400000.0625,-7073.35986328125,-4772.14013671875,-400000.0625,-16191.8203125,-400000.0625,-6165.1201171875,-400000.0625
166.46193313598633,-400000.0625,-7062.9599609375,-4766.509765625,-400000.0625,-16187.6201171875,-400000.0625,-6160.8798828125,-400000.0625
166.48447108268738,-400000.0625,-7071.58984375,-4772.3798828125,-400000.0625,-16195.6298828125,-400000.0625,-6165.5498046875,-400000.0625
166.5077452659607,-400000.0625,-7083.0400390625,-4779.85986328125,-400000.0625,-16200.400390625,-400000.0625,-6168.93994140625,-400000.0625
166.52133321762085,-400000.0625,-7082.89013671875,-4777.52978515625,-400000.0625,-16198.9697265625,-400000.0625,-6164.64990234375,-400000.0625
166.5446228981018,-400000.0625,-7071.97021484375,-4768.7998046875,-400000.0625,-16191.3896484375,-400000.0625,-6154.490234375,-400000.0625
166.56464338302612,-400000.0625,-7065.14990234375,-4765.83984375,-400000.0625,-16186.1904296875,-400000.0625,-6152.14990234375,-400000.0625
166.61341047286987,-400000.0625,-7074.4501953125,-4774.14013671875,-400000.0625,-16192.0595703125,-400000.0625,-6161.97998046875,-400000.0625
166.63407397270203,-400000.0625,-7080.02978515625,-4777.2900390625,-400000.0625,-16199.830078125,-400000.0625,-6169.18017578125,-400000.0625
166.6481692790985,-400000.0625,-7072.97021484375,-4773.14013671875,-400000.0625,-16202.01953125,-400000.0625,-6167.4599609375,-400000.0625
166.6632468700409,-400000.0625,-7063.580078125,-4764.4599609375,-400000.0625,-16196.2998046875,-400000.0625,-6157.8798828125,-400000.0625
166.67874360084534,-400000.0625,-7065.8701171875,-4762.4599609375,-400000.0625,-16192.0595703125,-400000.0625,-6151.8701171875,-400000.0625
166.71515893936157,-400000.0625,-7070.8798828125,-4768.1298828125,-400000.0625,-16195.16015625,-400000.0625,-6155.77978515625,-400000.0625
166.73793625831604,-400000.0625,-7075.4501953125,-4774.14013671875,-400000.0625,-16198.1103515625,-400000.0625,-6162.7900390625,-400000.0625
166.7518970966339,-400000.0625,-7080.02978515625,-4777.0498046875,-400000.0625,-16197.7802734375,-400000.0625,-6165.02978515625,-400000.0625
166.77482509613037,-400000.0625,-7071.8798828125,-4771.3798828125,-400000.0625,-16194.3896484375,-400000.0625,-6160.93017578125,-400000.0625
166.7977979183197,-400000.0625,-7063.2001953125,-4762.60009765625,-400000.0625,-16191.33984375,-400000.0625,-6152.8701171875,-400000.0625
166.82605862617493,-400000.0625,-7067.16015625,-4765.56005859375,-400000.0625,-16189.240234375,-400000.0625,-6155.009765625,-400000.0625
166.8464937210083,-400000.0625,-7072.830078125,-4775.3798828125,-400000.0625,-16195.6298828125,-400000.0625,-6161.5,-400000.0625
166.86617136001587,-400000.0625,-7073.830078125,-4777.72021484375,-400000.0625,-16204.8798828125,-400000.0625,-6162.4501953125,-400000.0625
166.8769567012787,-400000.0625,-7074.740234375,-4767.1298828125,-400000.0625,-16196.4404296875,-400000.0625,-6153.6298828125,-400000.0625
166.8864507675171,-400000.0625,-7067.8701171875,-4759.41015625,-400000.0625,-16188.099609375,-400000.0625,-6142.47021484375,-400000.0625
166.9144184589386,-400000.0625,-7061.14990234375,-4764.89013671875,-400000.0625,-16191.9599609375,-400000.0625,-6148.0498046875,-400000.0625
166.94799757003784,-400000.0625,-7068.35009765625,-4769.85009765625,-400000.0625,-16203.4501953125,-400000.0625,-6159.5,-400000.0625
166.95939755439758,-400000.0625,-7070.64013671875,-4767.509765625,-400000.0625,-16201.16015625,-400000.0625,-6159.16015625,-400000.0625
166.96886014938354,-400000.0625,-7063.68017578125,-4760.97998046875,-400000.0625,-16191.099609375,-400000.0625,-6149.669921875,-400000.0625
166.97645545005798,-400000.0625,-7056.0498046875,-4754.58984375,-400000.0625,-16186.6201171875,-400000.0625,-6141.759765625,-400000.0625
166.98371648788452,-400000.0625,-7058.0,-4761.27001953125,-400000.0625,-16190.8603515625,-400000.0625,-6146.18994140625,-400000.0625
166.99927496910095,-400000.0625,-7069.830078125,-4771.56982421875,-400000.0625,-16198.58984375,-400000.0625,-6151.6298828125,-400000.0625
167.00778102874756,-400000.0625,-7074.39990234375,-4768.1298828125,-400000.0625,-16195.490234375,-400000.0625,-6154.25,-400000.0625
167.0154070854187,-400000.0625,-7074.169921875,-4763.93994140625,-400000.0625,-16198.349609375,-400000.0625,-6153.06005859375,-400000.0625
167.0381999015808,-400000.0625,-7062.47998046875,-4757.5,-400000.0625,-16193.1103515625,-400000.0625,-6150.68017578125,-400000.0625
167.04679584503174,-400000.0625,-7066.580078125,-4764.93994140625,-400000.0625,-16199.2998046875,-400000.0625,-6151.25,-400000.0625
167.05431056022644,-400000.0625,-7074.39990234375,-4776.6201171875,-400000.0625,-16209.2197265625,-400000.0625,-6163.60009765625,-400000.0625
167.06739163398743,-400000.0625,-7070.490234375,-4775.10009765625,-400000.0625,-16209.7998046875,-400000.0625,-6165.169921875,-400000.0625
167.0759677886963,-400000.0625,-7069.5400390625,-4758.06982421875,-400000.0625,-16197.830078125,-400000.0625,-6151.77001953125,-400000.0625
167.08312463760376,-400000.0625,-7053.08984375,-4747.43994140625,-400000.0625,-16186.5302734375,-400000.0625,-6142.43017578125,-400000.0625
167.09592533111572,-400000.0625,-7061.47998046875,-4760.22021484375,-400000.0625,-16194.150390625,-400000.0625,-6147.91015625,-400000.0625
167.10529112815857,-400000.0625,-7069.10986328125,-4770.7998046875,-400000.0625,-16203.830078125,-400000.0625,-6168.89013671875,-400000.0625
167.11282014846802,-400000.0625,-7074.8798828125,-4773.47021484375,-400000.0625,-16203.9296875,-400000.0625,-6168.89013671875,-400000.0625
167.1202986240387,-400000.0625,-7068.72998046875,-4771.60986328125,-400000.0625,-16195.349609375,-400000.0625,-6151.9599609375,-400000.0625
167.13729882240295,-400000.0625,-7057.240234375,-4756.5498046875,-400000.0625,-16188.76953125,-400000.0625,-6139.759765625,-400000.0625
167.14481806755066,-400000.0625,-7058.72021484375,-4754.10986328125,-400000.0625,-16193.490234375,-400000.0625,-6148.52978515625,-400000.0625
167.15187907218933,-400000.0625,-7077.93017578125,-4769.89990234375,-400000.0625,-16204.169921875,-400000.0625,-6161.64013671875,-400000.0625
167.1634383201599,-400000.0625,-7079.5498046875,-4776.6201171875,-400000.0625,-16204.650390625,-400000.0625,-6166.31982421875,-400000.0625
167.17283272743225,-400000.0625,-7063.68017578125,-4766.080078125,-400000.0625,-16200.2099609375,-400000.0625,-6156.02001953125,-400000.0625
167.18042850494385,-400000.0625,-7051.3701171875,-4753.259765625,-400000.0625,-16189.150390625,-400000.0625,-6144.330078125,-400000.0625
167.1885163784027,-400000.0625,-7059.0498046875,-4757.4501953125,-400000.0625,-16191.2001953125,-400000.0625,-6148.669921875,-400000.0625
167.19985103607178,-400000.0625,-7080.169921875,-4771.85009765625,-400000.0625,-16209.7001953125,-400000.0625,-6161.5,-400000.0625
167.20772576332092,-400000.0625,-7080.22021484375,-4772.9501953125,-400000.0625,-16213.1796875,-400000.0625,-6163.259765625,-400000.0625
167.21468353271484,-400000.0625,-7058.0498046875,-4756.4501953125,-400000.0625,-16197.25,-400000.0625,-6150.68017578125,-400000.0625
167.222314119339,-400000.0625,-7052.14013671875,-4749.16015625,-400000.0625,-16190.7197265625,-400000.0625,-6137.509765625,-400000.0625
167.23908758163452,-400000.0625,-7065.43994140625,-4763.7001953125,-400000.0625,-16199.259765625,-400000.0625,-6148.9599609375,-400000.0625
167.2463607788086,-400000.0625,-7077.31005859375,-4780.33984375,-400000.0625,-16209.650390625,-400000.0625,-6165.5498046875,-400000.0625
167.25388312339783,-400000.0625,-7072.97021484375,-4776.2900390625,-400000.0625,-16210.6103515625,-400000.0625,-6167.56005859375,-400000.0625
167.26250433921814,-400000.0625,-7058.43017578125,-4757.1201171875,-400000.0625,-16196.400390625,-400000.0625,-6152.009765625,-400000.0625
167.27061533927917,-400000.0625,-7048.27001953125,-4747.39013671875,-400000.0625,-16189.48046875,-400000.0625,-6141.08984375,-400000.0625
167.27812385559082,-400000.0625,-7054.85009765625,-4753.68994140625,-400000.0625,-16190.580078125,-400000.0625,-6145.2900390625,-400000.0625
167.28518867492676,-400000.0625,-7074.169921875,-4767.080078125,-400000.0625,-16204.8798828125,-400000.0625,-6158.830078125,-400000.0625
167.29602432250977,-400000.0625,-7071.77978515625,-4769.990234375,-400000.0625,-16211.3203125,-400000.0625,-6161.97998046875,-400000.0625
167.30720353126526,-400000.0625,-7053.47021484375,-4756.31005859375,-400000.0625,-16199.16015625,-400000.0625,-6147.669921875,-400000.0625
167.31446504592896,-400000.0625,-7052.52001953125,-4751.97021484375,-400000.0625,-16189.8603515625,-400000.0625,-6141.52001953125,-400000.0625
167.32211709022522,-400000.0625,-7064.72021484375,-4760.31005859375,-400000.0625,-16199.5400390625,-400000.0625,-6151.009765625,-400000.0625
167.3361713886261,-400000.0625,-7075.68994140625,-4768.7099609375,-400000.0625,-16209.3203125,-400000.0625,-6161.7900390625,-400000.0625
167.3499219417572,-400000.0625,-7067.68017578125,-4761.41015625,-400000.0625,-16204.4501953125,-400000.0625,-6155.6298828125,-400000.0625
167.36112475395203,-400000.0625,-7056.18994140625,-4752.4501953125,-400000.0625,-16197.25,-400000.0625,-6144.85986328125,-400000.0625
167.37243938446045,-400000.0625,-7057.0498046875,-4749.43994140625,-400000.0625,-16193.6298828125,-400000.0625,-6138.1298828125,-400000.0625
167.38018345832825,-400000.0625,-7057.72021484375,-4753.8798828125,-400000.0625,-16198.259765625,-400000.0625,-6149.9599609375,-400000.0625
167.38796710968018,-400000.0625,-7060.43017578125,-4761.89013671875,-400000.0625,-16207.1201171875,-400000.0625,-6164.1201171875,-400000.0625
167.4019329547882,-400000.0625,-7064.8701171875,-4761.169921875,-400000.0625,-16208.3603515625,-400000.0625,-6154.009765625,-400000.0625
167.40975141525269,-400000.0625,-7058.33984375,-4753.10986328125,-400000.0625,-16199.6396484375,-400000.0625,-6140.0400390625,-400000.0625
167.4165699481964,-400000.0625,-7045.169921875,-4743.2001953125,-400000.0625,-16190.2001953125,-400000.0625,-6131.83984375,-400000.0625
167.42657566070557,-400000.0625,-7052.330078125,-4748.6298828125,-400000.0625,-16196.2099609375,-400000.0625,-6136.7001953125,-400000.0625
167.43503332138062,-400000.0625,-7072.1201171875,-4763.080078125,-400000.0625,-16212.3701171875,-400000.0625,-6154.919921875,-400000.0625
167.44294500350952,-400000.0625,-7066.2001953125,-4761.64990234375,-400000.0625,-16206.1201171875,-400000.0625,-6158.35009765625,-400000.0625
167.4623053073883,-400000.0625,-7051.7998046875,-4751.39990234375,-400000.0625,-16194.3896484375,-400000.0625,-6144.330078125,-400000.0625
167.47441148757935,-400000.0625,-7049.27978515625,-4747.43994140625,-400000.0625,-16187.0498046875,-400000.0625,-6136.60986328125,-400000.0625
167.48482370376587,-400000.0625,-7063.25,-4755.31005859375,-400000.0625,-16196.58984375,-400000.0625,-6144.0,-400000.0625
167.50417041778564,-400000.0625,-7072.02001953125,-4764.1298828125,-400000.0625,-16210.41015625,-400000.0625,-6157.77978515625,-400000.0625
167.5171456336975,-400000.0625,-7073.2099609375,-4764.60986328125,-400000.0625,-16209.599609375,-400000.0625,-6161.259765625,-400000.0625
167.5328516960144,-400000.0625,-7061.43017578125,-4759.06982421875,-400000.0625,-16202.01953125,-400000.0625,-6148.47998046875,-400000.0625
167.54503464698792,-400000.0625,-7044.89013671875,-4749.2001953125,-400000.0625,-16192.91015625,-400000.0625,-6133.60009765625,-400000.0625
167.5727243423462,-400000.0625,-7050.3701171875,-4749.35009765625,-400000.0625,-16194.3896484375,-400000.0625,-6144.0,-400000.0625
167.58488583564758,-400000.0625,-7076.93017578125,-4764.02978515625,-400000.0625,-16209.3203125,-400000.0625,-6164.97998046875,-400000.0625
167.60147070884705,-400000.0625,-7091.85986328125,-4768.52001953125,-400000.0625,-16210.509765625,-400000.0625,-6169.1298828125,-400000.0625
167.61589670181274,-400000.0625,-7073.830078125,-4756.259765625,-400000.0625,-16202.259765625,-400000.0625,-6153.919921875,-400000.0625
167.6264567375183,-400000.0625,-7046.7998046875,-4747.43994140625,-400000.0625,-16189.8603515625,-400000.0625,-6140.08984375,-400000.0625
167.635968208313,-400000.0625,-7055.0498046875,-4754.8798828125,-400000.0625,-16194.6796875,-400000.0625,-6157.06982421875,-400000.0625
167.65666580200195,-400000.0625,-7077.35986328125,-4769.89990234375,-400000.0625,-16206.599609375,-400000.0625,-6176.27978515625,-400000.0625
167.6854317188263,-400000.0625,-7073.1201171875,-4766.7998046875,-400000.0625,-16199.16015625,-400000.0625,-6174.27978515625,-400000.0625
167.69776368141174,-400000.0625,-7066.490234375,-4754.97021484375,-400000.0625,-16191.2900390625,-400000.0625,-6159.02001953125,-400000.0625
167.7153718471527,-400000.0625,-7068.8701171875,-4752.10986328125,-400000.0625,-16186.0498046875,-400000.0625,-6153.77001953125,-400000.0625
167.72626376152039,-400000.0625,-7066.009765625,-4759.169921875,-400000.0625,-16188.33984375,-400000.0625,-6167.60009765625,-400000.0625
167.73816537857056,-400000.0625,-7084.31982421875,-4766.89013671875,-400000.0625,-16202.169921875,-400000.0625,-6178.52001953125,-400000.0625
167.75297260284424,-400000.0625,-7081.990234375,-4765.7998046875,-400000.0625,-16200.2099609375,-400000.0625,-6178.330078125,-400000.0625
167.76947140693665,-400000.0625,-7068.77978515625,-4761.41015625,-400000.0625,-16194.349609375,-400000.0625,-6173.7099609375,-400000.0625
167.80209040641785,-400000.0625,-7069.2998046875,-4759.1201171875,-400000.0625,-16193.4404296875,-400000.0625,-6166.7001953125,-400000.0625
167.82573676109314,-400000.0625,-7076.35986328125,-4761.27001953125,-400000.0625,-16197.2099609375,-400000.0625,-6169.990234375,-400000.0625
167.84285283088684,-400000.0625,-7083.18017578125,-4763.89013671875,-400000.0625,-16203.0703125,-400000.0625,-6177.9501953125,-400000.0625
167.86064863204956,-400000.0625,-7076.31005859375,-4760.83984375,-400000.0625,-16199.2099609375,-400000.0625,-6179.0498046875,-400000.0625
167.8767442703247,-400000.0625,-7066.25,-4750.009765625,-400000.0625,-16191.099609375,-400000.0625,-6166.169921875,-400000.0625
167.91286182403564,-400000.0625,-7059.10009765625,-4744.009765625,-400000.0625,-16182.08984375,-400000.0625,-6160.740234375,-400000.0625
167.93010759353638,-400000.0625,-7067.97021484375,-4752.97021484375,-400000.0625,-16190.6298828125,-400000.0625,-6171.31982421875,-400000.0625
167.95222878456116,-400000.0625,-7077.83984375,-4759.83984375,-400000.0625,-16195.16015625,-400000.0625,-6180.47998046875,-400000.0625
167.96854281425476,-400000.0625,-7083.3701171875,-4765.1298828125,-400000.0625,-16204.9296875,-400000.0625,-6186.2998046875,-400000.0625
167.98381853103638,-400000.0625,-7072.740234375,-4757.64013671875,-400000.0625,-16198.73046875,-400000.0625,-6176.0400390625,-400000.0625
168.00712823867798,-400000.0625,-7071.64013671875,-4753.830078125,-400000.0625,-16193.2001953125,-400000.0625,-6172.0400390625,-400000.0625
168.01580786705017,-400000.0625,-7081.31982421875,-4762.1298828125,-400000.0625,-16199.349609375,-400000.0625,-6177.14013671875,-400000.0625
168.03340792655945,-400000.0625,-7084.419921875,-4766.89013671875,-400000.0625,-16203.9296875,-400000.0625,-6183.2001953125,-400000.0625
168.0498161315918,-400000.0625,-7077.41015625,-4759.8798828125,-400000.0625,-16195.0595703125,-400000.0625,-6178.18994140625,-400000.0625
168.06577587127686,-400000.0625,-7075.97998046875,-4754.35009765625,-400000.0625,-16189.2900390625,-400000.0625,-6168.4599609375,-400000.0625
168.07815861701965,-400000.0625,-7076.41015625,-4761.7900390625,-400000.0625,-16196.830078125,-400000.0625,-6173.18017578125,-400000.0625
168.09283900260925,-400000.0625,-7079.22021484375,-4764.41015625,-400000.0625,-16202.5,-400000.0625,-6177.47021484375,-400000.0625
168.12043619155884,-400000.0625,-7086.56005859375,-4768.08984375,-400000.0625,-16208.5595703125,-400000.0625,-6183.33984375,-400000.0625
168.14088940620422,-400000.0625,-7085.93994140625,-4769.14013671875,-400000.0625,-16208.169921875,-400000.0625,-6177.81005859375,-400000.0625
168.16509008407593,-400000.0625,-7075.02001953125,-4759.740234375,-400000.0625,-16200.5,-400000.0625,-6169.83984375,-400000.0625
168.17869091033936,-400000.0625,-7069.4501953125,-4754.64013671875,-400000.0625,-16193.1103515625,-400000.0625,-6166.080078125,-400000.0625
168.19883179664612,-400000.0625,-7070.68994140625,-4755.93017578125,-400000.0625,-16195.1103515625,-400000.0625,-6168.27001953125,-400000.0625
168.23176336288452,-400000.0625,-7077.64990234375,-4761.41015625,-400000.0625,-16205.169921875,-400000.0625,-6172.75,-400000.0625
168.24361300468445,-400000.0625,-7073.5,-4756.68994140625,-400000.0625,-16196.9697265625,-400000.0625,-6167.509765625,-400000.0625
168.26341581344604,-400000.0625,-7073.35986328125,-4759.169921875,-400000.0625,-16200.6904296875,-400000.0625,-6169.1298828125,-400000.0625
168.28028392791748,-400000.0625,-7078.740234375,-4761.89013671875,-400000.0625,-16205.650390625,-400000.0625,-6169.22021484375,-400000.0625
