time,ch1,ch2,ch3,ch4,ch5,ch6,ch7,ch8
0.05214858055114746,-8175.7099609375,-16739.560546875,-2648.39990234375,-400000.0625,-400000.0625,-400000.0625,-400000.0625,-400000.0625
0.16697144508361816,-8168.41015625,-16732.119140625,-2644.590087890625,-400000.0625,-400000.0625,-400000.0625,-400000.0625,-400000.0625
0.19386744499206543,-8172.89013671875,-16731.41015625,-2646.489990234375,-400000.0625,-400000.0625,-400000.0625,-400000.0625,-400000.0625
0.21953964233398438,-8176.9501953125,-16735.130859375,-2651.070068359375,-400000.0625,-400000.0625,-400000.0625,-400000.0625,-400000.0625
0.2357795238494873,-8168.75,-16735.130859375,-2647.830078125,-400000.0625,-400000.0625,-400000.0625,-400000.0625,-400000.0625
0.24923038482666016,-8159.4501953125,-16727.310546875,-2637.6298828125,-400000.0625,-400000.0625,-400000.0625,-400000.0625,-400000.0625
0.268798828125,-8157.43994140625,-16724.01953125,-2635.669921875,-400000.0625,-400000.0625,-400000.0625,-400000.0625,-400000.0625
0.28939342498779297,-8169.3701171875,-16724.5390625,-2640.679931640625,-400000.0625,-400000.0625,-400000.0625,-400000.0625,-400000.0625
0.30584144592285156,-8175.419921875,-16729.01953125,-2647.639892578125,-400000.0625,-400000.0625,-400000.0625,-400000.0625,-400000.0625
0.3242940902709961,-8172.22998046875,-16738.1796875,-2651.8798828125,-400000.0625,-400000.0625,-400000.0625,-400000.0625,-400000.0625
0.3637511730194092,-8166.02978515625,-16735.169921875,-2646.780029296875,-400000.0625,-400000.0625,-400000.0625,-400000.0625,-400000.0625
0.3747584819793701,-8166.7900390625,-16730.359375,-2644.6298828125,-400000.0625,-400000.0625,-400000.0625,-400000.0625,-400000.0625
0.3928380012512207,-8168.7001953125,-16732.0703125,-2646.639892578125,-400000.0625,-400000.0625,-400000.0625,-400000.0625,-400000.0625
0.41950392723083496,-8171.509765625,-16735.890625,-2648.780029296875,-400000.0625,-400000.0625,-400000.0625,-400000.0625,-400000.0625
0.43858933448791504,-8170.93994140625,-16736.029296875,-2648.8798828125,-400000.0625,-400000.0625,-400000.0625,-400000.0625,-400000.0625
0.46552014350891113,-8163.02001953125,-16727.970703125,-2640.340087890625,-400000.0625,-400000.0625,-400000.0625,-400000.0625,-400000.0625
0.48133134841918945,-8163.97998046875,-16724.16015625,-2636.389892578125,-400000.0625,-400000.0625,-400000.0625,-400000.0625,-400000.0625
0.4983813762664795,-8170.02978515625,-16730.44921875,-2645.35009765625,-400000.0625,-400000.0625,-400000.0625,-400000.0625,-400000.0625
0.5172004699707031,-8178.52001953125,-16738.369140625,-2656.030029296875,-400000.0625,-400000.0625,-400000.0625,-400000.0625,-400000.0625
0.5353837013244629,-8178.85009765625,-16734.130859375,-2652.929931640625,-400000.0625,-400000.0625,-400000.0625,-400000.0625,-400000.0625
0.5517022609710693,-8167.169921875,-16728.0703125,-2643.06005859375,-400000.0625,-400000.0625,-400000.0625,-400000.0625,-400000.0625
0.5667858123779297,-8169.7001953125,-16732.740234375,-2646.35009765625,-400000.0625,-400000.0625,-400000.0625,-400000.0625,-400000.0625
0.583538293838501,-8176.419921875,-16734.080078125,-2652.360107421875,-400000.0625,-400000.0625,-400000.0625,-400000.0625,-400000.0625
0.6001198291778564,-8180.91015625,-16732.890625,-2653.169921875,-400000.0625,-400000.0625,-400000.0625,-400000.0625,-400000.0625
0.6197910308837891,-8179.330078125,-16729.259765625,-2645.780029296875,-400000.0625,-400000.0625,-400000.0625,-400000.0625,-400000.0625
0.6327245235443115,-8174.60986328125,-16717.630859375,-2638.669921875,-400000.0625,-400000.0625,-400000.0625,-400000.0625,-400000.0625
0.6479120254516602,-8173.509765625,-16711.619140625,-2637.820068359375,-400000.0625,-400000.0625,-400000.0625,-400000.0625,-400000.0625
0.6695122718811035,-8164.740234375,-16709.189453125,-2634.3798828125,-400000.0625,-400000.0625,-400000.0625,-400000.0625,-400000.0625
0.736600399017334,-8165.5,-16710.279296875,-2640.77001953125,-400000.0625,-400000.0625,-400000.0625,-400000.0625,-400000.0625
0.7495698928833008,-8169.75,-16712.2890625,-2640.300048828125,-400000.0625,-400000.0625,-400000.0625,-400000.0625,-400000.0625
0.7640109062194824,-8164.35986328125,-16703.75,-2630.81005859375,-400000.0625,-400000.0625,-400000.0625,-400000.0625,-400000.0625
0.7779412269592285,-8161.8798828125,-16700.560546875,-2631.949951171875,-400000.0625,-400000.0625,-400000.0625,-400000.0625,-400000.0625
0.7897491455078125,-8162.58984375,-16691.400390625,-2631.659912109375,-400000.0625,-400000.0625,-400000.0625,-400000.0625,-400000.0625
0.8036623001098633,-8160.68994140625,-16685.30078125,-2628.139892578125,-400000.0625,-400000.0625,-400000.0625,-400000.0625,-400000.0625
0.8207945823669434,-8157.06005859375,-16682.869140625,-2624.3701171875,-400000.0625,-400000.0625,-400000.0625,-400000.0625,-400000.0625
0.8338773250579834,-8155.16015625,-16679.240234375,-2622.800048828125,-400000.0625,-400000.0625,-400000.0625,-400000.0625,-400000.0625
0.8454029560089111,-8158.4501953125,-16679.2890625,-2624.4599609375,-400000.0625,-400000.0625,-400000.0625,-400000.0625,-400000.0625
0.8588697910308838,-8164.83984375,-16685.25,-2628.659912109375,-400000.0625,-400000.0625,-400000.0625,-400000.0625,-400000.0625
0.8694190979003906,-8166.83984375,-16685.19921875,-2632.090087890625,-400000.0625,-400000.0625,-400000.0625,-400000.0625,-400000.0625
0.8848495483398438,-8160.8798828125,-16681.720703125,-2624.080078125,-400000.0625,-400000.0625,-400000.0625,-400000.0625,-400000.0625
0.8944559097290039,-8154.10986328125,-16673.609375,-2612.68994140625,-400000.0625,-400000.0625,-400000.0625,-400000.0625,-400000.0625
0.9097998142242432,-8156.10986328125,-16672.900390625,-2615.02001953125,-400000.0625,-400000.0625,-400000.0625,-400000.0625,-400000.0625
0.9276382923126221,-8165.93017578125,-16678.05078125,-2623.889892578125,-400000.0625,-400000.0625,-400000.0625,-400000.0625,-400000.0625
0.9402048587799072,-8165.4599609375,-16679.619140625,-2626.85009765625,-400000.0625,-400000.0625,-400000.0625,-400000.0625,-400000.0625
0.9518373012542725,-8159.8798828125,-16675.900390625,-2622.64990234375,-400000.0625,-400000.0625,-400000.0625,-400000.0625,-400000.0625
0.9606757164001465,-8156.39990234375,-16674.5703125,-2616.409912109375,-400000.0625,-400000.0625,-400000.0625,-400000.0625,-400000.0625
0.9738318920135498,-8155.39013671875,-16673.66015625,-2614.1201171875,-400000.0625,-400000.0625,-400000.0625,-400000.0625,-400000.0625
0.9820904731750488,-8155.39013671875,-16674.330078125,-2616.5,-400000.0625,-400000.0625,-400000.0625,-400000.0625,-400000.0625
0.9936196804046631,-8157.06005859375,-16678.0,-2617.31005859375,-400000.0625,-400000.0625,-400000.0625,-400000.0625,-400000.0625
1.0029847621917725,-8155.81982421875,-16674.140625,-2612.39990234375,-400000.0625,-400000.0625,-400000.0625,-400000.0625,-400000.0625
1.0181870460510254,-8149.0498046875,-16666.990234375,-2606.820068359375,-400000.0625,-400000.0625,-400000.0625,-400000.0625,-400000.0625
1.0291025638580322,-8145.759765625,-16667.419921875,-2606.8701171875,-400000.0625,-400000.0625,-400000.0625,-400000.0625,-400000.0625
1.0445058345794678,-8156.25,-16671.80078125,-2613.929931640625,-400000.0625,-400000.0625,-400000.0625,-400000.0625,-400000.0625
1.0542290210723877,-8155.43994140625,-16671.80078125,-2617.260009765625,-400000.0625,-400000.0625,-400000.0625,-400000.0625,-400000.0625
1.0658659934997559,-8156.490234375,-16669.369140625,-2615.60009765625,-400000.0625,-400000.0625,-400000.0625,-400000.0625,-400000.0625
1.0786511898040771,-8151.14990234375,-16664.220703125,-2606.9599609375,-400000.0625,-400000.0625,-400000.0625,-400000.0625,-400000.0625
1.0924265384674072,-8149.10009765625,-16663.080078125,-2606.199951171875,-400000.0625,-400000.0625,-400000.0625,-400000.0625,-400000.0625
1.1011030673980713,-8152.39013671875,-16666.029296875,-2608.8701171875,-400000.0625,-400000.0625,-400000.0625,-400000.0625,-400000.0625
1.1189115047454834,-8151.9599609375,-16662.4609375,-2606.340087890625,-400000.0625,-400000.0625,-400000.0625,-400000.0625,-400000.0625
1.1295194625854492,-8151.6298828125,-16659.2109375,-2601.47998046875,-400000.0625,-400000.0625,-400000.0625,-400000.0625,-400000.0625
1.1440205574035645,-8138.0400390625,-16647.91015625,-2590.93994140625,-400000.0625,-400000.0625,-400000.0625,-400000.0625,-400000.0625
1.1522448062896729,-8138.7099609375,-16641.900390625,-2588.320068359375,-400000.0625,-400000.0625,-400000.0625,-400000.0625,-400000.0625
1.1672935485839844,-8147.85986328125,-16651.19921875,-2596.81005859375,-400000.0625,-400000.0625,-400000.0625,-400000.0625,-400000.0625
1.177088975906372,-8149.2001953125,-16653.830078125,-2598.239990234375,-400000.0625,-400000.0625,-400000.0625,-400000.0625,-400000.0625
1.1872825622558594,-8150.47998046875,-16655.640625,-2598.669921875,-400000.0625,-400000.0625,-400000.0625,-400000.0625,-400000.0625
1.2001721858978271,-8151.6298828125,-16657.640625,-2598.330078125,-400000.0625,-400000.0625,-400000.0625,-400000.0625,-400000.0625
1.2101569175720215,-8155.2998046875,-16665.509765625,-2594.7099609375,-400000.0625,-400000.0625,-400000.0625,-400000.0625,-400000.0625
1.2272179126739502,-8163.5,-16691.16015625,-2599.570068359375,-400000.0625,-400000.0625,-400000.0625,-400000.0625,-400000.0625
1.2389593124389648,-8164.7900390625,-16695.83984375,-2602.77001953125,-400000.0625,-400000.0625,-400000.0625,-400000.0625,-400000.0625
1.2520413398742676,-8159.830078125,-16680.669921875,-2599.570068359375,-400000.0625,-400000.0625,-400000.0625,-400000.0625,-400000.0625
1.2691006660461426,-8166.41015625,-16682.669921875,-2603.10009765625,-400000.0625,-400000.0625,-400000.0625,-400000.0625,-400000.0625
1.2837440967559814,-8177.52001953125,-16693.9296875,-2604.2900390625,-400000.0625,-400000.0625,-400000.0625,-400000.0625,-400000.0625
1.297053337097168,-8182.72021484375,-16706.470703125,-2607.43994140625,-400000.0625,-400000.0625,-400000.0625,-400000.0625,-400000.0625
1.3091912269592285,-8202.4599609375,-16730.119140625,-2618.27001953125,-400000.0625,-400000.0625,-400000.0625,-400000.0625,-400000.0625
1.3245384693145752,-8216.9501953125,-16754.439453125,-2631.860107421875,-400000.0625,-400000.0625,-400000.0625,-400000.0625,-400000.0625
1.3339598178863525,-8229.58984375,-16759.060546875,-2633.52001953125,-400000.0625,-400000.0625,-400000.0625,-400000.0625,-400000.0625
1.348367691040039,-8232.98046875,-16762.779296875,-2628.3701171875,-400000.0625,-400000.0625,-400000.0625,-400000.0625,-400000.0625
1.3613934516906738,-8244.3701171875,-16781.240234375,-2637.14990234375,-400000.0625,-400000.0625,-400000.0625,-400000.0625,-400000.0625
1.3746204376220703,-8256.669921875,-16793.25,-2643.919921875,-400000.0625,-400000.0625,-400000.0625,-400000.0625,-400000.0625
1.3840594291687012,-8256.6298828125,-16789.009765625,-2644.35009765625,-400000.0625,-400000.0625,-400000.0625,-400000.0625,-400000.0625
1.3980767726898193,-8268.4501953125,-16811.80078125,-2649.830078125,-400000.0625,-400000.0625,-400000.0625,-400000.0625,-400000.0625
1.4118342399597168,-8269.599609375,-16811.609375,-2647.39990234375,-400000.0625,-400000.0625,-400000.0625,-400000.0625,-400000.0625
1.4239814281463623,-8276.419921875,-16800.119140625,-2648.739990234375,-400000.0625,-400000.0625,-400000.0625,-400000.0625,-400000.0625
1.4376437664031982,-8283.900390625,-16812.66015625,-2658.179931640625,-400000.0625,-400000.0625,-400000.0625,-400000.0625,-400000.0625
1.4510078430175781,-8281.7998046875,-16816.900390625,-2653.550048828125,-400000.0625,-400000.0625,-400000.0625,-400000.0625,-400000.0625
1.4629106521606445,-8284.240234375,-16816.669921875,-2651.929931640625,-400000.0625,-400000.0625,-400000.0625,-400000.0625,-400000.0625
1.4707250595092773,-8276.509765625,-16815.7109375,-2648.31005859375,-400000.0625,-400000.0625,-400000.0625,-400000.0625,-400000.0625
1.4836463928222656,-8275.080078125,-16809.560546875,-2645.830078125,-400000.0625,-400000.0625,-400000.0625,-400000.0625,-400000.0625
1.4936153888702393,-8278.1796875,-16811.330078125,-2648.5400390625,-400000.0625,-400000.0625,-400000.0625,-400000.0625,-400000.0625
1.5027003288269043,-8274.7900390625,-16810.939453125,-2649.830078125,-400000.0625,-400000.0625,-400000.0625,-400000.0625,-400000.0625
1.522599220275879,-8265.0703125,-16795.73046875,-2636.860107421875,-400000.0625,-400000.0625,-400000.0625,-400000.0625,-400000.0625
1.5333597660064697,-8262.2998046875,-16790.630859375,-2633.429931640625,-400000.0625,-400000.0625,-400000.0625,-400000.0625,-400000.0625
1.5465755462646484,-8265.400390625,-16793.060546875,-2635.18994140625,-400000.0625,-400000.0625,-400000.0625,-400000.0625,-400000.0625
1.5567688941955566,-8271.740234375,-16802.98046875,-2642.820068359375,-400000.0625,-400000.0625,-400000.0625,-400000.0625,-400000.0625
1.5678107738494873,-8282.51953125,-16809.509765625,-2651.739990234375,-400000.0625,-400000.0625,-400000.0625,-400000.0625,-400000.0625
1.580486536026001,-8279.6103515625,-16805.4609375,-2644.830078125,-400000.0625,-400000.0625,-400000.0625,-400000.0625,-400000.0625
1.5896148681640625,-8267.5,-16796.73046875,-2635.530029296875,-400000.0625,-400000.0625,-400000.0625,-400000.0625,-400000.0625
1.6034350395202637,-8257.9599609375,-16786.669921875,-2628.469970703125,-400000.0625,-400000.0625,-400000.0625,-400000.0625,-400000.0625
1.6218018531799316,-8262.4404296875,-16787.630859375,-2632.47998046875,-400000.0625,-400000.0625,-400000.0625,-400000.0625,-400000.0625
1.6333179473876953,-8270.9296875,-16792.630859375,-2639.47998046875,-400000.0625,-400000.0625,-400000.0625,-400000.0625,-400000.0625
1.6455845832824707,-8270.9296875,-16793.16015625,-2640.679931640625,-400000.0625,-400000.0625,-400000.0625,-400000.0625,-400000.0625
1.6553287506103516,-8261.16015625,-16785.2890625,-2632.0,-400000.0625,-400000.0625,-400000.0625,-400000.0625,-400000.0625
1.6679778099060059,-8256.48046875,-16778.419921875,-2626.320068359375,-400000.0625,-400000.0625,-400000.0625,-400000.0625,-400000.0625
1.6792380809783936,-8260.349609375,-16778.5703125,-2627.52001953125,-400000.0625,-400000.0625,-400000.0625,-400000.0625,-400000.0625
1.6927587985992432,-8269.6904296875,-16783.5703125,-2635.530029296875,-400000.0625,-400000.0625,-400000.0625,-400000.0625,-400000.0625
1.7068006992340088,-8261.7802734375,-16781.0,-2630.139892578125,-400000.0625,-400000.0625,-400000.0625,-400000.0625,-400000.0625
1.7234339714050293,-8255.7197265625,-16776.900390625,-2624.610107421875,-400000.0625,-400000.0625,-400000.0625,-400000.0625,-400000.0625
1.7337727546691895,-8251.48046875,-16772.75,-2621.169921875,-400000.0625,-400000.0625,-400000.0625,-400000.0625,-400000.0625
1.7474377155303955,-8256.2001953125,-16777.140625,-2627.419921875,-400000.0625,-400000.0625,-400000.0625,-400000.0625,-400000.0625
1.7600786685943604,-8262.6396484375,-16780.470703125,-2634.949951171875,-400000.0625,-400000.0625,-400000.0625,-400000.0625,-400000.0625
1.773710012435913,-8262.2998046875,-16779.759765625,-2632.429931640625,-400000.0625,-400000.0625,-400000.0625,-400000.0625,-400000.0625
1.7838187217712402,-8252.9599609375,-16774.609375,-2627.52001953125,-400000.0625,-400000.0625,-400000.0625,-400000.0625,-400000.0625
1.7977192401885986,-8247.7099609375,-16770.359375,-2623.989990234375,-400000.0625,-400000.0625,-400000.0625,-400000.0625,-400000.0625
1.8123140335083008,-8251.0498046875,-16776.80078125,-2628.949951171875,-400000.0625,-400000.0625,-400000.0625,-400000.0625,-400000.0625
1.8259508609771729,-8264.349609375,-16786.009765625,-2637.719970703125,-400000.0625,-400000.0625,-400000.0625,-400000.0625,-400000.0625
1.837719440460205,-8264.349609375,-16786.859375,-2636.050048828125,-400000.0625,-400000.0625,-400000.0625,-400000.0625,-400000.0625
1.854283094406128,-8254.150390625,-16774.75,-2624.56005859375,-400000.0625,-400000.0625,-400000.0625,-400000.0625,-400000.0625
1.8664627075195312,-8247.7099609375,-16770.939453125,-2620.7900390625,-400000.0625,-400000.0625,-400000.0625,-400000.0625,-400000.0625
1.880544900894165,-8248.759765625,-16773.080078125,-2625.3701171875,-400000.0625,-400000.0625,-400000.0625,-400000.0625,-400000.0625
1.8931519985198975,-8264.1103515625,-16786.4296875,-2639.77001953125,-400000.0625,-400000.0625,-400000.0625,-400000.0625,-400000.0625
1.9060447216033936,-8266.400390625,-16788.2890625,-2642.25,-400000.0625,-400000.0625,-400000.0625,-400000.0625,-400000.0625
1.921201467514038,-8257.7197265625,-16783.099609375,-2631.469970703125,-400000.0625,-400000.0625,-400000.0625,-400000.0625,-400000.0625
1.9349946975708008,-8254.76953125,-16779.23046875,-2625.989990234375,-400000.0625,-400000.0625,-400000.0625,-400000.0625,-400000.0625
1.9460785388946533,-8257.8203125,-16788.91015625,-2634.3798828125,-400000.0625,-400000.0625,-400000.0625,-400000.0625,-400000.0625
1.9601778984069824,-8265.9296875,-16804.26953125,-2652.070068359375,-400000.0625,-400000.0625,-400000.0625,-400000.0625,-400000.0625
1.969353437423706,-8259.0595703125,-16808.509765625,-2657.1298828125,-400000.0625,-400000.0625,-400000.0625,-400000.0625,-400000.0625
1.9829704761505127,-8249.0,-16807.69921875,-2652.360107421875,-400000.0625,-400000.0625,-400000.0625,-400000.0625,-400000.0625
1.99522066116333,-8245.51953125,-16796.689453125,-2644.489990234375,-400000.0625,-400000.0625,-400000.0625,-400000.0625,-400000.0625
2.0099143981933594,-8239.3203125,-16794.869140625,-2646.830078125,-400000.0625,-400000.0625,-400000.0625,-400000.0625,-400000.0625
2.02864408493042,-8247.66015625,-16811.75,-2660.989990234375,-400000.0625,-400000.0625,-400000.0625,-400000.0625,-400000.0625
2.038053512573242,-8258.150390625,-16822.669921875,-2669.860107421875,-400000.0625,-400000.0625,-400000.0625,-400000.0625,-400000.0625
2.0548877716064453,-8247.330078125,-16814.810546875,-2661.280029296875,-400000.0625,-400000.0625,-400000.0625,-400000.0625,-400000.0625
2.0666213035583496,-8236.4599609375,-16797.640625,-2648.5,-400000.0625,-400000.0625,-400000.0625,-400000.0625,-400000.0625
2.0817441940307617,-8248.3798828125,-16806.80078125,-2659.56005859375,-400000.0625,-400000.0625,-400000.0625,-400000.0625,-400000.0625
2.093402147293091,-8260.5400390625,-16830.779296875,-2676.820068359375,-400000.0625,-400000.0625,-400000.0625,-400000.0625,-400000.0625
2.1071243286132812,-8257.2001953125,-16827.439453125,-2675.340087890625,-400000.0625,-400000.0625,-400000.0625,-400000.0625,-400000.0625
2.127882957458496,-8246.7099609375,-16811.7109375,-2662.75,-400000.0625,-400000.0625,-400000.0625,-400000.0625,-400000.0625
2.1373374462127686,-8239.9404296875,-16806.41015625,-2652.929931640625,-400000.0625,-400000.0625,-400000.0625,-400000.0625,-400000.0625
2.1539955139160156,-8241.5595703125,-16810.939453125,-2659.1298828125,-400000.0625,-400000.0625,-400000.0625,-400000.0625,-400000.0625
2.168776035308838,-8249.0,-16814.470703125,-2667.050048828125,-400000.0625,-400000.0625,-400000.0625,-400000.0625,-400000.0625
2.181396007537842,-8255.8203125,-16820.150390625,-2669.139892578125,-400000.0625,-400000.0625,-400000.0625,-400000.0625,-400000.0625
2.1924633979797363,-8247.1396484375,-16814.279296875,-2658.219970703125,-400000.0625,-400000.0625,-400000.0625,-400000.0625,-400000.0625
2.2046194076538086,-8247.5703125,-16814.419921875,-2658.56005859375,-400000.0625,-400000.0625,-400000.0625,-400000.0625,-400000.0625
2.2203762531280518,-8255.099609375,-16827.869140625,-2671.340087890625,-400000.0625,-400000.0625,-400000.0625,-400000.0625,-400000.0625
2.2324180603027344,-8266.259765625,-16837.5,-2682.590087890625,-400000.0625,-400000.0625,-400000.0625,-400000.0625,-400000.0625
2.244609832763672,-8265.7802734375,-16835.169921875,-2680.449951171875,-400000.0625,-400000.0625,-400000.0625,-400000.0625,-400000.0625
2.2776613235473633,-8254.3896484375,-16826.490234375,-2668.139892578125,-400000.0625,-400000.0625,-400000.0625,-400000.0625,-400000.0625
2.2895190715789795,-8244.08984375,-16813.51953125,-2658.320068359375,-400000.0625,-400000.0625,-400000.0625,-400000.0625,-400000.0625
2.302719831466675,-8253.669921875,-16823.869140625,-2668.669921875,-400000.0625,-400000.0625,-400000.0625,-400000.0625,-400000.0625
2.3208272457122803,-8271.41015625,-16841.599609375,-2685.070068359375,-400000.0625,-400000.0625,-400000.0625,-400000.0625,-400000.0625
2.3316736221313477,-8277.509765625,-16847.1796875,-2688.840087890625,-400000.0625,-400000.0625,-400000.0625,-400000.0625,-400000.0625
2.34346342086792,-8269.5,-16833.970703125,-2676.919921875,-400000.0625,-400000.0625,-400000.0625,-400000.0625,-400000.0625
2.355036735534668,-8260.73046875,-16830.30078125,-2670.860107421875,-400000.0625,-400000.0625,-400000.0625,-400000.0625,-400000.0625
2.366492986679077,-8266.740234375,-16835.740234375,-2676.9599609375,-400000.0625,-400000.0625,-400000.0625,-400000.0625,-400000.0625
2.382520914077759,-8278.990234375,-16843.890625,-2686.97998046875,-400000.0625,-400000.0625,-400000.0625,-400000.0625,-400000.0625
2.3941900730133057,-8277.849609375,-16843.369140625,-2687.1201171875,-400000.0625,-400000.0625,-400000.0625,-400000.0625,-400000.0625
2.4051177501678467,-8269.599609375,-16834.44921875,-2678.72998046875,-400000.0625,-400000.0625,-400000.0625,-400000.0625,-400000.0625
2.4216039180755615,-8262.2099609375,-16839.4609375,-2676.679931640625,-400000.0625,-400000.0625,-400000.0625,-400000.0625,-400000.0625
2.4325459003448486,-8265.7802734375,-16840.509765625,-2675.25,-400000.0625,-400000.0625,-400000.0625,-400000.0625,-400000.0625
2.469669818878174,-8284.1904296875,-16829.970703125,-2672.389892578125,-400000.0625,-400000.0625,-400000.0625,-400000.0625,-400000.0625
2.531128406524658,-8290.009765625,-16813.66015625,-2657.93994140625,-400000.0625,-400000.0625,-400000.0625,-400000.0625,-400000.0625
2.5475053787231445,-8283.900390625,-16797.970703125,-2640.10009765625,-400000.0625,-400000.0625,-400000.0625,-400000.0625,-400000.0625
2.5584471225738525,-8288.4296875,-16781.900390625,-2633.2900390625,-400000.0625,-400000.0625,-400000.0625,-400000.0625,-400000.0625
2.6711390018463135,-8299.259765625,-16778.759765625,-2632.949951171875,-400000.0625,-400000.0625,-400000.0625,-400000.0625,-400000.0625
2.703740358352661,-8315.900390625,-16785.48046875,-2638.530029296875,-400000.0625,-400000.0625,-400000.0625,-400000.0625,-400000.0625
2.8342983722686768,-8322.099609375,-16781.0,-2630.760009765625,-400000.0625,-400000.0625,-400000.0625,-400000.0625,-400000.0625
2.8553390502929688,-8311.6103515625,-16767.83984375,-2613.5,-400000.0625,-400000.0625,-400000.0625,-400000.0625,-400000.0625
2.9108381271362305,-8305.259765625,-16757.30078125,-2603.6298828125,-400000.0625,-400000.0625,-400000.0625,-400000.0625,-400000.0625
2.9806604385375977,-8311.7998046875,-16761.349609375,-2608.35009765625,-400000.0625,-400000.0625,-400000.0625,-400000.0625,-400000.0625
3.0165698528289795,-8321.8603515625,-16770.7890625,-2620.840087890625,-400000.0625,-400000.0625,-400000.0625,-400000.0625,-400000.0625
3.0690464973449707,-8328.009765625,-16777.330078125,-2626.7099609375,-400000.0625,-400000.0625,-400000.0625,-400000.0625,-400000.0625
3.117623805999756,-8315.330078125,-16763.98046875,-2611.72998046875,-400000.0625,-400000.0625,-400000.0625,-400000.0625,-400000.0625
3.1623899936676025,-8308.3603515625,-16757.869140625,-2603.860107421875,-400000.0625,-400000.0625,-400000.0625,-400000.0625,-400000.0625
3.2027838230133057,-8313.849609375,-16764.689453125,-2609.780029296875,-400000.0625,-400000.0625,-400000.0625,-400000.0625,-400000.0625
3.215893030166626,-8326.48046875,-16774.369140625,-2621.840087890625,-400000.0625,-400000.0625,-400000.0625,-400000.0625,-400000.0625
3.2280423641204834,-8324.9599609375,-16770.939453125,-2618.169921875,-400000.0625,-400000.0625,-400000.0625,-400000.0625,-400000.0625
3.238825559616089,-8311.8896484375,-16760.2109375,-2603.47998046875,-400000.0625,-400000.0625,-400000.0625,-400000.0625,-400000.0625
3.25247859954834,-8301.58984375,-16749.529296875,-2595.330078125,-400000.0625,-400000.0625,-400000.0625,-400000.0625,-400000.0625
3.265512228012085,-8310.1298828125,-16758.919921875,-2603.6298828125,-400000.0625,-400000.0625,-400000.0625,-400000.0625,-400000.0625
3.2827959060668945,-8331.1103515625,-16776.609375,-2623.64990234375,-400000.0625,-400000.0625,-400000.0625,-400000.0625,-400000.0625
3.2991092205047607,-8330.7802734375,-16776.0390625,-2623.3701171875,-400000.0625,-400000.0625,-400000.0625,-400000.0625,-400000.0625
3.3116540908813477,-8316.1396484375,-16763.640625,-2609.06005859375,-400000.0625,-400000.0625,-400000.0625,-400000.0625,-400000.0625
3.328885316848755,-8303.830078125,-16756.6796875,-2600.429931640625,-400000.0625,-400000.0625,-400000.0625,-400000.0625,-400000.0625
3.342740058898926,-8307.1201171875,-16756.919921875,-2604.43994140625,-400000.0625,-400000.0625,-400000.0625,-400000.0625,-400000.0625
3.355846881866455,-8320.240234375,-16764.400390625,-2615.1201171875,-400000.0625,-400000.0625,-400000.0625,-400000.0625,-400000.0625
3.3734962940216064,-8327.8203125,-16764.01953125,-2614.070068359375,-400000.0625,-400000.0625,-400000.0625,-400000.0625,-400000.0625
3.394103765487671,-8310.5595703125,-16754.439453125,-2602.239990234375,-400000.0625,-400000.0625,-400000.0625,-400000.0625,-400000.0625
3.4131784439086914,-8303.259765625,-16754.529296875,-2598.949951171875,-400000.0625,-400000.0625,-400000.0625,-400000.0625,-400000.0625
3.4273183345794678,-8313.990234375,-16763.400390625,-2610.5400390625,-400000.0625,-400000.0625,-400000.0625,-400000.0625,-400000.0625
3.446402072906494,-8320.669921875,-16767.9296875,-2617.360107421875,-400000.0625,-400000.0625,-400000.0625,-400000.0625,-400000.0625
3.4550671577453613,-8322.8095703125,-16771.029296875,-2619.219970703125,-400000.0625,-400000.0625,-400000.0625,-400000.0625,-400000.0625
3.4767110347747803,-8316.08984375,-16757.19921875,-2603.6298828125,-400000.0625,-400000.0625,-400000.0625,-400000.0625,-400000.0625
3.501758575439453,-8304.169921875,-16748.91015625,-2594.280029296875,-400000.0625,-400000.0625,-400000.0625,-400000.0625,-400000.0625
3.5128324031829834,-8309.7900390625,-16757.970703125,-2603.47998046875,-400000.0625,-400000.0625,-400000.0625,-400000.0625,-400000.0625
3.522367000579834,-8319.08984375,-16764.5,-2610.2099609375,-400000.0625,-400000.0625,-400000.0625,-400000.0625,-400000.0625
3.5325114727020264,-8313.080078125,-16761.830078125,-2607.919921875,-400000.0625,-400000.0625,-400000.0625,-400000.0625,-400000.0625
3.544782876968384,-8307.599609375,-16756.869140625,-2600.18994140625,-400000.0625,-400000.0625,-400000.0625,-400000.0625,-400000.0625
3.5554299354553223,-8298.6796875,-16749.669921875,-2594.18994140625,-400000.0625,-400000.0625,-400000.0625,-400000.0625,-400000.0625
3.5760085582733154,-8304.2197265625,-16756.109375,-2605.389892578125,-400000.0625,-400000.0625,-400000.0625,-400000.0625,-400000.0625
3.5955817699432373,-8325.580078125,-16770.650390625,-2622.219970703125,-400000.0625,-400000.0625,-400000.0625,-400000.0625,-400000.0625
3.6182007789611816,-8328.1103515625,-16761.73046875,-2616.60009765625,-400000.0625,-400000.0625,-400000.0625,-400000.0625,-400000.0625
3.6385087966918945,-8313.509765625,-16758.16015625,-2607.489990234375,-400000.0625,-400000.0625,-400000.0625,-400000.0625,-400000.0625
3.6698198318481445,-8306.080078125,-16754.919921875,-2602.47998046875,-400000.0625,-400000.0625,-400000.0625,-400000.0625,-400000.0625
3.7020885944366455,-8314.1298828125,-16758.30078125,-2609.969970703125,-400000.0625,-400000.0625,-400000.0625,-400000.0625,-400000.0625
3.7504396438598633,-8325.5302734375,-16768.7890625,-2619.1201171875,-400000.0625,-400000.0625,-400000.0625,-400000.0625,-400000.0625
3.782449245452881,-8323.2900390625,-16764.7890625,-2617.169921875,-400000.0625,-400000.0625,-400000.0625,-400000.0625,-400000.0625
3.8105223178863525,-8306.7001953125,-16754.30078125,-2605.679931640625,-400000.0625,-400000.0625,-400000.0625,-400000.0625,-400000.0625
3.85003399848938,-8295.9697265625,-16749.05078125,-2595.89990234375,-400000.0625,-400000.0625,-400000.0625,-400000.0625,-400000.0625
3.882296562194824,-8312.7001953125,-16761.779296875,-2610.300048828125,-400000.0625,-400000.0625,-400000.0625,-400000.0625,-400000.0625
3.9054677486419678,-8333.0595703125,-16781.279296875,-2632.760009765625,-400000.0625,-400000.0625,-400000.0625,-400000.0625,-400000.0625
3.932358503341675,-8333.9697265625,-16781.859375,-2629.949951171875,-400000.0625,-400000.0625,-400000.0625,-400000.0625,-400000.0625
3.9491446018218994,-8319.08984375,-16763.9296875,-2612.8798828125,-400000.0625,-400000.0625,-400000.0625,-400000.0625,-400000.0625
3.9727022647857666,-8306.0302734375,-16755.439453125,-2602.860107421875,-400000.0625,-400000.0625,-400000.0625,-400000.0625,-400000.0625
4.004996061325073,-8308.75,-16761.349609375,-2609.5400390625,-400000.0625,-400000.0625,-400000.0625,-400000.0625,-400000.0625
4.0506157875061035,-8326.7197265625,-16773.609375,-2624.800048828125,-400000.0625,-400000.0625,-400000.0625,-400000.0625,-400000.0625
4.093858957290649,-8325.91015625,-16773.75,-2625.179931640625,-400000.0625,-400000.0625,-400000.0625,-400000.0625,-400000.0625
4.1295318603515625,-8316.5703125,-16762.689453125,-2612.2099609375,-400000.0625,-400000.0625,-400000.0625,-400000.0625,-400000.0625
4.163159132003784,-8304.9296875,-16754.490234375,-2604.06005859375,-400000.0625,-400000.0625,-400000.0625,-400000.0625,-400000.0625
4.19774603843689,-8312.080078125,-16762.349609375,-2611.449951171875,-400000.0625,-400000.0625,-400000.0625,-400000.0625,-400000.0625
4.217230796813965,-8329.8203125,-16783.48046875,-2629.090087890625,-400000.0625,-400000.0625,-400000.0625,-400000.0625,-400000.0625
4.235610485076904,-8340.650390625,-16790.30078125,-2632.090087890625,-400000.0625,-400000.0625,-400000.0625,-400000.0625,-400000.0625
4.258275508880615,-8326.48046875,-16774.890625,-2620.1298828125,-400000.0625,-400000.0625,-400000.0625,-400000.0625,-400000.0625
4.282314777374268,-8316.990234375,-16767.169921875,-2610.590087890625,-400000.0625,-400000.0625,-400000.0625,-400000.0625,-400000.0625
4.304460763931274,-8324.6201171875,-16774.0390625,-2618.030029296875,-400000.0625,-400000.0625,-400000.0625,-400000.0625,-400000.0625
4.325061559677124,-8345.3203125,-16781.7109375,-2629.85009765625,-400000.0625,-400000.0625,-400000.0625,-400000.0625,-400000.0625
4.348394393920898,-8343.0302734375,-16792.16015625,-2634.949951171875,-400000.0625,-400000.0625,-400000.0625,-400000.0625,-400000.0625
4.368635892868042,-8311.080078125,-16790.009765625,-2633.2900390625,-400000.0625,-400000.0625,-400000.0625,-400000.0625,-400000.0625
4.402162075042725,-8292.2900390625,-16779.849609375,-2633.2900390625,-400000.0625,-400000.0625,-400000.0625,-400000.0625,-400000.0625
4.436470031738281,-8287.2900390625,-16792.390625,-2647.2099609375,-400000.0625,-400000.0625,-400000.0625,-400000.0625,-400000.0625
4.498543739318848,-8284.669921875,-16797.58984375,-2669.2900390625,-400000.0625,-400000.0625,-400000.0625,-400000.0625,-400000.0625
4.569405555725098,-8268.8798828125,-16788.76953125,-2681.919921875,-400000.0625,-400000.0625,-400000.0625,-400000.0625,-400000.0625
4.62158465385437,-8235.5498046875,-16774.369140625,-2682.72998046875,-400000.0625,-400000.0625,-400000.0625,-400000.0625,-400000.0625
4.674705982208252,-8201.41015625,-16766.740234375,-2685.639892578125,-400000.0625,-400000.0625,-400000.0625,-400000.0625,-400000.0625
4.715152978897095,-8184.43017578125,-16766.98046875,-2700.760009765625,-400000.0625,-400000.0625,-400000.0625,-400000.0625,-400000.0625
4.7331037521362305,-8177.47021484375,-16771.369140625,-2723.8798828125,-400000.0625,-400000.0625,-400000.0625,-400000.0625,-400000.0625
4.749160051345825,-8154.919921875,-16765.9296875,-2733.52001953125,-400000.0625,-400000.0625,-400000.0625,-400000.0625,-400000.0625
4.76813817024231,-8118.77001953125,-16753.2890625,-2729.699951171875,-400000.0625,-400000.0625,-400000.0625,-400000.0625,-400000.0625
4.786259651184082,-8088.06982421875,-16745.66015625,-2733.330078125,-400000.0625,-400000.0625,-400000.0625,-400000.0625,-400000.0625
4.805741548538208,-8069.56005859375,-16748.859375,-2742.340087890625,-400000.0625,-400000.0625,-400000.0625,-400000.0625,-400000.0625
4.830891132354736,-8067.85009765625,-16758.779296875,-2763.800048828125,-400000.0625,-400000.0625,-400000.0625,-400000.0625,-400000.0625
4.858930826187134,-8055.8798828125,-16768.029296875,-2775.239990234375,-400000.0625,-400000.0625,-400000.0625,-400000.0625,-400000.0625
4.884212493896484,-8028.31982421875,-16772.890625,-2772.570068359375,-400000.0625,-400000.0625,-400000.0625,-400000.0625,-400000.0625
4.914944648742676,-8006.85986328125,-16768.83984375,-2772.669921875,-400000.0625,-400000.0625,-400000.0625,-400000.0625,-400000.0625
4.933223247528076,-8001.47021484375,-16782.099609375,-2790.5,-400000.0625,-400000.0625,-400000.0625,-400000.0625,-400000.0625
4.954770803451538,-8002.9501953125,-16803.69921875,-2812.47998046875,-400000.0625,-400000.0625,-400000.0625,-400000.0625,-400000.0625
4.978625059127808,-7991.02978515625,-16808.3203125,-2817.5400390625,-400000.0625,-400000.0625,-400000.0625,-400000.0625,-400000.0625
5.001871585845947,-7978.2998046875,-16803.7890625,-2809.050048828125,-400000.0625,-400000.0625,-400000.0625,-400000.0625,-400000.0625
5.017601728439331,-7974.39013671875,-16803.4609375,-2801.510009765625,-400000.0625,-400000.0625,-400000.0625,-400000.0625,-400000.0625
5.038909435272217,-7976.52978515625,-16805.75,-2802.280029296875,-400000.0625,-400000.0625,-400000.0625,-400000.0625,-400000.0625
5.0618736743927,-7988.02001953125,-16816.4296875,-2814.669921875,-400000.0625,-400000.0625,-400000.0625,-400000.0625,-400000.0625
5.080907106399536,-7989.7900390625,-16817.810546875,-2817.25,-400000.0625,-400000.0625,-400000.0625,-400000.0625,-400000.0625
5.102828502655029,-7976.72021484375,-16804.7890625,-2802.469970703125,-400000.0625,-400000.0625,-400000.0625,-400000.0625,-400000.0625
5.120671033859253,-7968.6201171875,-16797.400390625,-2794.60009765625,-400000.0625,-400000.0625,-400000.0625,-400000.0625,-400000.0625
5.134007692337036,-7981.10986328125,-16810.609375,-2806.22998046875,-400000.0625,-400000.0625,-400000.0625,-400000.0625,-400000.0625
5.148628234863281,-8000.52001953125,-16823.630859375,-2820.35009765625,-400000.0625,-400000.0625,-400000.0625,-400000.0625,-400000.0625
5.16239857673645,-7997.47021484375,-16821.0,-2818.199951171875,-400000.0625,-400000.0625,-400000.0625,-400000.0625,-400000.0625
5.1828083992004395,-7989.259765625,-16811.80078125,-2806.659912109375,-400000.0625,-400000.0625,-400000.0625,-400000.0625,-400000.0625
5.204171895980835,-7979.35009765625,-16806.029296875,-2796.75,-400000.0625,-400000.0625,-400000.0625,-400000.0625,-400000.0625
5.222168922424316,-7984.77978515625,-16806.80078125,-2794.929931640625,-400000.0625,-400000.0625,-400000.0625,-400000.0625,-400000.0625
5.238204717636108,-7999.08984375,-16813.5703125,-2806.52001953125,-400000.0625,-400000.0625,-400000.0625,-400000.0625,-400000.0625
5.255383253097534,-8000.7998046875,-16820.91015625,-2810.719970703125,-400000.0625,-400000.0625,-400000.0625,-400000.0625,-400000.0625
5.2692131996154785,-7989.68994140625,-16809.66015625,-2794.219970703125,-400000.0625,-400000.0625,-400000.0625,-400000.0625,-400000.0625
5.292605400085449,-7984.02001953125,-16804.080078125,-2786.919921875,-400000.0625,-400000.0625,-400000.0625,-400000.0625,-400000.0625
5.3063600063323975,-7988.22021484375,-16802.029296875,-2787.780029296875,-400000.0625,-400000.0625,-400000.0625,-400000.0625,-400000.0625
5.322646856307983,-7995.93994140625,-16812.560546875,-2798.219970703125,-400000.0625,-400000.0625,-400000.0625,-400000.0625,-400000.0625
5.336131572723389,-8006.14013671875,-16817.669921875,-2803.760009765625,-400000.0625,-400000.0625,-400000.0625,-400000.0625,-400000.0625
5.353028297424316,-7998.990234375,-16816.279296875,-2795.7900390625,-400000.0625,-400000.0625,-400000.0625,-400000.0625,-400000.0625
5.368844270706177,-7992.169921875,-16808.560546875,-2784.919921875,-400000.0625,-400000.0625,-400000.0625,-400000.0625,-400000.0625
5.392796039581299,-7996.66015625,-16807.1796875,-2784.35009765625,-400000.0625,-400000.0625,-400000.0625,-400000.0625,-400000.0625
5.408859968185425,-8008.81005859375,-16816.5703125,-2795.7900390625,-400000.0625,-400000.0625,-400000.0625,-400000.0625,-400000.0625
5.422325134277344,-8012.9599609375,-16817.759765625,-2797.219970703125,-400000.0625,-400000.0625,-400000.0625,-400000.0625,-400000.0625
5.4364447593688965,-8006.85986328125,-16810.849609375,-2786.8798828125,-400000.0625,-400000.0625,-400000.0625,-400000.0625,-400000.0625
5.44935154914856,-7997.60986328125,-16802.41015625,-2777.199951171875,-400000.0625,-400000.0625,-400000.0625,-400000.0625,-400000.0625
5.462831258773804,-8003.18994140625,-16799.7890625,-2777.860107421875,-400000.0625,-400000.0625,-400000.0625,-400000.0625,-400000.0625
5.4743311405181885,-8015.72998046875,-16806.41015625,-2785.8701171875,-400000.0625,-400000.0625,-400000.0625,-400000.0625,-400000.0625
5.500469446182251,-8025.22021484375,-16821.33984375,-2795.219970703125,-400000.0625,-400000.0625,-400000.0625,-400000.0625,-400000.0625
5.514477491378784,-8016.2998046875,-16813.80078125,-2783.110107421875,-400000.0625,-400000.0625,-400000.0625,-400000.0625,-400000.0625
5.531263589859009,-8009.2900390625,-16807.369140625,-2777.77001953125,-400000.0625,-400000.0625,-400000.0625,-400000.0625,-400000.0625
5.547682285308838,-8019.02001953125,-16813.0390625,-2784.590087890625,-400000.0625,-400000.0625,-400000.0625,-400000.0625,-400000.0625
5.559525012969971,-8032.7998046875,-16823.869140625,-2794.360107421875,-400000.0625,-400000.0625,-400000.0625,-400000.0625,-400000.0625
5.57832932472229,-8039.14013671875,-16835.880859375,-2796.75,-400000.0625,-400000.0625,-400000.0625,-400000.0625,-400000.0625
5.5971784591674805,-8018.4501953125,-16828.73046875,-2788.2099609375,-400000.0625,-400000.0625,-400000.0625,-400000.0625,-400000.0625
5.614834785461426,-8004.18994140625,-16813.140625,-2785.159912109375,-400000.0625,-400000.0625,-400000.0625,-400000.0625,-400000.0625
5.628410816192627,-8006.18994140625,-16817.48046875,-2797.989990234375,-400000.0625,-400000.0625,-400000.0625,-400000.0625,-400000.0625
5.645337104797363,-8017.2099609375,-16837.4609375,-2808.52001953125,-400000.0625,-400000.0625,-400000.0625,-400000.0625,-400000.0625
5.66290020942688,-8008.33984375,-16843.029296875,-2809.10009765625,-400000.0625,-400000.0625,-400000.0625,-400000.0625,-400000.0625
5.678479909896851,-7993.7900390625,-16834.830078125,-2798.219970703125,-400000.0625,-400000.0625,-400000.0625,-400000.0625,-400000.0625
5.701674938201904,-7992.75,-16833.689453125,-2791.929931640625,-400000.0625,-400000.0625,-400000.0625,-400000.0625,-400000.0625
5.717727422714233,-7997.93994140625,-16833.58984375,-2797.219970703125,-400000.0625,-400000.0625,-400000.0625,-400000.0625,-400000.0625
5.7346673011779785,-8008.0498046875,-16839.7890625,-2808.89990234375,-400000.0625,-400000.0625,-400000.0625,-400000.0625,-400000.0625
5.748828887939453,-8011.33984375,-16837.310546875,-2809.949951171875,-400000.0625,-400000.0625,-400000.0625,-400000.0625,-400000.0625
5.7643883228302,-8001.27978515625,-16826.390625,-2799.56005859375,-400000.0625,-400000.0625,-400000.0625,-400000.0625,-400000.0625
5.7749316692352295,-7991.60009765625,-16821.580078125,-2791.31005859375,-400000.0625,-400000.0625,-400000.0625,-400000.0625,-400000.0625
5.801914215087891,-8005.14013671875,-16832.9296875,-2801.3701171875,-400000.0625,-400000.0625,-400000.0625,-400000.0625,-400000.0625
5.8152854442596436,-8015.8701171875,-16839.029296875,-2809.909912109375,-400000.0625,-400000.0625,-400000.0625,-400000.0625,-400000.0625
5.830148696899414,-8013.33984375,-16832.9296875,-2803.139892578125,-400000.0625,-400000.0625,-400000.0625,-400000.0625,-400000.0625
5.839300155639648,-8004.6201171875,-16821.150390625,-2788.5,-400000.0625,-400000.0625,-400000.0625,-400000.0625,-400000.0625
5.855570554733276,-8003.66015625,-16818.4296875,-2786.590087890625,-400000.0625,-400000.0625,-400000.0625,-400000.0625,-400000.0625
5.874661922454834,-8013.81982421875,-16828.58984375,-2794.60009765625,-400000.0625,-400000.0625,-400000.0625,-400000.0625,-400000.0625
5.895327091217041,-8024.35986328125,-16837.310546875,-2804.330078125,-400000.0625,-400000.0625,-400000.0625,-400000.0625,-400000.0625
5.915947198867798,-8022.740234375,-16832.16015625,-2797.699951171875,-400000.0625,-400000.0625,-400000.0625,-400000.0625,-400000.0625
5.927891254425049,-8013.2998046875,-16818.099609375,-2785.489990234375,-400000.0625,-400000.0625,-400000.0625,-400000.0625,-400000.0625
5.949621200561523,-8009.240234375,-16811.1796875,-2782.6298828125,-400000.0625,-400000.0625,-400000.0625,-400000.0625,-400000.0625
5.964073181152344,-8011.33984375,-16813.7109375,-2782.919921875,-400000.0625,-400000.0625,-400000.0625,-400000.0625,-400000.0625
5.999870300292969,-8031.7998046875,-16824.529296875,-2793.5,-400000.0625,-400000.0625,-400000.0625,-400000.0625,-400000.0625
6.025973320007324,-8034.66015625,-16825.869140625,-2795.169921875,-400000.0625,-400000.0625,-400000.0625,-400000.0625,-400000.0625
6.044526100158691,-8021.1201171875,-16815.0390625,-2783.010009765625,-400000.0625,-400000.0625,-400000.0625,-400000.0625,-400000.0625
6.062847852706909,-8014.009765625,-16803.83984375,-2771.659912109375,-400000.0625,-400000.0625,-400000.0625,-400000.0625,-400000.0625
6.077410459518433,-8021.39990234375,-16816.330078125,-2784.679931640625,-400000.0625,-400000.0625,-400000.0625,-400000.0625,-400000.0625
6.101878881454468,-8035.85009765625,-16824.439453125,-2793.409912109375,-400000.0625,-400000.0625,-400000.0625,-400000.0625,-400000.0625
6.11419939994812,-8036.89990234375,-16821.580078125,-2790.2099609375,-400000.0625,-400000.0625,-400000.0625,-400000.0625,-400000.0625
6.12518048286438,-8023.93017578125,-16810.3203125,-2777.77001953125,-400000.0625,-400000.0625,-400000.0625,-400000.0625,-400000.0625
6.1379570960998535,-8016.919921875,-16801.310546875,-2768.56005859375,-400000.0625,-400000.0625,-400000.0625,-400000.0625,-400000.0625
6.1499104499816895,-8027.35986328125,-16815.4296875,-2782.5400390625,-400000.0625,-400000.0625,-400000.0625,-400000.0625,-400000.0625
6.165948867797852,-8043.81005859375,-16824.529296875,-2790.8798828125,-400000.0625,-400000.0625,-400000.0625,-400000.0625,-400000.0625
6.176445007324219,-8043.240234375,-16817.0,-2785.639892578125,-400000.0625,-400000.0625,-400000.0625,-400000.0625,-400000.0625
6.20186185836792,-8034.0400390625,-16807.560546875,-2775.530029296875,-400000.0625,-400000.0625,-400000.0625,-400000.0625,-400000.0625
6.2186431884765625,-8026.41015625,-16801.880859375,-2769.800048828125,-400000.0625,-400000.0625,-400000.0625,-400000.0625,-400000.0625
6.231404781341553,-8030.3701171875,-16806.69921875,-2775.9599609375,-400000.0625,-400000.0625,-400000.0625,-400000.0625,-400000.0625
6.247333526611328,-8050.06005859375,-16824.869140625,-2792.8798828125,-400000.0625,-400000.0625,-400000.0625,-400000.0625,-400000.0625
6.264064311981201,-8052.02001953125,-16820.189453125,-2789.260009765625,-400000.0625,-400000.0625,-400000.0625,-400000.0625,-400000.0625
6.274606227874756,-8039.52001953125,-16809.80078125,-2777.429931640625,-400000.0625,-400000.0625,-400000.0625,-400000.0625,-400000.0625
6.288009881973267,-8035.56982421875,-16803.69921875,-2768.760009765625,-400000.0625,-400000.0625,-400000.0625,-400000.0625,-400000.0625
6.3079140186309814,-8039.759765625,-16809.990234375,-2774.669921875,-400000.0625,-400000.0625,-400000.0625,-400000.0625,-400000.0625
6.3255455493927,-8050.2001953125,-16816.810546875,-2783.389892578125,-400000.0625,-400000.0625,-400000.0625,-400000.0625,-400000.0625
6.336350679397583,-8058.64013671875,-16824.33984375,-2787.260009765625,-400000.0625,-400000.0625,-400000.0625,-400000.0625,-400000.0625
6.348802089691162,-8047.2001953125,-16814.279296875,-2774.81005859375,-400000.0625,-400000.0625,-400000.0625,-400000.0625,-400000.0625
6.3613996505737305,-8039.52001953125,-16808.509765625,-2769.280029296875,-400000.0625,-400000.0625,-400000.0625,-400000.0625,-400000.0625
6.375980377197266,-8047.580078125,-16812.419921875,-2775.239990234375,-400000.0625,-400000.0625,-400000.0625,-400000.0625,-400000.0625
6.388478755950928,-8059.06982421875,-16817.619140625,-2783.820068359375,-400000.0625,-400000.0625,-400000.0625,-400000.0625,-400000.0625
6.406641483306885,-8053.490234375,-16814.5703125,-2780.6298828125,-400000.0625,-400000.0625,-400000.0625,-400000.0625,-400000.0625
6.419754505157471,-8040.43017578125,-16808.939453125,-2770.760009765625,-400000.0625,-400000.0625,-400000.0625,-400000.0625,-400000.0625
6.431525707244873,-8041.240234375,-16806.890625,-2769.330078125,-400000.0625,-400000.0625,-400000.0625,-400000.0625,-400000.0625
6.448331356048584,-8050.39990234375,-16811.369140625,-2774.669921875,-400000.0625,-400000.0625,-400000.0625,-400000.0625,-400000.0625
6.462434530258179,-8059.06982421875,-16816.859375,-2779.580078125,-400000.0625,-400000.0625,-400000.0625,-400000.0625,-400000.0625
6.476961851119995,-8054.72998046875,-16813.140625,-2778.340087890625,-400000.0625,-400000.0625,-400000.0625,-400000.0625,-400000.0625
6.491467714309692,-8051.5400390625,-16812.849609375,-2774.909912109375,-400000.0625,-400000.0625,-400000.0625,-400000.0625,-400000.0625
6.51178240776062,-8045.9599609375,-16809.0390625,-2769.419921875,-400000.0625,-400000.0625,-400000.0625,-400000.0625,-400000.0625
6.528881549835205,-8047.14990234375,-16809.080078125,-2771.090087890625,-400000.0625,-400000.0625,-400000.0625,-400000.0625,-400000.0625
6.541893482208252,-8056.2099609375,-16811.23046875,-2773.330078125,-400000.0625,-400000.0625,-400000.0625,-400000.0625,-400000.0625
6.556102514266968,-8056.830078125,-16815.619140625,-2775.139892578125,-400000.0625,-400000.0625,-400000.0625,-400000.0625,-400000.0625
6.568163633346558,-8047.919921875,-16810.609375,-2772.18994140625,-400000.0625,-400000.0625,-400000.0625,-400000.0625,-400000.0625
6.580461263656616,-8041.33984375,-16813.380859375,-2770.419921875,-400000.0625,-400000.0625,-400000.0625,-400000.0625,-400000.0625
6.601016521453857,-8046.8701171875,-16809.0390625,-2764.320068359375,-400000.0625,-400000.0625,-400000.0625,-400000.0625,-400000.0625
6.614722013473511,-8073.43017578125,-16801.41015625,-2763.840087890625,-400000.0625,-400000.0625,-400000.0625,-400000.0625,-400000.0625
6.627784252166748,-8086.10986328125,-16787.720703125,-2760.27001953125,-400000.0625,-400000.0625,-400000.0625,-400000.0625,-400000.0625
6.641698598861694,-8079.91015625,-16753.8203125,-2735.0,-400000.0625,-400000.0625,-400000.0625,-400000.0625,-400000.0625
6.652294874191284,-8081.81982421875,-16730.5,-2712.8701171875,-400000.0625,-400000.0625,-400000.0625,-400000.0625,-400000.0625
6.666943550109863,-8102.1298828125,-16713.5703125,-2704.719970703125,-400000.0625,-400000.0625,-400000.0625,-400000.0625,-400000.0625
6.678407669067383,-8128.93017578125,-16701.369140625,-2703.090087890625,-400000.0625,-400000.0625,-400000.0625,-400000.0625,-400000.0625
6.689511775970459,-8140.08984375,-16693.689453125,-2692.409912109375,-400000.0625,-400000.0625,-400000.0625,-400000.0625,-400000.0625
6.710302352905273,-8138.3701171875,-16666.029296875,-2662.280029296875,-400000.0625,-400000.0625,-400000.0625,-400000.0625,-400000.0625
6.721761226654053,-8144.330078125,-16646.720703125,-2644.25,-400000.0625,-400000.0625,-400000.0625,-400000.0625,-400000.0625
6.735982894897461,-8165.35986328125,-16650.25,-2649.639892578125,-400000.0625,-400000.0625,-400000.0625,-400000.0625,-400000.0625
6.750625371932983,-8184.52978515625,-16664.130859375,-2657.989990234375,-400000.0625,-400000.0625,-400000.0625,-400000.0625,-400000.0625
6.761966228485107,-8190.009765625,-16659.169921875,-2649.929931640625,-400000.0625,-400000.0625,-400000.0625,-400000.0625,-400000.0625
6.776508092880249,-8177.52001953125,-16638.849609375,-2633.429931640625,-400000.0625,-400000.0625,-400000.0625,-400000.0625,-400000.0625
6.791101694107056,-8174.56005859375,-16639.900390625,-2631.7099609375,-400000.0625,-400000.0625,-400000.0625,-400000.0625,-400000.0625
6.8365349769592285,-8223.4404296875,-16942.83984375,-2797.56005859375,-400000.0625,-400000.0625,-400000.0625,-400000.0625,-400000.0625
6.8783605098724365,-8231.7802734375,-16952.369140625,-2809.139892578125,-400000.0625,-400000.0625,-400000.0625,-400000.0625,-400000.0625
6.946569204330444,-8222.6796875,-16937.310546875,-2801.989990234375,-400000.0625,-400000.0625,-400000.0625,-400000.0625,-400000.0625
7.003019332885742,-8213.23046875,-16929.9609375,-2794.360107421875,-400000.0625,-400000.0625,-400000.0625,-400000.0625,-400000.0625
7.068440675735474,-8206.509765625,-16923.4296875,-2794.889892578125,-400000.0625,-400000.0625,-400000.0625,-400000.0625,-400000.0625
7.134963750839233,-8203.8896484375,-16929.76953125,-2800.4599609375,-400000.0625,-400000.0625,-400000.0625,-400000.0625,-400000.0625
7.2035746574401855,-8201.2197265625,-16933.30078125,-2805.89990234375,-400000.0625,-400000.0625,-400000.0625,-400000.0625,-400000.0625
7.270570516586304,-8198.4501953125,-16919.0,-2793.7900390625,-400000.0625,-400000.0625,-400000.0625,-400000.0625,-400000.0625
7.333961009979248,-8191.16015625,-16911.599609375,-2782.389892578125,-400000.0625,-400000.0625,-400000.0625,-400000.0625,-400000.0625
7.394511938095093,-8187.9599609375,-16925.2890625,-2794.030029296875,-400000.0625,-400000.0625,-400000.0625,-400000.0625,-400000.0625
7.471669912338257,-8203.26953125,-16923.94921875,-2796.64990234375,-400000.0625,-400000.0625,-400000.0625,-400000.0625,-400000.0625
7.537779092788696,-8187.39013671875,-16897.490234375,-2775.719970703125,-400000.0625,-400000.0625,-400000.0625,-400000.0625,-400000.0625
7.584331035614014,-8182.3798828125,-16876.220703125,-2758.1201171875,-400000.0625,-400000.0625,-400000.0625,-400000.0625,-400000.0625
7.65753436088562,-8185.0498046875,-16867.5,-2752.5,-400000.0625,-400000.0625,-400000.0625,-400000.0625,-400000.0625
7.723137140274048,-8170.4599609375,-16842.890625,-2727.989990234375,-400000.0625,-400000.0625,-400000.0625,-400000.0625,-400000.0625
7.790583848953247,-8190.2998046875,-16862.5390625,-2749.5400390625,-400000.0625,-400000.0625,-400000.0625,-400000.0625,-400000.0625
7.835541486740112,-8195.259765625,-16866.58984375,-2750.43994140625,-400000.0625,-400000.0625,-400000.0625,-400000.0625,-400000.0625
7.946373462677002,-8187.06005859375,-16848.900390625,-2728.27001953125,-400000.0625,-400000.0625,-400000.0625,-400000.0625,-400000.0625
7.97526216506958,-8181.6201171875,-16842.560546875,-2726.169921875,-400000.0625,-400000.0625,-400000.0625,-400000.0625,-400000.0625
8.026323080062866,-8194.2099609375,-16857.240234375,-2738.669921875,-400000.0625,-400000.0625,-400000.0625,-400000.0625,-400000.0625
8.095502853393555,-8188.8701171875,-16854.720703125,-2741.14990234375,-400000.0625,-400000.0625,-400000.0625,-400000.0625,-400000.0625
8.283592700958252,-8191.06005859375,-16867.259765625,-2748.919921875,-400000.0625,-400000.0625,-400000.0625,-400000.0625,-400000.0625
8.429183721542358,-8197.259765625,-16886.240234375,-2756.7900390625,-400000.0625,-400000.0625,-400000.0625,-400000.0625,-400000.0625
8.54781985282898,-8199.8798828125,-16891.619140625,-2755.1201171875,-400000.0625,-400000.0625,-400000.0625,-400000.0625,-400000.0625
8.667511940002441,-8211.1796875,-16903.640625,-2763.610107421875,-400000.0625,-400000.0625,-400000.0625,-400000.0625,-400000.0625
8.740281105041504,-8239.9404296875,-16934.640625,-2792.260009765625,-400000.0625,-400000.0625,-400000.0625,-400000.0625,-400000.0625
8.9035804271698,-8224.349609375,-16935.6796875,-2758.550048828125,-400000.0625,-400000.0625,-400000.0625,-400000.0625,-400000.0625
8.944321393966675,-8202.0302734375,-16914.66015625,-2731.89990234375,-400000.0625,-400000.0625,-400000.0625,-400000.0625,-400000.0625
9.06176209449768,-8243.419921875,-16948.029296875,-2769.659912109375,-400000.0625,-400000.0625,-400000.0625,-400000.0625,-400000.0625
9.18174695968628,-8239.41015625,-16939.119140625,-2758.260009765625,-400000.0625,-400000.0625,-400000.0625,-400000.0625,-400000.0625
9.247948408126831,-8240.650390625,-16929.76953125,-2762.510009765625,-400000.0625,-400000.0625,-400000.0625,-400000.0625,-400000.0625
9.37580394744873,-8264.2998046875,-16942.0703125,-2779.6298828125,-400000.0625,-400000.0625,-400000.0625,-400000.0625,-400000.0625
9.448883533477783,-8272.41015625,-16938.689453125,-2775.239990234375,-400000.0625,-400000.0625,-400000.0625,-400000.0625,-400000.0625
9.520890235900879,-8267.0703125,-16949.130859375,-2779.43994140625,-400000.0625,-400000.0625,-400000.0625,-400000.0625,-400000.0625
9.585779428482056,-8276.1796875,-16947.029296875,-2783.6298828125,-400000.0625,-400000.0625,-400000.0625,-400000.0625,-400000.0625
9.646852970123291,-8286.91015625,-16950.419921875,-2779.43994140625,-400000.0625,-400000.0625,-400000.0625,-400000.0625,-400000.0625
9.835219383239746,-8295.9697265625,-16929.720703125,-2766.419921875,-400000.0625,-400000.0625,-400000.0625,-400000.0625,-400000.0625
9.883275747299194,-8305.599609375,-16938.44921875,-2767.610107421875,-400000.0625,-400000.0625,-400000.0625,-400000.0625,-400000.0625
9.976911067962646,-8312.1298828125,-16926.19921875,-2761.75,-400000.0625,-400000.0625,-400000.0625,-400000.0625,-400000.0625
10.014105081558228,-8328.490234375,-16934.349609375,-2775.340087890625,-400000.0625,-400000.0625,-400000.0625,-400000.0625,-400000.0625
10.084994316101074,-8332.0595703125,-16943.26953125,-2771.0,-400000.0625,-400000.0625,-400000.0625,-400000.0625,-400000.0625
10.139668703079224,-8336.9296875,-16942.650390625,-2772.52001953125,-400000.0625,-400000.0625,-400000.0625,-400000.0625,-400000.0625
10.217198371887207,-8333.01953125,-16934.58984375,-2763.800048828125,-400000.0625,-400000.0625,-400000.0625,-400000.0625,-400000.0625
10.287365198135376,-8339.259765625,-16934.01953125,-2762.320068359375,-400000.0625,-400000.0625,-400000.0625,-400000.0625,-400000.0625
10.341521978378296,-8295.490234375,-17012.169921875,-2815.679931640625,-400000.0625,-400000.0625,-400000.0625,-400000.0625,-400000.0625
10.398863077163696,-8276.990234375,-17027.810546875,-2861.2099609375,-400000.0625,-400000.0625,-400000.0625,-400000.0625,-400000.0625
10.592820167541504,-8104.75,-17119.509765625,-2970.7900390625,-400000.0625,-400000.0625,-400000.0625,-400000.0625,-400000.0625
10.662991046905518,-8101.0400390625,-17080.830078125,-2953.820068359375,-400000.0625,-400000.0625,-400000.0625,-400000.0625,-400000.0625
10.722767353057861,-8099.75,-17072.009765625,-2945.3798828125,-400000.0625,-400000.0625,-400000.0625,-400000.0625,-400000.0625
10.798094034194946,-8101.509765625,-17060.810546875,-2942.89990234375,-400000.0625,-400000.0625,-400000.0625,-400000.0625,-400000.0625
10.850233793258667,-8091.31005859375,-17038.009765625,-2926.06005859375,-400000.0625,-400000.0625,-400000.0625,-400000.0625,-400000.0625
10.918174743652344,-8098.7001953125,-17045.2109375,-2934.64990234375,-400000.0625,-400000.0625,-400000.0625,-400000.0625,-400000.0625
11.096822738647461,-8096.27001953125,-17061.7109375,-2944.52001953125,-400000.0625,-400000.0625,-400000.0625,-400000.0625,-400000.0625
11.229426145553589,-8106.9501953125,-17077.73046875,-2952.669921875,-400000.0625,-400000.0625,-400000.0625,-400000.0625,-400000.0625
11.300655603408813,-8121.39990234375,-17085.220703125,-2958.25,-400000.0625,-400000.0625,-400000.0625,-400000.0625,-400000.0625
11.364288806915283,-8111.81005859375,-17069.099609375,-2947.090087890625,-400000.0625,-400000.0625,-400000.0625,-400000.0625,-400000.0625
11.43516731262207,-8092.5498046875,-17076.779296875,-2941.85009765625,-400000.0625,-400000.0625,-400000.0625,-400000.0625,-400000.0625
11.645628929138184,-8121.77978515625,-17102.8203125,-2969.4599609375,-400000.0625,-400000.0625,-400000.0625,-400000.0625,-400000.0625
11.751041650772095,-8129.4501953125,-17102.580078125,-2961.679931640625,-400000.0625,-400000.0625,-400000.0625,-400000.0625,-400000.0625
11.806784868240356,-8119.8701171875,-17092.51953125,-2951.81005859375,-400000.0625,-400000.0625,-400000.0625,-400000.0625,-400000.0625
12.009645700454712,-8125.4501953125,-17118.310546875,-2975.419921875,-400000.0625,-400000.0625,-400000.0625,-400000.0625,-400000.0625
12.132778644561768,-8117.33984375,-17113.9296875,-2965.260009765625,-400000.0625,-400000.0625,-400000.0625,-400000.0625,-400000.0625
12.15143609046936,-8116.72021484375,-17106.8203125,-2961.590087890625,-400000.0625,-400000.0625,-400000.0625,-400000.0625,-400000.0625
12.187847137451172,-8119.43994140625,-17121.169921875,-2975.889892578125,-400000.0625,-400000.0625,-400000.0625,-400000.0625,-400000.0625
12.261400699615479,-8128.2099609375,-17116.0703125,-2968.929931640625,-400000.0625,-400000.0625,-400000.0625,-400000.0625,-400000.0625
12.329221963882446,-8125.39990234375,-17129.66015625,-2974.56005859375,-400000.0625,-400000.0625,-400000.0625,-400000.0625,-400000.0625
12.377605438232422,-8118.919921875,-17118.029296875,-2963.590087890625,-400000.0625,-400000.0625,-400000.0625,-400000.0625,-400000.0625
12.525715827941895,-8119.009765625,-17123.1796875,-2970.840087890625,-400000.0625,-400000.0625,-400000.0625,-400000.0625,-400000.0625
12.581841945648193,-8115.0498046875,-17129.0390625,-2974.030029296875,-400000.0625,-400000.0625,-400000.0625,-400000.0625,-400000.0625
12.639966487884521,-8114.91015625,-17133.140625,-2980.090087890625,-400000.0625,-400000.0625,-400000.0625,-400000.0625,-400000.0625
12.699550867080688,-8117.10009765625,-17120.41015625,-2968.840087890625,-400000.0625,-400000.0625,-400000.0625,-400000.0625,-400000.0625
12.776211977005005,-8135.4599609375,-17139.390625,-2987.909912109375,-400000.0625,-400000.0625,-400000.0625,-400000.0625,-400000.0625
12.964276790618896,-8124.2998046875,-17141.919921875,-2991.9599609375,-400000.0625,-400000.0625,-400000.0625,-400000.0625,-400000.0625
13.029359102249146,-8116.39013671875,-17142.580078125,-2993.14990234375,-400000.0625,-400000.0625,-400000.0625,-400000.0625,-400000.0625
13.08570647239685,-8125.93017578125,-17148.9296875,-3000.68994140625,-400000.0625,-400000.0625,-400000.0625,-400000.0625,-400000.0625
13.211590766906738,-8132.27001953125,-17148.640625,-3003.929931640625,-400000.0625,-400000.0625,-400000.0625,-400000.0625,-400000.0625
13.277313232421875,-8316.4697265625,-16904.5,-2829.889892578125,-400000.0625,-400000.0625,-400000.0625,-400000.0625,-400000.0625
13.33755612373352,-8351.990234375,-16862.58984375,-2767.280029296875,-400000.0625,-400000.0625,-400000.0625,-400000.0625,-400000.0625
13.405294179916382,-8347.7998046875,-16873.41015625,-2765.0400390625,-400000.0625,-400000.0625,-400000.0625,-400000.0625,-400000.0625
13.594443559646606,-8338.01953125,-16914.419921875,-2794.080078125,-400000.0625,-400000.0625,-400000.0625,-400000.0625,-400000.0625
13.66701078414917,-8326.9599609375,-16904.310546875,-2779.77001953125,-400000.0625,-400000.0625,-400000.0625,-400000.0625,-400000.0625
13.722976207733154,-8330.3896484375,-16905.880859375,-2779.2900390625,-400000.0625,-400000.0625,-400000.0625,-400000.0625,-400000.0625
13.931133031845093,-8345.5595703125,-16937.0703125,-2788.639892578125,-400000.0625,-400000.0625,-400000.0625,-400000.0625,-400000.0625
13.977667808532715,-8329.9599609375,-16934.779296875,-2776.530029296875,-400000.0625,-400000.0625,-400000.0625,-400000.0625,-400000.0625
14.051618814468384,-8338.830078125,-16948.69921875,-2790.8798828125,-400000.0625,-400000.0625,-400000.0625,-400000.0625,-400000.0625
14.135500431060791,-8333.400390625,-16949.0390625,-2789.35009765625,-400000.0625,-400000.0625,-400000.0625,-400000.0625,-400000.0625
14.191537618637085,-8354.240234375,-16968.109375,-2801.610107421875,-400000.0625,-400000.0625,-400000.0625,-400000.0625,-400000.0625
14.240596294403076,-8351.3701171875,-16971.2109375,-2800.85009765625,-400000.0625,-400000.0625,-400000.0625,-400000.0625,-400000.0625
14.327487468719482,-8339.599609375,-16961.390625,-2788.780029296875,-400000.0625,-400000.0625,-400000.0625,-400000.0625,-400000.0625
14.436820983886719,-8355.4296875,-16974.169921875,-2796.27001953125,-400000.0625,-400000.0625,-400000.0625,-400000.0625,-400000.0625
14.499808549880981,-8350.4697265625,-16971.640625,-2793.8798828125,-400000.0625,-400000.0625,-400000.0625,-400000.0625,-400000.0625
14.62295126914978,-8354.1396484375,-16975.259765625,-2789.929931640625,-400000.0625,-400000.0625,-400000.0625,-400000.0625,-400000.0625
14.68589973449707,-8351.759765625,-16968.919921875,-2784.300048828125,-400000.0625,-400000.0625,-400000.0625,-400000.0625,-400000.0625
14.852341651916504,-8354.51953125,-16975.830078125,-2791.360107421875,-400000.0625,-400000.0625,-400000.0625,-400000.0625,-400000.0625
14.882016658782959,-8351.5703125,-16971.970703125,-2785.679931640625,-400000.0625,-400000.0625,-400000.0625,-400000.0625,-400000.0625
14.94491171836853,-8340.259765625,-16956.05078125,-2766.800048828125,-400000.0625,-400000.0625,-400000.0625,-400000.0625,-400000.0625
15.028361797332764,-8343.75,-16958.0,-2772.669921875,-400000.0625,-400000.0625,-400000.0625,-400000.0625,-400000.0625
15.136441707611084,-8367.2998046875,-16969.73046875,-2785.06005859375,-400000.0625,-400000.0625,-400000.0625,-400000.0625,-400000.0625
15.202791452407837,-8354.6201171875,-16959.0,-2766.800048828125,-400000.0625,-400000.0625,-400000.0625,-400000.0625,-400000.0625
15.346169233322144,-8349.4697265625,-16956.5703125,-2766.090087890625,-400000.0625,-400000.0625,-400000.0625,-400000.0625,-400000.0625
15.396230697631836,-8359.6201171875,-16968.349609375,-2783.389892578125,-400000.0625,-400000.0625,-400000.0625,-400000.0625,-400000.0625
15.456395864486694,-8363.580078125,-16973.310546875,-2783.35009765625,-400000.0625,-400000.0625,-400000.0625,-400000.0625,-400000.0625
15.515544652938843,-8359.9599609375,-16970.779296875,-2784.010009765625,-400000.0625,-400000.0625,-400000.0625,-400000.0625,-400000.0625
15.590446710586548,-8340.0302734375,-16954.66015625,-2762.64990234375,-400000.0625,-400000.0625,-400000.0625,-400000.0625,-400000.0625
15.66242790222168,-8363.6796875,-16974.640625,-2789.070068359375,-400000.0625,-400000.0625,-400000.0625,-400000.0625,-400000.0625
15.722344636917114,-8352.3798828125,-16961.2890625,-2767.610107421875,-400000.0625,-400000.0625,-400000.0625,-400000.0625,-400000.0625
15.779066324234009,-8362.6298828125,-16970.01953125,-2779.389892578125,-400000.0625,-400000.0625,-400000.0625,-400000.0625,-400000.0625
15.844529390335083,-8349.0400390625,-16970.060546875,-2773.139892578125,-400000.0625,-400000.0625,-400000.0625,-400000.0625,-400000.0625
15.906240701675415,-8355.2802734375,-16974.0703125,-2779.25,-400000.0625,-400000.0625,-400000.0625,-400000.0625,-400000.0625
16.03619694709778,-8349.900390625,-16968.919921875,-2764.419921875,-400000.0625,-400000.0625,-400000.0625,-400000.0625,-400000.0625
16.1645028591156,-8351.900390625,-16970.830078125,-2760.409912109375,-400000.0625,-400000.0625,-400000.0625,-400000.0625,-400000.0625
16.221317768096924,-8349.1796875,-16965.439453125,-2757.219970703125,-400000.0625,-400000.0625,-400000.0625,-400000.0625,-400000.0625
16.280662775039673,-8354.0400390625,-16978.029296875,-2759.7900390625,-400000.0625,-400000.0625,-400000.0625,-400000.0625,-400000.0625
16.376423358917236,-8366.9697265625,-16988.7109375,-2776.429931640625,-400000.0625,-400000.0625,-400000.0625,-400000.0625,-400000.0625
16.43042516708374,-8352.8095703125,-16980.3203125,-2764.4599609375,-400000.0625,-400000.0625,-400000.0625,-400000.0625,-400000.0625
16.611708641052246,-8515.0703125,-16736.80078125,-2512.219970703125,-400000.0625,-400000.0625,-400000.0625,-400000.0625,-400000.0625
16.67764377593994,-8509.259765625,-16730.41015625,-2504.489990234375,-400000.0625,-400000.0625,-400000.0625,-400000.0625,-400000.0625
16.8400559425354,-8519.98046875,-16752.2890625,-2494.9599609375,-400000.0625,-400000.0625,-400000.0625,-400000.0625,-400000.0625
16.878474950790405,-8508.5400390625,-16734.130859375,-2476.1201171875,-400000.0625,-400000.0625,-400000.0625,-400000.0625,-400000.0625
16.953304767608643,-8514.6904296875,-16736.369140625,-2476.449951171875,-400000.0625,-400000.0625,-400000.0625,-400000.0625,-400000.0625
17.180469751358032,-8519.75,-16762.2109375,-2481.320068359375,-400000.0625,-400000.0625,-400000.0625,-400000.0625,-400000.0625
17.392859935760498,-8533.0498046875,-16762.349609375,-2476.5,-400000.0625,-400000.0625,-400000.0625,-400000.0625,-400000.0625
17.44045877456665,-8527.6103515625,-16764.119140625,-2472.639892578125,-400000.0625,-400000.0625,-400000.0625,-400000.0625,-400000.0625
17.50833511352539,-8521.2197265625,-16770.26953125,-2477.5,-400000.0625,-400000.0625,-400000.0625,-400000.0625,-400000.0625
17.568007230758667,-8528.23046875,-16770.560546875,-2482.27001953125,-400000.0625,-400000.0625,-400000.0625,-400000.0625,-400000.0625
17.660857677459717,-8531.3798828125,-16773.3203125,-2478.5,-400000.0625,-400000.0625,-400000.0625,-400000.0625,-400000.0625
17.76897430419922,-8531.4296875,-16780.810546875,-2491.860107421875,-400000.0625,-400000.0625,-400000.0625,-400000.0625,-400000.0625
17.82681894302368,-8523.080078125,-16772.419921875,-2472.260009765625,-400000.0625,-400000.0625,-400000.0625,-400000.0625,-400000.0625
17.88708782196045,-8517.5498046875,-16766.83984375,-2466.25,-400000.0625,-400000.0625,-400000.0625,-400000.0625,-400000.0625
17.964439153671265,-8542.009765625,-16784.33984375,-2487.85009765625,-400000.0625,-400000.0625,-400000.0625,-400000.0625,-400000.0625
18.07288432121277,-8529.4697265625,-16781.759765625,-2475.070068359375,-400000.0625,-400000.0625,-400000.0625,-400000.0625,-400000.0625
18.13667392730713,-8519.0302734375,-16771.029296875,-2463.2900390625,-400000.0625,-400000.0625,-400000.0625,-400000.0625,-400000.0625
18.209974765777588,-8538.0595703125,-16790.9609375,-2490.330078125,-400000.0625,-400000.0625,-400000.0625,-400000.0625,-400000.0625
18.276170015335083,-8543.349609375,-16800.740234375,-2492.760009765625,-400000.0625,-400000.0625,-400000.0625,-400000.0625,-400000.0625
18.53150248527527,-8536.580078125,-16808.560546875,-2500.14990234375,-400000.0625,-400000.0625,-400000.0625,-400000.0625,-400000.0625
18.691426277160645,-8529.51953125,-16798.359375,-2488.949951171875,-400000.0625,-400000.0625,-400000.0625,-400000.0625,-400000.0625
18.723186254501343,-8529.849609375,-16791.919921875,-2485.22998046875,-400000.0625,-400000.0625,-400000.0625,-400000.0625,-400000.0625
18.78606343269348,-8527.849609375,-16796.5,-2485.800048828125,-400000.0625,-400000.0625,-400000.0625,-400000.0625,-400000.0625
18.931437492370605,-8545.5,-16815.66015625,-2504.679931640625,-400000.0625,-400000.0625,-400000.0625,-400000.0625,-400000.0625
18.98488211631775,-8533.33984375,-16806.3203125,-2499.679931640625,-400000.0625,-400000.0625,-400000.0625,-400000.0625,-400000.0625
19.110746145248413,-8531.0498046875,-16803.359375,-2496.909912109375,-400000.0625,-400000.0625,-400000.0625,-400000.0625,-400000.0625
19.212459802627563,-8532.5302734375,-16812.80078125,-2500.820068359375,-400000.0625,-400000.0625,-400000.0625,-400000.0625,-400000.0625
19.295532941818237,-8544.6796875,-16840.890625,-2509.169921875,-400000.0625,-400000.0625,-400000.0625,-400000.0625,-400000.0625
19.377967357635498,-8464.7197265625,-16904.58984375,-2632.860107421875,-400000.0625,-400000.0625,-400000.0625,-400000.0625,-400000.0625
19.48921036720276,-8336.400390625,-16970.400390625,-2745.719970703125,-400000.0625,-400000.0625,-400000.0625,-400000.0625,-400000.0625
19.555763959884644,-8347.1796875,-16986.609375,-2764.179931640625,-400000.0625,-400000.0625,-400000.0625,-400000.0625,-400000.0625
19.620410442352295,-8353.1904296875,-16982.220703125,-2754.8798828125,-400000.0625,-400000.0625,-400000.0625,-400000.0625,-400000.0625
19.69256830215454,-8348.1796875,-16973.259765625,-2751.2099609375,-400000.0625,-400000.0625,-400000.0625,-400000.0625,-400000.0625
19.74933171272278,-8341.41015625,-16969.01953125,-2752.110107421875,-400000.0625,-400000.0625,-400000.0625,-400000.0625,-400000.0625
19.809526205062866,-8339.5,-16969.73046875,-2748.919921875,-400000.0625,-400000.0625,-400000.0625,-400000.0625,-400000.0625
19.869481325149536,-8358.2900390625,-16976.689453125,-2757.5,-400000.0625,-400000.0625,-400000.0625,-400000.0625,-400000.0625
19.995602130889893,-8334.490234375,-16970.060546875,-2747.820068359375,-400000.0625,-400000.0625,-400000.0625,-400000.0625,-400000.0625
20.060666799545288,-8341.26953125,-16981.599609375,-2752.72998046875,-400000.0625,-400000.0625,-400000.0625,-400000.0625,-400000.0625
20.12589979171753,-8344.0302734375,-16978.4609375,-2748.300048828125,-400000.0625,-400000.0625,-400000.0625,-400000.0625,-400000.0625
20.18973422050476,-8336.01953125,-16977.0703125,-2748.919921875,-400000.0625,-400000.0625,-400000.0625,-400000.0625,-400000.0625
20.253015279769897,-8335.6396484375,-16984.3203125,-2760.4599609375,-400000.0625,-400000.0625,-400000.0625,-400000.0625,-400000.0625
20.34497356414795,-8324.9599609375,-16967.19921875,-2745.199951171875,-400000.0625,-400000.0625,-400000.0625,-400000.0625,-400000.0625
20.377793550491333,-8318.2802734375,-16965.439453125,-2739.050048828125,-400000.0625,-400000.0625,-400000.0625,-400000.0625,-400000.0625
20.529672145843506,-8334.01953125,-16974.359375,-2752.590087890625,-400000.0625,-400000.0625,-400000.0625,-400000.0625,-400000.0625
20.63553237915039,-8318.23046875,-16979.890625,-2750.919921875,-400000.0625,-400000.0625,-400000.0625,-400000.0625,-400000.0625
20.77179479598999,-8337.0703125,-16982.83984375,-2761.699951171875,-400000.0625,-400000.0625,-400000.0625,-400000.0625,-400000.0625
20.839042901992798,-8340.0703125,-16991.0,-2770.52001953125,-400000.0625,-400000.0625,-400000.0625,-400000.0625,-400000.0625
20.913448810577393,-8328.0595703125,-16976.220703125,-2752.639892578125,-400000.0625,-400000.0625,-400000.0625,-400000.0625,-400000.0625
21.039076566696167,-8321.7197265625,-16971.880859375,-2747.580078125,-400000.0625,-400000.0625,-400000.0625,-400000.0625,-400000.0625
21.09845519065857,-8339.0703125,-16987.51953125,-2767.179931640625,-400000.0625,-400000.0625,-400000.0625,-400000.0625,-400000.0625
21.244511127471924,-8334.919921875,-16988.849609375,-2765.1298828125,-400000.0625,-400000.0625,-400000.0625,-400000.0625,-400000.0625
21.27644371986389,-8342.98046875,-17005.869140625,-2768.330078125,-400000.0625,-400000.0625,-400000.0625,-400000.0625,-400000.0625
21.412256240844727,-8333.6396484375,-16996.669921875,-2755.2099609375,-400000.0625,-400000.0625,-400000.0625,-400000.0625,-400000.0625
21.48184871673584,-8352.1904296875,-17011.98046875,-2774.3798828125,-400000.0625,-400000.0625,-400000.0625,-400000.0625,-400000.0625
21.616591215133667,-8327.76953125,-16994.4296875,-2757.5,-400000.0625,-400000.0625,-400000.0625,-400000.0625,-400000.0625
21.728424072265625,-8326.8701171875,-17010.9296875,-2764.1298828125,-400000.0625,-400000.0625,-400000.0625,-400000.0625,-400000.0625
21.793420553207397,-8345.0302734375,-17020.470703125,-2781.72998046875,-400000.0625,-400000.0625,-400000.0625,-400000.0625,-400000.0625
21.92565107345581,-8333.25,-17015.98046875,-2773.570068359375,-400000.0625,-400000.0625,-400000.0625,-400000.0625,-400000.0625
21.98548197746277,-8328.9599609375,-17015.75,-2769.52001953125,-400000.0625,-400000.0625,-400000.0625,-400000.0625,-400000.0625
22.05046796798706,-8328.919921875,-17018.130859375,-2765.469970703125,-400000.0625,-400000.0625,-400000.0625,-400000.0625,-400000.0625
22.111185550689697,-8335.349609375,-17029.91015625,-2785.300048828125,-400000.0625,-400000.0625,-400000.0625,-400000.0625,-400000.0625
22.19764018058777,-8319.7099609375,-17022.560546875,-2777.909912109375,-400000.0625,-400000.0625,-400000.0625,-400000.0625,-400000.0625
22.239083766937256,-8321.51953125,-17030.9609375,-2783.780029296875,-400000.0625,-400000.0625,-400000.0625,-400000.0625,-400000.0625
22.318772315979004,-8309.2197265625,-17021.279296875,-2769.280029296875,-400000.0625,-400000.0625,-400000.0625,-400000.0625,-400000.0625
22.378037214279175,-8408.599609375,-17220.119140625,-2843.280029296875,-400000.0625,-400000.0625,-400000.0625,-400000.0625,-400000.0625
22.42528533935547,-8410.41015625,-17252.30078125,-2850.9599609375,-400000.0625,-400000.0625,-400000.0625,-400000.0625,-400000.0625
22.75043511390686,-8383.7001953125,-17200.470703125,-2833.409912109375,-400000.0625,-400000.0625,-400000.0625,-400000.0625,-400000.0625
22.819230794906616,-8385.75,-17202.380859375,-2831.320068359375,-400000.0625,-400000.0625,-400000.0625,-400000.0625,-400000.0625
22.887575387954712,-8387.7099609375,-17199.51953125,-2827.97998046875,-400000.0625,-400000.0625,-400000.0625,-400000.0625,-400000.0625
22.94053888320923,-8381.7998046875,-17191.69921875,-2820.679931640625,-400000.0625,-400000.0625,-400000.0625,-400000.0625,-400000.0625
23.151366710662842,-8382.6103515625,-17206.9609375,-2838.989990234375,-400000.0625,-400000.0625,-400000.0625,-400000.0625,-400000.0625
23.211689949035645,-8387.7099609375,-17212.25,-2847.2900390625,-400000.0625,-400000.0625,-400000.0625,-400000.0625,-400000.0625
23.267378330230713,-8367.25,-17207.48046875,-2832.4599609375,-400000.0625,-400000.0625,-400000.0625,-400000.0625,-400000.0625
23.44911813735962,-8375.0703125,-17207.720703125,-2831.030029296875,-400000.0625,-400000.0625,-400000.0625,-400000.0625,-400000.0625
23.521753549575806,-8366.8701171875,-17194.23046875,-2816.14990234375,-400000.0625,-400000.0625,-400000.0625,-400000.0625,-400000.0625
23.57939100265503,-8360.669921875,-17203.859375,-2828.7900390625,-400000.0625,-400000.0625,-400000.0625,-400000.0625,-400000.0625
23.80808973312378,-8375.599609375,-17205.859375,-2837.52001953125,-400000.0625,-400000.0625,-400000.0625,-400000.0625,-400000.0625
23.84314799308777,-8376.9296875,-17202.08984375,-2836.89990234375,-400000.0625,-400000.0625,-400000.0625,-400000.0625,-400000.0625
23.909640789031982,-8385.9501953125,-17210.19921875,-2838.989990234375,-400000.0625,-400000.0625,-400000.0625,-400000.0625,-400000.0625
24.04507350921631,-8378.080078125,-17205.48046875,-2843.3798828125,-400000.0625,-400000.0625,-400000.0625,-400000.0625,-400000.0625
24.111756801605225,-8365.2001953125,-17197.3203125,-2836.080078125,-400000.0625,-400000.0625,-400000.0625,-400000.0625,-400000.0625
24.176751375198364,-8359.48046875,-17185.98046875,-2829.739990234375,-400000.0625,-400000.0625,-400000.0625,-400000.0625,-400000.0625
24.23366641998291,-8374.98046875,-17199.380859375,-2842.429931640625,-400000.0625,-400000.0625,-400000.0625,-400000.0625,-400000.0625
24.293343782424927,-8376.3603515625,-17197.80078125,-2835.1298828125,-400000.0625,-400000.0625,-400000.0625,-400000.0625,-400000.0625
24.350300550460815,-8380.990234375,-17208.720703125,-2850.010009765625,-400000.0625,-400000.0625,-400000.0625,-400000.0625,-400000.0625
24.420971155166626,-8358.91015625,-17195.130859375,-2830.929931640625,-400000.0625,-400000.0625,-400000.0625,-400000.0625,-400000.0625
24.558391094207764,-8365.919921875,-17198.419921875,-2829.97998046875,-400000.0625,-400000.0625,-400000.0625,-400000.0625,-400000.0625
24.62063241004944,-8372.01953125,-17206.76953125,-2845.0,-400000.0625,-400000.0625,-400000.0625,-400000.0625,-400000.0625
24.691901206970215,-8367.2099609375,-17201.7109375,-2832.169921875,-400000.0625,-400000.0625,-400000.0625,-400000.0625,-400000.0625
24.730470895767212,-8374.1201171875,-17215.060546875,-2848.6298828125,-400000.0625,-400000.0625,-400000.0625,-400000.0625,-400000.0625
24.879024744033813,-8370.5,-17204.720703125,-2835.1298828125,-400000.0625,-400000.0625,-400000.0625,-400000.0625,-400000.0625
24.93730616569519,-8378.1298828125,-17219.640625,-2854.39990234375,-400000.0625,-400000.0625,-400000.0625,-400000.0625,-400000.0625
24.990684747695923,-8377.169921875,-17214.490234375,-2848.9599609375,-400000.0625,-400000.0625,-400000.0625,-400000.0625,-400000.0625
25.080644130706787,-8383.4697265625,-17226.26953125,-2858.929931640625,-400000.0625,-400000.0625,-400000.0625,-400000.0625,-400000.0625
25.13559603691101,-8371.9296875,-17215.30078125,-2844.3798828125,-400000.0625,-400000.0625,-400000.0625,-400000.0625,-400000.0625
25.179126977920532,-8369.490234375,-17218.640625,-2847.2900390625,-400000.0625,-400000.0625,-400000.0625,-400000.0625,-400000.0625
25.270521879196167,-8373.6904296875,-17217.16015625,-2851.77001953125,-400000.0625,-400000.0625,-400000.0625,-400000.0625,-400000.0625
25.315320014953613,-8380.4599609375,-17226.939453125,-2854.780029296875,-400000.0625,-400000.0625,-400000.0625,-400000.0625,-400000.0625
25.377697944641113,-8379.75,-17186.98046875,-2854.5400390625,-400000.0625,-400000.0625,-400000.0625,-400000.0625,-400000.0625
25.445390939712524,-8294.4404296875,-16934.25,-2790.169921875,-400000.0625,-400000.0625,-400000.0625,-400000.0625,-400000.0625
25.524285554885864,-8288.099609375,-16918.1796875,-2776.9599609375,-400000.0625,-400000.0625,-400000.0625,-400000.0625,-400000.0625
25.58031129837036,-8298.73046875,-16949.75,-2797.64990234375,-400000.0625,-400000.0625,-400000.0625,-400000.0625,-400000.0625
25.626736879348755,-8300.5400390625,-16978.169921875,-2807.330078125,-400000.0625,-400000.0625,-400000.0625,-400000.0625,-400000.0625
25.700732707977295,-8298.259765625,-16970.73046875,-2795.840087890625,-400000.0625,-400000.0625,-400000.0625,-400000.0625,-400000.0625
25.778892278671265,-8285.0498046875,-16951.130859375,-2779.2900390625,-400000.0625,-400000.0625,-400000.0625,-400000.0625,-400000.0625
25.829168796539307,-8294.6298828125,-16968.919921875,-2792.5,-400000.0625,-400000.0625,-400000.0625,-400000.0625,-400000.0625
25.966772079467773,-8295.919921875,-16970.58984375,-2792.639892578125,-400000.0625,-400000.0625,-400000.0625,-400000.0625,-400000.0625
26.011778831481934,-8294.6796875,-16979.220703125,-2792.5,-400000.0625,-400000.0625,-400000.0625,-400000.0625,-400000.0625
26.14674735069275,-8292.580078125,-16975.119140625,-2784.679931640625,-400000.0625,-400000.0625,-400000.0625,-400000.0625,-400000.0625
26.210535764694214,-8288.2900390625,-16969.400390625,-2781.820068359375,-400000.0625,-400000.0625,-400000.0625,-400000.0625,-400000.0625
26.341966152191162,-8287.8095703125,-16973.400390625,-2785.159912109375,-400000.0625,-400000.0625,-400000.0625,-400000.0625,-400000.0625
26.415035247802734,-8278.509765625,-16970.109375,-2777.2900390625,-400000.0625,-400000.0625,-400000.0625,-400000.0625,-400000.0625
26.526018857955933,-8283.1904296875,-16976.0703125,-2781.010009765625,-400000.0625,-400000.0625,-400000.0625,-400000.0625,-400000.0625
26.622366905212402,-8284.2802734375,-16976.640625,-2783.820068359375,-400000.0625,-400000.0625,-400000.0625,-400000.0625,-400000.0625
26.65492033958435,-8285.5703125,-16979.41015625,-2783.6298828125,-400000.0625,-400000.0625,-400000.0625,-400000.0625,-400000.0625
26.717800855636597,-8277.990234375,-16964.6796875,-2775.429931640625,-400000.0625,-400000.0625,-400000.0625,-400000.0625,-400000.0625
26.779715061187744,-8275.3203125,-16957.51953125,-2770.659912109375,-400000.0625,-400000.0625,-400000.0625,-400000.0625,-400000.0625
26.878668069839478,-8277.4599609375,-16969.01953125,-2779.14990234375,-400000.0625,-400000.0625,-400000.0625,-400000.0625,-400000.0625
26.914440393447876,-8281.5703125,-16968.919921875,-2780.719970703125,-400000.0625,-400000.0625,-400000.0625,-400000.0625,-400000.0625
26.998919010162354,-8274.75,-16946.080078125,-2777.199951171875,-400000.0625,-400000.0625,-400000.0625,-400000.0625,-400000.0625
27.036811590194702,-8262.6796875,-16945.169921875,-2760.699951171875,-400000.0625,-400000.0625,-400000.0625,-400000.0625,-400000.0625
27.09920358657837,-8269.740234375,-16948.80078125,-2766.510009765625,-400000.0625,-400000.0625,-400000.0625,-400000.0625,-400000.0625
27.161742687225342,-8295.490234375,-16958.91015625,-2782.679931640625,-400000.0625,-400000.0625,-400000.0625,-400000.0625,-400000.0625
27.252769231796265,-8292.009765625,-16959.759765625,-2779.820068359375,-400000.0625,-400000.0625,-400000.0625,-400000.0625,-400000.0625
27.331193447113037,-8279.9404296875,-16947.41015625,-2775.050048828125,-400000.0625,-400000.0625,-400000.0625,-400000.0625,-400000.0625
27.35311245918274,-8275.6103515625,-16936.919921875,-2758.219970703125,-400000.0625,-400000.0625,-400000.0625,-400000.0625,-400000.0625
27.498313903808594,-8291.9599609375,-16955.189453125,-2779.2900390625,-400000.0625,-400000.0625,-400000.0625,-400000.0625,-400000.0625
27.63196110725403,-8289.2900390625,-16962.19921875,-2785.5400390625,-400000.0625,-400000.0625,-400000.0625,-400000.0625,-400000.0625
27.682247400283813,-8280.3701171875,-16956.94921875,-2773.81005859375,-400000.0625,-400000.0625,-400000.0625,-400000.0625,-400000.0625
27.737940073013306,-8293.150390625,-16965.9609375,-2784.780029296875,-400000.0625,-400000.0625,-400000.0625,-400000.0625,-400000.0625
27.828253269195557,-8296.1103515625,-16964.6796875,-2788.969970703125,-400000.0625,-400000.0625,-400000.0625,-400000.0625,-400000.0625
27.876630544662476,-8288.9599609375,-16956.380859375,-2776.719970703125,-400000.0625,-400000.0625,-400000.0625,-400000.0625,-400000.0625
28.005619287490845,-8283.1904296875,-16952.08984375,-2768.610107421875,-400000.0625,-400000.0625,-400000.0625,-400000.0625,-400000.0625
28.072545051574707,-8290.6298828125,-16962.580078125,-2775.6201171875,-400000.0625,-400000.0625,-400000.0625,-400000.0625,-400000.0625
28.190693378448486,-8294.6796875,-16965.009765625,-2785.02001953125,-400000.0625,-400000.0625,-400000.0625,-400000.0625,-400000.0625
28.28003692626953,-8288.099609375,-16966.150390625,-2781.25,-400000.0625,-400000.0625,-400000.0625,-400000.0625,-400000.0625
28.388981580734253,-8292.580078125,-16965.6796875,-2785.780029296875,-400000.0625,-400000.0625,-400000.0625,-400000.0625,-400000.0625
28.456780433654785,-8233.830078125,-16768.509765625,-2748.919921875,-400000.0625,-400000.0625,-400000.0625,-400000.0625,-400000.0625
28.520237922668457,-8218.1904296875,-16768.029296875,-2737.139892578125,-400000.0625,-400000.0625,-400000.0625,-400000.0625,-400000.0625
28.591071128845215,-8214.51953125,-16771.26953125,-2717.639892578125,-400000.0625,-400000.0625,-400000.0625,-400000.0625,-400000.0625
28.832223176956177,-8215.6201171875,-16816.240234375,-2766.56005859375,-400000.0625,-400000.0625,-400000.0625,-400000.0625,-400000.0625
28.899505615234375,-8183.6201171875,-16802.7890625,-2752.5,-400000.0625,-400000.0625,-400000.0625,-400000.0625,-400000.0625
29.029789447784424,-8242.3203125,-16817.759765625,-2754.550048828125,-400000.0625,-400000.0625,-400000.0625,-400000.0625,-400000.0625
29.16941523551941,-8247.419921875,-16823.150390625,-2739.6201171875,-400000.0625,-400000.0625,-400000.0625,-400000.0625,-400000.0625
29.21636962890625,-8248.08984375,-16820.91015625,-2733.469970703125,-400000.0625,-400000.0625,-400000.0625,-400000.0625,-400000.0625
29.29959273338318,-8219.8203125,-16837.5,-2759.739990234375,-400000.0625,-400000.0625,-400000.0625,-400000.0625,-400000.0625
29.345455169677734,-8217.5302734375,-16841.369140625,-2754.969970703125,-400000.0625,-400000.0625,-400000.0625,-400000.0625,-400000.0625
29.438884735107422,-8216.7197265625,-16836.9296875,-2747.389892578125,-400000.0625,-400000.0625,-400000.0625,-400000.0625,-400000.0625
29.47041368484497,-8246.66015625,-16825.390625,-2729.989990234375,-400000.0625,-400000.0625,-400000.0625,-400000.0625,-400000.0625
29.559415102005005,-8233.6904296875,-16815.619140625,-2712.25,-400000.0625,-400000.0625,-400000.0625,-400000.0625,-400000.0625
29.6014347076416,-8245.900390625,-16826.970703125,-2720.68994140625,-400000.0625,-400000.0625,-400000.0625,-400000.0625,-400000.0625
29.661473274230957,-8245.0400390625,-16823.8203125,-2715.780029296875,-400000.0625,-400000.0625,-400000.0625,-400000.0625,-400000.0625
29.86070203781128,-8241.7001953125,-16832.970703125,-2714.969970703125,-400000.0625,-400000.0625,-400000.0625,-400000.0625,-400000.0625
29.91789174079895,-8241.5595703125,-16838.650390625,-2709.6298828125,-400000.0625,-400000.0625,-400000.0625,-400000.0625,-400000.0625
30.061527252197266,-8255.3896484375,-16840.130859375,-2717.110107421875,-400000.0625,-400000.0625,-400000.0625,-400000.0625,-400000.0625
30.120491981506348,-8246.4697265625,-16833.400390625,-2707.340087890625,-400000.0625,-400000.0625,-400000.0625,-400000.0625,-400000.0625
30.1891028881073,-8235.3603515625,-16827.58984375,-2694.989990234375,-400000.0625,-400000.0625,-400000.0625,-400000.0625,-400000.0625
30.244612216949463,-8232.01953125,-16827.919921875,-2692.56005859375,-400000.0625,-400000.0625,-400000.0625,-400000.0625,-400000.0625
30.317494869232178,-8246.849609375,-16836.740234375,-2704.3798828125,-400000.0625,-400000.0625,-400000.0625,-400000.0625,-400000.0625
30.489808082580566,-8221.009765625,-16821.2890625,-2671.669921875,-400000.0625,-400000.0625,-400000.0625,-400000.0625,-400000.0625
30.556575775146484,-8225.349609375,-16821.48046875,-2668.570068359375,-400000.0625,-400000.0625,-400000.0625,-400000.0625,-400000.0625
30.626896619796753,-8221.150390625,-16820.150390625,-2665.22998046875,-400000.0625,-400000.0625,-400000.0625,-400000.0625,-400000.0625
30.705427646636963,-8229.2998046875,-16819.48046875,-2668.81005859375,-400000.0625,-400000.0625,-400000.0625,-400000.0625,-400000.0625
30.755475282669067,-8240.6103515625,-16829.919921875,-2680.39990234375,-400000.0625,-400000.0625,-400000.0625,-400000.0625,-400000.0625
30.892228603363037,-8239.080078125,-16828.2109375,-2673.389892578125,-400000.0625,-400000.0625,-400000.0625,-400000.0625,-400000.0625
30.951522827148438,-8240.509765625,-16827.490234375,-2665.419921875,-400000.0625,-400000.0625,-400000.0625,-400000.0625,-400000.0625
31.095590114593506,-8229.2099609375,-16830.970703125,-2656.27001953125,-400000.0625,-400000.0625,-400000.0625,-400000.0625,-400000.0625
31.138049125671387,-8237.650390625,-16833.400390625,-2659.85009765625,-400000.0625,-400000.0625,-400000.0625,-400000.0625,-400000.0625
31.157905340194702,-8231.9697265625,-16823.25,-2647.780029296875,-400000.0625,-400000.0625,-400000.0625,-400000.0625,-400000.0625
31.17550754547119,-8235.6904296875,-16828.830078125,-2657.56005859375,-400000.0625,-400000.0625,-400000.0625,-400000.0625,-400000.0625
31.21178126335144,-8245.990234375,-16839.599609375,-2669.139892578125,-400000.0625,-400000.0625,-400000.0625,-400000.0625,-400000.0625
31.223241806030273,-8250.0498046875,-16844.990234375,-2671.860107421875,-400000.0625,-400000.0625,-400000.0625,-400000.0625,-400000.0625
31.239131927490234,-8243.419921875,-16840.560546875,-2664.85009765625,-400000.0625,-400000.0625,-400000.0625,-400000.0625,-400000.0625
31.250019550323486,-8236.169921875,-16835.7890625,-2656.889892578125,-400000.0625,-400000.0625,-400000.0625,-400000.0625,-400000.0625
31.26083278656006,-8235.83984375,-16831.689453125,-2657.989990234375,-400000.0625,-400000.0625,-400000.0625,-400000.0625,-400000.0625
31.271766662597656,-8239.1298828125,-16834.119140625,-2663.419921875,-400000.0625,-400000.0625,-400000.0625,-400000.0625,-400000.0625
31.283234357833862,-8245.419921875,-16838.029296875,-2663.800048828125,-400000.0625,-400000.0625,-400000.0625,-400000.0625,-400000.0625
31.29594659805298,-8238.7001953125,-16838.740234375,-2661.1298828125,-400000.0625,-400000.0625,-400000.0625,-400000.0625,-400000.0625
31.319434642791748,-8231.1201171875,-16830.880859375,-2652.1201171875,-400000.0625,-400000.0625,-400000.0625,-400000.0625,-400000.0625
31.33776831626892,-8247.4697265625,-16835.5,-2663.3701171875,-400000.0625,-400000.0625,-400000.0625,-400000.0625,-400000.0625
31.35024094581604,-8251.759765625,-16846.1796875,-2672.429931640625,-400000.0625,-400000.0625,-400000.0625,-400000.0625,-400000.0625
31.36472463607788,-8250.2900390625,-16846.849609375,-2669.530029296875,-400000.0625,-400000.0625,-400000.0625,-400000.0625,-400000.0625
31.37470269203186,-8245.330078125,-16836.740234375,-2662.75,-400000.0625,-400000.0625,-400000.0625,-400000.0625,-400000.0625
31.38784694671631,-8238.8896484375,-16830.970703125,-2656.56005859375,-400000.0625,-400000.0625,-400000.0625,-400000.0625,-400000.0625
31.400855541229248,-8243.849609375,-16830.6796875,-2655.080078125,-400000.0625,-400000.0625,-400000.0625,-400000.0625,-400000.0625
31.41542625427246,-8253.3798828125,-16842.990234375,-2668.090087890625,-400000.0625,-400000.0625,-400000.0625,-400000.0625,-400000.0625
31.42633366584778,-8253.33984375,-16846.0390625,-2672.9599609375,-400000.0625,-400000.0625,-400000.0625,-400000.0625,-400000.0625
31.443018436431885,-8248.3798828125,-16840.130859375,-2664.139892578125,-400000.0625,-400000.0625,-400000.0625,-400000.0625,-400000.0625
31.45656728744507,-8241.9404296875,-16836.259765625,-2652.840087890625,-400000.0625,-400000.0625,-400000.0625,-400000.0625,-400000.0625
31.469067335128784,-8243.23046875,-16833.5,-2657.3701171875,-400000.0625,-400000.0625,-400000.0625,-400000.0625,-400000.0625
31.482853174209595,-8248.66015625,-16839.83984375,-2666.659912109375,-400000.0625,-400000.0625,-400000.0625,-400000.0625,-400000.0625
31.493441104888916,-8248.1904296875,-16849.619140625,-2670.570068359375,-400000.0625,-400000.0625,-400000.0625,-400000.0625,-400000.0625
31.50633478164673,-8246.2802734375,-16844.23046875,-2666.330078125,-400000.0625,-400000.0625,-400000.0625,-400000.0625,-400000.0625
31.519553899765015,-8238.169921875,-16837.9296875,-2658.320068359375,-400000.0625,-400000.0625,-400000.0625,-400000.0625,-400000.0625
31.536208868026733,-8241.990234375,-16837.890625,-2659.3701171875,-400000.0625,-400000.0625,-400000.0625,-400000.0625,-400000.0625
31.548461198806763,-8243.75,-16838.650390625,-2665.52001953125,-400000.0625,-400000.0625,-400000.0625,-400000.0625,-400000.0625
31.56030535697937,-8248.330078125,-16843.3203125,-2668.669921875,-400000.0625,-400000.0625,-400000.0625,-400000.0625,-400000.0625
31.571812629699707,-8246.1396484375,-16841.509765625,-2666.760009765625,-400000.0625,-400000.0625,-400000.0625,-400000.0625,-400000.0625
31.584407329559326,-8240.5595703125,-16836.310546875,-2657.219970703125,-400000.0625,-400000.0625,-400000.0625,-400000.0625,-400000.0625
31.59593677520752,-8242.66015625,-16840.3203125,-2660.469970703125,-400000.0625,-400000.0625,-400000.0625,-400000.0625,-400000.0625
31.604028463363647,-8245.419921875,-16845.1796875,-2667.050048828125,-400000.0625,-400000.0625,-400000.0625,-400000.0625,-400000.0625
31.616016387939453,-8249.3798828125,-16845.08984375,-2669.719970703125,-400000.0625,-400000.0625,-400000.0625,-400000.0625,-400000.0625
31.62726402282715,-8244.23046875,-16840.509765625,-2664.610107421875,-400000.0625,-400000.0625,-400000.0625,-400000.0625,-400000.0625
31.64664936065674,-8237.4599609375,-16838.310546875,-2657.64990234375,-400000.0625,-400000.0625,-400000.0625,-400000.0625,-400000.0625
31.65966796875,-8237.41015625,-16838.169921875,-2661.469970703125,-400000.0625,-400000.0625,-400000.0625,-400000.0625,-400000.0625
31.673747539520264,-8251.0498046875,-16845.7109375,-2670.3798828125,-400000.0625,-400000.0625,-400000.0625,-400000.0625,-400000.0625
31.689541339874268,-8255.2001953125,-16847.900390625,-2671.6201171875,-400000.0625,-400000.0625,-400000.0625,-400000.0625,-400000.0625
31.700645446777344,-8239.080078125,-16839.029296875,-2660.179931640625,-400000.0625,-400000.0625,-400000.0625,-400000.0625,-400000.0625
31.71386170387268,-8230.8798828125,-16827.16015625,-2647.35009765625,-400000.0625,-400000.0625,-400000.0625,-400000.0625,-400000.0625
31.72225022315979,-8240.990234375,-16832.740234375,-2656.840087890625,-400000.0625,-400000.0625,-400000.0625,-400000.0625,-400000.0625
31.738082885742188,-8244.3701171875,-16837.83984375,-2665.570068359375,-400000.0625,-400000.0625,-400000.0625,-400000.0625,-400000.0625
31.747736930847168,-8248.1396484375,-16835.55078125,-2665.090087890625,-400000.0625,-400000.0625,-400000.0625,-400000.0625,-400000.0625
31.761752605438232,-8241.3203125,-16834.689453125,-2657.4599609375,-400000.0625,-400000.0625,-400000.0625,-400000.0625,-400000.0625
31.77159857749939,-8232.3095703125,-16830.779296875,-2651.169921875,-400000.0625,-400000.0625,-400000.0625,-400000.0625,-400000.0625
31.78650665283203,-8235.7900390625,-16828.919921875,-2654.4599609375,-400000.0625,-400000.0625,-400000.0625,-400000.0625,-400000.0625
31.80049180984497,-8251.8603515625,-16847.1796875,-2674.679931640625,-400000.0625,-400000.0625,-400000.0625,-400000.0625,-400000.0625
31.813305377960205,-8251.759765625,-16847.419921875,-2674.530029296875,-400000.0625,-400000.0625,-400000.0625,-400000.0625,-400000.0625
31.82682228088379,-8240.080078125,-16834.830078125,-2659.0400390625,-400000.0625,-400000.0625,-400000.0625,-400000.0625,-400000.0625
31.843899726867676,-8235.7900390625,-16833.55078125,-2656.320068359375,-400000.0625,-400000.0625,-400000.0625,-400000.0625,-400000.0625
31.857703685760498,-8236.2197265625,-16833.640625,-2659.56005859375,-400000.0625,-400000.0625,-400000.0625,-400000.0625,-400000.0625
31.870439529418945,-8244.23046875,-16834.830078125,-2665.330078125,-400000.0625,-400000.0625,-400000.0625,-400000.0625,-400000.0625
31.88379693031311,-8247.0400390625,-16842.75,-2669.949951171875,-400000.0625,-400000.0625,-400000.0625,-400000.0625,-400000.0625
31.896424531936646,-8237.080078125,-16836.359375,-2661.320068359375,-400000.0625,-400000.0625,-400000.0625,-400000.0625,-400000.0625
31.906994104385376,-8228.58984375,-16828.109375,-2652.260009765625,-400000.0625,-400000.0625,-400000.0625,-400000.0625,-400000.0625
31.926148176193237,-8240.080078125,-16828.2109375,-2654.360107421875,-400000.0625,-400000.0625,-400000.0625,-400000.0625,-400000.0625
31.94522738456726,-8252.48046875,-16835.640625,-2667.050048828125,-400000.0625,-400000.0625,-400000.0625,-400000.0625,-400000.0625
31.95685887336731,-8252.5703125,-16838.5,-2666.81005859375,-400000.0625,-400000.0625,-400000.0625,-400000.0625,-400000.0625
31.972607851028442,-8236.5,-16833.400390625,-2655.320068359375,-400000.0625,-400000.0625,-400000.0625,-400000.0625,-400000.0625
31.984296798706055,-8230.349609375,-16830.349609375,-2654.31005859375,-400000.0625,-400000.0625,-400000.0625,-400000.0625,-400000.0625
31.99843120574951,-8236.599609375,-16830.830078125,-2660.320068359375,-400000.0625,-400000.0625,-400000.0625,-400000.0625,-400000.0625
32.006996154785156,-8238.26953125,-16833.970703125,-2662.7099609375,-400000.0625,-400000.0625,-400000.0625,-400000.0625,-400000.0625
32.020750284194946,-8240.4599609375,-16836.44921875,-2663.330078125,-400000.0625,-400000.0625,-400000.0625,-400000.0625,-400000.0625
32.04084396362305,-8236.9296875,-16830.060546875,-2656.60009765625,-400000.0625,-400000.0625,-400000.0625,-400000.0625,-400000.0625
32.05121612548828,-8232.2099609375,-16827.970703125,-2651.639892578125,-400000.0625,-400000.0625,-400000.0625,-400000.0625,-400000.0625
32.060832500457764,-8233.740234375,-16826.580078125,-2652.5,-400000.0625,-400000.0625,-400000.0625,-400000.0625,-400000.0625
32.073086738586426,-8245.759765625,-16833.400390625,-2668.669921875,-400000.0625,-400000.0625,-400000.0625,-400000.0625,-400000.0625
32.08524465560913,-8251.3798828125,-16838.220703125,-2672.47998046875,-400000.0625,-400000.0625,-400000.0625,-400000.0625,-400000.0625
32.09581708908081,-8240.990234375,-16839.41015625,-2663.7099609375,-400000.0625,-400000.0625,-400000.0625,-400000.0625,-400000.0625
32.107492208480835,-8231.01953125,-16832.0703125,-2653.739990234375,-400000.0625,-400000.0625,-400000.0625,-400000.0625,-400000.0625
32.116520166397095,-8240.7998046875,-16857.099609375,-2662.179931640625,-400000.0625,-400000.0625,-400000.0625,-400000.0625,-400000.0625
32.13825583457947,-8256.7197265625,-16888.91015625,-2674.679931640625,-400000.0625,-400000.0625,-400000.0625,-400000.0625,-400000.0625
32.15325307846069,-8257.2001953125,-16886.330078125,-2672.77001953125,-400000.0625,-400000.0625,-400000.0625,-400000.0625,-400000.0625
32.166460037231445,-8251.7197265625,-16867.44921875,-2665.18994140625,-400000.0625,-400000.0625,-400000.0625,-400000.0625,-400000.0625
32.181466817855835,-8252.33984375,-16874.939453125,-2668.81005859375,-400000.0625,-400000.0625,-400000.0625,-400000.0625,-400000.0625
32.19226551055908,-8264.490234375,-16899.30078125,-2678.110107421875,-400000.0625,-400000.0625,-400000.0625,-400000.0625,-400000.0625
32.20672941207886,-8285.1396484375,-16935.779296875,-2697.419921875,-400000.0625,-400000.0625,-400000.0625,-400000.0625,-400000.0625
32.22156882286072,-8296.1103515625,-16967.30078125,-2709.820068359375,-400000.0625,-400000.0625,-400000.0625,-400000.0625,-400000.0625
32.23709177970886,-8293.8203125,-16962.240234375,-2707.77001953125,-400000.0625,-400000.0625,-400000.0625,-400000.0625,-400000.0625
32.2510039806366,-8299.5400390625,-16986.990234375,-2715.2099609375,-400000.0625,-400000.0625,-400000.0625,-400000.0625,-400000.0625
32.263946294784546,-8311.7998046875,-17010.640625,-2727.989990234375,-400000.0625,-400000.0625,-400000.0625,-400000.0625,-400000.0625
32.276309967041016,-8332.6796875,-17028.240234375,-2739.050048828125,-400000.0625,-400000.0625,-400000.0625,-400000.0625,-400000.0625
32.28820991516113,-8330.009765625,-17029.720703125,-2738.139892578125,-400000.0625,-400000.0625,-400000.0625,-400000.0625,-400000.0625
32.30166792869568,-8320.8603515625,-17020.419921875,-2729.75,-400000.0625,-400000.0625,-400000.0625,-400000.0625,-400000.0625
32.31490230560303,-8320.6201171875,-17038.869140625,-2735.330078125,-400000.0625,-400000.0625,-400000.0625,-400000.0625,-400000.0625
32.328601598739624,-8329.2001953125,-17050.4609375,-2745.719970703125,-400000.0625,-400000.0625,-400000.0625,-400000.0625,-400000.0625
32.345635652542114,-8343.7900390625,-17057.66015625,-2752.72998046875,-400000.0625,-400000.0625,-400000.0625,-400000.0625,-400000.0625
32.35954570770264,-8336.1201171875,-17054.560546875,-2748.919921875,-400000.0625,-400000.0625,-400000.0625,-400000.0625,-400000.0625
32.369940519332886,-8322.6201171875,-17045.689453125,-2736.18994140625,-400000.0625,-400000.0625,-400000.0625,-400000.0625,-400000.0625
32.38259792327881,-8318.0400390625,-17041.400390625,-2728.1298828125,-400000.0625,-400000.0625,-400000.0625,-400000.0625,-400000.0625
32.39098310470581,-8326.33984375,-17045.5,-2732.090087890625,-400000.0625,-400000.0625,-400000.0625,-400000.0625,-400000.0625
32.404473066329956,-8335.16015625,-17052.599609375,-2742.239990234375,-400000.0625,-400000.0625,-400000.0625,-400000.0625,-400000.0625
32.417566537857056,-8326.099609375,-17043.310546875,-2736.6201171875,-400000.0625,-400000.0625,-400000.0625,-400000.0625,-400000.0625
32.43817758560181,-8318.1396484375,-17042.310546875,-2727.3701171875,-400000.0625,-400000.0625,-400000.0625,-400000.0625,-400000.0625
32.45227861404419,-8317.5703125,-17040.44921875,-2724.1201171875,-400000.0625,-400000.0625,-400000.0625,-400000.0625,-400000.0625
32.46316194534302,-8326.009765625,-17044.0703125,-2730.93994140625,-400000.0625,-400000.0625,-400000.0625,-400000.0625,-400000.0625
32.4761803150177,-8329.9599609375,-17050.4609375,-2738.3798828125,-400000.0625,-400000.0625,-400000.0625,-400000.0625,-400000.0625
32.48770046234131,-8328.0595703125,-17046.220703125,-2736.139892578125,-400000.0625,-400000.0625,-400000.0625,-400000.0625,-400000.0625
32.49734616279602,-8319.08984375,-17045.119140625,-2730.27001953125,-400000.0625,-400000.0625,-400000.0625,-400000.0625,-400000.0625
32.50659537315369,-8318.51953125,-17044.119140625,-2727.219970703125,-400000.0625,-400000.0625,-400000.0625,-400000.0625,-400000.0625
32.51778197288513,-8321.4296875,-17044.359375,-2733.090087890625,-400000.0625,-400000.0625,-400000.0625,-400000.0625,-400000.0625
32.528303146362305,-8324.9599609375,-17045.7890625,-2734.85009765625,-400000.0625,-400000.0625,-400000.0625,-400000.0625,-400000.0625
32.548300981521606,-8322.240234375,-17045.44921875,-2731.85009765625,-400000.0625,-400000.0625,-400000.0625,-400000.0625,-400000.0625
32.560367584228516,-8317.9501953125,-17042.0703125,-2729.3701171875,-400000.0625,-400000.0625,-400000.0625,-400000.0625,-400000.0625
32.573458671569824,-8312.5595703125,-17038.30078125,-2724.889892578125,-400000.0625,-400000.0625,-400000.0625,-400000.0625,-400000.0625
32.58391976356506,-8316.330078125,-17043.2109375,-2728.179931640625,-400000.0625,-400000.0625,-400000.0625,-400000.0625,-400000.0625
32.59795117378235,-8326.25,-17049.119140625,-2737.239990234375,-400000.0625,-400000.0625,-400000.0625,-400000.0625,-400000.0625
32.610607624053955,-8324.0,-17053.220703125,-2738.2900390625,-400000.0625,-400000.0625,-400000.0625,-400000.0625,-400000.0625
32.623053312301636,-8316.4697265625,-17042.73046875,-2724.840087890625,-400000.0625,-400000.0625,-400000.0625,-400000.0625,-400000.0625
32.63707160949707,-8315.0400390625,-17038.16015625,-2718.260009765625,-400000.0625,-400000.0625,-400000.0625,-400000.0625,-400000.0625
32.646644592285156,-8320.2802734375,-17044.400390625,-2723.97998046875,-400000.0625,-400000.0625,-400000.0625,-400000.0625,-400000.0625
32.658469438552856,-8329.9599609375,-17054.26953125,-2732.610107421875,-400000.0625,-400000.0625,-400000.0625,-400000.0625,-400000.0625
32.667129039764404,-8329.8701171875,-17062.7109375,-2735.7099609375,-400000.0625,-400000.0625,-400000.0625,-400000.0625,-400000.0625
32.67938208580017,-8319.8603515625,-17062.4296875,-2733.179931640625,-400000.0625,-400000.0625,-400000.0625,-400000.0625,-400000.0625
32.68777656555176,-8307.509765625,-17057.279296875,-2735.22998046875,-400000.0625,-400000.0625,-400000.0625,-400000.0625,-400000.0625
32.70047211647034,-8308.169921875,-17067.05078125,-2748.780029296875,-400000.0625,-400000.0625,-400000.0625,-400000.0625,-400000.0625
32.7100875377655,-8312.66015625,-17081.55078125,-2763.080078125,-400000.0625,-400000.0625,-400000.0625,-400000.0625,-400000.0625
32.72113275527954,-8306.599609375,-17089.890625,-2767.75,-400000.0625,-400000.0625,-400000.0625,-400000.0625,-400000.0625
32.73584055900574,-8297.490234375,-17087.509765625,-2759.169921875,-400000.0625,-400000.0625,-400000.0625,-400000.0625,-400000.0625
32.747488498687744,-8291.33984375,-17081.599609375,-2755.639892578125,-400000.0625,-400000.0625,-400000.0625,-400000.0625,-400000.0625
32.765103340148926,-8292.009765625,-17091.23046875,-2766.56005859375,-400000.0625,-400000.0625,-400000.0625,-400000.0625,-400000.0625
32.77993679046631,-8301.349609375,-17104.099609375,-2777.77001953125,-400000.0625,-400000.0625,-400000.0625,-400000.0625,-400000.0625
32.79270625114441,-8301.2099609375,-17098.140625,-2775.050048828125,-400000.0625,-400000.0625,-400000.0625,-400000.0625,-400000.0625
32.806772232055664,-8294.5400390625,-17088.26953125,-2766.179931640625,-400000.0625,-400000.0625,-400000.0625,-400000.0625,-400000.0625
32.82085943222046,-8293.4404296875,-17085.130859375,-2761.840087890625,-400000.0625,-400000.0625,-400000.0625,-400000.0625,-400000.0625
32.83584475517273,-8302.0703125,-17090.560546875,-2770.52001953125,-400000.0625,-400000.0625,-400000.0625,-400000.0625,-400000.0625
32.846678733825684,-8303.3095703125,-17098.0,-2774.47998046875,-400000.0625,-400000.0625,-400000.0625,-400000.0625,-400000.0625
32.86204171180725,-8296.400390625,-17091.130859375,-2771.469970703125,-400000.0625,-400000.0625,-400000.0625,-400000.0625,-400000.0625
32.8740975856781,-8289.3896484375,-17087.83984375,-2767.85009765625,-400000.0625,-400000.0625,-400000.0625,-400000.0625,-400000.0625
32.88997936248779,-8289.76953125,-17088.029296875,-2764.75,-400000.0625,-400000.0625,-400000.0625,-400000.0625,-400000.0625
32.90133762359619,-8295.16015625,-17088.369140625,-2768.56005859375,-400000.0625,-400000.0625,-400000.0625,-400000.0625,-400000.0625
32.914398431777954,-8301.7802734375,-17096.7109375,-2777.10009765625,-400000.0625,-400000.0625,-400000.0625,-400000.0625,-400000.0625
32.92625093460083,-8302.259765625,-17102.390625,-2779.2900390625,-400000.0625,-400000.0625,-400000.0625,-400000.0625,-400000.0625
32.943464279174805,-8296.009765625,-17097.279296875,-2774.570068359375,-400000.0625,-400000.0625,-400000.0625,-400000.0625,-400000.0625
32.9569628238678,-8290.2001953125,-17084.9296875,-2762.3701171875,-400000.0625,-400000.0625,-400000.0625,-400000.0625,-400000.0625
32.969807624816895,-8295.1103515625,-17090.849609375,-2771.330078125,-400000.0625,-400000.0625,-400000.0625,-400000.0625,-400000.0625
32.98199224472046,-8305.169921875,-17099.4296875,-2779.25,-400000.0625,-400000.0625,-400000.0625,-400000.0625,-400000.0625
32.991990089416504,-8306.740234375,-17101.0,-2782.300048828125,-400000.0625,-400000.0625,-400000.0625,-400000.0625,-400000.0625
33.00644302368164,-8299.7802734375,-17093.990234375,-2773.239990234375,-400000.0625,-400000.0625,-400000.0625,-400000.0625,-400000.0625
33.01956081390381,-8287.0,-17082.83984375,-2758.260009765625,-400000.0625,-400000.0625,-400000.0625,-400000.0625,-400000.0625
33.039154291152954,-8290.6298828125,-17086.650390625,-2765.469970703125,-400000.0625,-400000.0625,-400000.0625,-400000.0625,-400000.0625
33.05466628074646,-8298.259765625,-17094.51953125,-2777.2900390625,-400000.0625,-400000.0625,-400000.0625,-400000.0625,-400000.0625
33.06623959541321,-8298.2099609375,-17093.51953125,-2774.570068359375,-400000.0625,-400000.0625,-400000.0625,-400000.0625,-400000.0625
33.07973027229309,-8289.9599609375,-17090.23046875,-2767.659912109375,-400000.0625,-400000.0625,-400000.0625,-400000.0625,-400000.0625
33.08947682380676,-8285.5703125,-17089.0390625,-2767.610107421875,-400000.0625,-400000.0625,-400000.0625,-400000.0625,-400000.0625
33.10357093811035,-8296.490234375,-17094.08984375,-2774.18994140625,-400000.0625,-400000.0625,-400000.0625,-400000.0625,-400000.0625
33.11621284484863,-8303.830078125,-17105.919921875,-2786.590087890625,-400000.0625,-400000.0625,-400000.0625,-400000.0625,-400000.0625
33.127986669540405,-8301.5498046875,-17101.619140625,-2784.780029296875,-400000.0625,-400000.0625,-400000.0625,-400000.0625,-400000.0625
33.14670729637146,-8297.0595703125,-17094.0390625,-2773.669921875,-400000.0625,-400000.0625,-400000.0625,-400000.0625,-400000.0625
33.16052842140198,-8288.7197265625,-17087.029296875,-2766.3701171875,-400000.0625,-400000.0625,-400000.0625,-400000.0625,-400000.0625
33.17357563972473,-8290.2900390625,-17087.3203125,-2771.0,-400000.0625,-400000.0625,-400000.0625,-400000.0625,-400000.0625
33.18468475341797,-8297.0595703125,-17095.619140625,-2780.489990234375,-400000.0625,-400000.0625,-400000.0625,-400000.0625,-400000.0625
33.199482679367065,-8296.919921875,-17089.1796875,-2776.669921875,-400000.0625,-400000.0625,-400000.0625,-400000.0625,-400000.0625
33.210623025894165,-8291.099609375,-17088.369140625,-2772.860107421875,-400000.0625,-400000.0625,-400000.0625,-400000.0625,-400000.0625
33.22516870498657,-8292.8701171875,-17092.51953125,-2772.18994140625,-400000.0625,-400000.0625,-400000.0625,-400000.0625,-400000.0625
33.24639105796814,-8296.8203125,-17098.51953125,-2778.719970703125,-400000.0625,-400000.0625,-400000.0625,-400000.0625,-400000.0625
33.25832200050354,-8306.169921875,-17104.19921875,-2788.260009765625,-400000.0625,-400000.0625,-400000.0625,-400000.0625,-400000.0625
33.26999521255493,-8304.3095703125,-17104.33984375,-2787.8798828125,-400000.0625,-400000.0625,-400000.0625,-400000.0625,-400000.0625
33.28133583068848,-8294.150390625,-17096.240234375,-2774.330078125,-400000.0625,-400000.0625,-400000.0625,-400000.0625,-400000.0625
33.29563546180725,-8288.76953125,-17086.4609375,-2763.4599609375,-400000.0625,-400000.0625,-400000.0625,-400000.0625,-400000.0625
33.30444145202637,-8293.8701171875,-17091.369140625,-2771.89990234375,-400000.0625,-400000.0625,-400000.0625,-400000.0625,-400000.0625
33.31778931617737,-8302.5,-17098.330078125,-2787.39990234375,-400000.0625,-400000.0625,-400000.0625,-400000.0625,-400000.0625
33.34004330635071,-8299.8798828125,-17099.810546875,-2784.489990234375,-400000.0625,-400000.0625,-400000.0625,-400000.0625,-400000.0625
33.352121114730835,-8292.150390625,-17093.94921875,-2773.860107421875,-400000.0625,-400000.0625,-400000.0625,-400000.0625,-400000.0625
33.36402988433838,-8291.009765625,-17086.939453125,-2768.89990234375,-400000.0625,-400000.0625,-400000.0625,-400000.0625,-400000.0625
33.377851724624634,-8300.58984375,-17096.810546875,-2779.14990234375,-400000.0625,-400000.0625,-400000.0625,-400000.0625,-400000.0625
33.39029812812805,-8312.6103515625,-17107.060546875,-2794.219970703125,-400000.0625,-400000.0625,-400000.0625,-400000.0625,-400000.0625
33.4061074256897,-8310.4599609375,-17103.91015625,-2789.2099609375,-400000.0625,-400000.0625,-400000.0625,-400000.0625,-400000.0625
33.41962957382202,-8296.919921875,-17090.849609375,-2773.52001953125,-400000.0625,-400000.0625,-400000.0625,-400000.0625,-400000.0625
33.436341524124146,-8289.48046875,-17084.029296875,-2764.22998046875,-400000.0625,-400000.0625,-400000.0625,-400000.0625,-400000.0625
33.446847438812256,-8292.76953125,-17088.890625,-2771.89990234375,-400000.0625,-400000.0625,-400000.0625,-400000.0625,-400000.0625
33.461106061935425,-8309.080078125,-17091.08984375,-2782.5400390625,-400000.0625,-400000.0625,-400000.0625,-400000.0625,-400000.0625
33.472530364990234,-8309.3701171875,-17100.4296875,-2786.260009765625,-400000.0625,-400000.0625,-400000.0625,-400000.0625,-400000.0625
33.48581910133362,-8297.73046875,-17090.609375,-2774.10009765625,-400000.0625,-400000.0625,-400000.0625,-400000.0625,-400000.0625
33.49582505226135,-8293.490234375,-17084.9296875,-2766.22998046875,-400000.0625,-400000.0625,-400000.0625,-400000.0625,-400000.0625
33.50527334213257,-8307.41015625,-17098.380859375,-2778.580078125,-400000.0625,-400000.0625,-400000.0625,-400000.0625,-400000.0625
33.51949334144592,-8313.419921875,-17101.0,-2787.780029296875,-400000.0625,-400000.0625,-400000.0625,-400000.0625,-400000.0625
33.53805351257324,-8310.3203125,-17098.330078125,-2784.300048828125,-400000.0625,-400000.0625,-400000.0625,-400000.0625,-400000.0625
33.55010795593262,-8301.400390625,-17091.3203125,-2773.6201171875,-400000.0625,-400000.0625,-400000.0625,-400000.0625,-400000.0625
33.56287670135498,-8296.2001953125,-17088.220703125,-2767.610107421875,-400000.0625,-400000.0625,-400000.0625,-400000.0625,-400000.0625
33.57467842102051,-8302.259765625,-17094.279296875,-2777.389892578125,-400000.0625,-400000.0625,-400000.0625,-400000.0625,-400000.0625
33.58985352516174,-8306.7001953125,-17096.0,-2784.820068359375,-400000.0625,-400000.0625,-400000.0625,-400000.0625,-400000.0625
33.60353350639343,-8307.169921875,-17101.669921875,-2785.02001953125,-400000.0625,-400000.0625,-400000.0625,-400000.0625,-400000.0625
33.61988282203674,-8298.830078125,-17093.51953125,-2774.330078125,-400000.0625,-400000.0625,-400000.0625,-400000.0625,-400000.0625
33.63622283935547,-8290.7197265625,-17083.26953125,-2762.320068359375,-400000.0625,-400000.0625,-400000.0625,-400000.0625,-400000.0625
33.65108609199524,-8298.16015625,-17089.80078125,-2769.0400390625,-400000.0625,-400000.0625,-400000.0625,-400000.0625,-400000.0625
33.66262722015381,-8309.7001953125,-17096.140625,-2781.199951171875,-400000.0625,-400000.0625,-400000.0625,-400000.0625,-400000.0625
33.676748514175415,-8306.26953125,-17099.0,-2779.6298828125,-400000.0625,-400000.0625,-400000.0625,-400000.0625,-400000.0625
33.689480781555176,-8300.8798828125,-17096.189453125,-2774.909912109375,-400000.0625,-400000.0625,-400000.0625,-400000.0625,-400000.0625
33.704591035842896,-8294.580078125,-17095.51953125,-2771.139892578125,-400000.0625,-400000.0625,-400000.0625,-400000.0625,-400000.0625
33.71778416633606,-8302.5498046875,-17097.810546875,-2774.719970703125,-400000.0625,-400000.0625,-400000.0625,-400000.0625,-400000.0625
33.73587226867676,-8311.4599609375,-17096.380859375,-2780.43994140625,-400000.0625,-400000.0625,-400000.0625,-400000.0625,-400000.0625
33.7517204284668,-8310.990234375,-17098.099609375,-2779.25,-400000.0625,-400000.0625,-400000.0625,-400000.0625,-400000.0625
33.7662239074707,-8300.259765625,-17093.759765625,-2770.139892578125,-400000.0625,-400000.0625,-400000.0625,-400000.0625,-400000.0625
33.77495098114014,-8293.2001953125,-17091.23046875,-2766.090087890625,-400000.0625,-400000.0625,-400000.0625,-400000.0625,-400000.0625
33.79080629348755,-8298.6396484375,-17093.990234375,-2770.949951171875,-400000.0625,-400000.0625,-400000.0625,-400000.0625,-400000.0625
33.80184555053711,-8302.6904296875,-17099.189453125,-2780.909912109375,-400000.0625,-400000.0625,-400000.0625,-400000.0625,-400000.0625
33.81599521636963,-8298.1103515625,-17096.759765625,-2779.9599609375,-400000.0625,-400000.0625,-400000.0625,-400000.0625,-400000.0625
33.836297035217285,-8289.0498046875,-17094.08984375,-2773.949951171875,-400000.0625,-400000.0625,-400000.0625,-400000.0625,-400000.0625
33.84625482559204,-8284.4697265625,-17086.599609375,-2765.610107421875,-400000.0625,-400000.0625,-400000.0625,-400000.0625,-400000.0625
33.85913681983948,-8286.1904296875,-17087.41015625,-2769.52001953125,-400000.0625,-400000.0625,-400000.0625,-400000.0625,-400000.0625
33.8689329624176,-8296.73046875,-17099.330078125,-2782.199951171875,-400000.0625,-400000.0625,-400000.0625,-400000.0625,-400000.0625
33.88197422027588,-8294.6298828125,-17101.91015625,-2784.6298828125,-400000.0625,-400000.0625,-400000.0625,-400000.0625,-400000.0625
33.8947434425354,-8286.0,-17092.609375,-2775.3798828125,-400000.0625,-400000.0625,-400000.0625,-400000.0625,-400000.0625
33.910202980041504,-8282.1396484375,-17091.3203125,-2773.239990234375,-400000.0625,-400000.0625,-400000.0625,-400000.0625,-400000.0625
33.92292356491089,-8288.4296875,-17098.099609375,-2781.72998046875,-400000.0625,-400000.0625,-400000.0625,-400000.0625,-400000.0625
33.94158482551575,-8296.2998046875,-17098.94921875,-2784.010009765625,-400000.0625,-400000.0625,-400000.0625,-400000.0625,-400000.0625
33.95362997055054,-8296.0595703125,-17099.94921875,-2786.969970703125,-400000.0625,-400000.0625,-400000.0625,-400000.0625,-400000.0625
33.966044664382935,-8287.0,-17096.240234375,-2782.110107421875,-400000.0625,-400000.0625,-400000.0625,-400000.0625,-400000.0625
33.97526240348816,-8285.330078125,-17094.900390625,-2778.860107421875,-400000.0625,-400000.0625,-400000.0625,-400000.0625,-400000.0625
33.98801589012146,-8288.7197265625,-17091.609375,-2783.489990234375,-400000.0625,-400000.0625,-400000.0625,-400000.0625,-400000.0625
33.997212409973145,-8295.349609375,-17096.0,-2787.68994140625,-400000.0625,-400000.0625,-400000.0625,-400000.0625,-400000.0625
34.00916361808777,-8292.580078125,-17097.859375,-2786.590087890625,-400000.0625,-400000.0625,-400000.0625,-400000.0625,-400000.0625
34.01756262779236,-8283.849609375,-17092.66015625,-2780.06005859375,-400000.0625,-400000.0625,-400000.0625,-400000.0625,-400000.0625
34.02505445480347,-8280.419921875,-17100.2890625,-2776.9599609375,-400000.0625,-400000.0625,-400000.0625,-400000.0625,-400000.0625
34.0433075428009,-8291.099609375,-17101.0,-2783.820068359375,-400000.0625,-400000.0625,-400000.0625,-400000.0625,-400000.0625
34.059460163116455,-8300.3095703125,-17088.69921875,-2780.340087890625,-400000.0625,-400000.0625,-400000.0625,-400000.0625,-400000.0625
34.070006370544434,-8308.7001953125,-17068.9609375,-2773.52001953125,-400000.0625,-400000.0625,-400000.0625,-400000.0625,-400000.0625
34.08192467689514,-8310.4599609375,-17058.5703125,-2761.699951171875,-400000.0625,-400000.0625,-400000.0625,-400000.0625,-400000.0625
34.09390950202942,-8306.080078125,-17050.220703125,-2746.010009765625,-400000.0625,-400000.0625,-400000.0625,-400000.0625,-400000.0625
34.10481095314026,-8317.1396484375,-17041.16015625,-2739.47998046875,-400000.0625,-400000.0625,-400000.0625,-400000.0625,-400000.0625
34.11537146568298,-8334.919921875,-17044.16015625,-2744.47998046875,-400000.0625,-400000.0625,-400000.0625,-400000.0625,-400000.0625
34.129329442977905,-8340.169921875,-17039.439453125,-2740.050048828125,-400000.0625,-400000.0625,-400000.0625,-400000.0625,-400000.0625
34.1488835811615,-8338.1201171875,-17020.75,-2729.27001953125,-400000.0625,-400000.0625,-400000.0625,-400000.0625,-400000.0625
34.158467054367065,-8336.830078125,-17006.01953125,-2716.639892578125,-400000.0625,-400000.0625,-400000.0625,-400000.0625,-400000.0625
34.17438578605652,-8344.1298828125,-17016.26953125,-2721.929931640625,-400000.0625,-400000.0625,-400000.0625,-400000.0625,-400000.0625
34.18648147583008,-8350.0400390625,-17022.1796875,-2729.030029296875,-400000.0625,-400000.0625,-400000.0625,-400000.0625,-400000.0625
34.1955623626709,-8347.23046875,-17015.3203125,-2722.449951171875,-400000.0625,-400000.0625,-400000.0625,-400000.0625,-400000.0625
34.210235595703125,-8334.349609375,-17007.310546875,-2710.14990234375,-400000.0625,-400000.0625,-400000.0625,-400000.0625,-400000.0625
34.2205126285553,-8328.76953125,-17009.55078125,-2705.2900390625,-400000.0625,-400000.0625,-400000.0625,-400000.0625,-400000.0625
34.23878812789917,-8343.080078125,-17019.130859375,-2716.39990234375,-400000.0625,-400000.0625,-400000.0625,-400000.0625,-400000.0625
34.252095460891724,-8348.900390625,-17026.4296875,-2722.840087890625,-400000.0625,-400000.0625,-400000.0625,-400000.0625,-400000.0625
34.262349367141724,-8345.5595703125,-17020.369140625,-2720.070068359375,-400000.0625,-400000.0625,-400000.0625,-400000.0625,-400000.0625
34.273885011672974,-8342.5498046875,-17016.41015625,-2713.8701171875,-400000.0625,-400000.0625,-400000.0625,-400000.0625,-400000.0625
34.28540587425232,-8338.830078125,-17016.26953125,-2710.14990234375,-400000.0625,-400000.0625,-400000.0625,-400000.0625,-400000.0625
34.29939579963684,-8349.3701171875,-17017.890625,-2713.159912109375,-400000.0625,-400000.0625,-400000.0625,-400000.0625,-400000.0625
34.30915117263794,-8356.759765625,-17019.369140625,-2716.159912109375,-400000.0625,-400000.0625,-400000.0625,-400000.0625,-400000.0625
34.323217153549194,-8351.990234375,-17018.83984375,-2713.969970703125,-400000.0625,-400000.0625,-400000.0625,-400000.0625,-400000.0625
34.34115147590637,-8341.0302734375,-17009.880859375,-2706.530029296875,-400000.0625,-400000.0625,-400000.0625,-400000.0625,-400000.0625
34.35107064247131,-8333.919921875,-17011.9296875,-2703.2900390625,-400000.0625,-400000.0625,-400000.0625,-400000.0625,-400000.0625
34.362876415252686,-8346.6103515625,-17017.1796875,-2708.669921875,-400000.0625,-400000.0625,-400000.0625,-400000.0625,-400000.0625
34.37563991546631,-8354.08984375,-17023.759765625,-2720.02001953125,-400000.0625,-400000.0625,-400000.0625,-400000.0625,-400000.0625
34.384385108947754,-8348.900390625,-17014.69921875,-2711.72998046875,-400000.0625,-400000.0625,-400000.0625,-400000.0625,-400000.0625
34.39665722846985,-8335.1103515625,-17007.689453125,-2703.7099609375,-400000.0625,-400000.0625,-400000.0625,-400000.0625,-400000.0625
34.40521049499512,-8334.9697265625,-17008.9296875,-2703.330078125,-400000.0625,-400000.0625,-400000.0625,-400000.0625,-400000.0625
34.41734290122986,-8342.3095703125,-17014.55078125,-2711.340087890625,-400000.0625,-400000.0625,-400000.0625,-400000.0625,-400000.0625
34.426241636276245,-8346.509765625,-17018.26953125,-2713.35009765625,-400000.0625,-400000.0625,-400000.0625,-400000.0625,-400000.0625
34.44636654853821,-8346.4599609375,-17012.880859375,-2708.669921875,-400000.0625,-400000.0625,-400000.0625,-400000.0625,-400000.0625
34.46048593521118,-8337.7802734375,-17006.919921875,-2701.469970703125,-400000.0625,-400000.0625,-400000.0625,-400000.0625,-400000.0625
34.471999645233154,-8329.490234375,-16997.19921875,-2693.219970703125,-400000.0625,-400000.0625,-400000.0625,-400000.0625,-400000.0625
34.481096506118774,-8341.7900390625,-17006.830078125,-2706.14990234375,-400000.0625,-400000.0625,-400000.0625,-400000.0625,-400000.0625
34.49453663825989,-8346.2197265625,-17010.259765625,-2717.070068359375,-400000.0625,-400000.0625,-400000.0625,-400000.0625,-400000.0625
34.504642486572266,-8344.599609375,-17008.830078125,-2713.969970703125,-400000.0625,-400000.0625,-400000.0625,-400000.0625,-400000.0625
34.51616406440735,-8339.1201171875,-17009.5,-2706.239990234375,-400000.0625,-400000.0625,-400000.0625,-400000.0625,-400000.0625
34.52553367614746,-8331.9697265625,-17006.44921875,-2700.419921875,-400000.0625,-400000.0625,-400000.0625,-400000.0625,-400000.0625
34.54718041419983,-8330.16015625,-16957.189453125,-2745.43994140625,-400000.0625,-400000.0625,-400000.0625,-400000.0625,-400000.0625
34.69010806083679,-8299.2998046875,-16959.720703125,-2749.010009765625,-400000.0625,-400000.0625,-400000.0625,-400000.0625,-400000.0625
34.72138428688049,-8308.650390625,-16964.009765625,-2755.260009765625,-400000.0625,-400000.0625,-400000.0625,-400000.0625,-400000.0625
