time,ch1,ch2,ch3,ch4,ch5,ch6,ch7,ch8
227.28061723709106,-16061.5498046875,-15070.1103515625,-23627.5703125,-400000.0625,-11221.1201171875,-400000.0625,-400000.0625,-400000.0625
227.39405155181885,-15584.7998046875,-14586.3095703125,-23146.490234375,-400000.0625,-11095.1396484375,-400000.0625,-400000.0625,-400000.0625
227.4958906173706,-15559.099609375,-14553.98046875,-23118.58984375,-400000.0625,-10967.830078125,-400000.0625,-400000.0625,-400000.0625
227.6030604839325,-16036.4599609375,-15033.009765625,-23595.4296875,-400000.0625,-10998.6796875,-400000.0625,-400000.0625,-400000.0625
227.6840536594391,-16348.169921875,-15354.4404296875,-23910.619140625,-400000.0625,-11170.099609375,-400000.0625,-400000.0625,-400000.0625
227.7371985912323,-16067.5498046875,-15086.9404296875,-23633.48046875,-400000.0625,-11255.7900390625,-400000.0625,-400000.0625,-400000.0625
227.8363847732544,-15595.9599609375,-14609.0498046875,-23156.9296875,-400000.0625,-11124.7099609375,-400000.0625,-400000.0625,-400000.0625
227.8899142742157,-15569.349609375,-14555.8896484375,-23113.400390625,-400000.0625,-10942.3203125,-400000.0625,-400000.0625,-400000.0625
228.00574922561646,-16042.5703125,-15013.8896484375,-23573.58984375,-400000.0625,-10968.6904296875,-400000.0625,-400000.0625,-400000.0625
228.1092610359192,-16351.7998046875,-15315.6298828125,-23867.7109375,-400000.0625,-11142.73046875,-400000.0625,-400000.0625,-400000.0625
228.23067927360535,-16095.400390625,-15046.2197265625,-23595.4296875,-400000.0625,-11205.25,-400000.0625,-400000.0625,-400000.0625
228.33227109909058,-15632.2998046875,-14566.08984375,-23112.490234375,-400000.0625,-11043.98046875,-400000.0625,-400000.0625,-400000.0625
228.48628520965576,-15608.0302734375,-14519.9296875,-23064.849609375,-400000.0625,-10884.099609375,-400000.0625,-400000.0625,-400000.0625
228.6196687221527,-16090.4404296875,-14995.76953125,-23538.970703125,-400000.0625,-10962.4404296875,-400000.0625,-400000.0625,-400000.0625
228.72979259490967,-16420.369140625,-15318.349609375,-23856.119140625,-400000.0625,-11171.0595703125,-400000.0625,-400000.0625,-400000.0625
228.8453187942505,-16149.8095703125,-15039.7802734375,-23570.73046875,-400000.0625,-11234.0,-400000.0625,-400000.0625,-400000.0625
228.94980835914612,-15658.6201171875,-14539.33984375,-23073.2890625,-400000.0625,-11143.0703125,-400000.0625,-400000.0625,-400000.0625
229.10453987121582,-15624.8603515625,-14500.1396484375,-23039.060546875,-400000.0625,-10994.2900390625,-400000.0625,-400000.0625,-400000.0625
229.2170126438141,-16108.2802734375,-14994.4296875,-23530.529296875,-400000.0625,-10999.73046875,-400000.0625,-400000.0625,-400000.0625
229.36523699760437,-16425.80078125,-15323.740234375,-23851.58984375,-400000.0625,-11183.5498046875,-400000.0625,-400000.0625,-400000.0625
229.53119802474976,-16146.2802734375,-15041.400390625,-23570.640625,-400000.0625,-11290.5,-400000.0625,-400000.0625,-400000.0625
229.62605714797974,-15661.150390625,-14546.58984375,-23077.919921875,-400000.0625,-11180.740234375,-400000.0625,-400000.0625,-400000.0625
229.7004430294037,-15623.3798828125,-14510.2001953125,-23043.58984375,-400000.0625,-11005.0703125,-400000.0625,-400000.0625,-400000.0625
229.8161597251892,-16108.2802734375,-14998.009765625,-23527.720703125,-400000.0625,-11015.7001953125,-400000.0625,-400000.0625,-400000.0625
229.91287350654602,-16427.759765625,-15322.349609375,-23847.580078125,-400000.0625,-11183.5498046875,-400000.0625,-400000.0625,-400000.0625
229.94911861419678,-16152.0,-15042.16015625,-23566.919921875,-400000.0625,-11268.2802734375,-400000.0625,-400000.0625,-400000.0625
230.0542938709259,-15668.2001953125,-14552.0703125,-23078.400390625,-400000.0625,-11161.6103515625,-400000.0625,-400000.0625,-400000.0625
230.17661714553833,-15627.0,-14510.009765625,-23036.390625,-400000.0625,-10997.25,-400000.0625,-400000.0625,-400000.0625
230.30678033828735,-16106.990234375,-14996.8203125,-23519.330078125,-400000.0625,-11004.3095703125,-400000.0625,-400000.0625,-400000.0625
230.4271776676178,-16430.240234375,-15317.5400390625,-23840.619140625,-400000.0625,-11177.349609375,-400000.0625,-400000.0625,-400000.0625
230.55641651153564,-16156.3896484375,-15043.6396484375,-23568.109375,-400000.0625,-11258.7900390625,-400000.0625,-400000.0625,-400000.0625
230.70644426345825,-15668.73046875,-14551.400390625,-23076.630859375,-400000.0625,-11135.91015625,-400000.0625,-400000.0625,-400000.0625
230.8373954296112,-15625.5302734375,-14507.099609375,-23035.099609375,-400000.0625,-10968.16015625,-400000.0625,-400000.0625,-400000.0625
230.94736337661743,-16100.6904296875,-14989.51953125,-23514.0390625,-400000.0625,-10999.73046875,-400000.0625,-400000.0625,-400000.0625
231.05065536499023,-16422.23046875,-15322.6904296875,-23843.150390625,-400000.0625,-11179.259765625,-400000.0625,-400000.0625,-400000.0625
231.17054176330566,-16150.6201171875,-15045.5,-23567.30078125,-400000.0625,-11235.8095703125,-400000.0625,-400000.0625,-400000.0625
231.3008270263672,-15666.25,-14547.6796875,-23072.05078125,-400000.0625,-11110.9697265625,-400000.0625,-400000.0625,-400000.0625
231.46961545944214,-15621.3798828125,-14502.099609375,-23028.330078125,-400000.0625,-10949.990234375,-400000.0625,-400000.0625,-400000.0625
231.60899949073792,-16100.41015625,-14987.1796875,-23511.560546875,-400000.0625,-10983.6103515625,-400000.0625,-400000.0625,-400000.0625
231.73955869674683,-16420.220703125,-15315.33984375,-23835.189453125,-400000.0625,-11167.48046875,-400000.0625,-400000.0625,-400000.0625
231.86790418624878,-16153.0,-15045.6904296875,-23567.060546875,-400000.0625,-11202.8603515625,-400000.0625,-400000.0625,-400000.0625
232.02975916862488,-15662.9599609375,-14548.919921875,-23071.9609375,-400000.0625,-11050.0302734375,-400000.0625,-400000.0625,-400000.0625
232.1471381187439,-15613.8896484375,-14498.4296875,-23024.66015625,-400000.0625,-10929.7802734375,-400000.0625,-400000.0625,-400000.0625
232.28392958641052,-16088.2998046875,-14982.9404296875,-23506.830078125,-400000.0625,-10988.0498046875,-400000.0625,-400000.0625,-400000.0625
232.51540541648865,-16421.369140625,-15318.6796875,-23839.2890625,-400000.0625,-11162.66015625,-400000.0625,-400000.0625,-400000.0625
232.64688801765442,-16154.91015625,-15048.3603515625,-23571.30078125,-400000.0625,-11205.150390625,-400000.0625,-400000.0625,-400000.0625
232.7610800266266,-15664.76953125,-14557.41015625,-23079.640625,-400000.0625,-11032.4404296875,-400000.0625,-400000.0625,-400000.0625
232.83801007270813,-15615.419921875,-14501.9501953125,-23027.0390625,-400000.0625,-10877.23046875,-400000.0625,-400000.0625,-400000.0625
232.89489316940308,-16092.830078125,-14976.83984375,-23504.119140625,-400000.0625,-10954.51953125,-400000.0625,-400000.0625,-400000.0625
233.0303192138672,-16411.740234375,-15311.9599609375,-23833.51953125,-400000.0625,-11162.1396484375,-400000.0625,-400000.0625,-400000.0625
233.17905926704407,-16151.240234375,-15048.98046875,-23570.25,-400000.0625,-11180.5498046875,-400000.0625,-400000.0625,-400000.0625
233.25353622436523,-15661.7197265625,-14554.0703125,-23076.970703125,-400000.0625,-10986.1904296875,-400000.0625,-400000.0625,-400000.0625
233.33932042121887,-15611.2197265625,-14498.6201171875,-23025.369140625,-400000.0625,-10822.0595703125,-400000.0625,-400000.0625,-400000.0625
233.42065000534058,-16084.0498046875,-14978.080078125,-23501.58984375,-400000.0625,-10934.2099609375,-400000.0625,-400000.0625,-400000.0625
233.45540809631348,-16410.830078125,-15311.6201171875,-23831.69921875,-400000.0625,-11153.990234375,-400000.0625,-400000.0625,-400000.0625
233.52397203445435,-16157.2998046875,-15058.51953125,-23573.9296875,-400000.0625,-11147.98046875,-400000.0625,-400000.0625,-400000.0625
233.60337138175964,-15680.1201171875,-14573.580078125,-23086.4609375,-400000.0625,-10907.26953125,-400000.0625,-400000.0625,-400000.0625
233.65832614898682,-15626.6201171875,-14497.7099609375,-23022.75,-400000.0625,-10730.7001953125,-400000.0625,-400000.0625,-400000.0625
233.68758177757263,-16099.98046875,-14958.8603515625,-23483.470703125,-400000.0625,-10892.009765625,-400000.0625,-400000.0625,-400000.0625
233.7271294593811,-16441.439453125,-15303.3798828125,-23814.5390625,-400000.0625,-11153.7900390625,-400000.0625,-400000.0625,-400000.0625
233.79313015937805,-16196.4404296875,-15038.6796875,-23552.900390625,-400000.0625,-11130.5302734375,-400000.0625,-400000.0625,-400000.0625
233.86549592018127,-15709.5498046875,-14536.0498046875,-23050.83984375,-400000.0625,-10872.650390625,-400000.0625,-400000.0625,-400000.0625
233.925151348114,-15651.2802734375,-14478.490234375,-22984.83984375,-400000.0625,-10740.3798828125,-400000.0625,-400000.0625,-400000.0625
233.94663071632385,-16123.33984375,-14943.080078125,-23446.1796875,-400000.0625,-10903.6904296875,-400000.0625,-400000.0625,-400000.0625
233.97115755081177,-16461.7109375,-15278.8701171875,-23776.869140625,-400000.0625,-11148.740234375,-400000.0625,-400000.0625,-400000.0625
234.03114461898804,-16207.3203125,-15020.7998046875,-23520.66015625,-400000.0625,-11131.3798828125,-400000.0625,-400000.0625,-400000.0625
234.0696074962616,-15717.509765625,-14526.4599609375,-23026.51953125,-400000.0625,-10857.5400390625,-400000.0625,-400000.0625,-400000.0625
234.1514241695404,-15657.9501953125,-14461.08984375,-22962.94921875,-400000.0625,-10706.8603515625,-400000.0625,-400000.0625,-400000.0625
234.23092031478882,-16128.9697265625,-14940.9296875,-23440.359375,-400000.0625,-10891.7197265625,-400000.0625,-400000.0625,-400000.0625
234.2844078540802,-16465.240234375,-15284.830078125,-23779.109375,-400000.0625,-11155.9404296875,-400000.0625,-400000.0625,-400000.0625
234.33531761169434,-16212.509765625,-15028.6201171875,-23521.94921875,-400000.0625,-11162.08984375,-400000.0625,-400000.0625,-400000.0625
234.36181926727295,-15722.1298828125,-14529.7998046875,-23026.1796875,-400000.0625,-10953.1396484375,-400000.0625,-400000.0625,-400000.0625
234.4051694869995,-15665.2001953125,-14471.48046875,-22967.529296875,-400000.0625,-10800.8896484375,-400000.0625,-400000.0625,-400000.0625
234.46413445472717,-16131.9296875,-14939.4501953125,-23435.640625,-400000.0625,-10919.240234375,-400000.0625,-400000.0625,-400000.0625
234.49450373649597,-16462.66015625,-15281.73046875,-23773.859375,-400000.0625,-11145.6396484375,-400000.0625,-400000.0625,-400000.0625
234.53121972084045,-16216.4697265625,-15034.73046875,-23527.099609375,-400000.0625,-11083.5595703125,-400000.0625,-400000.0625,-400000.0625
234.58905172348022,-15734.009765625,-14540.3896484375,-23033.189453125,-400000.0625,-10766.4599609375,-400000.0625,-400000.0625,-400000.0625
234.63272762298584,-15659.0498046875,-14464.240234375,-22958.419921875,-400000.0625,-10624.4599609375,-400000.0625,-400000.0625,-400000.0625
234.69572734832764,-16125.2998046875,-14934.349609375,-23427.970703125,-400000.0625,-10868.8798828125,-400000.0625,-400000.0625,-400000.0625
234.74443531036377,-16462.609375,-15277.8203125,-23771.0,-400000.0625,-11142.58984375,-400000.0625,-400000.0625,-400000.0625
234.8120813369751,-16212.849609375,-15031.4296875,-23522.08984375,-400000.0625,-11091.3798828125,-400000.0625,-400000.0625,-400000.0625
234.85198712348938,-15727.1396484375,-14539.669921875,-23032.05078125,-400000.0625,-10804.3203125,-400000.0625,-400000.0625,-400000.0625
234.9080970287323,-15657.669921875,-14459.330078125,-22955.470703125,-400000.0625,-10670.7099609375,-400000.0625,-400000.0625,-400000.0625
234.93996858596802,-16117.76953125,-14922.759765625,-23420.529296875,-400000.0625,-10876.7998046875,-400000.0625,-400000.0625,-400000.0625
234.96456265449524,-16458.080078125,-15273.91015625,-23767.810546875,-400000.0625,-11138.2998046875,-400000.0625,-400000.0625,-400000.0625
235.01481342315674,-16214.7998046875,-15028.0498046875,-23522.189453125,-400000.0625,-11118.9404296875,-400000.0625,-400000.0625,-400000.0625
235.04116892814636,-15731.33984375,-14540.7197265625,-23033.619140625,-400000.0625,-10836.5498046875,-400000.0625,-400000.0625,-400000.0625
235.06471347808838,-15659.330078125,-14467.48046875,-22963.099609375,-400000.0625,-10697.1796875,-400000.0625,-400000.0625,-400000.0625
235.10580968856812,-16120.240234375,-14935.0703125,-23427.5390625,-400000.0625,-10892.73046875,-400000.0625,-400000.0625,-400000.0625
235.1366536617279,-16461.23046875,-15279.490234375,-23771.099609375,-400000.0625,-11148.740234375,-400000.0625,-400000.0625,-400000.0625
235.1627025604248,-16216.759765625,-15032.099609375,-23524.240234375,-400000.0625,-11109.9296875,-400000.0625,-400000.0625,-400000.0625
235.18640446662903,-15723.4697265625,-14538.8603515625,-23030.08984375,-400000.0625,-10838.4599609375,-400000.0625,-400000.0625,-400000.0625
235.23656916618347,-15654.849609375,-14467.150390625,-22958.94921875,-400000.0625,-10702.6103515625,-400000.0625,-400000.0625,-400000.0625
235.25903606414795,-16116.1904296875,-14933.400390625,-23424.91015625,-400000.0625,-10884.330078125,-400000.0625,-400000.0625,-400000.0625
235.28221082687378,-16458.609375,-15280.150390625,-23769.720703125,-400000.0625,-11144.4501953125,-400000.0625,-400000.0625,-400000.0625
235.30588841438293,-16210.75,-15035.490234375,-23523.4296875,-400000.0625,-11115.7900390625,-400000.0625,-400000.0625,-400000.0625
235.35487270355225,-15726.1396484375,-14546.009765625,-23036.05078125,-400000.0625,-10844.08984375,-400000.0625,-400000.0625,-400000.0625
235.38251757621765,-15661.0498046875,-14469.009765625,-22963.720703125,-400000.0625,-10707.8603515625,-400000.0625,-400000.0625,-400000.0625
235.40845680236816,-16120.8203125,-14936.6904296875,-23430.919921875,-400000.0625,-10891.25,-400000.0625,-400000.0625,-400000.0625
235.45320796966553,-16460.66015625,-15285.9697265625,-23778.060546875,-400000.0625,-11145.4501953125,-400000.0625,-400000.0625,-400000.0625
235.47840857505798,-16222.2900390625,-15043.0703125,-23530.439453125,-400000.0625,-11112.3095703125,-400000.0625,-400000.0625,-400000.0625
235.50364446640015,-15731.0498046875,-14539.7197265625,-23031.189453125,-400000.0625,-10819.8701171875,-400000.0625,-400000.0625,-400000.0625
235.53106880187988,-15655.9501953125,-14466.3798828125,-22958.51953125,-400000.0625,-10678.580078125,-400000.0625,-400000.0625,-400000.0625
235.57622265815735,-16116.8603515625,-14931.3896484375,-23423.720703125,-400000.0625,-10877.419921875,-400000.0625,-400000.0625,-400000.0625
235.59872817993164,-16455.130859375,-15276.76953125,-23768.94921875,-400000.0625,-11134.580078125,-400000.0625,-400000.0625,-400000.0625
235.627028465271,-16217.23046875,-15039.1103515625,-23525.099609375,-400000.0625,-11112.01953125,-400000.0625,-400000.0625,-400000.0625
235.6548662185669,-15731.8603515625,-14544.6796875,-23032.5703125,-400000.0625,-10851.099609375,-400000.0625,-400000.0625,-400000.0625
235.6959149837494,-15653.1796875,-14464.900390625,-22958.810546875,-400000.0625,-10703.419921875,-400000.0625,-400000.0625,-400000.0625
235.71695518493652,-16114.330078125,-14929.8701171875,-23419.810546875,-400000.0625,-10884.6201171875,-400000.0625,-400000.0625,-400000.0625
235.7487518787384,-16455.080078125,-15273.8603515625,-23760.890625,-400000.0625,-11136.6298828125,-400000.0625,-400000.0625,-400000.0625
235.77253437042236,-16213.509765625,-15034.5302734375,-23522.08984375,-400000.0625,-11117.3603515625,-400000.0625,-400000.0625,-400000.0625
235.81871962547302,-15727.08984375,-14539.5302734375,-23028.66015625,-400000.0625,-10844.51953125,-400000.0625,-400000.0625,-400000.0625
235.8510446548462,-15652.3203125,-14459.419921875,-22952.369140625,-400000.0625,-10693.98046875,-400000.0625,-400000.0625,-400000.0625
235.87583136558533,-16107.990234375,-14927.009765625,-23415.279296875,-400000.0625,-10876.900390625,-400000.0625,-400000.0625,-400000.0625
235.9207854270935,-16450.740234375,-15278.150390625,-23765.759765625,-400000.0625,-11140.6298828125,-400000.0625,-400000.0625,-400000.0625
235.9763560295105,-16210.1796875,-15039.8701171875,-23525.76953125,-400000.0625,-11110.400390625,-400000.0625,-400000.0625,-400000.0625
236.04909873008728,-15727.1396484375,-14545.3896484375,-23032.2890625,-400000.0625,-10825.490234375,-400000.0625,-400000.0625,-400000.0625
236.08080434799194,-15649.9404296875,-14462.0400390625,-22952.609375,-400000.0625,-10684.6298828125,-400000.0625,-400000.0625,-400000.0625
236.15988063812256,-16109.419921875,-14930.919921875,-23418.619140625,-400000.0625,-10877.7099609375,-400000.0625,-400000.0625,-400000.0625
236.2075057029724,-16459.7109375,-15283.919921875,-23768.7109375,-400000.0625,-11134.7197265625,-400000.0625,-400000.0625,-400000.0625
236.31332421302795,-16226.150390625,-15054.6103515625,-23533.630859375,-400000.0625,-11097.3798828125,-400000.0625,-400000.0625,-400000.0625
236.38241744041443,-15738.7802734375,-14545.58984375,-23031.810546875,-400000.0625,-10795.400390625,-400000.0625,-400000.0625,-400000.0625
236.41518378257751,-15657.9501953125,-14450.26953125,-22942.640625,-400000.0625,-10641.3896484375,-400000.0625,-400000.0625,-400000.0625
236.50998425483704,-16116.7197265625,-14913.23046875,-23400.400390625,-400000.0625,-10852.8203125,-400000.0625,-400000.0625,-400000.0625
236.5810568332672,-16460.900390625,-15265.2802734375,-23747.400390625,-400000.0625,-11127.7099609375,-400000.0625,-400000.0625,-400000.0625
236.6652913093567,-16229.150390625,-15028.5302734375,-23507.98046875,-400000.0625,-11087.990234375,-400000.0625,-400000.0625,-400000.0625
236.71297359466553,-15748.3095703125,-14531.419921875,-23010.73046875,-400000.0625,-10807.7099609375,-400000.0625,-400000.0625,-400000.0625
236.8000204563141,-15668.73046875,-14443.73046875,-22924.279296875,-400000.0625,-10665.509765625,-400000.0625,-400000.0625,-400000.0625
236.85806965827942,-16125.6796875,-14901.259765625,-23381.7109375,-400000.0625,-10873.990234375,-400000.0625,-400000.0625,-400000.0625
236.92685103416443,-16471.9609375,-15250.400390625,-23727.849609375,-400000.0625,-11133.8203125,-400000.0625,-400000.0625,-400000.0625
236.97558450698853,-16239.0302734375,-15014.7900390625,-23492.859375,-400000.0625,-11102.1103515625,-400000.0625,-400000.0625,-400000.0625
237.05876111984253,-15749.0703125,-14518.9296875,-22998.91015625,-400000.0625,-10826.16015625,-400000.0625,-400000.0625,-400000.0625
237.10750007629395,-15672.6904296875,-14442.490234375,-22926.2890625,-400000.0625,-10689.3095703125,-400000.0625,-400000.0625,-400000.0625
237.18585181236267,-16128.7802734375,-14905.41015625,-23386.810546875,-400000.0625,-10877.4697265625,-400000.0625,-400000.0625,-400000.0625
237.2248249053955,-16472.439453125,-15263.1796875,-23736.91015625,-400000.0625,-11135.0498046875,-400000.0625,-400000.0625,-400000.0625
237.2953279018402,-16245.0302734375,-15026.1904296875,-23503.400390625,-400000.0625,-11111.2099609375,-400000.0625,-400000.0625,-400000.0625
237.32791233062744,-15755.1796875,-14532.1396484375,-23008.400390625,-400000.0625,-10827.4501953125,-400000.0625,-400000.0625,-400000.0625
237.3858766555786,-15671.1103515625,-14447.3603515625,-22922.330078125,-400000.0625,-10668.990234375,-400000.0625,-400000.0625,-400000.0625
237.41765189170837,-16124.76953125,-14900.0703125,-23376.900390625,-400000.0625,-10867.6396484375,-400000.0625,-400000.0625,-400000.0625
237.4527199268341,-16474.060546875,-15260.509765625,-23732.279296875,-400000.0625,-11136.33984375,-400000.0625,-400000.0625,-400000.0625
237.5125892162323,-16248.0400390625,-15030.91015625,-23500.25,-400000.0625,-11091.8095703125,-400000.0625,-400000.0625,-400000.0625
237.53712034225464,-15758.5595703125,-14534.330078125,-23005.439453125,-400000.0625,-10793.5400390625,-400000.0625,-400000.0625,-400000.0625
237.56500267982483,-15672.73046875,-14448.6904296875,-22921.66015625,-400000.0625,-10660.5498046875,-400000.0625,-400000.0625,-400000.0625
237.61433601379395,-16134.169921875,-14905.169921875,-23384.859375,-400000.0625,-10871.0302734375,-400000.0625,-400000.0625,-400000.0625
237.6366777420044,-16483.01953125,-15267.23046875,-23740.009765625,-400000.0625,-11142.2998046875,-400000.0625,-400000.0625,-400000.0625
237.66150879859924,-16247.0400390625,-15031.4296875,-23504.689453125,-400000.0625,-11089.6103515625,-400000.0625,-400000.0625,-400000.0625
237.69584202766418,-15754.83984375,-14528.0400390625,-23003.8203125,-400000.0625,-10777.8095703125,-400000.0625,-400000.0625,-400000.0625
237.77384281158447,-15663.240234375,-14437.9599609375,-22911.5,-400000.0625,-10614.2998046875,-400000.0625,-400000.0625,-400000.0625
237.82585501670837,-16115.6201171875,-14893.7197265625,-23366.169921875,-400000.0625,-10846.9501953125,-400000.0625,-400000.0625,-400000.0625
237.93358969688416,-16470.859375,-15253.1201171875,-23724.83984375,-400000.0625,-11130.240234375,-400000.0625,-400000.0625,-400000.0625
238.04106760025024,-16247.1298828125,-15027.5703125,-23497.6796875,-400000.0625,-11070.7802734375,-400000.0625,-400000.0625,-400000.0625
238.1516191959381,-15759.5703125,-14530.419921875,-23001.9609375,-400000.0625,-10752.2998046875,-400000.0625,-400000.0625,-400000.0625
238.24790954589844,-15670.73046875,-14435.150390625,-22909.5,-400000.0625,-10613.73046875,-400000.0625,-400000.0625,-400000.0625
238.30537247657776,-16125.6796875,-14895.1103515625,-23367.5,-400000.0625,-10849.5703125,-400000.0625,-400000.0625,-400000.0625
238.42529463768005,-16481.9296875,-15259.83984375,-23727.66015625,-400000.0625,-11133.48046875,-400000.0625,-400000.0625,-400000.0625
238.54668188095093,-16256.8603515625,-15034.580078125,-23501.109375,-400000.0625,-11085.4599609375,-400000.0625,-400000.0625,-400000.0625
238.6510043144226,-15760.5703125,-14533.9501953125,-23002.669921875,-400000.0625,-10780.5302734375,-400000.0625,-400000.0625,-400000.0625
238.77359557151794,-15667.73046875,-14435.009765625,-22906.0703125,-400000.0625,-10627.3701171875,-400000.0625,-400000.0625,-400000.0625
238.9099817276001,-16119.240234375,-14891.9599609375,-23360.060546875,-400000.0625,-10851.1904296875,-400000.0625,-400000.0625,-400000.0625
239.03455638885498,-16472.390625,-15253.6396484375,-23717.01953125,-400000.0625,-11129.1904296875,-400000.0625,-400000.0625,-400000.0625
239.17383980751038,-16249.51953125,-15026.51953125,-23491.05078125,-400000.0625,-11078.740234375,-400000.0625,-400000.0625,-400000.0625
239.3147828578949,-15755.66015625,-14529.330078125,-22993.51953125,-400000.0625,-10776.1396484375,-400000.0625,-400000.0625,-400000.0625
239.4432246685028,-15666.8203125,-14433.33984375,-22901.30078125,-400000.0625,-10637.5703125,-400000.0625,-400000.0625,-400000.0625
239.56910181045532,-16109.9501953125,-14882.0400390625,-23349.720703125,-400000.0625,-10851.669921875,-400000.0625,-400000.0625,-400000.0625
239.6979718208313,-16464.4296875,-15243.8701171875,-23705.25,-400000.0625,-11125.23046875,-400000.0625,-400000.0625,-400000.0625
239.8516983985901,-16251.419921875,-15028.0498046875,-23489.91015625,-400000.0625,-11098.48046875,-400000.0625,-400000.0625,-400000.0625
240.00461602210999,-15763.4296875,-14531.9501953125,-22996.380859375,-400000.0625,-10833.1201171875,-400000.0625,-400000.0625,-400000.0625
240.13918781280518,-15667.6298828125,-14436.8701171875,-22901.25,-400000.0625,-10693.650390625,-400000.0625,-400000.0625,-400000.0625
240.2726845741272,-16117.3798828125,-14893.3896484375,-23354.33984375,-400000.0625,-10875.75,-400000.0625,-400000.0625,-400000.0625
240.4159016609192,-16469.76953125,-15253.740234375,-23711.640625,-400000.0625,-11131.8095703125,-400000.0625,-400000.0625,-400000.0625
240.5447289943695,-16249.0400390625,-15025.900390625,-23489.5703125,-400000.0625,-11108.4501953125,-400000.0625,-400000.0625,-400000.0625
240.6744110584259,-15757.66015625,-14538.8603515625,-23006.490234375,-400000.0625,-10833.0703125,-400000.0625,-400000.0625,-400000.0625
240.80118465423584,-15650.0400390625,-14461.3798828125,-22926.189453125,-400000.0625,-10680.76953125,-400000.0625,-400000.0625,-400000.0625
240.98669862747192,-16091.2099609375,-14920.5703125,-23392.869140625,-400000.0625,-10872.2197265625,-400000.0625,-400000.0625,-400000.0625
241.1062319278717,-16449.880859375,-15283.2001953125,-23775.19921875,-400000.0625,-11150.1201171875,-400000.0625,-400000.0625,-400000.0625
241.24193358421326,-16214.1796875,-15064.150390625,-23568.630859375,-400000.0625,-11125.1396484375,-400000.0625,-400000.0625,-400000.0625
241.3709897994995,-15701.6796875,-14578.76953125,-23085.689453125,-400000.0625,-10846.4296875,-400000.0625,-400000.0625,-400000.0625
241.51203417778015,-15583.849609375,-14474.490234375,-23008.5390625,-400000.0625,-10691.740234375,-400000.0625,-400000.0625,-400000.0625
241.64800691604614,-16020.25,-14929.009765625,-23488.51953125,-400000.0625,-10878.3701171875,-400000.0625,-400000.0625,-400000.0625
241.78279328346252,-16361.0,-15305.6201171875,-23870.1796875,-400000.0625,-11147.3095703125,-400000.0625,-400000.0625,-400000.0625
241.90204215049744,-16122.3896484375,-15093.66015625,-23674.779296875,-400000.0625,-11129.1396484375,-400000.0625,-400000.0625,-400000.0625
242.03327441215515,-15602.5400390625,-14587.1201171875,-23192.9296875,-400000.0625,-10846.6201171875,-400000.0625,-400000.0625,-400000.0625
242.18196272850037,-15480.5703125,-14493.4697265625,-23109.060546875,-400000.0625,-10683.919921875,-400000.0625,-400000.0625,-400000.0625
242.31840348243713,-15915.919921875,-14960.3896484375,-23585.849609375,-400000.0625,-10876.9404296875,-400000.0625,-400000.0625,-400000.0625
242.43935084342957,-16261.9599609375,-15331.2197265625,-23975.380859375,-400000.0625,-11153.26953125,-400000.0625,-400000.0625,-400000.0625
242.57240772247314,-16016.4404296875,-15106.4404296875,-23770.05078125,-400000.0625,-11144.400390625,-400000.0625,-400000.0625,-400000.0625
242.72124814987183,-15495.73046875,-14606.0498046875,-23279.529296875,-400000.0625,-10881.900390625,-400000.0625,-400000.0625,-400000.0625
242.86878871917725,-15375.5703125,-14514.6396484375,-23199.560546875,-400000.0625,-10717.580078125,-400000.0625,-400000.0625,-400000.0625
243.01836490631104,-15814.9697265625,-14971.4501953125,-23675.01953125,-400000.0625,-10890.25,-400000.0625,-400000.0625,-400000.0625
243.1237108707428,-16159.0595703125,-15341.5703125,-24056.25,-400000.0625,-11156.0400390625,-400000.0625,-400000.0625,-400000.0625
243.1965880393982,-15923.599609375,-15125.3701171875,-23844.439453125,-400000.0625,-11151.599609375,-400000.0625,-400000.0625,-400000.0625
243.24571228027344,-15405.849609375,-14617.8701171875,-23348.0,-400000.0625,-10880.2802734375,-400000.0625,-400000.0625,-400000.0625
243.31041741371155,-15285.830078125,-14517.740234375,-23257.5390625,-400000.0625,-10720.8701171875,-400000.0625,-400000.0625,-400000.0625
243.4218237400055,-15731.1904296875,-14976.0703125,-23724.890625,-400000.0625,-10888.3896484375,-400000.0625,-400000.0625,-400000.0625
243.49042391777039,-16090.3896484375,-15342.51953125,-24094.869140625,-400000.0625,-11151.7001953125,-400000.0625,-400000.0625,-400000.0625
243.52729105949402,-15865.1396484375,-15122.75,-23872.240234375,-400000.0625,-11140.7802734375,-400000.0625,-400000.0625,-400000.0625
243.57730650901794,-15368.26953125,-14616.349609375,-23370.7890625,-400000.0625,-10879.7998046875,-400000.0625,-400000.0625,-400000.0625
243.60551142692566,-15270.0,-14510.7802734375,-23267.83984375,-400000.0625,-10719.6298828125,-400000.0625,-400000.0625,-400000.0625
243.67671275138855,-15719.8896484375,-14967.009765625,-23724.509765625,-400000.0625,-10889.4404296875,-400000.0625,-400000.0625,-400000.0625
243.73554253578186,-16082.240234375,-15337.990234375,-24089.2890625,-400000.0625,-11149.740234375,-400000.0625,-400000.0625,-400000.0625
243.76917052268982,-15864.0400390625,-15117.1201171875,-23870.609375,-400000.0625,-11137.1103515625,-400000.0625,-400000.0625,-400000.0625
243.8410952091217,-15367.6103515625,-14612.5302734375,-23369.69921875,-400000.0625,-10870.8896484375,-400000.0625,-400000.0625,-400000.0625
243.89313077926636,-15275.3798828125,-14514.01953125,-23273.1796875,-400000.0625,-10714.9599609375,-400000.0625,-400000.0625,-400000.0625
243.92472887039185,-15719.3701171875,-14962.669921875,-23720.169921875,-400000.0625,-10877.23046875,-400000.0625,-400000.0625,-400000.0625
243.96282267570496,-16082.33984375,-15332.26953125,-24082.470703125,-400000.0625,-11136.2001953125,-400000.0625,-400000.0625,-400000.0625
244.03645181655884,-15862.75,-15116.98046875,-23867.1796875,-400000.0625,-11123.0400390625,-400000.0625,-400000.0625,-400000.0625
244.08546423912048,-15373.4697265625,-14613.6796875,-23368.55078125,-400000.0625,-10845.23046875,-400000.0625,-400000.0625,-400000.0625
244.12843918800354,-15269.3798828125,-14507.490234375,-23261.119140625,-400000.0625,-10681.8203125,-400000.0625,-400000.0625,-400000.0625
244.15167379379272,-15711.01953125,-14952.0400390625,-23704.8203125,-400000.0625,-10864.8798828125,-400000.0625,-400000.0625,-400000.0625
244.1799247264862,-16074.7998046875,-15319.7802734375,-24070.890625,-400000.0625,-11129.8095703125,-400000.0625,-400000.0625,-400000.0625
244.21686506271362,-15865.759765625,-15109.349609375,-23860.4609375,-400000.0625,-11116.83984375,-400000.0625,-400000.0625,-400000.0625
244.2970325946808,-15368.9404296875,-14610.099609375,-23359.400390625,-400000.0625,-10848.8095703125,-400000.0625,-400000.0625,-400000.0625
244.36222338676453,-15266.7099609375,-14507.7197265625,-23260.169921875,-400000.0625,-10705.8095703125,-400000.0625,-400000.0625,-400000.0625
244.47644424438477,-15713.259765625,-14960.6201171875,-23709.73046875,-400000.0625,-10877.900390625,-400000.0625,-400000.0625,-400000.0625
244.5263113975525,-16077.0400390625,-15328.1201171875,-24077.080078125,-400000.0625,-11138.150390625,-400000.0625,-400000.0625,-400000.0625
244.548246383667,-15863.419921875,-15109.6796875,-23857.880859375,-400000.0625,-11126.1904296875,-400000.0625,-400000.0625,-400000.0625
244.5855906009674,-15370.9404296875,-14611.4404296875,-23360.2109375,-400000.0625,-10869.3603515625,-400000.0625,-400000.0625,-400000.0625
244.63693857192993,-15272.7099609375,-14506.6298828125,-23259.259765625,-400000.0625,-10715.8203125,-400000.0625,-400000.0625,-400000.0625
244.66380429267883,-15718.5595703125,-14954.330078125,-23706.630859375,-400000.0625,-10884.5703125,-400000.0625,-400000.0625,-400000.0625
244.6995370388031,-16080.0,-15320.349609375,-24071.650390625,-400000.0625,-11142.9697265625,-400000.0625,-400000.0625,-400000.0625
244.77308440208435,-15871.6201171875,-15109.8701171875,-23863.029296875,-400000.0625,-11145.01953125,-400000.0625,-400000.0625,-400000.0625
244.808447599411,-15379.0498046875,-14615.73046875,-23364.9296875,-400000.0625,-10908.080078125,-400000.0625,-400000.0625,-400000.0625
244.86985039710999,-15278.6298828125,-14510.490234375,-23259.830078125,-400000.0625,-10755.5400390625,-400000.0625,-400000.0625,-400000.0625
244.9087471961975,-15745.4501953125,-14978.83984375,-23728.23046875,-400000.0625,-10916.4296875,-400000.0625,-400000.0625,-400000.0625
244.9662220478058,-16133.5498046875,-15379.4296875,-24123.240234375,-400000.0625,-11189.080078125,-400000.0625,-400000.0625,-400000.0625
244.99426412582397,-15905.48046875,-15165.0400390625,-23905.609375,-400000.0625,-11199.0498046875,-400000.0625,-400000.0625,-400000.0625
245.0148983001709,-15374.1396484375,-14633.0400390625,-23387.8203125,-400000.0625,-10943.1298828125,-400000.0625,-400000.0625,-400000.0625
245.0596251487732,-15249.0595703125,-14511.0595703125,-23277.859375,-400000.0625,-10755.349609375,-400000.0625,-400000.0625,-400000.0625
245.0873646736145,-15698.240234375,-14982.3701171875,-23746.919921875,-400000.0625,-10908.3203125,-400000.0625,-400000.0625,-400000.0625
245.11047434806824,-16065.169921875,-15371.1796875,-24139.83984375,-400000.0625,-11177.4501953125,-400000.0625,-400000.0625,-400000.0625
245.1273169517517,-15844.919921875,-15154.1298828125,-23928.98046875,-400000.0625,-11143.8798828125,-400000.0625,-400000.0625,-400000.0625
245.17236614227295,-15320.58984375,-14631.0302734375,-23412.75,-400000.0625,-10822.9697265625,-400000.0625,-400000.0625,-400000.0625
245.1955759525299,-15201.2802734375,-14519.2197265625,-23299.83984375,-400000.0625,-10650.7802734375,-400000.0625,-400000.0625,-400000.0625
245.21429324150085,-15655.3798828125,-14984.4697265625,-23765.380859375,-400000.0625,-10870.41015625,-400000.0625,-400000.0625,-400000.0625
245.23475241661072,-16044.900390625,-15382.5302734375,-24163.150390625,-400000.0625,-11170.9599609375,-400000.0625,-400000.0625,-400000.0625
245.27380466461182,-15844.6796875,-15179.4501953125,-23957.44921875,-400000.0625,-11157.419921875,-400000.0625,-400000.0625,-400000.0625
245.29461240768433,-15328.7001953125,-14653.919921875,-23435.640625,-400000.0625,-10885.91015625,-400000.0625,-400000.0625,-400000.0625
245.31692814826965,-15203.330078125,-14527.990234375,-23312.380859375,-400000.0625,-10720.2998046875,-400000.0625,-400000.0625,-400000.0625
245.33996725082397,-15666.4404296875,-14989.51953125,-23776.009765625,-400000.0625,-10902.4501953125,-400000.0625,-400000.0625,-400000.0625
245.39290142059326,-16054.2998046875,-15386.73046875,-24172.98046875,-400000.0625,-11191.419921875,-400000.0625,-400000.0625,-400000.0625
245.41478943824768,-15839.91015625,-15170.099609375,-23958.349609375,-400000.0625,-11218.1201171875,-400000.0625,-400000.0625,-400000.0625
245.43375301361084,-15317.6796875,-14641.099609375,-23432.2109375,-400000.0625,-10942.83984375,-400000.0625,-400000.0625,-400000.0625
245.45370078086853,-15202.48046875,-14522.3603515625,-23315.33984375,-400000.0625,-10759.400390625,-400000.0625,-400000.0625,-400000.0625
245.4965147972107,-15686.0400390625,-15008.3095703125,-23800.66015625,-400000.0625,-10932.9697265625,-400000.0625,-400000.0625,-400000.0625
245.51810598373413,-16097.7900390625,-15424.919921875,-24214.3203125,-400000.0625,-11231.8095703125,-400000.0625,-400000.0625,-400000.0625
245.539705991745,-15880.490234375,-15203.7197265625,-23993.349609375,-400000.0625,-11235.2900390625,-400000.0625,-400000.0625,-400000.0625
245.56075525283813,-15341.330078125,-14662.9404296875,-23451.51953125,-400000.0625,-10939.4599609375,-400000.0625,-400000.0625,-400000.0625
245.616436958313,-15207.099609375,-14526.5595703125,-23317.669921875,-400000.0625,-10749.4404296875,-400000.0625,-400000.0625,-400000.0625
245.64010667800903,-15668.2001953125,-14992.4296875,-23781.970703125,-400000.0625,-10918.5703125,-400000.0625,-400000.0625,-400000.0625
245.66064858436584,-16066.4599609375,-15397.740234375,-24186.140625,-400000.0625,-11206.099609375,-400000.0625,-400000.0625,-400000.0625
245.67824935913086,-15852.41015625,-15182.400390625,-23972.939453125,-400000.0625,-11205.009765625,-400000.0625,-400000.0625,-400000.0625
245.71580505371094,-15325.6396484375,-14643.580078125,-23438.0703125,-400000.0625,-10931.4501953125,-400000.0625,-400000.0625,-400000.0625
245.73378205299377,-15204.76953125,-14517.259765625,-23313.94921875,-400000.0625,-10745.91015625,-400000.0625,-400000.0625,-400000.0625
245.7539882659912,-15674.01953125,-14995.3896484375,-23786.119140625,-400000.0625,-10915.419921875,-400000.0625,-400000.0625,-400000.0625
245.77575397491455,-16080.6201171875,-15401.599609375,-24193.0,-400000.0625,-11215.0703125,-400000.0625,-400000.0625,-400000.0625
245.80147409439087,-15873.4296875,-15193.0400390625,-23984.05078125,-400000.0625,-11188.0302734375,-400000.0625,-400000.0625,-400000.0625
245.83865332603455,-15339.66015625,-14653.4501953125,-23441.41015625,-400000.0625,-10869.83984375,-400000.0625,-400000.0625,-400000.0625
245.8604986667633,-15203.9501953125,-14511.4404296875,-23304.75,-400000.0625,-10708.08984375,-400000.0625,-400000.0625,-400000.0625
245.87873768806458,-15671.490234375,-14983.3701171875,-23775.490234375,-400000.0625,-10907.83984375,-400000.0625,-400000.0625,-400000.0625
245.90244245529175,-16081.33984375,-15399.7001953125,-24187.619140625,-400000.0625,-11212.490234375,-400000.0625,-400000.0625,-400000.0625
245.96082305908203,-15870.1904296875,-15186.7900390625,-23977.810546875,-400000.0625,-11222.080078125,-400000.0625,-400000.0625,-400000.0625
245.99884748458862,-15339.8095703125,-14647.76953125,-23442.130859375,-400000.0625,-10946.7998046875,-400000.0625,-400000.0625,-400000.0625
246.02249932289124,-15207.6298828125,-14512.5400390625,-23311.5703125,-400000.0625,-10755.400390625,-400000.0625,-400000.0625,-400000.0625
246.07372093200684,-15668.580078125,-14985.3701171875,-23777.009765625,-400000.0625,-10916.330078125,-400000.0625,-400000.0625,-400000.0625
246.11057233810425,-16069.599609375,-15392.16015625,-24179.130859375,-400000.0625,-11198.3798828125,-400000.0625,-400000.0625,-400000.0625
246.16274189949036,-15856.83984375,-15173.7197265625,-23962.41015625,-400000.0625,-11209.3896484375,-400000.0625,-400000.0625,-400000.0625
246.22686052322388,-15338.08984375,-14646.150390625,-23437.4609375,-400000.0625,-10945.3203125,-400000.0625,-400000.0625,-400000.0625
246.25589179992676,-15209.2998046875,-14519.4501953125,-23309.0,-400000.0625,-10770.990234375,-400000.0625,-400000.0625,-400000.0625
246.28200149536133,-15664.009765625,-14977.080078125,-23768.240234375,-400000.0625,-10917.7099609375,-400000.0625,-400000.0625,-400000.0625
246.32554149627686,-16055.0595703125,-15370.9404296875,-24160.630859375,-400000.0625,-11185.169921875,-400000.0625,-400000.0625,-400000.0625
246.35132217407227,-15853.6904296875,-15167.4296875,-23956.5390625,-400000.0625,-11195.759765625,-400000.0625,-400000.0625,-400000.0625
246.39003539085388,-15333.23046875,-14638.5703125,-23431.880859375,-400000.0625,-10940.080078125,-400000.0625,-400000.0625,-400000.0625
246.44657254219055,-15207.91015625,-14509.4404296875,-23303.130859375,-400000.0625,-10761.7900390625,-400000.0625,-400000.0625,-400000.0625
246.4873354434967,-15667.73046875,-14970.16015625,-23765.0390625,-400000.0625,-10913.08984375,-400000.0625,-400000.0625,-400000.0625
246.5268590450287,-16062.2099609375,-15375.0,-24164.30078125,-400000.0625,-11189.7998046875,-400000.0625,-400000.0625,-400000.0625
246.57791996002197,-15862.9404296875,-15178.9697265625,-23963.029296875,-400000.0625,-11197.51953125,-400000.0625,-400000.0625,-400000.0625
246.6191873550415,-15344.91015625,-14646.8701171875,-23434.310546875,-400000.0625,-10913.66015625,-400000.0625,-400000.0625,-400000.0625
246.65123391151428,-15209.25,-14508.919921875,-23297.83984375,-400000.0625,-10726.830078125,-400000.0625,-400000.0625,-400000.0625
246.69796109199524,-15660.9599609375,-14966.1103515625,-23755.119140625,-400000.0625,-10892.1103515625,-400000.0625,-400000.0625,-400000.0625
246.72842502593994,-16060.7802734375,-15373.1796875,-24161.529296875,-400000.0625,-11182.98046875,-400000.0625,-400000.0625,-400000.0625
246.75408172607422,-15861.23046875,-15175.919921875,-23959.779296875,-400000.0625,-11186.8896484375,-400000.0625,-400000.0625,-400000.0625
246.824551820755,-15342.240234375,-14647.8203125,-23433.349609375,-400000.0625,-10891.009765625,-400000.0625,-400000.0625,-400000.0625
246.8597812652588,-15213.490234375,-14508.580078125,-23297.98046875,-400000.0625,-10704.1396484375,-400000.0625,-400000.0625,-400000.0625
246.90295696258545,-15667.6298828125,-14974.8798828125,-23758.369140625,-400000.0625,-10890.6796875,-400000.0625,-400000.0625,-400000.0625
246.93567872047424,-16067.4599609375,-15379.4296875,-24158.4296875,-400000.0625,-11186.650390625,-400000.0625,-400000.0625,-400000.0625
246.95491981506348,-15866.1904296875,-15173.8701171875,-23955.16015625,-400000.0625,-11164.8603515625,-400000.0625,-400000.0625,-400000.0625
246.97651934623718,-15346.2001953125,-14644.9599609375,-23428.5390625,-400000.0625,-10846.23046875,-400000.0625,-400000.0625,-400000.0625
247.01824641227722,-15206.6201171875,-14508.580078125,-23292.640625,-400000.0625,-10663.5595703125,-400000.0625,-400000.0625,-400000.0625
247.0403914451599,-15660.240234375,-14965.009765625,-23748.0703125,-400000.0625,-10871.7001953125,-400000.0625,-400000.0625,-400000.0625
247.05773258209229,-16050.8701171875,-15362.3095703125,-24140.650390625,-400000.0625,-11168.150390625,-400000.0625,-400000.0625,-400000.0625
247.07704496383667,-15854.41015625,-15164.08984375,-23939.900390625,-400000.0625,-11164.240234375,-400000.0625,-400000.0625,-400000.0625
247.11589002609253,-15340.1396484375,-14644.8603515625,-23423.529296875,-400000.0625,-10880.1904296875,-400000.0625,-400000.0625,-400000.0625
247.13557696342468,-15206.91015625,-14507.150390625,-23290.830078125,-400000.0625,-10706.0,-400000.0625,-400000.0625,-400000.0625
247.1572127342224,-15652.08984375,-14958.150390625,-23737.05078125,-400000.0625,-10882.08984375,-400000.0625,-400000.0625,-400000.0625
247.17525029182434,-16046.240234375,-15357.4501953125,-24134.73046875,-400000.0625,-11165.51953125,-400000.0625,-400000.0625,-400000.0625
247.19283843040466,-15865.1796875,-15165.759765625,-23948.669921875,-400000.0625,-11186.650390625,-400000.0625,-400000.0625,-400000.0625
247.23584079742432,-15348.3896484375,-14645.2001953125,-23427.390625,-400000.0625,-10944.1298828125,-400000.0625,-400000.0625,-400000.0625
247.25293278694153,-15209.490234375,-14508.4404296875,-23293.58984375,-400000.0625,-10816.669921875,-400000.0625,-400000.0625,-400000.0625
247.27631282806396,-15685.4599609375,-14985.419921875,-23769.91015625,-400000.0625,-10959.009765625,-400000.0625,-400000.0625,-400000.0625
247.29964685440063,-16109.75,-15420.3896484375,-24199.6796875,-400000.0625,-11233.330078125,-400000.0625,-400000.0625,-400000.0625
247.33864402770996,-15913.2001953125,-15220.830078125,-24000.7890625,-400000.0625,-11282.16015625,-400000.0625,-400000.0625,-400000.0625
247.36434841156006,-15371.849609375,-14675.4296875,-23455.2890625,-400000.0625,-11000.919921875,-400000.0625,-400000.0625,-400000.0625
247.38559079170227,-15224.5498046875,-14526.23046875,-23304.470703125,-400000.0625,-10774.08984375,-400000.0625,-400000.0625,-400000.0625
247.41226601600647,-15701.8701171875,-15028.5703125,-23785.2109375,-400000.0625,-10941.9404296875,-400000.0625,-400000.0625,-400000.0625
247.4557580947876,-16142.990234375,-15480.3798828125,-24228.529296875,-400000.0625,-11255.2197265625,-400000.0625,-400000.0625,-400000.0625
247.51057600975037,-15951.490234375,-15280.490234375,-24039.3203125,-400000.0625,-11282.0595703125,-400000.0625,-400000.0625,-400000.0625
247.5648000240326,-15373.419921875,-14730.740234375,-23471.880859375,-400000.0625,-11003.73046875,-400000.0625,-400000.0625,-400000.0625
247.6710081100464,-15189.26953125,-14586.2099609375,-23314.759765625,-400000.0625,-10789.9697265625,-400000.0625,-400000.0625,-400000.0625
247.77043223381042,-15645.83984375,-15056.330078125,-23805.94921875,-400000.0625,-10940.41015625,-400000.0625,-400000.0625,-400000.0625
247.81830859184265,-16047.0498046875,-15486.4296875,-24255.08984375,-400000.0625,-11225.7998046875,-400000.0625,-400000.0625,-400000.0625
247.92341566085815,-15833.330078125,-15305.23046875,-24067.98046875,-400000.0625,-11251.01953125,-400000.0625,-400000.0625,-400000.0625
248.03882217407227,-15265.3203125,-14776.08984375,-23515.939453125,-400000.0625,-10991.91015625,-400000.0625,-400000.0625,-400000.0625
248.15667533874512,-15085.3203125,-14626.5,-23391.5390625,-400000.0625,-10783.009765625,-400000.0625,-400000.0625,-400000.0625
248.28598022460938,-15527.4404296875,-15108.6796875,-23879.05078125,-400000.0625,-10906.650390625,-400000.0625,-400000.0625,-400000.0625
248.42883610725403,-15928.650390625,-15549.51953125,-24318.26953125,-400000.0625,-11197.8095703125,-400000.0625,-400000.0625,-400000.0625
248.5637607574463,-15702.33984375,-15358.740234375,-24127.869140625,-400000.0625,-11256.740234375,-400000.0625,-400000.0625,-400000.0625
248.71264910697937,-15163.1396484375,-14843.26953125,-23605.5390625,-400000.0625,-11014.990234375,-400000.0625,-400000.0625,-400000.0625
248.83628916740417,-15008.400390625,-14674.8603515625,-23468.349609375,-400000.0625,-10846.4697265625,-400000.0625,-400000.0625,-400000.0625
248.95936751365662,-15488.150390625,-15161.330078125,-23965.41015625,-400000.0625,-10968.73046875,-400000.0625,-400000.0625,-400000.0625
249.0967059135437,-15899.5595703125,-15597.580078125,-24395.66015625,-400000.0625,-11216.1201171875,-400000.0625,-400000.0625,-400000.0625
249.20739102363586,-15681.98046875,-15371.2802734375,-24189.05078125,-400000.0625,-11273.33984375,-400000.0625,-400000.0625,-400000.0625
249.3652949333191,-15131.6201171875,-14813.2802734375,-23643.779296875,-400000.0625,-11039.4501953125,-400000.0625,-400000.0625,-400000.0625
249.50885891914368,-14976.3095703125,-14646.7197265625,-23489.330078125,-400000.0625,-10833.5498046875,-400000.0625,-400000.0625,-400000.0625
249.64124703407288,-15435.75,-15132.4296875,-23959.119140625,-400000.0625,-10920.1904296875,-400000.0625,-400000.0625,-400000.0625
249.7686426639557,-15847.5400390625,-15536.01953125,-24387.740234375,-400000.0625,-11176.25,-400000.0625,-400000.0625,-400000.0625
249.88716673851013,-15659.669921875,-15329.5498046875,-24201.25,-400000.0625,-11252.400390625,-400000.0625,-400000.0625,-400000.0625
250.01691842079163,-15130.7099609375,-14793.1103515625,-23671.009765625,-400000.0625,-11148.5,-400000.0625,-400000.0625,-400000.0625
250.1545512676239,-14991.330078125,-14638.2802734375,-23525.0,-400000.0625,-10985.1904296875,-400000.0625,-400000.0625,-400000.0625
250.2846076488495,-15482.240234375,-15146.1103515625,-24024.30078125,-400000.0625,-11012.98046875,-400000.0625,-400000.0625,-400000.0625
250.40684151649475,-15934.6103515625,-15617.3701171875,-24491.83984375,-400000.0625,-11271.8095703125,-400000.0625,-400000.0625,-400000.0625
250.54821586608887,-15758.6103515625,-15433.2197265625,-24314.220703125,-400000.0625,-11400.9404296875,-400000.0625,-400000.0625,-400000.0625
250.65126633644104,-15175.76953125,-14849.6201171875,-23728.66015625,-400000.0625,-11203.76953125,-400000.0625,-400000.0625,-400000.0625
250.74654078483582,-14995.76953125,-14666.6103515625,-23549.609375,-400000.0625,-10919.7197265625,-400000.0625,-400000.0625,-400000.0625
250.80041432380676,-15509.1298828125,-15186.0703125,-24068.880859375,-400000.0625,-11018.0400390625,-400000.0625,-400000.0625,-400000.0625
250.89250946044922,-16022.01953125,-15714.98046875,-24590.30078125,-400000.0625,-11370.6103515625,-400000.0625,-400000.0625,-400000.0625
250.93909430503845,-15833.51953125,-15523.48046875,-24406.25,-400000.0625,-11497.1201171875,-400000.0625,-400000.0625,-400000.0625
251.05369400978088,-15189.98046875,-14864.9697265625,-23758.599609375,-400000.0625,-11224.4599609375,-400000.0625,-400000.0625,-400000.0625
251.1773452758789,-14972.8798828125,-14652.5400390625,-23548.3203125,-400000.0625,-10922.48046875,-400000.0625,-400000.0625,-400000.0625
251.28887629508972,-15491.490234375,-15170.91015625,-24074.41015625,-400000.0625,-11040.2099609375,-400000.0625,-400000.0625,-400000.0625
251.41728115081787,-16029.4599609375,-15712.3603515625,-24611.05078125,-400000.0625,-11396.7900390625,-400000.0625,-400000.0625,-400000.0625
251.5368151664734,-15855.599609375,-15546.66015625,-24443.720703125,-400000.0625,-11464.41015625,-400000.0625,-400000.0625,-400000.0625
251.66083097457886,-15197.6103515625,-14873.83984375,-23781.25,-400000.0625,-11108.16015625,-400000.0625,-400000.0625,-400000.0625
251.7916398048401,-14954.8095703125,-14613.6796875,-23537.30078125,-400000.0625,-10846.2802734375,-400000.0625,-400000.0625,-400000.0625
251.94545125961304,-15483.240234375,-15145.490234375,-24068.599609375,-400000.0625,-11040.400390625,-400000.0625,-400000.0625,-400000.0625
252.0474886894226,-16030.1201171875,-15703.9697265625,-24624.30078125,-400000.0625,-11434.990234375,-400000.0625,-400000.0625,-400000.0625
252.1672248840332,-15846.400390625,-15511.5595703125,-24439.099609375,-400000.0625,-11516.759765625,-400000.0625,-400000.0625,-400000.0625
252.3346300125122,-15181.5400390625,-14843.26953125,-23774.9609375,-400000.0625,-11212.6396484375,-400000.0625,-400000.0625,-400000.0625
252.4878671169281,-14942.169921875,-14596.080078125,-23529.48046875,-400000.0625,-10939.169921875,-400000.0625,-400000.0625,-400000.0625
252.70051050186157,-15503.98046875,-15155.3203125,-24092.529296875,-400000.0625,-11088.66015625,-400000.0625,-400000.0625,-400000.0625
252.79453253746033,-16079.900390625,-15733.2001953125,-24670.560546875,-400000.0625,-11492.490234375,-400000.0625,-400000.0625,-400000.0625
252.85097122192383,-15894.2197265625,-15539.9296875,-24473.9609375,-400000.0625,-11652.08984375,-400000.0625,-400000.0625,-400000.0625
252.91276216506958,-15206.2900390625,-14838.5498046875,-23782.919921875,-400000.0625,-11403.0400390625,-400000.0625,-400000.0625,-400000.0625
252.94985604286194,-14956.240234375,-14579.009765625,-23523.4296875,-400000.0625,-11066.009765625,-400000.0625,-400000.0625,-400000.0625
252.9980022907257,-15523.099609375,-15146.73046875,-24091.2890625,-400000.0625,-11140.9697265625,-400000.0625,-400000.0625,-400000.0625
253.0985336303711,-16144.419921875,-15764.0,-24709.130859375,-400000.0625,-11542.75,-400000.0625,-400000.0625,-400000.0625
253.19138646125793,-15979.3896484375,-15593.7197265625,-24533.369140625,-400000.0625,-11704.259765625,-400000.0625,-400000.0625,-400000.0625
253.23055744171143,-15267.4697265625,-14868.98046875,-23812.150390625,-400000.0625,-11357.2099609375,-400000.0625,-400000.0625,-400000.0625
253.28604316711426,-14982.0302734375,-14568.66015625,-23515.69921875,-400000.0625,-10967.2099609375,-400000.0625,-400000.0625,-400000.0625
253.3174011707306,-15536.98046875,-15135.2900390625,-24073.599609375,-400000.0625,-11091.1396484375,-400000.0625,-400000.0625,-400000.0625
253.38702368736267,-16183.330078125,-15774.6796875,-24712.849609375,-400000.0625,-11553.240234375,-400000.0625,-400000.0625,-400000.0625
253.45212984085083,-16032.080078125,-15616.75,-24551.8203125,-400000.0625,-11698.76953125,-400000.0625,-400000.0625,-400000.0625
253.48417615890503,-15311.8603515625,-14883.4697265625,-23821.0703125,-400000.0625,-11343.5302734375,-400000.0625,-400000.0625,-400000.0625
253.52980136871338,-15010.41015625,-14572.240234375,-23508.98046875,-400000.0625,-10978.7998046875,-400000.0625,-400000.0625,-400000.0625
253.61086559295654,-15587.1396484375,-15153.1201171875,-24086.669921875,-400000.0625,-11130.1904296875,-400000.0625,-400000.0625,-400000.0625
253.6405692100525,-16261.0595703125,-15825.509765625,-24758.630859375,-400000.0625,-11609.169921875,-400000.0625,-400000.0625,-400000.0625
253.71791434288025,-16113.4697265625,-15670.7802734375,-24605.990234375,-400000.0625,-11743.400390625,-400000.0625,-400000.0625,-400000.0625
253.77335453033447,-15370.9404296875,-14917.7099609375,-23853.58984375,-400000.0625,-11320.6904296875,-400000.0625,-400000.0625,-400000.0625
253.83623671531677,-15040.6904296875,-14578.76953125,-23514.939453125,-400000.0625,-10897.58984375,-400000.0625,-400000.0625,-400000.0625
253.86200428009033,-15621.2802734375,-15161.66015625,-24100.349609375,-400000.0625,-11111.400390625,-400000.0625,-400000.0625,-400000.0625
253.88408875465393,-16331.669921875,-15873.0,-24807.7890625,-400000.0625,-11663.3896484375,-400000.0625,-400000.0625,-400000.0625
253.93632221221924,-16211.6103515625,-15740.4404296875,-24671.509765625,-400000.0625,-11804.0595703125,-400000.0625,-400000.0625,-400000.0625
253.9756679534912,-15433.3095703125,-14957.2900390625,-23887.109375,-400000.0625,-11362.8896484375,-400000.0625,-400000.0625,-400000.0625
254.0415802001953,-15074.0595703125,-14588.3095703125,-23518.66015625,-400000.0625,-10942.169921875,-400000.0625,-400000.0625,-400000.0625
254.11008954048157,-15651.3701171875,-15164.08984375,-24098.01953125,-400000.0625,-11122.080078125,-400000.0625,-400000.0625,-400000.0625
254.1584668159485,-16353.66015625,-15871.3798828125,-24799.869140625,-400000.0625,-11659.4296875,-400000.0625,-400000.0625,-400000.0625
254.20326972007751,-16210.83984375,-15722.7998046875,-24648.33984375,-400000.0625,-11794.6201171875,-400000.0625,-400000.0625,-400000.0625
254.24514269828796,-15437.7998046875,-14939.169921875,-23863.509765625,-400000.0625,-11317.2099609375,-400000.0625,-400000.0625,-400000.0625
254.28235340118408,-15071.73046875,-14566.7099609375,-23495.099609375,-400000.0625,-10858.919921875,-400000.0625,-400000.0625,-400000.0625
254.33163690567017,-15637.6904296875,-15132.7197265625,-24060.779296875,-400000.0625,-11077.4501953125,-400000.0625,-400000.0625,-400000.0625
254.37143278121948,-16335.919921875,-15826.6103515625,-24750.470703125,-400000.0625,-11630.8203125,-400000.0625,-400000.0625,-400000.0625
254.41440105438232,-16198.259765625,-15680.98046875,-24600.169921875,-400000.0625,-11779.0703125,-400000.0625,-400000.0625,-400000.0625
254.4845848083496,-15422.2001953125,-14900.1103515625,-23815.6796875,-400000.0625,-11385.73046875,-400000.0625,-400000.0625,-400000.0625
254.51536917686462,-15081.3603515625,-14557.3203125,-23474.26953125,-400000.0625,-10972.2197265625,-400000.0625,-400000.0625,-400000.0625
254.5821568965912,-15661.2900390625,-15131.08984375,-24047.23046875,-400000.0625,-11088.23046875,-400000.0625,-400000.0625,-400000.0625
254.61072421073914,-16338.6396484375,-15810.6796875,-24723.76953125,-400000.0625,-11609.7001953125,-400000.0625,-400000.0625,-400000.0625
254.6387779712677,-16213.849609375,-15672.919921875,-24582.8203125,-400000.0625,-11706.9697265625,-400000.0625,-400000.0625,-400000.0625
254.6867048740387,-15451.0498046875,-14906.3095703125,-23812.580078125,-400000.0625,-11228.66015625,-400000.0625,-400000.0625,-400000.0625
254.7038037776947,-15090.5595703125,-14539.76953125,-23449.5703125,-400000.0625,-10823.3896484375,-400000.0625,-400000.0625,-400000.0625
254.727468252182,-15653.7099609375,-15102.7197265625,-24009.470703125,-400000.0625,-11049.3203125,-400000.0625,-400000.0625,-400000.0625
254.74456572532654,-16345.3095703125,-15795.759765625,-24698.259765625,-400000.0625,-11590.8203125,-400000.0625,-400000.0625,-400000.0625
254.7827067375183,-16209.0302734375,-15649.5595703125,-24553.73046875,-400000.0625,-11705.1103515625,-400000.0625,-400000.0625,-400000.0625
254.80336833000183,-15439.5595703125,-14873.080078125,-23775.150390625,-400000.0625,-11307.4296875,-400000.0625,-400000.0625,-400000.0625
254.8205075263977,-15095.4697265625,-14525.0302734375,-23429.830078125,-400000.0625,-10962.0595703125,-400000.0625,-400000.0625,-400000.0625
254.84100437164307,-15668.6796875,-15104.33984375,-24006.4609375,-400000.0625,-11104.2001953125,-400000.0625,-400000.0625,-400000.0625
254.85708212852478,-16355.5595703125,-15791.6103515625,-24687.009765625,-400000.0625,-11586.240234375,-400000.0625,-400000.0625,-400000.0625
254.89581060409546,-16229.4404296875,-15652.3203125,-24550.25,-400000.0625,-11696.76953125,-400000.0625,-400000.0625,-400000.0625
254.91474843025208,-15463.349609375,-14883.759765625,-23782.44921875,-400000.0625,-11262.0400390625,-400000.0625,-400000.0625,-400000.0625
254.93466424942017,-15111.9697265625,-14525.9404296875,-23426.25,-400000.0625,-10881.2802734375,-400000.0625,-400000.0625,-400000.0625
254.95575666427612,-15677.9296875,-15093.51953125,-23988.919921875,-400000.0625,-11073.4501953125,-400000.0625,-400000.0625,-400000.0625
254.976092338562,-16355.7099609375,-15770.150390625,-24663.880859375,-400000.0625,-11569.259765625,-400000.0625,-400000.0625,-400000.0625
255.0136911869049,-16216.9501953125,-15625.099609375,-24519.779296875,-400000.0625,-11701.7802734375,-400000.0625,-400000.0625,-400000.0625
255.03269362449646,-15474.75,-14873.1201171875,-23766.759765625,-400000.0625,-11280.6796875,-400000.0625,-400000.0625,-400000.0625
255.05314826965332,-15131.669921875,-14529.849609375,-23423.669921875,-400000.0625,-10891.6298828125,-400000.0625,-400000.0625,-400000.0625
255.07500433921814,-15692.330078125,-15088.6103515625,-23981.619140625,-400000.0625,-11073.0703125,-400000.0625,-400000.0625,-400000.0625
255.0960192680359,-16356.419921875,-15754.7001953125,-24642.0390625,-400000.0625,-11567.7802734375,-400000.0625,-400000.0625,-400000.0625
255.13676714897156,-16215.849609375,-15610.26953125,-24497.69921875,-400000.0625,-11718.23046875,-400000.0625,-400000.0625,-400000.0625
255.15377235412598,-15477.990234375,-14866.2099609375,-23753.119140625,-400000.0625,-11349.2998046875,-400000.0625,-400000.0625,-400000.0625
255.17806911468506,-15145.0703125,-14533.4296875,-23419.759765625,-400000.0625,-10965.349609375,-400000.0625,-400000.0625,-400000.0625
255.2000651359558,-15701.919921875,-15094.0,-23976.419921875,-400000.0625,-11101.150390625,-400000.0625,-400000.0625,-400000.0625
255.2419285774231,-16360.0,-15751.169921875,-24631.83984375,-400000.0625,-11564.58984375,-400000.0625,-400000.0625,-400000.0625
255.2631332874298,-16228.9599609375,-15613.1796875,-24492.740234375,-400000.0625,-11696.669921875,-400000.0625,-400000.0625,-400000.0625
255.2876079082489,-15493.2001953125,-14874.41015625,-23752.0703125,-400000.0625,-11297.0400390625,-400000.0625,-400000.0625,-400000.0625
255.3122808933258,-15151.0703125,-14531.0400390625,-23409.609375,-400000.0625,-10915.1396484375,-400000.0625,-400000.0625,-400000.0625
255.35612106323242,-15696.48046875,-15083.599609375,-23958.689453125,-400000.0625,-11068.919921875,-400000.0625,-400000.0625,-400000.0625
255.38372707366943,-16366.6298828125,-15751.650390625,-24627.640625,-400000.0625,-11555.7197265625,-400000.0625,-400000.0625,-400000.0625
255.40719723701477,-16233.2998046875,-15612.3701171875,-24484.400390625,-400000.0625,-11719.509765625,-400000.0625,-400000.0625,-400000.0625
255.42490100860596,-15493.2001953125,-14869.740234375,-23740.099609375,-400000.0625,-11374.900390625,-400000.0625,-400000.0625,-400000.0625
255.46533751487732,-15160.1298828125,-14530.66015625,-23407.029296875,-400000.0625,-11000.9697265625,-400000.0625,-400000.0625,-400000.0625
255.491792678833,-15718.509765625,-15088.990234375,-23967.560546875,-400000.0625,-11112.1201171875,-400000.0625,-400000.0625,-400000.0625
255.51246738433838,-16372.6298828125,-15750.26953125,-24623.2109375,-400000.0625,-11554.33984375,-400000.0625,-400000.0625,-400000.0625
255.53287363052368,-16223.8095703125,-15599.4404296875,-24470.0,-400000.0625,-11711.5,-400000.0625,-400000.0625,-400000.0625
255.5792682170868,-15493.73046875,-14857.8701171875,-23732.470703125,-400000.0625,-11364.26953125,-400000.0625,-400000.0625,-400000.0625
255.61771941184998,-15169.48046875,-14533.9501953125,-23409.560546875,-400000.0625,-10991.0,-400000.0625,-400000.0625,-400000.0625
255.65154695510864,-15721.23046875,-15093.23046875,-23963.220703125,-400000.0625,-11108.4501953125,-400000.0625,-400000.0625,-400000.0625
255.6923098564148,-16380.9296875,-15747.1201171875,-24617.8203125,-400000.0625,-11552.5703125,-400000.0625,-400000.0625,-400000.0625
255.72336888313293,-16235.58984375,-15603.2099609375,-24469.7109375,-400000.0625,-11721.5595703125,-400000.0625,-400000.0625,-400000.0625
255.75834774971008,-15499.8798828125,-14865.2099609375,-23732.0,-400000.0625,-11429.5,-400000.0625,-400000.0625,-400000.0625
255.84180569648743,-15177.919921875,-14534.8603515625,-23406.4609375,-400000.0625,-11005.2099609375,-400000.0625,-400000.0625,-400000.0625
255.87498331069946,-15718.1796875,-15082.169921875,-23950.630859375,-400000.0625,-11081.169921875,-400000.0625,-400000.0625,-400000.0625
255.92051696777344,-16362.6201171875,-15726.7099609375,-24594.7890625,-400000.0625,-11531.400390625,-400000.0625,-400000.0625,-400000.0625
255.94667148590088,-16239.740234375,-15603.400390625,-24472.48046875,-400000.0625,-11614.1298828125,-400000.0625,-400000.0625,-400000.0625
255.994934797287,-15518.759765625,-14876.080078125,-23742.30078125,-400000.0625,-11139.73046875,-400000.0625,-400000.0625,-400000.0625
256.0498504638672,-15172.48046875,-14527.75,-23395.869140625,-400000.0625,-10759.400390625,-400000.0625,-400000.0625,-400000.0625
256.08252215385437,-15702.009765625,-15061.900390625,-23927.740234375,-400000.0625,-10988.240234375,-400000.0625,-400000.0625,-400000.0625
256.1195785999298,-16356.3701171875,-15722.23046875,-24582.580078125,-400000.0625,-11520.669921875,-400000.0625,-400000.0625,-400000.0625
256.17566990852356,-16240.2197265625,-15600.16015625,-24460.130859375,-400000.0625,-11566.58984375,-400000.0625,-400000.0625,-400000.0625
256.2074797153473,-15518.240234375,-14874.0302734375,-23737.2890625,-400000.0625,-11065.3896484375,-400000.0625,-400000.0625,-400000.0625
256.23750042915344,-15168.1396484375,-14525.6103515625,-23385.48046875,-400000.0625,-10685.5400390625,-400000.0625,-400000.0625,-400000.0625
256.28032398223877,-15692.5703125,-15047.169921875,-23909.4296875,-400000.0625,-10961.099609375,-400000.0625,-400000.0625,-400000.0625
256.3050329685211,-16344.5,-15700.2001953125,-24559.830078125,-400000.0625,-11498.7900390625,-400000.0625,-400000.0625,-400000.0625
256.3512728214264,-16234.01953125,-15590.5302734375,-24444.919921875,-400000.0625,-11561.2001953125,-400000.0625,-400000.0625,-400000.0625
256.4120976924896,-15518.8603515625,-14868.0703125,-23725.69921875,-400000.0625,-11063.7197265625,-400000.0625,-400000.0625,-400000.0625
256.43643593788147,-15170.6201171875,-14524.1796875,-23381.94921875,-400000.0625,-10687.01953125,-400000.0625,-400000.0625,-400000.0625
256.47200560569763,-15690.1904296875,-15049.599609375,-23905.08984375,-400000.0625,-10964.3896484375,-400000.0625,-400000.0625,-400000.0625
256.51829266548157,-16348.2197265625,-15708.2099609375,-24563.119140625,-400000.0625,-11514.330078125,-400000.0625,-400000.0625,-400000.0625
256.53633308410645,-16225.8603515625,-15589.5703125,-24443.919921875,-400000.0625,-11610.2197265625,-400000.0625,-400000.0625,-400000.0625
256.5548644065857,-15509.1796875,-14867.259765625,-23720.83984375,-400000.0625,-11190.509765625,-400000.0625,-400000.0625,-400000.0625
256.5710563659668,-15174.2998046875,-14533.1396484375,-23386.05078125,-400000.0625,-10828.349609375,-400000.0625,-400000.0625,-400000.0625
256.59259939193726,-15708.6396484375,-15068.490234375,-23920.439453125,-400000.0625,-11021.1904296875,-400000.0625,-400000.0625,-400000.0625
256.6295645236969,-16355.419921875,-15714.0302734375,-24564.4609375,-400000.0625,-11504.599609375,-400000.0625,-400000.0625,-400000.0625
256.6531255245209,-16213.6103515625,-15569.5498046875,-24422.26953125,-400000.0625,-11760.0,-400000.0625,-400000.0625,-400000.0625
256.67060923576355,-15487.2001953125,-14847.4697265625,-23699.48046875,-400000.0625,-11588.5302734375,-400000.0625,-400000.0625,-400000.0625
256.6912512779236,-15179.1103515625,-14540.0498046875,-23391.869140625,-400000.0625,-11198.240234375,-400000.0625,-400000.0625,-400000.0625
256.7087891101837,-15722.7099609375,-15082.599609375,-23937.66015625,-400000.0625,-11163.0,-400000.0625,-400000.0625,-400000.0625
256.7434940338135,-16379.169921875,-15743.5400390625,-24591.5,-400000.0625,-11541.080078125,-400000.0625,-400000.0625,-400000.0625
256.76373291015625,-16256.5703125,-15618.66015625,-24466.08984375,-400000.0625,-11776.6396484375,-400000.0625,-400000.0625,-400000.0625
256.7915494441986,-15520.0,-14878.7001953125,-23727.66015625,-400000.0625,-11595.6796875,-400000.0625,-400000.0625,-400000.0625
256.80931639671326,-15188.41015625,-14543.490234375,-23395.01953125,-400000.0625,-11236.5302734375,-400000.0625,-400000.0625,-400000.0625
256.84825444221497,-15748.83984375,-15106.7802734375,-23958.44921875,-400000.0625,-11219.9296875,-400000.0625,-400000.0625,-400000.0625
256.87113308906555,-16423.990234375,-15787.4599609375,-24634.169921875,-400000.0625,-11580.08984375,-400000.0625,-400000.0625,-400000.0625
256.89989376068115,-16294.580078125,-15655.3798828125,-24497.509765625,-400000.0625,-11816.41015625,-400000.0625,-400000.0625,-400000.0625
256.9259057044983,-15545.8896484375,-14899.58984375,-23744.060546875,-400000.0625,-11591.7197265625,-400000.0625,-400000.0625,-400000.0625
256.96454668045044,-15196.23046875,-14547.4501953125,-23395.400390625,-400000.0625,-11206.150390625,-400000.0625,-400000.0625,-400000.0625
256.9978132247925,-15747.259765625,-15104.76953125,-23951.099609375,-400000.0625,-11196.9501953125,-400000.0625,-400000.0625,-400000.0625
257.0452902317047,-16428.380859375,-15792.9404296875,-24634.890625,-400000.0625,-11575.75,-400000.0625,-400000.0625,-400000.0625
257.1519136428833,-16313.3603515625,-15678.98046875,-24514.6796875,-400000.0625,-11776.9296875,-400000.0625,-400000.0625,-400000.0625
257.2395513057709,-15566.8798828125,-14921.5703125,-23761.23046875,-400000.0625,-11451.8203125,-400000.0625,-400000.0625,-400000.0625
257.2946357727051,-15199.3798828125,-14547.830078125,-23393.400390625,-400000.0625,-11039.3095703125,-400000.0625,-400000.0625,-400000.0625
257.4022214412689,-15748.5498046875,-15097.0498046875,-23944.330078125,-400000.0625,-11119.8896484375,-400000.0625,-400000.0625,-400000.0625
257.50852966308594,-16439.439453125,-15799.759765625,-24636.080078125,-400000.0625,-11571.1201171875,-400000.0625,-400000.0625,-400000.0625
257.6242196559906,-16335.6796875,-15690.5703125,-24528.69921875,-400000.0625,-11736.7802734375,-400000.0625,-400000.0625,-400000.0625
257.74424171447754,-15583.08984375,-14927.150390625,-23770.619140625,-400000.0625,-11358.599609375,-400000.0625,-400000.0625,-400000.0625
257.86754179000854,-15205.4296875,-14555.0302734375,-23397.2109375,-400000.0625,-10963.16015625,-400000.0625,-400000.0625,-400000.0625
257.99818778038025,-15739.9697265625,-15085.75,-23932.650390625,-400000.0625,-11104.16015625,-400000.0625,-400000.0625,-400000.0625
258.133593082428,-16434.580078125,-15789.4599609375,-24632.26953125,-400000.0625,-11578.75,-400000.0625,-400000.0625,-400000.0625
258.2593569755554,-16342.98046875,-15695.099609375,-24533.849609375,-400000.0625,-11752.1796875,-400000.0625,-400000.0625,-400000.0625
258.3858697414398,-15602.349609375,-14951.08984375,-23787.7890625,-400000.0625,-11390.0703125,-400000.0625,-400000.0625,-400000.0625
258.51614904403687,-15218.3603515625,-14564.7998046875,-23404.55078125,-400000.0625,-10986.3798828125,-400000.0625,-400000.0625,-400000.0625
258.65597915649414,-15744.6396484375,-15101.8603515625,-23937.560546875,-400000.0625,-11103.349609375,-400000.0625,-400000.0625,-400000.0625
258.7794334888458,-16435.9609375,-15786.83984375,-24623.060546875,-400000.0625,-11570.0703125,-400000.0625,-400000.0625,-400000.0625
258.9009828567505,-16329.580078125,-15680.169921875,-24518.73046875,-400000.0625,-11735.76953125,-400000.0625,-400000.0625,-400000.0625
259.03815817832947,-15579.509765625,-14927.580078125,-23765.419921875,-400000.0625,-11336.51953125,-400000.0625,-400000.0625,-400000.0625
259.1842393875122,-15206.6201171875,-14552.0703125,-23391.390625,-400000.0625,-10926.2998046875,-400000.0625,-400000.0625,-400000.0625
259.3137171268463,-15733.9599609375,-15085.41015625,-23920.73046875,-400000.0625,-11068.2998046875,-400000.0625,-400000.0625,-400000.0625
259.4358959197998,-16417.650390625,-15770.9599609375,-24604.369140625,-400000.0625,-11553.150390625,-400000.0625,-400000.0625,-400000.0625
259.5702660083771,-16319.849609375,-15665.2001953125,-24499.3203125,-400000.0625,-11705.73046875,-400000.0625,-400000.0625,-400000.0625
259.67125487327576,-15579.0302734375,-14919.6201171875,-23756.4609375,-400000.0625,-11303.8603515625,-400000.0625,-400000.0625,-400000.0625
259.7684373855591,-15203.099609375,-14545.009765625,-23383.0,-400000.0625,-10890.490234375,-400000.0625,-400000.0625,-400000.0625
259.8041274547577,-15729.7197265625,-15073.25,-23912.0,-400000.0625,-11043.0302734375,-400000.0625,-400000.0625,-400000.0625
259.91981959342957,-16417.7890625,-15758.51953125,-24602.75,-400000.0625,-11539.8896484375,-400000.0625,-400000.0625,-400000.0625
260.035297870636,-16308.6904296875,-15663.3896484375,-24495.890625,-400000.0625,-11710.6904296875,-400000.0625,-400000.0625,-400000.0625
260.1667637825012,-15553.1396484375,-14916.23046875,-23745.73046875,-400000.0625,-11351.919921875,-400000.0625,-400000.0625,-400000.0625
260.33325028419495,-15177.8203125,-14543.6796875,-23385.150390625,-400000.0625,-10958.2900390625,-400000.0625,-400000.0625,-400000.0625
260.455851316452,-15686.7998046875,-15061.240234375,-23911.91015625,-400000.0625,-11071.6396484375,-400000.0625,-400000.0625,-400000.0625
260.5820508003235,-16351.75,-15733.8203125,-24587.109375,-400000.0625,-11530.259765625,-400000.0625,-400000.0625,-400000.0625
260.7269399166107,-16235.4501953125,-15619.08984375,-24482.919921875,-400000.0625,-11693.76953125,-400000.0625,-400000.0625,-400000.0625
260.8332951068878,-15497.2998046875,-14877.6103515625,-23748.310546875,-400000.0625,-11345.8603515625,-400000.0625,-400000.0625,-400000.0625
260.95630383491516,-15136.48046875,-14528.419921875,-23390.529296875,-400000.0625,-10960.150390625,-400000.0625,-400000.0625,-400000.0625
261.0780689716339,-15657.330078125,-15054.0400390625,-23916.6796875,-400000.0625,-11066.2998046875,-400000.0625,-400000.0625,-400000.0625
261.20397996902466,-16315.2197265625,-15698.3896484375,-24574.66015625,-400000.0625,-11518.33984375,-400000.0625,-400000.0625,-400000.0625
261.3399589061737,-16207.740234375,-15578.3203125,-24463.369140625,-400000.0625,-11656.4296875,-400000.0625,-400000.0625,-400000.0625
261.4665427207947,-15479.7998046875,-14849.9501953125,-23731.08984375,-400000.0625,-11312.5302734375,-400000.0625,-400000.0625,-400000.0625
261.6014769077301,-15123.75,-14497.1396484375,-23379.189453125,-400000.0625,-10955.759765625,-400000.0625,-400000.0625,-400000.0625
261.73183131217957,-15646.080078125,-15023.419921875,-23909.0,-400000.0625,-11058.8095703125,-400000.0625,-400000.0625,-400000.0625
261.8468818664551,-16308.4501953125,-15689.1796875,-24567.560546875,-400000.0625,-11509.51953125,-400000.0625,-400000.0625,-400000.0625
261.9660038948059,-16205.98046875,-15587.1396484375,-24466.66015625,-400000.0625,-11667.349609375,-400000.0625,-400000.0625,-400000.0625
262.1028800010681,-15487.0498046875,-14859.150390625,-23737.9609375,-400000.0625,-11308.5302734375,-400000.0625,-400000.0625,-400000.0625
262.24859166145325,-15133.099609375,-14498.0,-23382.5703125,-400000.0625,-10939.26953125,-400000.0625,-400000.0625,-400000.0625
262.3630292415619,-15648.080078125,-15021.1396484375,-23899.509765625,-400000.0625,-11044.1201171875,-400000.0625,-400000.0625,-400000.0625
262.4315390586853,-16304.6396484375,-15673.9697265625,-24551.6796875,-400000.0625,-11491.1103515625,-400000.0625,-400000.0625,-400000.0625
262.47206687927246,-16203.5,-15565.4404296875,-24444.390625,-400000.0625,-11605.4501953125,-400000.0625,-400000.0625,-400000.0625
262.5352478027344,-15496.5400390625,-14860.349609375,-23733.859375,-400000.0625,-11205.48046875,-400000.0625,-400000.0625,-400000.0625
262.56989884376526,-15143.5400390625,-14502.9599609375,-23381.240234375,-400000.0625,-10835.599609375,-400000.0625,-400000.0625,-400000.0625
262.65014600753784,-15639.1201171875,-14999.9599609375,-23880.099609375,-400000.0625,-10997.1103515625,-400000.0625,-400000.0625,-400000.0625
262.7563717365265,-16288.0,-15649.3203125,-24531.939453125,-400000.0625,-11472.7998046875,-400000.0625,-400000.0625,-400000.0625
262.8173336982727,-16196.6298828125,-15559.76953125,-24436.2890625,-400000.0625,-11595.8203125,-400000.0625,-400000.0625,-400000.0625
262.8519775867462,-15496.0703125,-14857.099609375,-23730.5703125,-400000.0625,-11200.3798828125,-400000.0625,-400000.0625,-400000.0625
262.9271926879883,-15139.5302734375,-14492.6103515625,-23373.69921875,-400000.0625,-10836.5498046875,-400000.0625,-400000.0625,-400000.0625
262.9736979007721,-15639.6396484375,-14994.4296875,-23873.810546875,-400000.0625,-11003.1103515625,-400000.0625,-400000.0625,-400000.0625
262.9966530799866,-16294.580078125,-15648.080078125,-24525.259765625,-400000.0625,-11477.419921875,-400000.0625,-400000.0625,-400000.0625
263.02757453918457,-16198.6796875,-15553.08984375,-24427.509765625,-400000.0625,-11606.599609375,-400000.0625,-400000.0625,-400000.0625
263.11162877082825,-15491.150390625,-14850.8603515625,-23720.119140625,-400000.0625,-11244.8701171875,-400000.0625,-400000.0625,-400000.0625
263.1406979560852,-15149.169921875,-14504.6298828125,-23378.80078125,-400000.0625,-10893.580078125,-400000.0625,-400000.0625,-400000.0625
263.19400548934937,-15650.7998046875,-15009.6904296875,-23884.6796875,-400000.0625,-11026.5302734375,-400000.0625,-400000.0625,-400000.0625
263.24021100997925,-16302.349609375,-15661.76953125,-24532.75,-400000.0625,-11474.4697265625,-400000.0625,-400000.0625,-400000.0625
263.29060101509094,-16201.3603515625,-15554.0498046875,-24423.890625,-400000.0625,-11648.3701171875,-400000.0625,-400000.0625,-400000.0625
263.3431739807129,-15501.9296875,-14847.9501953125,-23718.7890625,-400000.0625,-11316.58984375,-400000.0625,-400000.0625,-400000.0625
263.3709752559662,-15149.6904296875,-14502.3798828125,-23373.419921875,-400000.0625,-10929.6298828125,-400000.0625,-400000.0625,-400000.0625
263.4028902053833,-15652.66015625,-15010.7900390625,-23879.9609375,-400000.0625,-11040.5498046875,-400000.0625,-400000.0625,-400000.0625
263.4684224128723,-16296.099609375,-15652.08984375,-24517.73046875,-400000.0625,-11467.9404296875,-400000.0625,-400000.0625,-400000.0625
263.5375027656555,-16198.1103515625,-15548.759765625,-24414.490234375,-400000.0625,-11618.23046875,-400000.0625,-400000.0625,-400000.0625
263.60669445991516,-15498.349609375,-14843.9404296875,-23711.16015625,-400000.0625,-11278.009765625,-400000.0625,-400000.0625,-400000.0625
263.64061522483826,-15145.8798828125,-14493.75,-23365.599609375,-400000.0625,-10928.1103515625,-400000.0625,-400000.0625,-400000.0625
263.69196915626526,-15644.4599609375,-14996.8603515625,-23872.240234375,-400000.0625,-11042.830078125,-400000.0625,-400000.0625,-400000.0625
263.72939586639404,-16293.099609375,-15646.5498046875,-24514.25,-400000.0625,-11463.1201171875,-400000.0625,-400000.0625,-400000.0625
263.7636413574219,-16192.3896484375,-15539.599609375,-24407.91015625,-400000.0625,-11614.2802734375,-400000.0625,-400000.0625,-400000.0625
263.8307559490204,-15498.830078125,-14849.240234375,-23713.640625,-400000.0625,-11271.33984375,-400000.0625,-400000.0625,-400000.0625
263.87853360176086,-15155.7900390625,-14507.3896484375,-23374.80078125,-400000.0625,-10863.73046875,-400000.0625,-400000.0625,-400000.0625
263.9520525932312,-15641.0703125,-14991.7099609375,-23863.220703125,-400000.0625,-10995.9599609375,-400000.0625,-400000.0625,-400000.0625
263.99300503730774,-16284.51953125,-15639.740234375,-24504.240234375,-400000.0625,-11454.25,-400000.0625,-400000.0625,-400000.0625
264.05045461654663,-16201.259765625,-15560.6298828125,-24418.169921875,-400000.0625,-11568.830078125,-400000.0625,-400000.0625,-400000.0625
264.07853746414185,-15511.4697265625,-14859.580078125,-23724.369140625,-400000.0625,-11139.919921875,-400000.0625,-400000.0625,-400000.0625
264.1057963371277,-15156.7001953125,-14503.1904296875,-23370.69921875,-400000.0625,-10747.3896484375,-400000.0625,-400000.0625,-400000.0625
264.14712858200073,-15629.099609375,-14977.650390625,-23843.669921875,-400000.0625,-10939.599609375,-400000.0625,-400000.0625,-400000.0625
264.1651198863983,-16262.2900390625,-15612.26953125,-24475.859375,-400000.0625,-11428.830078125,-400000.0625,-400000.0625,-400000.0625
264.18309712409973,-16179.5595703125,-15527.8701171875,-24390.41015625,-400000.0625,-11522.490234375,-400000.0625,-400000.0625,-400000.0625
264.2056608200073,-15492.8701171875,-14839.98046875,-23704.25,-400000.0625,-11122.1796875,-400000.0625,-400000.0625,-400000.0625
264.22490334510803,-15141.2998046875,-14493.7099609375,-23355.060546875,-400000.0625,-10773.4697265625,-400000.0625,-400000.0625,-400000.0625
264.2593674659729,-15624.8095703125,-14975.83984375,-23840.140625,-400000.0625,-10955.6201171875,-400000.0625,-400000.0625,-400000.0625
264.27937173843384,-16260.580078125,-15615.1796875,-24479.439453125,-400000.0625,-11430.7900390625,-400000.0625,-400000.0625,-400000.0625
264.2978730201721,-16176.1796875,-15535.1201171875,-24391.560546875,-400000.0625,-11532.830078125,-400000.0625,-400000.0625,-400000.0625
264.3187897205353,-15492.3896484375,-14845.08984375,-23705.2890625,-400000.0625,-11124.7998046875,-400000.0625,-400000.0625,-400000.0625
264.33934354782104,-15141.2001953125,-14489.990234375,-23352.48046875,-400000.0625,-10772.4697265625,-400000.0625,-400000.0625,-400000.0625
264.38060665130615,-15619.7998046875,-14967.8203125,-23829.029296875,-400000.0625,-10948.23046875,-400000.0625,-400000.0625,-400000.0625
264.3968062400818,-16258.1904296875,-15607.4501953125,-24469.0,-400000.0625,-11427.830078125,-400000.0625,-400000.0625,-400000.0625
264.42224311828613,-16178.23046875,-15528.3896484375,-24386.689453125,-400000.0625,-11549.51953125,-400000.0625,-400000.0625,-400000.0625
264.4436767101288,-15494.5400390625,-14840.1796875,-23697.5703125,-400000.0625,-11179.0703125,-400000.0625,-400000.0625,-400000.0625
264.4880154132843,-15141.009765625,-14484.740234375,-23346.7109375,-400000.0625,-10836.8896484375,-400000.0625,-400000.0625,-400000.0625
264.5098934173584,-15623.1396484375,-14979.169921875,-23834.7109375,-400000.0625,-10984.66015625,-400000.0625,-400000.0625,-400000.0625
264.5260124206543,-16260.48046875,-15616.509765625,-24472.91015625,-400000.0625,-11425.830078125,-400000.0625,-400000.0625,-400000.0625
264.546199798584,-16181.2802734375,-15542.3701171875,-24395.1796875,-400000.0625,-11550.8603515625,-400000.0625,-400000.0625,-400000.0625
264.58678698539734,-15498.400390625,-14853.33984375,-23708.970703125,-400000.0625,-11171.76953125,-400000.0625,-400000.0625,-400000.0625
264.61102318763733,-15136.2001953125,-14490.509765625,-23348.91015625,-400000.0625,-10825.6396484375,-400000.0625,-400000.0625,-400000.0625
264.63054037094116,-15607.169921875,-14961.76953125,-23823.689453125,-400000.0625,-10952.51953125,-400000.0625,-400000.0625,-400000.0625
264.6525824069977,-16238.8798828125,-15597.8701171875,-24455.880859375,-400000.0625,-11411.3798828125,-400000.0625,-400000.0625,-400000.0625
264.69122886657715,-16160.1103515625,-15518.759765625,-24373.150390625,-400000.0625,-11527.830078125,-400000.0625,-400000.0625,-400000.0625
264.71175241470337,-15486.150390625,-14839.169921875,-23695.330078125,-400000.0625,-11162.330078125,-400000.0625,-400000.0625,-400000.0625
264.7366602420807,-15139.2998046875,-14488.080078125,-23346.470703125,-400000.0625,-10823.4404296875,-400000.0625,-400000.0625,-400000.0625
264.76131796836853,-15616.2802734375,-14971.349609375,-23828.130859375,-400000.0625,-10966.400390625,-400000.0625,-400000.0625,-400000.0625
264.8024981021881,-16248.1796875,-15604.349609375,-24457.41015625,-400000.0625,-11405.1796875,-400000.0625,-400000.0625,-400000.0625
264.82657408714294,-16159.9697265625,-15516.1904296875,-24367.4296875,-400000.0625,-11556.4404296875,-400000.0625,-400000.0625,-400000.0625
264.84641122817993,-15478.1396484375,-14831.7802734375,-23684.55078125,-400000.0625,-11273.5302734375,-400000.0625,-400000.0625,-400000.0625
264.8674578666687,-15138.150390625,-14496.4697265625,-23350.4296875,-400000.0625,-10948.3701171875,-400000.0625,-400000.0625,-400000.0625
264.90861535072327,-15622.8095703125,-14979.8896484375,-23832.900390625,-400000.0625,-11016.7998046875,-400000.0625,-400000.0625,-400000.0625
264.9301755428314,-16239.83984375,-15602.5400390625,-24453.359375,-400000.0625,-11407.2802734375,-400000.0625,-400000.0625,-400000.0625
264.95440554618835,-16151.6201171875,-15508.26953125,-24362.0390625,-400000.0625,-11530.58984375,-400000.0625,-400000.0625,-400000.0625
264.981942653656,-15480.8095703125,-14833.4501953125,-23688.75,-400000.0625,-11187.1298828125,-400000.0625,-400000.0625,-400000.0625
265.01790404319763,-15140.8203125,-14495.7099609375,-23350.33984375,-400000.0625,-10848.08984375,-400000.0625,-400000.0625,-400000.0625
265.0369985103607,-15610.83984375,-14971.58984375,-23824.98046875,-400000.0625,-10963.5400390625,-400000.0625,-400000.0625,-400000.0625
265.06433510780334,-16231.16015625,-15587.0498046875,-24438.0,-400000.0625,-11385.7802734375,-400000.0625,-400000.0625,-400000.0625
265.10720205307007,-16145.7998046875,-15501.5498046875,-24350.9296875,-400000.0625,-11507.509765625,-400000.0625,-400000.0625,-400000.0625
265.16259264945984,-15486.33984375,-14843.849609375,-23694.23046875,-400000.0625,-11152.8896484375,-400000.0625,-400000.0625,-400000.0625
265.18456387519836,-15152.7900390625,-14504.5302734375,-23358.19921875,-400000.0625,-10804.26953125,-400000.0625,-400000.0625,-400000.0625
265.2192232608795,-15609.2197265625,-14965.8203125,-23815.25,-400000.0625,-10945.23046875,-400000.0625,-400000.0625,-400000.0625
265.2873122692108,-16221.48046875,-15593.8603515625,-24431.849609375,-400000.0625,-11380.9599609375,-400000.0625,-400000.0625,-400000.0625
265.3257133960724,-16142.8896484375,-15506.2197265625,-24353.939453125,-400000.0625,-11492.9697265625,-400000.0625,-400000.0625,-400000.0625
265.37401819229126,-15502.3095703125,-14838.2197265625,-23687.75,-400000.0625,-11116.3203125,-400000.0625,-400000.0625,-400000.0625
265.3945240974426,-15165.2802734375,-14493.4697265625,-23345.7109375,-400000.0625,-10752.76953125,-400000.0625,-400000.0625,-400000.0625
265.41596031188965,-15624.3798828125,-14945.9404296875,-23801.0390625,-400000.0625,-10912.419921875,-400000.0625,-400000.0625,-400000.0625
265.4425792694092,-16249.7099609375,-15567.58984375,-24417.259765625,-400000.0625,-11381.48046875,-400000.0625,-400000.0625,-400000.0625
265.50171756744385,-16185.0498046875,-15488.91015625,-24342.400390625,-400000.0625,-11491.2001953125,-400000.0625,-400000.0625,-400000.0625
265.5378589630127,-15526.8203125,-14825.3896484375,-23678.44921875,-400000.0625,-11074.01953125,-400000.0625,-400000.0625,-400000.0625
265.5700349807739,-15177.919921875,-14479.400390625,-23332.259765625,-400000.0625,-10713.9599609375,-400000.0625,-400000.0625,-400000.0625
265.6343004703522,-15639.16015625,-14946.4599609375,-23797.560546875,-400000.0625,-10912.7099609375,-400000.0625,-400000.0625,-400000.0625
265.6732859611511,-16267.830078125,-15575.98046875,-24422.310546875,-400000.0625,-11387.5400390625,-400000.0625,-400000.0625,-400000.0625
265.73182368278503,-16198.1103515625,-15510.6103515625,-24353.890625,-400000.0625,-11488.73046875,-400000.0625,-400000.0625,-400000.0625
265.770724773407,-15542.1796875,-14848.08984375,-23689.69921875,-400000.0625,-11082.75,-400000.0625,-400000.0625,-400000.0625
265.80503153800964,-15181.919921875,-14486.3603515625,-23332.7890625,-400000.0625,-10724.3603515625,-400000.0625,-400000.0625,-400000.0625
265.8474202156067,-15637.2099609375,-14942.1201171875,-23788.5,-400000.0625,-10910.1298828125,-400000.0625,-400000.0625,-400000.0625
265.8736147880554,-16267.9697265625,-15580.3701171875,-24421.890625,-400000.0625,-11385.25,-400000.0625,-400000.0625,-400000.0625
265.9028685092926,-16204.9296875,-15517.2802734375,-24359.900390625,-400000.0625,-11496.9296875,-400000.0625,-400000.0625,-400000.0625
265.94491267204285,-15544.4599609375,-14858.6796875,-23698.759765625,-400000.0625,-11109.2099609375,-400000.0625,-400000.0625,-400000.0625
266.00919222831726,-15184.7900390625,-14492.4697265625,-23338.849609375,-400000.0625,-10762.0302734375,-400000.0625,-400000.0625,-400000.0625
266.0336184501648,-15639.9697265625,-14952.1396484375,-23798.369140625,-400000.0625,-10932.7802734375,-400000.0625,-400000.0625,-400000.0625
266.0586931705475,-16270.9296875,-15593.580078125,-24432.140625,-400000.0625,-11397.169921875,-400000.0625,-400000.0625,-400000.0625
266.0988733768463,-16203.6904296875,-15523.8603515625,-24362.380859375,-400000.0625,-11511.330078125,-400000.0625,-400000.0625,-400000.0625
266.12310814857483,-15541.4599609375,-14855.669921875,-23699.619140625,-400000.0625,-11121.5595703125,-400000.0625,-400000.0625,-400000.0625
266.1409590244293,-15186.3603515625,-14499.8095703125,-23344.140625,-400000.0625,-10762.650390625,-400000.0625,-400000.0625,-400000.0625
266.1601951122284,-15634.8203125,-14948.3203125,-23794.029296875,-400000.0625,-10923.8603515625,-400000.0625,-400000.0625,-400000.0625
266.1959156990051,-16254.3798828125,-15574.080078125,-24414.259765625,-400000.0625,-11388.919921875,-400000.0625,-400000.0625,-400000.0625
266.2150990962982,-16195.349609375,-15512.0400390625,-24353.3203125,-400000.0625,-11502.0302734375,-400000.0625,-400000.0625,-400000.0625
266.233952999115,-15536.169921875,-14853.5302734375,-23699.140625,-400000.0625,-11114.83984375,-400000.0625,-400000.0625,-400000.0625
266.251033782959,-15173.33984375,-14499.1396484375,-23341.369140625,-400000.0625,-10768.5595703125,-400000.0625,-400000.0625,-400000.0625
266.2725160121918,-15627.240234375,-14949.900390625,-23793.990234375,-400000.0625,-10932.259765625,-400000.0625,-400000.0625,-400000.0625
266.3076751232147,-16247.66015625,-15576.080078125,-24417.400390625,-400000.0625,-11384.76953125,-400000.0625,-400000.0625,-400000.0625
266.3273596763611,-16187.669921875,-15510.6103515625,-24348.7890625,-400000.0625,-11467.3603515625,-400000.0625,-400000.0625,-400000.0625
266.34452271461487,-15531.490234375,-14851.4296875,-23693.0390625,-400000.0625,-11042.5,-400000.0625,-400000.0625,-400000.0625
266.3645775318146,-15174.25,-14495.419921875,-23338.080078125,-400000.0625,-10678.669921875,-400000.0625,-400000.0625,-400000.0625
266.3856692314148,-15616.3701171875,-14937.6904296875,-23783.5,-400000.0625,-10881.7099609375,-400000.0625,-400000.0625,-400000.0625
266.42594027519226,-16232.2998046875,-15556.8603515625,-24400.759765625,-400000.0625,-11366.75,-400000.0625,-400000.0625,-400000.0625
266.44428396224976,-16176.990234375,-15501.01953125,-24340.5390625,-400000.0625,-11448.48046875,-400000.0625,-400000.0625,-400000.0625
266.46607732772827,-15528.919921875,-14850.48046875,-23691.990234375,-400000.0625,-11020.0400390625,-400000.0625,-400000.0625,-400000.0625
266.52609419822693,-15173.3896484375,-14490.080078125,-23338.609375,-400000.0625,-10668.849609375,-400000.0625,-400000.0625,-400000.0625
266.64728808403015,-15611.169921875,-14940.1201171875,-23779.6796875,-400000.0625,-10879.4697265625,-400000.0625,-400000.0625,-400000.0625
266.7418749332428,-16226.8701171875,-15557.5302734375,-24399.859375,-400000.0625,-11366.6103515625,-400000.0625,-400000.0625,-400000.0625
266.8026559352875,-16170.740234375,-15497.8798828125,-24341.009765625,-400000.0625,-11447.240234375,-400000.0625,-400000.0625,-400000.0625
266.9112491607666,-15523.33984375,-14848.51953125,-23691.939453125,-400000.0625,-11009.0302734375,-400000.0625,-400000.0625,-400000.0625
267.03698205947876,-15164.7099609375,-14485.0703125,-23330.880859375,-400000.0625,-10662.1796875,-400000.0625,-400000.0625,-400000.0625
267.1612355709076,-15604.6904296875,-14928.25,-23772.669921875,-400000.0625,-10876.1298828125,-400000.0625,-400000.0625,-400000.0625
267.2797751426697,-16223.8603515625,-15555.669921875,-24396.51953125,-400000.0625,-11357.8798828125,-400000.0625,-400000.0625,-400000.0625
267.3869614601135,-16172.3603515625,-15497.01953125,-24339.390625,-400000.0625,-11452.8701171875,-400000.0625,-400000.0625,-400000.0625
267.5209584236145,-15523.91015625,-14848.759765625,-23687.41015625,-400000.0625,-11043.1201171875,-400000.0625,-400000.0625,-400000.0625
267.63523864746094,-15164.900390625,-14489.7998046875,-23331.740234375,-400000.0625,-10696.3203125,-400000.0625,-400000.0625,-400000.0625
267.75119638442993,-15602.8798828125,-14931.6298828125,-23776.009765625,-400000.0625,-10886.6201171875,-400000.0625,-400000.0625,-400000.0625
267.8833820819855,-16232.6396484375,-15561.2998046875,-24402.2890625,-400000.0625,-11366.8896484375,-400000.0625,-400000.0625,-400000.0625
268.03036761283875,-16182.3798828125,-15513.330078125,-24349.7890625,-400000.0625,-11460.400390625,-400000.0625,-400000.0625,-400000.0625
268.2035610675812,-15531.1103515625,-14863.1103515625,-23698.619140625,-400000.0625,-11036.1103515625,-400000.0625,-400000.0625,-400000.0625
268.35101294517517,-15165.1396484375,-14487.5498046875,-23330.640625,-400000.0625,-10673.4296875,-400000.0625,-400000.0625,-400000.0625
268.45463347435,-15595.5302734375,-14920.8603515625,-23765.51953125,-400000.0625,-10873.8896484375,-400000.0625,-400000.0625,-400000.0625
268.5765504837036,-16223.8095703125,-15553.5703125,-24392.609375,-400000.0625,-11368.6103515625,-400000.0625,-400000.0625,-400000.0625
268.7060568332672,-16175.9404296875,-15500.4501953125,-24341.490234375,-400000.0625,-11462.2099609375,-400000.0625,-400000.0625,-400000.0625
268.82274651527405,-15528.58984375,-14851.51953125,-23690.3203125,-400000.0625,-11034.5400390625,-400000.0625,-400000.0625,-400000.0625
268.9793429374695,-15166.5703125,-14488.3603515625,-23330.169921875,-400000.0625,-10676.91015625,-400000.0625,-400000.0625,-400000.0625
269.1190571784973,-15595.9599609375,-14921.1904296875,-23764.470703125,-400000.0625,-10866.599609375,-400000.0625,-400000.0625,-400000.0625
269.27021622657776,-16213.4697265625,-15538.650390625,-24379.2109375,-400000.0625,-11348.8203125,-400000.0625,-400000.0625,-400000.0625
269.3746988773346,-16167.7900390625,-15494.6796875,-24332.099609375,-400000.0625,-11452.2900390625,-400000.0625,-400000.0625,-400000.0625
269.53124380111694,-15525.2001953125,-14851.240234375,-23690.080078125,-400000.0625,-11044.5,-400000.0625,-400000.0625,-400000.0625
269.65963196754456,-15166.3798828125,-14488.41015625,-23328.58984375,-400000.0625,-10695.740234375,-400000.0625,-400000.0625,-400000.0625
269.7867259979248,-15597.2998046875,-14918.1904296875,-23763.609375,-400000.0625,-10880.5703125,-400000.0625,-400000.0625,-400000.0625
269.9189832210541,-16210.990234375,-15535.4501953125,-24377.919921875,-400000.0625,-11350.73046875,-400000.0625,-400000.0625,-400000.0625
270.0453112125397,-16161.2099609375,-15487.48046875,-24328.189453125,-400000.0625,-11459.2998046875,-400000.0625,-400000.0625,-400000.0625
270.1799328327179,-15518.5703125,-14848.759765625,-23689.849609375,-400000.0625,-11054.66015625,-400000.0625,-400000.0625,-400000.0625
270.3020350933075,-15159.080078125,-14491.9404296875,-23332.599609375,-400000.0625,-10699.7998046875,-400000.0625,-400000.0625,-400000.0625
270.42875623703003,-15586.08984375,-14921.669921875,-23759.80078125,-400000.0625,-10880.849609375,-400000.0625,-400000.0625,-400000.0625
270.55427074432373,-16211.5595703125,-15546.1298828125,-24385.650390625,-400000.0625,-11354.2099609375,-400000.0625,-400000.0625,-400000.0625
270.6880853176117,-16170.3095703125,-15501.5498046875,-24336.529296875,-400000.0625,-11458.9697265625,-400000.0625,-400000.0625,-400000.0625
270.81678009033203,-15529.5400390625,-14861.25,-23695.51953125,-400000.0625,-11074.6904296875,-400000.0625,-400000.0625,-400000.0625
270.9525218009949,-15163.5703125,-14491.6103515625,-23332.41015625,-400000.0625,-10747.33984375,-400000.0625,-400000.0625,-400000.0625
271.0888750553131,-15596.580078125,-14931.5400390625,-23768.05078125,-400000.0625,-10906.26953125,-400000.0625,-400000.0625,-400000.0625
271.22962760925293,-16220.5703125,-15552.4296875,-24395.330078125,-400000.0625,-11363.3603515625,-400000.0625,-400000.0625,-400000.0625
271.3485541343689,-16174.26953125,-15503.5,-24347.55078125,-400000.0625,-11473.66015625,-400000.0625,-400000.0625,-400000.0625
271.47083830833435,-15525.4404296875,-14860.4404296875,-23698.2890625,-400000.0625,-11062.580078125,-400000.0625,-400000.0625,-400000.0625
271.609486579895,-15161.23046875,-14501.8603515625,-23334.4609375,-400000.0625,-10687.0703125,-400000.0625,-400000.0625,-400000.0625
271.82866406440735,-15590.9599609375,-14937.9296875,-23768.810546875,-400000.0625,-10876.849609375,-400000.0625,-400000.0625,-400000.0625
271.9264099597931,-16220.3798828125,-15563.25,-24395.51953125,-400000.0625,-11350.0595703125,-400000.0625,-400000.0625,-400000.0625
271.9650888442993,-16175.3701171875,-15514.9501953125,-24347.9296875,-400000.0625,-11464.0703125,-400000.0625,-400000.0625,-400000.0625
272.02804827690125,-15530.01953125,-14869.5,-23704.099609375,-400000.0625,-11082.41015625,-400000.0625,-400000.0625,-400000.0625
272.0656478404999,-15166.8095703125,-14507.5302734375,-23341.560546875,-400000.0625,-10738.5595703125,-400000.0625,-400000.0625,-400000.0625
272.13500475883484,-15594.150390625,-14933.349609375,-23771.380859375,-400000.0625,-10897.1103515625,-400000.0625,-400000.0625,-400000.0625
272.2421929836273,-16204.9296875,-15548.7998046875,-24384.9296875,-400000.0625,-11338.330078125,-400000.0625,-400000.0625,-400000.0625
272.31142592430115,-16156.7197265625,-15501.3603515625,-24335.91015625,-400000.0625,-11465.740234375,-400000.0625,-400000.0625,-400000.0625
272.35691261291504,-15511.419921875,-14851.669921875,-23689.23046875,-400000.0625,-11133.150390625,-400000.0625,-400000.0625,-400000.0625
272.40898609161377,-15156.5595703125,-14498.1904296875,-23332.650390625,-400000.0625,-10814.6201171875,-400000.0625,-400000.0625,-400000.0625
272.4430377483368,-15592.4296875,-14935.7802734375,-23773.4296875,-400000.0625,-10926.5302734375,-400000.0625,-400000.0625,-400000.0625
272.518798828125,-16212.080078125,-15556.099609375,-24393.990234375,-400000.0625,-11352.349609375,-400000.0625,-400000.0625,-400000.0625
272.5641276836395,-16165.5400390625,-15506.8896484375,-24342.5390625,-400000.0625,-11489.349609375,-400000.0625,-400000.0625,-400000.0625
272.59886026382446,-15524.099609375,-14867.400390625,-23702.859375,-400000.0625,-11151.0302734375,-400000.0625,-400000.0625,-400000.0625
272.6488196849823,-15160.66015625,-14505.91015625,-23340.080078125,-400000.0625,-10790.5400390625,-400000.0625,-400000.0625,-400000.0625
272.71410489082336,-15585.23046875,-14929.2998046875,-23767.759765625,-400000.0625,-10910.66015625,-400000.0625,-400000.0625,-400000.0625
272.7453918457031,-16199.73046875,-15548.1796875,-24382.740234375,-400000.0625,-11341.6201171875,-400000.0625,-400000.0625,-400000.0625
272.78453540802,-16160.58984375,-15507.1298828125,-24341.400390625,-400000.0625,-11451.8203125,-400000.0625,-400000.0625,-400000.0625
272.8692846298218,-15524.6796875,-14866.58984375,-23702.8203125,-400000.0625,-11063.0498046875,-400000.0625,-400000.0625,-400000.0625
272.91434717178345,-15158.1796875,-14510.7802734375,-23341.939453125,-400000.0625,-10702.1298828125,-400000.0625,-400000.0625,-400000.0625
272.9603109359741,-15574.26953125,-14925.33984375,-23762.900390625,-400000.0625,-10872.8896484375,-400000.0625,-400000.0625,-400000.0625
272.9807379245758,-16193.6796875,-15549.330078125,-24383.7890625,-400000.0625,-11342.5703125,-400000.0625,-400000.0625,-400000.0625
273.0048360824585,-16160.1103515625,-15512.2802734375,-24343.2109375,-400000.0625,-11451.2001953125,-400000.0625,-400000.0625,-400000.0625
273.04303193092346,-15528.9697265625,-14874.26953125,-23706.869140625,-400000.0625,-11053.900390625,-400000.0625,-400000.0625,-400000.0625
273.0974590778351,-15155.98046875,-14498.900390625,-23333.69921875,-400000.0625,-10700.080078125,-400000.0625,-400000.0625,-400000.0625
273.1637079715729,-15575.26953125,-14925.5302734375,-23761.1796875,-400000.0625,-10875.4599609375,-400000.0625,-400000.0625,-400000.0625
273.2368927001953,-16194.8701171875,-15545.26953125,-24379.689453125,-400000.0625,-11339.6201171875,-400000.0625,-400000.0625,-400000.0625
273.28165078163147,-16170.3603515625,-15518.8603515625,-24350.0703125,-400000.0625,-11435.6103515625,-400000.0625,-400000.0625,-400000.0625
273.3292598724365,-15539.169921875,-14884.66015625,-23719.169921875,-400000.0625,-11018.849609375,-400000.0625,-400000.0625,-400000.0625
273.35908699035645,-15164.23046875,-14512.2998046875,-23346.189453125,-400000.0625,-10661.83984375,-400000.0625,-400000.0625,-400000.0625
273.39933586120605,-15576.9404296875,-14929.009765625,-23764.369140625,-400000.0625,-10854.150390625,-400000.0625,-400000.0625,-400000.0625
273.4493794441223,-16209.8896484375,-15559.0595703125,-24395.66015625,-400000.0625,-11356.5498046875,-400000.0625,-400000.0625,-400000.0625
273.48662972450256,-16181.1396484375,-15533.7802734375,-24368.150390625,-400000.0625,-11463.98046875,-400000.0625,-400000.0625,-400000.0625
273.51853346824646,-15545.66015625,-14896.9697265625,-23729.330078125,-400000.0625,-11030.3896484375,-400000.0625,-400000.0625,-400000.0625
273.58235144615173,-15161.5595703125,-14510.58984375,-23347.94921875,-400000.0625,-10658.3095703125,-400000.0625,-400000.0625,-400000.0625
273.62075209617615,-15578.6103515625,-14928.2998046875,-23767.900390625,-400000.0625,-10862.259765625,-400000.0625,-400000.0625,-400000.0625
273.67725348472595,-16219.759765625,-15572.259765625,-24408.150390625,-400000.0625,-11364.0302734375,-400000.0625,-400000.0625,-400000.0625
273.7121603488922,-16203.5,-15555.669921875,-24389.939453125,-400000.0625,-11469.990234375,-400000.0625,-400000.0625,-400000.0625
273.74700570106506,-15557.0498046875,-14906.169921875,-23740.25,-400000.0625,-11034.009765625,-400000.0625,-400000.0625,-400000.0625
273.8021013736725,-15164.900390625,-14514.16015625,-23353.76953125,-400000.0625,-10656.599609375,-400000.0625,-400000.0625,-400000.0625
273.8278431892395,-15577.599609375,-14927.7197265625,-23765.51953125,-400000.0625,-10853.8603515625,-400000.0625,-400000.0625,-400000.0625
273.8503894805908,-16218.1904296875,-15573.5498046875,-24406.8203125,-400000.0625,-11363.4599609375,-400000.0625,-400000.0625,-400000.0625
273.8943569660187,-16201.16015625,-15550.7099609375,-24381.779296875,-400000.0625,-11474.419921875,-400000.0625,-400000.0625,-400000.0625
273.91439056396484,-15557.9599609375,-14901.400390625,-23736.33984375,-400000.0625,-11045.0302734375,-400000.0625,-400000.0625,-400000.0625
273.93362855911255,-15164.1904296875,-14506.009765625,-23342.7109375,-400000.0625,-10651.919921875,-400000.0625,-400000.0625,-400000.0625
273.9496033191681,-15569.400390625,-14918.3798828125,-23752.55078125,-400000.0625,-10843.5595703125,-400000.0625,-400000.0625,-400000.0625
273.9729413986206,-16204.650390625,-15554.240234375,-24388.169921875,-400000.0625,-11346.2001953125,-400000.0625,-400000.0625,-400000.0625
274.00755763053894,-16184.5703125,-15539.4599609375,-24371.439453125,-400000.0625,-11457.919921875,-400000.0625,-400000.0625,-400000.0625
274.02795124053955,-15550.2802734375,-14898.2998046875,-23734.859375,-400000.0625,-11027.0,-400000.0625,-400000.0625,-400000.0625
274.0505521297455,-15165.4296875,-14508.8701171875,-23349.099609375,-400000.0625,-10649.8701171875,-400000.0625,-400000.0625,-400000.0625
274.07231545448303,-15567.349609375,-14916.849609375,-23753.5,-400000.0625,-10843.990234375,-400000.0625,-400000.0625,-400000.0625
274.0892107486725,-16203.3603515625,-15557.099609375,-24390.650390625,-400000.0625,-11347.2998046875,-400000.0625,-400000.0625,-400000.0625
274.12686038017273,-16187.7197265625,-15540.080078125,-24374.109375,-400000.0625,-11450.009765625,-400000.0625,-400000.0625,-400000.0625
274.1479539871216,-15547.7099609375,-14902.9697265625,-23735.4296875,-400000.0625,-11010.26953125,-400000.0625,-400000.0625,-400000.0625
274.1711254119873,-15153.26953125,-14512.16015625,-23345.23046875,-400000.0625,-10627.3701171875,-400000.0625,-400000.0625,-400000.0625
274.1911563873291,-15562.76953125,-14920.0,-23758.83984375,-400000.0625,-10837.41015625,-400000.0625,-400000.0625,-400000.0625
274.22676491737366,-16202.5,-15561.3896484375,-24396.5703125,-400000.0625,-11347.25,-400000.0625,-400000.0625,-400000.0625
274.24919867515564,-16184.4296875,-15545.3203125,-24374.9609375,-400000.0625,-11442.3798828125,-400000.0625,-400000.0625,-400000.0625
274.27177143096924,-15546.1298828125,-14900.7802734375,-23734.759765625,-400000.0625,-10996.76953125,-400000.0625,-400000.0625,-400000.0625
274.290869474411,-15157.0302734375,-14509.16015625,-23346.759765625,-400000.0625,-10606.099609375,-400000.0625,-400000.0625,-400000.0625
274.31082701683044,-15556.6201171875,-14910.1796875,-23746.25,-400000.0625,-10818.48046875,-400000.0625,-400000.0625,-400000.0625
274.34870052337646,-16194.2998046875,-15551.0,-24380.5,-400000.0625,-11342.5302734375,-400000.0625,-400000.0625,-400000.0625
274.36956810951233,-16180.990234375,-15540.7001953125,-24369.669921875,-400000.0625,-11436.75,-400000.0625,-400000.0625,-400000.0625
274.3940155506134,-15542.2197265625,-14902.9296875,-23731.279296875,-400000.0625,-10979.990234375,-400000.0625,-400000.0625,-400000.0625
274.4189336299896,-15154.0302734375,-14511.16015625,-23342.08984375,-400000.0625,-10610.33984375,-400000.0625,-400000.0625,-400000.0625
274.4678843021393,-15554.3798828125,-14908.83984375,-23743.439453125,-400000.0625,-10826.7802734375,-400000.0625,-400000.0625,-400000.0625
274.48654222488403,-16182.51953125,-15543.990234375,-24376.970703125,-400000.0625,-11335.51953125,-400000.0625,-400000.0625,-400000.0625
274.5106785297394,-16176.3203125,-15533.01953125,-24362.849609375,-400000.0625,-11435.5595703125,-400000.0625,-400000.0625,-400000.0625
274.53726387023926,-15545.9404296875,-14901.4501953125,-23732.94921875,-400000.0625,-11004.01953125,-400000.0625,-400000.0625,-400000.0625
274.5864317417145,-15159.509765625,-14511.6298828125,-23345.5703125,-400000.0625,-10631.6103515625,-400000.0625,-400000.0625,-400000.0625
274.6068506240845,-15551.900390625,-14909.9404296875,-23742.76953125,-400000.0625,-10829.8798828125,-400000.0625,-400000.0625,-400000.0625
274.6353807449341,-16180.3701171875,-15542.1796875,-24374.439453125,-400000.0625,-11330.080078125,-400000.0625,-400000.0625,-400000.0625
274.65451979637146,-16167.0703125,-15528.9697265625,-24360.51953125,-400000.0625,-11424.73046875,-400000.0625,-400000.0625,-400000.0625
274.6969599723816,-15537.650390625,-14895.9697265625,-23732.140625,-400000.0625,-10992.0,-400000.0625,-400000.0625,-400000.0625
274.71737575531006,-15151.5498046875,-14510.3896484375,-23347.94921875,-400000.0625,-10632.849609375,-400000.0625,-400000.0625,-400000.0625
274.73937344551086,-15547.08984375,-14907.4599609375,-23744.400390625,-400000.0625,-10827.830078125,-400000.0625,-400000.0625,-400000.0625
274.7576365470886,-16171.0302734375,-15532.349609375,-24367.189453125,-400000.0625,-11320.58984375,-400000.0625,-400000.0625,-400000.0625
274.83051204681396,-16157.25,-15522.91015625,-24353.359375,-400000.0625,-11411.2900390625,-400000.0625,-400000.0625,-400000.0625
274.87264013290405,-15534.6396484375,-14899.01953125,-23729.7109375,-400000.0625,-10970.6396484375,-400000.0625,-400000.0625,-400000.0625
274.9375786781311,-15153.169921875,-14514.4501953125,-23348.0,-400000.0625,-10600.6201171875,-400000.0625,-400000.0625,-400000.0625
274.9929287433624,-15540.169921875,-14902.6904296875,-23738.099609375,-400000.0625,-10810.8095703125,-400000.0625,-400000.0625,-400000.0625
275.06954741477966,-16162.01953125,-15531.58984375,-24362.380859375,-400000.0625,-11317.490234375,-400000.0625,-400000.0625,-400000.0625
275.09789395332336,-16161.7802734375,-15520.669921875,-24357.890625,-400000.0625,-11410.4296875,-400000.0625,-400000.0625,-400000.0625
275.14344239234924,-15539.4599609375,-14899.58984375,-23736.05078125,-400000.0625,-10966.6796875,-400000.0625,-400000.0625,-400000.0625
275.1683065891266,-15148.3603515625,-14511.349609375,-23346.94921875,-400000.0625,-10603.1904296875,-400000.0625,-400000.0625,-400000.0625
275.1961262226105,-15538.650390625,-14901.16015625,-23737.859375,-400000.0625,-10812.8603515625,-400000.0625,-400000.0625,-400000.0625
275.2353706359863,-16169.0302734375,-15537.3603515625,-24367.05078125,-400000.0625,-11321.3603515625,-400000.0625,-400000.0625,-400000.0625
275.2835166454315,-16163.9697265625,-15528.0595703125,-24359.279296875,-400000.0625,-11410.240234375,-400000.0625,-400000.0625,-400000.0625
275.319931268692,-15538.41015625,-14893.490234375,-23733.94921875,-400000.0625,-10948.419921875,-400000.0625,-400000.0625,-400000.0625
275.3512210845947,-15146.6904296875,-14503.240234375,-23348.669921875,-400000.0625,-10572.2900390625,-400000.0625,-400000.0625,-400000.0625
275.41000843048096,-15534.5498046875,-14897.830078125,-23740.439453125,-400000.0625,-10802.4599609375,-400000.0625,-400000.0625,-400000.0625
275.449613571167,-16169.2197265625,-15532.6904296875,-24372.150390625,-400000.0625,-11327.83984375,-400000.0625,-400000.0625,-400000.0625
275.48308396339417,-16172.509765625,-15533.9296875,-24373.490234375,-400000.0625,-11419.3896484375,-400000.0625,-400000.0625,-400000.0625
275.5327293872833,-15553.2900390625,-14910.0302734375,-23753.41015625,-400000.0625,-10965.6298828125,-400000.0625,-400000.0625,-400000.0625
275.55836510658264,-15151.3095703125,-14511.6298828125,-23352.720703125,-400000.0625,-10582.349609375,-400000.0625,-400000.0625,-400000.0625
275.591420173645,-15528.73046875,-14888.5703125,-23732.859375,-400000.0625,-10801.0302734375,-400000.0625,-400000.0625,-400000.0625
275.6542274951935,-16148.900390625,-15510.26953125,-24352.119140625,-400000.0625,-11308.8603515625,-400000.0625,-400000.0625,-400000.0625
275.69202399253845,-16144.9501953125,-15506.650390625,-24348.259765625,-400000.0625,-11385.6796875,-400000.0625,-400000.0625,-400000.0625
275.7401406764984,-15533.400390625,-14888.099609375,-23729.759765625,-400000.0625,-10929.4404296875,-400000.0625,-400000.0625,-400000.0625
275.77181673049927,-15147.4501953125,-14504.240234375,-23346.330078125,-400000.0625,-10566.1904296875,-400000.0625,-400000.0625,-400000.0625
275.7923672199249,-15524.150390625,-14883.0,-23724.130859375,-400000.0625,-10785.8701171875,-400000.0625,-400000.0625,-400000.0625
275.83735513687134,-16130.7802734375,-15490.580078125,-24332.189453125,-400000.0625,-11290.2197265625,-400000.0625,-400000.0625,-400000.0625
275.8647654056549,-16128.58984375,-15491.73046875,-24332.33984375,-400000.0625,-11376.9501953125,-400000.0625,-400000.0625,-400000.0625
275.88264560699463,-15526.25,-14889.1904296875,-23726.509765625,-400000.0625,-10931.8701171875,-400000.0625,-400000.0625,-400000.0625
275.9022626876831,-15139.6298828125,-14501.6201171875,-23343.900390625,-400000.0625,-10563.4697265625,-400000.0625,-400000.0625,-400000.0625
275.9373605251312,-15523.2001953125,-14885.8603515625,-23730.5703125,-400000.0625,-10792.73046875,-400000.0625,-400000.0625,-400000.0625
275.96455693244934,-16147.08984375,-15518.7099609375,-24357.509765625,-400000.0625,-11309.91015625,-400000.0625,-400000.0625,-400000.0625
275.99067187309265,-16155.4404296875,-15526.3896484375,-24363.380859375,-400000.0625,-11407.23046875,-400000.0625,-400000.0625,-400000.0625
276.0109717845917,-15546.4697265625,-14909.1298828125,-23746.6796875,-400000.0625,-10957.91015625,-400000.0625,-400000.0625,-400000.0625
276.047691822052,-15147.6396484375,-14509.2998046875,-23350.0,-400000.0625,-10586.5498046875,-400000.0625,-400000.0625,-400000.0625
276.06716299057007,-15527.73046875,-14896.58984375,-23736.2890625,-400000.0625,-10802.5595703125,-400000.0625,-400000.0625,-400000.0625
276.0848205089569,-16165.830078125,-15537.41015625,-24376.349609375,-400000.0625,-11324.599609375,-400000.0625,-400000.0625,-400000.0625
276.1027171611786,-16175.7998046875,-15542.509765625,-24380.73046875,-400000.0625,-11425.5400390625,-400000.0625,-400000.0625,-400000.0625
276.1223633289337,-15552.9501953125,-14920.759765625,-23756.69921875,-400000.0625,-10971.3095703125,-400000.0625,-400000.0625,-400000.0625
276.1619758605957,-15147.01953125,-14512.2099609375,-23350.2890625,-400000.0625,-10581.7802734375,-400000.0625,-400000.0625,-400000.0625
276.1773977279663,-15527.5400390625,-14900.6396484375,-23734.2890625,-400000.0625,-10796.41015625,-400000.0625,-400000.0625,-400000.0625
276.19558572769165,-16141.26953125,-15529.73046875,-24364.619140625,-400000.0625,-11318.5400390625,-400000.0625,-400000.0625,-400000.0625
276.2135932445526,-16141.509765625,-15522.5302734375,-24370.2890625,-400000.0625,-11410.759765625,-400000.0625,-400000.0625,-400000.0625
276.2335739135742,-15520.48046875,-14914.0400390625,-23760.26953125,-400000.0625,-10954.8603515625,-400000.0625,-400000.0625,-400000.0625
276.2687017917633,-15116.83984375,-14521.8896484375,-23368.080078125,-400000.0625,-10577.490234375,-400000.0625,-400000.0625,-400000.0625
276.30499386787415,-15484.1396484375,-14898.16015625,-23743.970703125,-400000.0625,-10792.2998046875,-400000.0625,-400000.0625,-400000.0625
276.3473229408264,-16104.4599609375,-15530.919921875,-24372.390625,-400000.0625,-11311.9599609375,-400000.0625,-400000.0625,-400000.0625
276.44596695899963,-16106.8896484375,-15533.1201171875,-24374.8203125,-400000.0625,-11395.0302734375,-400000.0625,-400000.0625,-400000.0625
276.506386756897,-15493.8203125,-14916.7099609375,-23761.939453125,-400000.0625,-10934.400390625,-400000.0625,-400000.0625,-400000.0625
276.60871624946594,-15097.9501953125,-14515.9296875,-23366.41015625,-400000.0625,-10556.7001953125,-400000.0625,-400000.0625,-400000.0625
276.7344346046448,-15468.26953125,-14887.5302734375,-23737.720703125,-400000.0625,-10777.669921875,-400000.0625,-400000.0625,-400000.0625
276.8590807914734,-16080.9501953125,-15502.41015625,-24354.75,-400000.0625,-11290.83984375,-400000.0625,-400000.0625,-400000.0625
276.96749782562256,-16082.4296875,-15502.0302734375,-24357.23046875,-400000.0625,-11375.51953125,-400000.0625,-400000.0625,-400000.0625
277.10279059410095,-15481.1904296875,-14898.6396484375,-23753.220703125,-400000.0625,-10925.099609375,-400000.0625,-400000.0625,-400000.0625
277.23469161987305,-15094.51953125,-14517.4501953125,-23369.55078125,-400000.0625,-10559.849609375,-400000.0625,-400000.0625,-400000.0625
277.3630359172821,-15455.6796875,-14875.7998046875,-23728.990234375,-400000.0625,-10767.3203125,-400000.0625,-400000.0625,-400000.0625
277.4758358001709,-16045.91015625,-15468.3095703125,-24321.4609375,-400000.0625,-11253.1201171875,-400000.0625,-400000.0625,-400000.0625
277.5951635837555,-16043.8095703125,-15468.0302734375,-24318.55078125,-400000.0625,-11332.1298828125,-400000.0625,-400000.0625,-400000.0625
277.7192826271057,-15461.2099609375,-14881.330078125,-23736.859375,-400000.0625,-10905.8896484375,-400000.0625,-400000.0625,-400000.0625
277.85589814186096,-15082.5498046875,-14502.76953125,-23361.5390625,-400000.0625,-10552.6904296875,-400000.0625,-400000.0625,-400000.0625
277.9981529712677,-15450.2900390625,-14874.2197265625,-23729.80078125,-400000.0625,-10772.0400390625,-400000.0625,-400000.0625,-400000.0625
278.1538486480713,-16046.8603515625,-15478.1796875,-24329.140625,-400000.0625,-11263.7998046875,-400000.0625,-400000.0625,-400000.0625
278.29064440727234,-16032.3203125,-15463.16015625,-24311.0703125,-400000.0625,-11333.5595703125,-400000.0625,-400000.0625,-400000.0625
278.40464878082275,-15445.51953125,-14876.080078125,-23724.130859375,-400000.0625,-10906.0302734375,-400000.0625,-400000.0625,-400000.0625
278.52586793899536,-15084.83984375,-14514.16015625,-23358.439453125,-400000.0625,-10567.759765625,-400000.0625,-400000.0625,-400000.0625
278.67031478881836,-15438.83984375,-14874.98046875,-23712.830078125,-400000.0625,-10766.3603515625,-400000.0625,-400000.0625,-400000.0625
278.7779564857483,-16019.2001953125,-15457.919921875,-24292.23046875,-400000.0625,-11230.1796875,-400000.0625,-400000.0625,-400000.0625
278.8862361907959,-16007.849609375,-15475.990234375,-24286.75,-400000.0625,-11318.9697265625,-400000.0625,-400000.0625,-400000.0625
279.0001485347748,-15425.16015625,-14910.83984375,-23693.94921875,-400000.0625,-10922.099609375,-400000.0625,-400000.0625,-400000.0625
279.1321587562561,-15065.91015625,-14535.099609375,-23341.3203125,-400000.0625,-10581.5400390625,-400000.0625,-400000.0625,-400000.0625
279.25272250175476,-15399.740234375,-14906.5498046875,-23697.669921875,-400000.0625,-10758.58984375,-400000.0625,-400000.0625,-400000.0625
279.3770878314972,-15962.0302734375,-15451.9599609375,-24274.830078125,-400000.0625,-11194.1796875,-400000.0625,-400000.0625,-400000.0625
279.51298332214355,-15955.830078125,-15439.9404296875,-24284.4609375,-400000.0625,-11275.3896484375,-400000.0625,-400000.0625,-400000.0625
279.6340115070343,-15366.1298828125,-14910.509765625,-23723.080078125,-400000.0625,-10902.599609375,-400000.0625,-400000.0625,-400000.0625
279.7546339035034,-15003.01953125,-14557.8896484375,-23371.69921875,-400000.0625,-10573.0498046875,-400000.0625,-400000.0625,-400000.0625
279.90086603164673,-15371.3701171875,-14914.5595703125,-23758.560546875,-400000.0625,-10742.9501953125,-400000.0625,-400000.0625,-400000.0625
280.0369427204132,-15938.5703125,-15505.599609375,-24343.30078125,-400000.0625,-11183.01953125,-400000.0625,-400000.0625,-400000.0625
280.17092847824097,-15936.900390625,-15534.01953125,-24338.30078125,-400000.0625,-11264.6103515625,-400000.0625,-400000.0625,-400000.0625
280.28831577301025,-15374.3798828125,-14980.1298828125,-23775.150390625,-400000.0625,-10873.080078125,-400000.0625,-400000.0625,-400000.0625
280.42659044265747,-15033.8701171875,-14615.349609375,-23432.779296875,-400000.0625,-10543.2001953125,-400000.0625,-400000.0625,-400000.0625
280.5449929237366,-15398.7900390625,-14964.2001953125,-23794.130859375,-400000.0625,-10720.0595703125,-400000.0625,-400000.0625,-400000.0625
280.6699769496918,-15956.58984375,-15531.349609375,-24354.990234375,-400000.0625,-11143.2998046875,-400000.0625,-400000.0625,-400000.0625
280.78991627693176,-15950.490234375,-15520.6201171875,-24348.0703125,-400000.0625,-11218.740234375,-400000.0625,-400000.0625,-400000.0625
280.9172172546387,-15397.6904296875,-14953.5703125,-23796.470703125,-400000.0625,-10843.419921875,-400000.0625,-400000.0625,-400000.0625
281.0624420642853,-15054.7001953125,-14613.490234375,-23456.580078125,-400000.0625,-10528.3701171875,-400000.0625,-400000.0625,-400000.0625
281.1926791667938,-15396.1201171875,-14962.2900390625,-23795.560546875,-400000.0625,-10705.2802734375,-400000.0625,-400000.0625,-400000.0625
281.306476354599,-15941.099609375,-15502.5498046875,-24334.33984375,-400000.0625,-11134.009765625,-400000.0625,-400000.0625,-400000.0625
281.49931025505066,-15929.650390625,-15495.400390625,-24326.279296875,-400000.0625,-11217.8798828125,-400000.0625,-400000.0625,-400000.0625
281.5882661342621,-15387.9697265625,-14951.0400390625,-23778.630859375,-400000.0625,-10847.9501953125,-400000.0625,-400000.0625,-400000.0625
281.6659679412842,-15049.41015625,-14613.1103515625,-23439.599609375,-400000.0625,-10537.9599609375,-400000.0625,-400000.0625,-400000.0625
281.74095606803894,-15379.9599609375,-14950.419921875,-23773.9609375,-400000.0625,-10710.1904296875,-400000.0625,-400000.0625,-400000.0625
281.7739543914795,-15910.6298828125,-15488.6298828125,-24302.2890625,-400000.0625,-11125.849609375,-400000.0625,-400000.0625,-400000.0625
281.8334743976593,-15902.1396484375,-15478.1796875,-24285.509765625,-400000.0625,-11194.7998046875,-400000.0625,-400000.0625,-400000.0625
281.8691289424896,-15374.3798828125,-14944.41015625,-23750.119140625,-400000.0625,-10828.9296875,-400000.0625,-400000.0625,-400000.0625
281.9659698009491,-15050.5595703125,-14611.25,-23422.91015625,-400000.0625,-10531.0498046875,-400000.0625,-400000.0625,-400000.0625
282.0299246311188,-15374.1396484375,-14926.76953125,-23746.5390625,-400000.0625,-10705.66015625,-400000.0625,-400000.0625,-400000.0625
282.06004667282104,-15881.1103515625,-15432.0703125,-24251.509765625,-400000.0625,-11104.4404296875,-400000.0625,-400000.0625,-400000.0625
282.0877296924591,-15856.3603515625,-15400.9404296875,-24218.369140625,-400000.0625,-11167.240234375,-400000.0625,-400000.0625,-400000.0625
282.1770374774933,-15342.8603515625,-14884.330078125,-23700.140625,-400000.0625,-10824.400390625,-400000.0625,-400000.0625,-400000.0625
282.214378118515,-15032.9599609375,-14569.3798828125,-23389.060546875,-400000.0625,-10546.16015625,-400000.0625,-400000.0625,-400000.0625
282.2756323814392,-15362.259765625,-14885.9501953125,-23712.689453125,-400000.0625,-10712.9599609375,-400000.0625,-400000.0625,-400000.0625
282.323698759079,-15861.509765625,-15379.759765625,-24207.259765625,-400000.0625,-11096.1904296875,-400000.0625,-400000.0625,-400000.0625
282.39327359199524,-15839.2900390625,-15350.76953125,-24183.3203125,-400000.0625,-11164.08984375,-400000.0625,-400000.0625,-400000.0625
282.4231638908386,-15336.2802734375,-14846.3701171875,-23676.6796875,-400000.0625,-10842.1796875,-400000.0625,-400000.0625,-400000.0625
282.4564206600189,-15037.6298828125,-14534.759765625,-23370.69921875,-400000.0625,-10573.76953125,-400000.0625,-400000.0625,-400000.0625
282.53364539146423,-15358.0703125,-14847.9501953125,-23687.599609375,-400000.0625,-10721.919921875,-400000.0625,-400000.0625,-400000.0625
282.57363867759705,-15847.6396484375,-15336.1298828125,-24177.509765625,-400000.0625,-11088.4697265625,-400000.0625,-400000.0625,-400000.0625
282.62527894973755,-15822.080078125,-15309.8095703125,-24149.369140625,-400000.0625,-11149.169921875,-400000.0625,-400000.0625,-400000.0625
282.651869058609,-15327.6904296875,-14804.599609375,-23648.220703125,-400000.0625,-10823.0595703125,-400000.0625,-400000.0625,-400000.0625
282.67663621902466,-15030.6201171875,-14503.2900390625,-23348.189453125,-400000.0625,-10548.6904296875,-400000.0625,-400000.0625,-400000.0625
282.74498534202576,-15354.16015625,-14829.0703125,-23672.5390625,-400000.0625,-10717.6796875,-400000.0625,-400000.0625,-400000.0625
282.78578996658325,-15853.8798828125,-15322.6904296875,-24166.349609375,-400000.0625,-11099.3896484375,-400000.0625,-400000.0625,-400000.0625
282.8845372200012,-15837.099609375,-15301.7998046875,-24145.939453125,-400000.0625,-11161.08984375,-400000.0625,-400000.0625,-400000.0625
282.93692779541016,-15339.2802734375,-14800.83984375,-23646.9296875,-400000.0625,-10831.0703125,-400000.0625,-400000.0625,-400000.0625
282.9910991191864,-15032.580078125,-14491.9404296875,-23340.369140625,-400000.0625,-10552.4599609375,-400000.0625,-400000.0625,-400000.0625
283.0142226219177,-15343.91015625,-14803.2197265625,-23654.69921875,-400000.0625,-10711.669921875,-400000.0625,-400000.0625,-400000.0625
283.0462648868561,-15831.23046875,-15290.9296875,-24143.560546875,-400000.0625,-11084.75,-400000.0625,-400000.0625,-400000.0625
283.10161662101746,-15813.0703125,-15271.900390625,-24121.810546875,-400000.0625,-11143.6396484375,-400000.0625,-400000.0625,-400000.0625
283.12838530540466,-15319.4404296875,-14777.419921875,-23625.08984375,-400000.0625,-10809.08984375,-400000.0625,-400000.0625,-400000.0625
283.1643888950348,-15026.8603515625,-14477.6796875,-23327.9296875,-400000.0625,-10533.1396484375,-400000.0625,-400000.0625,-400000.0625
283.23099398612976,-15335.990234375,-14783.0,-23637.19921875,-400000.0625,-10699.9404296875,-400000.0625,-400000.0625,-400000.0625
283.2754716873169,-15821.8896484375,-15267.5595703125,-24120.05078125,-400000.0625,-11073.5400390625,-400000.0625,-400000.0625,-400000.0625
283.331866979599,-15807.919921875,-15257.740234375,-24107.7890625,-400000.0625,-11127.8095703125,-400000.0625,-400000.0625,-400000.0625
283.37512588500977,-15320.830078125,-14769.650390625,-23620.990234375,-400000.0625,-10785.150390625,-400000.0625,-400000.0625,-400000.0625
283.4043233394623,-15025.08984375,-14470.76953125,-23327.310546875,-400000.0625,-10510.01953125,-400000.0625,-400000.0625,-400000.0625
283.4625999927521,-15337.08984375,-14778.1904296875,-23640.640625,-400000.0625,-10689.6904296875,-400000.0625,-400000.0625,-400000.0625
283.49304151535034,-15828.330078125,-15272.7099609375,-24129.5390625,-400000.0625,-11076.98046875,-400000.0625,-400000.0625,-400000.0625
283.5203251838684,-15817.98046875,-15264.849609375,-24122.0,-400000.0625,-11139.9697265625,-400000.0625,-400000.0625,-400000.0625
283.56266140937805,-15327.9296875,-14774.6103515625,-23630.33984375,-400000.0625,-10795.6904296875,-400000.0625,-400000.0625,-400000.0625
283.58442735671997,-15030.580078125,-14473.8701171875,-23331.740234375,-400000.0625,-10522.41015625,-400000.0625,-400000.0625,-400000.0625
283.6042413711548,-15339.51953125,-14778.9501953125,-23641.349609375,-400000.0625,-10694.080078125,-400000.0625,-400000.0625,-400000.0625
283.6305706501007,-15820.98046875,-15260.1298828125,-24123.390625,-400000.0625,-11069.8203125,-400000.0625,-400000.0625,-400000.0625
283.6704819202423,-15807.9599609375,-15248.9697265625,-24108.69921875,-400000.0625,-11128.6201171875,-400000.0625,-400000.0625,-400000.0625
283.695529460907,-15327.3603515625,-14766.26953125,-23627.08984375,-400000.0625,-10798.3603515625,-400000.0625,-400000.0625,-400000.0625
283.7162461280823,-15032.3896484375,-14473.25,-23335.029296875,-400000.0625,-10532.0498046875,-400000.0625,-400000.0625,-400000.0625
283.7435505390167,-15342.900390625,-14777.51953125,-23641.349609375,-400000.0625,-10698.7001953125,-400000.0625,-400000.0625,-400000.0625
283.77714562416077,-15832.6201171875,-15269.759765625,-24131.060546875,-400000.0625,-11080.9296875,-400000.0625,-400000.0625,-400000.0625
