time,ch1,ch2,ch3,ch4,ch5,ch6,ch7,ch8
0.08191227912902832,-7517.91015625,-18894.669921875,-2713.25,-400000.0625,-400000.0625,-400000.0625,-400000.0625,-400000.0625
0.11679339408874512,-7534.7900390625,-18925.189453125,-2732.3701171875,-400000.0625,-400000.0625,-400000.0625,-400000.0625,-400000.0625
0.13419485092163086,-7488.009765625,-18888.51953125,-2698.52001953125,-400000.0625,-400000.0625,-400000.0625,-400000.0625,-400000.0625
0.1529829502105713,-7467.41015625,-18896.33984375,-2678.199951171875,-400000.0625,-400000.0625,-400000.0625,-400000.0625,-400000.0625
0.16947221755981445,-7491.68017578125,-18934.109375,-2701.52001953125,-400000.0625,-400000.0625,-400000.0625,-400000.0625,-400000.0625
0.20206522941589355,-7554.14990234375,-18983.650390625,-2749.919921875,-400000.0625,-400000.0625,-400000.0625,-400000.0625,-400000.0625
0.2291889190673828,-7570.080078125,-19002.060546875,-2761.889892578125,-400000.0625,-400000.0625,-400000.0625,-400000.0625,-400000.0625
0.2559776306152344,-7533.06982421875,-18974.5390625,-2730.93994140625,-400000.0625,-400000.0625,-400000.0625,-400000.0625,-400000.0625
0.27169251441955566,-7506.7998046875,-18975.310546875,-2700.139892578125,-400000.0625,-400000.0625,-400000.0625,-400000.0625,-400000.0625
0.2972564697265625,-7536.60009765625,-19012.01953125,-2727.409912109375,-400000.0625,-400000.0625,-400000.0625,-400000.0625,-400000.0625
0.3178386688232422,-7593.490234375,-19063.05078125,-2776.239990234375,-400000.0625,-400000.0625,-400000.0625,-400000.0625,-400000.0625
0.33431267738342285,-7608.56005859375,-19093.279296875,-2797.56005859375,-400000.0625,-400000.0625,-400000.0625,-400000.0625,-400000.0625
0.3564319610595703,-7567.64990234375,-19074.439453125,-2762.1298828125,-400000.0625,-400000.0625,-400000.0625,-400000.0625,-400000.0625
0.38232946395874023,-7533.97998046875,-19052.26953125,-2729.64990234375,-400000.0625,-400000.0625,-400000.0625,-400000.0625,-400000.0625
0.40426015853881836,-7569.35986328125,-19088.560546875,-2755.739990234375,-400000.0625,-400000.0625,-400000.0625,-400000.0625,-400000.0625
0.423659086227417,-7622.2001953125,-19143.970703125,-2805.3798828125,-400000.0625,-400000.0625,-400000.0625,-400000.0625,-400000.0625
0.43791675567626953,-7638.5498046875,-19161.69921875,-2818.780029296875,-400000.0625,-400000.0625,-400000.0625,-400000.0625,-400000.0625
0.4581127166748047,-7597.5400390625,-19128.51953125,-2777.77001953125,-400000.0625,-400000.0625,-400000.0625,-400000.0625,-400000.0625
0.4782390594482422,-7561.5400390625,-19109.30078125,-2747.6298828125,-400000.0625,-400000.0625,-400000.0625,-400000.0625,-400000.0625
0.5192818641662598,-7588.47998046875,-19142.73046875,-2776.669921875,-400000.0625,-400000.0625,-400000.0625,-400000.0625,-400000.0625
0.5546448230743408,-7646.75,-19186.359375,-2831.4599609375,-400000.0625,-400000.0625,-400000.0625,-400000.0625,-400000.0625
0.5752768516540527,-7644.3701171875,-19194.220703125,-2835.3701171875,-400000.0625,-400000.0625,-400000.0625,-400000.0625,-400000.0625
0.5948426723480225,-7597.4501953125,-19164.0390625,-2792.169921875,-400000.0625,-400000.0625,-400000.0625,-400000.0625,-400000.0625
0.6147732734680176,-7563.31005859375,-19126.26953125,-2753.8798828125,-400000.0625,-400000.0625,-400000.0625,-400000.0625,-400000.0625
0.6323237419128418,-7582.27978515625,-19135.810546875,-2767.179931640625,-400000.0625,-400000.0625,-400000.0625,-400000.0625,-400000.0625
0.650507926940918,-7630.39990234375,-19173.0,-2811.9599609375,-400000.0625,-400000.0625,-400000.0625,-400000.0625,-400000.0625
0.6717400550842285,-7646.85009765625,-19179.439453125,-2822.35009765625,-400000.0625,-400000.0625,-400000.0625,-400000.0625,-400000.0625
0.687497615814209,-7604.27001953125,-19142.150390625,-2786.06005859375,-400000.0625,-400000.0625,-400000.0625,-400000.0625,-400000.0625
0.7055082321166992,-7557.72998046875,-19106.439453125,-2745.43994140625,-400000.0625,-400000.0625,-400000.0625,-400000.0625,-400000.0625
0.7278308868408203,-7578.990234375,-19120.029296875,-2764.699951171875,-400000.0625,-400000.0625,-400000.0625,-400000.0625,-400000.0625
0.7413320541381836,-7629.97021484375,-19162.369140625,-2813.580078125,-400000.0625,-400000.0625,-400000.0625,-400000.0625,-400000.0625
0.7545456886291504,-7637.97998046875,-19170.380859375,-2822.449951171875,-400000.0625,-400000.0625,-400000.0625,-400000.0625,-400000.0625
0.7662038803100586,-7587.580078125,-19123.83984375,-2771.7099609375,-400000.0625,-400000.0625,-400000.0625,-400000.0625,-400000.0625
0.7809159755706787,-7546.0400390625,-19092.75,-2736.0400390625,-400000.0625,-400000.0625,-400000.0625,-400000.0625,-400000.0625
0.7939369678497314,-7571.41015625,-19109.8203125,-2756.550048828125,-400000.0625,-400000.0625,-400000.0625,-400000.0625,-400000.0625
0.8127954006195068,-7622.33984375,-19151.0703125,-2803.3701171875,-400000.0625,-400000.0625,-400000.0625,-400000.0625,-400000.0625
0.8259596824645996,-7628.8701171875,-19148.30078125,-2807.0,-400000.0625,-400000.0625,-400000.0625,-400000.0625,-400000.0625
0.8377068042755127,-7590.81982421875,-19118.259765625,-2773.3798828125,-400000.0625,-400000.0625,-400000.0625,-400000.0625,-400000.0625
0.8509578704833984,-7548.85986328125,-19084.650390625,-2734.52001953125,-400000.0625,-400000.0625,-400000.0625,-400000.0625,-400000.0625
0.8649544715881348,-7567.4501953125,-19097.08984375,-2749.780029296875,-400000.0625,-400000.0625,-400000.0625,-400000.0625,-400000.0625
0.8745169639587402,-7614.89990234375,-19131.7109375,-2793.260009765625,-400000.0625,-400000.0625,-400000.0625,-400000.0625,-400000.0625
0.8867523670196533,-7626.43994140625,-19136.669921875,-2802.22998046875,-400000.0625,-400000.0625,-400000.0625,-400000.0625,-400000.0625
0.89652419090271,-7581.759765625,-19101.33984375,-2761.27001953125,-400000.0625,-400000.0625,-400000.0625,-400000.0625,-400000.0625
0.9139845371246338,-7537.22021484375,-19060.140625,-2717.35009765625,-400000.0625,-400000.0625,-400000.0625,-400000.0625,-400000.0625
0.9264745712280273,-7566.60009765625,-19084.26953125,-2745.820068359375,-400000.0625,-400000.0625,-400000.0625,-400000.0625,-400000.0625
0.9376451969146729,-7615.85009765625,-19120.98046875,-2790.5,-400000.0625,-400000.0625,-400000.0625,-400000.0625,-400000.0625
0.947913408279419,-7618.0,-19113.73046875,-2789.2099609375,-400000.0625,-400000.0625,-400000.0625,-400000.0625,-400000.0625
0.9606261253356934,-7574.419921875,-19079.349609375,-2747.489990234375,-400000.0625,-400000.0625,-400000.0625,-400000.0625,-400000.0625
0.9708108901977539,-7539.31982421875,-19047.5,-2715.110107421875,-400000.0625,-400000.0625,-400000.0625,-400000.0625,-400000.0625
0.9825575351715088,-7555.68017578125,-19052.029296875,-2725.93994140625,-400000.0625,-400000.0625,-400000.0625,-400000.0625,-400000.0625
0.9913449287414551,-7607.75,-19100.2890625,-2776.0,-400000.0625,-400000.0625,-400000.0625,-400000.0625,-400000.0625
1.003006935119629,-7622.2900390625,-19103.240234375,-2785.39990234375,-400000.0625,-400000.0625,-400000.0625,-400000.0625,-400000.0625
1.024078369140625,-7574.3701171875,-19062.94921875,-2739.3798828125,-400000.0625,-400000.0625,-400000.0625,-400000.0625,-400000.0625
1.034698724746704,-7527.2099609375,-19027.0390625,-2698.760009765625,-400000.0625,-400000.0625,-400000.0625,-400000.0625,-400000.0625
1.0455658435821533,-7556.10986328125,-19047.55078125,-2729.030029296875,-400000.0625,-400000.0625,-400000.0625,-400000.0625,-400000.0625
1.0586881637573242,-7615.9501953125,-19093.849609375,-2781.77001953125,-400000.0625,-400000.0625,-400000.0625,-400000.0625,-400000.0625
1.0666072368621826,-7619.9501953125,-19092.419921875,-2782.389892578125,-400000.0625,-400000.0625,-400000.0625,-400000.0625,-400000.0625
1.0820813179016113,-7573.080078125,-19047.599609375,-2732.659912109375,-400000.0625,-400000.0625,-400000.0625,-400000.0625,-400000.0625
1.0968835353851318,-7536.22021484375,-19018.26953125,-2703.0,-400000.0625,-400000.0625,-400000.0625,-400000.0625,-400000.0625
1.119732141494751,-7562.39990234375,-19030.2890625,-2726.320068359375,-400000.0625,-400000.0625,-400000.0625,-400000.0625,-400000.0625
1.1353583335876465,-7619.0,-19063.5703125,-2776.580078125,-400000.0625,-400000.0625,-400000.0625,-400000.0625,-400000.0625
1.1506619453430176,-7625.52978515625,-19047.830078125,-2772.330078125,-400000.0625,-400000.0625,-400000.0625,-400000.0625,-400000.0625
1.1658825874328613,-7586.91015625,-18983.990234375,-2709.010009765625,-400000.0625,-400000.0625,-400000.0625,-400000.0625,-400000.0625
1.1827459335327148,-7547.669921875,-18929.19921875,-2657.080078125,-400000.0625,-400000.0625,-400000.0625,-400000.0625,-400000.0625
1.1984388828277588,-7574.85009765625,-18916.419921875,-2663.89990234375,-400000.0625,-400000.0625,-400000.0625,-400000.0625,-400000.0625
1.2292675971984863,-7573.18017578125,-18961.619140625,-2807.89990234375,-400000.0625,-400000.0625,-400000.0625,-400000.0625,-400000.0625
1.293776273727417,-7514.6201171875,-18894.150390625,-2754.02001953125,-400000.0625,-400000.0625,-400000.0625,-400000.0625,-400000.0625
1.359410285949707,-7497.64990234375,-18870.310546875,-2719.590087890625,-400000.0625,-400000.0625,-400000.0625,-400000.0625,-400000.0625
1.4582335948944092,-7532.64990234375,-18899.30078125,-2734.7099609375,-400000.0625,-400000.0625,-400000.0625,-400000.0625,-400000.0625
1.5480928421020508,-7582.759765625,-18891.619140625,-2738.3798828125,-400000.0625,-400000.0625,-400000.0625,-400000.0625,-400000.0625
1.6270477771759033,-7284.259765625,-18718.580078125,-2806.090087890625,-400000.0625,-400000.0625,-400000.0625,-400000.0625,-400000.0625
1.764312744140625,-7089.330078125,-18579.25,-2766.659912109375,-400000.0625,-400000.0625,-400000.0625,-400000.0625,-400000.0625
1.815119981765747,-7162.6201171875,-18602.7109375,-2768.800048828125,-400000.0625,-400000.0625,-400000.0625,-400000.0625,-400000.0625
1.8814053535461426,-7186.3701171875,-18550.73046875,-2726.7900390625,-400000.0625,-400000.0625,-400000.0625,-400000.0625,-400000.0625
1.9454128742218018,-7220.60009765625,-18552.109375,-2701.090087890625,-400000.0625,-400000.0625,-400000.0625,-400000.0625,-400000.0625
2.002863645553589,-7272.47998046875,-18540.580078125,-2676.77001953125,-400000.0625,-400000.0625,-400000.0625,-400000.0625,-400000.0625
2.076559066772461,-7298.18017578125,-18525.029296875,-2648.780029296875,-400000.0625,-400000.0625,-400000.0625,-400000.0625,-400000.0625
2.1371123790740967,-7329.990234375,-18515.880859375,-2637.340087890625,-400000.0625,-400000.0625,-400000.0625,-400000.0625,-400000.0625
2.1973583698272705,-7396.83984375,-18543.099609375,-2647.969970703125,-400000.0625,-400000.0625,-400000.0625,-400000.0625,-400000.0625
2.2563486099243164,-7380.2998046875,-18552.44921875,-2652.929931640625,-400000.0625,-400000.0625,-400000.0625,-400000.0625,-400000.0625
2.341887950897217,-7472.7099609375,-18609.759765625,-2661.0400390625,-400000.0625,-400000.0625,-400000.0625,-400000.0625,-400000.0625
2.3771259784698486,-7450.8701171875,-18614.8203125,-2652.1201171875,-400000.0625,-400000.0625,-400000.0625,-400000.0625,-400000.0625
2.4406979084014893,-7442.52001953125,-18622.2109375,-2655.699951171875,-400000.0625,-400000.0625,-400000.0625,-400000.0625,-400000.0625
2.6431305408477783,-7544.330078125,-18649.25,-2618.60009765625,-400000.0625,-400000.0625,-400000.0625,-400000.0625,-400000.0625
2.7120704650878906,-7584.6201171875,-18725.16015625,-2666.280029296875,-400000.0625,-400000.0625,-400000.0625,-400000.0625,-400000.0625
2.7778024673461914,-7547.52001953125,-18696.119140625,-2666.429931640625,-400000.0625,-400000.0625,-400000.0625,-400000.0625,-400000.0625
2.870473623275757,-7508.85009765625,-18714.140625,-2667.050048828125,-400000.0625,-400000.0625,-400000.0625,-400000.0625,-400000.0625
2.981990098953247,-7695.6298828125,-19103.099609375,-2838.659912109375,-400000.0625,-400000.0625,-400000.0625,-400000.0625,-400000.0625
3.1601693630218506,-7566.259765625,-18887.859375,-2784.919921875,-400000.0625,-400000.0625,-400000.0625,-400000.0625,-400000.0625
3.230121612548828,-7558.6298828125,-18835.2109375,-2750.06005859375,-400000.0625,-400000.0625,-400000.0625,-400000.0625,-400000.0625
3.277951240539551,-7540.47021484375,-18843.029296875,-2748.199951171875,-400000.0625,-400000.0625,-400000.0625,-400000.0625,-400000.0625
3.3655810356140137,-7569.5,-18883.0390625,-2765.989990234375,-400000.0625,-400000.0625,-400000.0625,-400000.0625,-400000.0625
3.4728264808654785,-7307.72021484375,-18681.150390625,-2798.800048828125,-400000.0625,-400000.0625,-400000.0625,-400000.0625,-400000.0625
3.534940004348755,-7319.39990234375,-18683.859375,-2764.64990234375,-400000.0625,-400000.0625,-400000.0625,-400000.0625,-400000.0625
3.601656436920166,-7361.93994140625,-18690.779296875,-2758.070068359375,-400000.0625,-400000.0625,-400000.0625,-400000.0625,-400000.0625
3.659156560897827,-7410.10009765625,-18712.810546875,-2770.22998046875,-400000.0625,-400000.0625,-400000.0625,-400000.0625,-400000.0625
3.7313334941864014,-7390.4501953125,-18760.349609375,-2828.4599609375,-400000.0625,-400000.0625,-400000.0625,-400000.0625,-400000.0625
3.7919840812683105,-7410.2900390625,-18755.490234375,-2816.77001953125,-400000.0625,-400000.0625,-400000.0625,-400000.0625,-400000.0625
3.938966751098633,-7523.10986328125,-18612.91015625,-2689.64990234375,-400000.0625,-400000.0625,-400000.0625,-400000.0625,-400000.0625
3.983952283859253,-7516.77001953125,-18591.01953125,-2667.669921875,-400000.0625,-400000.0625,-400000.0625,-400000.0625,-400000.0625
4.1821815967559814,-7525.10986328125,-18625.880859375,-2689.31005859375,-400000.0625,-400000.0625,-400000.0625,-400000.0625,-400000.0625
4.240557432174683,-7442.6201171875,-18721.630859375,-2797.080078125,-400000.0625,-400000.0625,-400000.0625,-400000.0625,-400000.0625
4.29927921295166,-7434.7001953125,-18710.900390625,-2787.39990234375,-400000.0625,-400000.0625,-400000.0625,-400000.0625,-400000.0625
4.364351511001587,-7456.8798828125,-18712.0,-2795.64990234375,-400000.0625,-400000.0625,-400000.0625,-400000.0625,-400000.0625
4.491212844848633,-7453.10986328125,-18726.58984375,-2800.56005859375,-400000.0625,-400000.0625,-400000.0625,-400000.0625,-400000.0625
4.577630996704102,-7462.68994140625,-18730.310546875,-2803.610107421875,-400000.0625,-400000.0625,-400000.0625,-400000.0625,-400000.0625
4.631811141967773,-7489.6298828125,-18743.470703125,-2800.800048828125,-400000.0625,-400000.0625,-400000.0625,-400000.0625,-400000.0625
4.701951265335083,-7975.10009765625,-19145.490234375,-2762.1298828125,-400000.0625,-400000.0625,-400000.0625,-400000.0625,-400000.0625
5.065397024154663,-7639.740234375,-18913.509765625,-2738.760009765625,-400000.0625,-400000.0625,-400000.0625,-400000.0625,-400000.0625
5.198586702346802,-7434.990234375,-18922.900390625,-2870.22998046875,-400000.0625,-400000.0625,-400000.0625,-400000.0625,-400000.0625
5.268739461898804,-7472.85009765625,-18946.75,-2899.739990234375,-400000.0625,-400000.0625,-400000.0625,-400000.0625,-400000.0625
5.331726789474487,-7421.919921875,-18892.390625,-2827.68994140625,-400000.0625,-400000.0625,-400000.0625,-400000.0625,-400000.0625
5.3951263427734375,-7450.9599609375,-18915.939453125,-2830.840087890625,-400000.0625,-400000.0625,-400000.0625,-400000.0625,-400000.0625
5.455461502075195,-7478.91015625,-19199.609375,-3051.330078125,-400000.0625,-400000.0625,-400000.0625,-400000.0625,-400000.0625
5.540877103805542,-7127.10009765625,-18657.01953125,-2872.090087890625,-400000.0625,-400000.0625,-400000.0625,-400000.0625,-400000.0625
5.594906568527222,-7150.97998046875,-18504.5703125,-2786.830078125,-400000.0625,-400000.0625,-400000.0625,-400000.0625,-400000.0625
5.6484761238098145,-7209.10986328125,-18510.390625,-2754.550048828125,-400000.0625,-400000.0625,-400000.0625,-400000.0625,-400000.0625
5.70489764213562,-7274.77001953125,-18543.439453125,-2760.320068359375,-400000.0625,-400000.0625,-400000.0625,-400000.0625,-400000.0625
5.772413015365601,-7338.85986328125,-18530.609375,-2718.68994140625,-400000.0625,-400000.0625,-400000.0625,-400000.0625,-400000.0625
5.924236059188843,-7349.06005859375,-18547.73046875,-2700.89990234375,-400000.0625,-400000.0625,-400000.0625,-400000.0625,-400000.0625
6.008448600769043,-7346.9599609375,-18555.01953125,-2701.659912109375,-400000.0625,-400000.0625,-400000.0625,-400000.0625,-400000.0625
6.098055124282837,-7372.0,-18598.509765625,-2731.659912109375,-400000.0625,-400000.0625,-400000.0625,-400000.0625,-400000.0625
6.1676599979400635,-7433.3701171875,-18452.0703125,-2600.0,-400000.0625,-400000.0625,-400000.0625,-400000.0625,-400000.0625
6.243744373321533,-7433.93994140625,-18473.91015625,-2606.340087890625,-400000.0625,-400000.0625,-400000.0625,-400000.0625,-400000.0625
6.299464464187622,-7417.5400390625,-18484.44921875,-2617.260009765625,-400000.0625,-400000.0625,-400000.0625,-400000.0625,-400000.0625
6.4125895500183105,-7267.85986328125,-18609.380859375,-2737.570068359375,-400000.0625,-400000.0625,-400000.0625,-400000.0625,-400000.0625
6.487576961517334,-7279.97021484375,-18616.76953125,-2743.010009765625,-400000.0625,-400000.0625,-400000.0625,-400000.0625,-400000.0625
6.561903715133667,-7260.7998046875,-18632.26953125,-2754.02001953125,-400000.0625,-400000.0625,-400000.0625,-400000.0625,-400000.0625
6.603031396865845,-7286.97998046875,-18741.23046875,-2815.199951171875,-400000.0625,-400000.0625,-400000.0625,-400000.0625,-400000.0625
6.804044246673584,-7293.4599609375,-18788.19921875,-2823.260009765625,-400000.0625,-400000.0625,-400000.0625,-400000.0625,-400000.0625
6.858692407608032,-7303.0,-18768.029296875,-2811.239990234375,-400000.0625,-400000.0625,-400000.0625,-400000.0625,-400000.0625
7.049636125564575,-7382.2001953125,-18494.369140625,-2615.8798828125,-400000.0625,-400000.0625,-400000.0625,-400000.0625,-400000.0625
7.192334413528442,-7390.93017578125,-18493.80078125,-2605.820068359375,-400000.0625,-400000.0625,-400000.0625,-400000.0625,-400000.0625
7.309809923171997,-7366.75,-18539.05078125,-2630.81005859375,-400000.0625,-400000.0625,-400000.0625,-400000.0625,-400000.0625
7.3833301067352295,-7364.60986328125,-18553.259765625,-2641.25,-400000.0625,-400000.0625,-400000.0625,-400000.0625,-400000.0625
7.454383134841919,-7315.490234375,-18527.029296875,-2619.510009765625,-400000.0625,-400000.0625,-400000.0625,-400000.0625,-400000.0625
7.50264835357666,-7554.47998046875,-19118.9296875,-2897.02001953125,-400000.0625,-400000.0625,-400000.0625,-400000.0625,-400000.0625
7.571454286575317,-7578.27978515625,-19202.279296875,-2944.419921875,-400000.0625,-400000.0625,-400000.0625,-400000.0625,-400000.0625
7.692077875137329,-7412.81982421875,-18934.439453125,-2820.830078125,-400000.0625,-400000.0625,-400000.0625,-400000.0625,-400000.0625
7.753677845001221,-7420.490234375,-18917.1796875,-2817.820068359375,-400000.0625,-400000.0625,-400000.0625,-400000.0625,-400000.0625
7.833995819091797,-7380.919921875,-18962.48046875,-2863.360107421875,-400000.0625,-400000.0625,-400000.0625,-400000.0625,-400000.0625
7.953243970870972,-7332.22998046875,-18971.970703125,-2879.330078125,-400000.0625,-400000.0625,-400000.0625,-400000.0625,-400000.0625
8.043251037597656,-7363.7001953125,-19006.060546875,-2894.449951171875,-400000.0625,-400000.0625,-400000.0625,-400000.0625,-400000.0625
8.092463493347168,-7111.31005859375,-18463.330078125,-2705.050048828125,-400000.0625,-400000.0625,-400000.0625,-400000.0625,-400000.0625
8.14823293685913,-7092.330078125,-18427.23046875,-2683.070068359375,-400000.0625,-400000.0625,-400000.0625,-400000.0625,-400000.0625
8.344544887542725,-7162.7099609375,-18308.119140625,-2585.030029296875,-400000.0625,-400000.0625,-400000.0625,-400000.0625,-400000.0625
8.398977756500244,-7193.0400390625,-18332.76953125,-2577.969970703125,-400000.0625,-400000.0625,-400000.0625,-400000.0625,-400000.0625
8.543775081634521,-7205.43994140625,-18381.41015625,-2610.2099609375,-400000.0625,-400000.0625,-400000.0625,-400000.0625,-400000.0625
8.65068507194519,-7176.5,-18450.359375,-2657.60009765625,-400000.0625,-400000.0625,-400000.0625,-400000.0625,-400000.0625
8.741307497024536,-7190.990234375,-18452.4609375,-2638.530029296875,-400000.0625,-400000.0625,-400000.0625,-400000.0625,-400000.0625
8.846617460250854,-7221.02978515625,-18553.740234375,-2691.699951171875,-400000.0625,-400000.0625,-400000.0625,-400000.0625,-400000.0625
8.977925539016724,-7258.85009765625,-18585.16015625,-2700.18994140625,-400000.0625,-400000.0625,-400000.0625,-400000.0625,-400000.0625
9.04409909248352,-7241.919921875,-18583.73046875,-2687.929931640625,-400000.0625,-400000.0625,-400000.0625,-400000.0625,-400000.0625
9.10296630859375,-7234.0498046875,-18581.19921875,-2682.39990234375,-400000.0625,-400000.0625,-400000.0625,-400000.0625,-400000.0625
9.175545454025269,-7178.58984375,-18590.01953125,-2712.300048828125,-400000.0625,-400000.0625,-400000.0625,-400000.0625,-400000.0625
9.226604461669922,-7159.89990234375,-18593.890625,-2723.030029296875,-400000.0625,-400000.0625,-400000.0625,-400000.0625,-400000.0625
9.427161693572998,-7163.43017578125,-18613.099609375,-2723.64990234375,-400000.0625,-400000.0625,-400000.0625,-400000.0625,-400000.0625
9.497528553009033,-7164.669921875,-18623.55078125,-2725.60009765625,-400000.0625,-400000.0625,-400000.0625,-400000.0625,-400000.0625
9.552703619003296,-7272.0498046875,-18568.1796875,-2672.239990234375,-400000.0625,-400000.0625,-400000.0625,-400000.0625,-400000.0625
9.687941789627075,-7281.8798828125,-18574.529296875,-2652.60009765625,-400000.0625,-400000.0625,-400000.0625,-400000.0625,-400000.0625
9.755894184112549,-7295.27978515625,-18604.51953125,-2679.159912109375,-400000.0625,-400000.0625,-400000.0625,-400000.0625,-400000.0625
9.81726622581482,-7280.919921875,-18607.380859375,-2674.580078125,-400000.0625,-400000.0625,-400000.0625,-400000.0625,-400000.0625
9.865798234939575,-7267.9501953125,-18602.1796875,-2671.2900390625,-400000.0625,-400000.0625,-400000.0625,-400000.0625,-400000.0625
9.940056085586548,-7267.3798828125,-18616.76953125,-2685.639892578125,-400000.0625,-400000.0625,-400000.0625,-400000.0625,-400000.0625
10.000533103942871,-7239.91015625,-18602.08984375,-2675.010009765625,-400000.0625,-400000.0625,-400000.0625,-400000.0625,-400000.0625
10.07430624961853,-7202.91015625,-18576.390625,-2655.030029296875,-400000.0625,-400000.0625,-400000.0625,-400000.0625,-400000.0625
10.124547958374023,-7229.27978515625,-18605.51953125,-2687.8798828125,-400000.0625,-400000.0625,-400000.0625,-400000.0625,-400000.0625
10.209843397140503,-7203.009765625,-18583.400390625,-2663.659912109375,-400000.0625,-400000.0625,-400000.0625,-400000.0625,-400000.0625
10.250049114227295,-7211.39990234375,-18591.220703125,-2675.25,-400000.0625,-400000.0625,-400000.0625,-400000.0625,-400000.0625
10.334488153457642,-7195.759765625,-18581.869140625,-2664.0400390625,-400000.0625,-400000.0625,-400000.0625,-400000.0625,-400000.0625
10.38999629020691,-7516.72021484375,-18967.9609375,-2753.070068359375,-400000.0625,-400000.0625,-400000.0625,-400000.0625,-400000.0625
10.509979724884033,-7823.66015625,-18993.279296875,-2700.85009765625,-400000.0625,-400000.0625,-400000.0625,-400000.0625,-400000.0625
10.648910999298096,-7518.43994140625,-18878.130859375,-2729.419921875,-400000.0625,-400000.0625,-400000.0625,-400000.0625,-400000.0625
10.698955297470093,-7452.490234375,-18837.83984375,-2716.8798828125,-400000.0625,-400000.0625,-400000.0625,-400000.0625,-400000.0625
10.805081605911255,-7434.66015625,-18670.849609375,-2631.52001953125,-400000.0625,-400000.0625,-400000.0625,-400000.0625,-400000.0625
10.893521547317505,-7431.509765625,-18682.19921875,-2632.669921875,-400000.0625,-400000.0625,-400000.0625,-400000.0625,-400000.0625
10.95962119102478,-7385.2099609375,-18909.310546875,-2816.300048828125,-400000.0625,-400000.0625,-400000.0625,-400000.0625,-400000.0625
11.051099300384521,-7317.39990234375,-19029.51953125,-2919.6298828125,-400000.0625,-400000.0625,-400000.0625,-400000.0625,-400000.0625
11.098864793777466,-7290.169921875,-18981.4609375,-2864.68994140625,-400000.0625,-400000.0625,-400000.0625,-400000.0625,-400000.0625
11.150002717971802,-7298.52001953125,-19021.3203125,-2891.830078125,-400000.0625,-400000.0625,-400000.0625,-400000.0625,-400000.0625
11.263388872146606,-7293.89013671875,-18985.3203125,-2874.570068359375,-400000.0625,-400000.0625,-400000.0625,-400000.0625,-400000.0625
11.275375127792358,-7289.97998046875,-18952.419921875,-2856.489990234375,-400000.0625,-400000.0625,-400000.0625,-400000.0625,-400000.0625
11.41674542427063,-7313.06005859375,-18906.55078125,-2829.27001953125,-400000.0625,-400000.0625,-400000.0625,-400000.0625,-400000.0625
11.46975588798523,-7350.8701171875,-18919.0390625,-2829.840087890625,-400000.0625,-400000.0625,-400000.0625,-400000.0625,-400000.0625
11.59533977508545,-7468.89013671875,-19358.2109375,-3038.31005859375,-400000.0625,-400000.0625,-400000.0625,-400000.0625,-400000.0625
11.679135084152222,-7466.4599609375,-19346.330078125,-3041.510009765625,-400000.0625,-400000.0625,-400000.0625,-400000.0625,-400000.0625
11.740663290023804,-7387.259765625,-19085.98046875,-2922.580078125,-400000.0625,-400000.0625,-400000.0625,-400000.0625,-400000.0625
11.789167404174805,-7380.9599609375,-19066.150390625,-2908.179931640625,-400000.0625,-400000.0625,-400000.0625,-400000.0625,-400000.0625
11.848178148269653,-7395.5498046875,-19030.859375,-2885.8701171875,-400000.0625,-400000.0625,-400000.0625,-400000.0625,-400000.0625
11.955129384994507,-7413.43994140625,-19027.5703125,-2876.0400390625,-400000.0625,-400000.0625,-400000.0625,-400000.0625,-400000.0625
11.980987787246704,-7430.31982421875,-19027.4296875,-2861.31005859375,-400000.0625,-400000.0625,-400000.0625,-400000.0625,-400000.0625
12.10611343383789,-7595.830078125,-18661.359375,-2611.35009765625,-400000.0625,-400000.0625,-400000.0625,-400000.0625,-400000.0625
12.210655212402344,-7588.72021484375,-18681.619140625,-2613.449951171875,-400000.0625,-400000.0625,-400000.0625,-400000.0625,-400000.0625
12.343872308731079,-7571.31982421875,-18710.0,-2641.8701171875,-400000.0625,-400000.0625,-400000.0625,-400000.0625,-400000.0625
12.370869874954224,-7566.02001953125,-18714.05078125,-2638.14990234375,-400000.0625,-400000.0625,-400000.0625,-400000.0625,-400000.0625
12.501405477523804,-7570.31982421875,-18728.970703125,-2653.739990234375,-400000.0625,-400000.0625,-400000.0625,-400000.0625,-400000.0625
12.575233697891235,-7577.0400390625,-18736.560546875,-2654.030029296875,-400000.0625,-400000.0625,-400000.0625,-400000.0625,-400000.0625
13.01541543006897,-7582.3798828125,-18764.779296875,-2675.820068359375,-400000.0625,-400000.0625,-400000.0625,-400000.0625,-400000.0625
13.141528844833374,-7596.259765625,-18785.5703125,-2685.260009765625,-400000.0625,-400000.0625,-400000.0625,-400000.0625,-400000.0625
13.210608005523682,-7590.39013671875,-18785.5703125,-2679.8701171875,-400000.0625,-400000.0625,-400000.0625,-400000.0625,-400000.0625
13.264366865158081,-7592.2998046875,-18786.720703125,-2675.719970703125,-400000.0625,-400000.0625,-400000.0625,-400000.0625,-400000.0625
13.393054008483887,-7587.6201171875,-18763.740234375,-2671.050048828125,-400000.0625,-400000.0625,-400000.0625,-400000.0625,-400000.0625
13.453998565673828,-7571.02978515625,-18740.560546875,-2667.860107421875,-400000.0625,-400000.0625,-400000.0625,-400000.0625,-400000.0625
13.646999835968018,-7454.2998046875,-18640.0390625,-2671.0,-400000.0625,-400000.0625,-400000.0625,-400000.0625,-400000.0625
13.780121803283691,-7451.8701171875,-18676.5703125,-2682.300048828125,-400000.0625,-400000.0625,-400000.0625,-400000.0625,-400000.0625
13.83679986000061,-7413.81982421875,-18703.509765625,-2725.080078125,-400000.0625,-400000.0625,-400000.0625,-400000.0625,-400000.0625
13.905794143676758,-7395.93994140625,-18693.640625,-2716.35009765625,-400000.0625,-400000.0625,-400000.0625,-400000.0625,-400000.0625
13.983745574951172,-7425.7900390625,-18717.240234375,-2733.610107421875,-400000.0625,-400000.0625,-400000.0625,-400000.0625,-400000.0625
14.02767539024353,-7719.47021484375,-18791.33984375,-2661.56005859375,-400000.0625,-400000.0625,-400000.0625,-400000.0625,-400000.0625
14.09695816040039,-7717.47021484375,-18802.119140625,-2645.919921875,-400000.0625,-400000.0625,-400000.0625,-400000.0625,-400000.0625
14.158823728561401,-7689.759765625,-18796.30078125,-2629.610107421875,-400000.0625,-400000.0625,-400000.0625,-400000.0625,-400000.0625
14.279284238815308,-7685.14013671875,-18825.490234375,-2666.52001953125,-400000.0625,-400000.0625,-400000.0625,-400000.0625,-400000.0625
14.435817956924438,-7463.97998046875,-18704.66015625,-2728.080078125,-400000.0625,-400000.0625,-400000.0625,-400000.0625,-400000.0625
14.605933666229248,-7449.9599609375,-18734.169921875,-2712.5400390625,-400000.0625,-400000.0625,-400000.0625,-400000.0625,-400000.0625
14.670348167419434,-7434.4599609375,-18720.390625,-2703.949951171875,-400000.0625,-400000.0625,-400000.0625,-400000.0625,-400000.0625
14.794097900390625,-7458.77978515625,-18727.970703125,-2706.14990234375,-400000.0625,-400000.0625,-400000.0625,-400000.0625,-400000.0625
14.986517667770386,-7474.0400390625,-18758.73046875,-2713.72998046875,-400000.0625,-400000.0625,-400000.0625,-400000.0625,-400000.0625
15.126825332641602,-7493.740234375,-18791.529296875,-2736.090087890625,-400000.0625,-400000.0625,-400000.0625,-400000.0625,-400000.0625
15.244515419006348,-7499.41015625,-18816.759765625,-2750.830078125,-400000.0625,-400000.0625,-400000.0625,-400000.0625,-400000.0625
15.31168532371521,-7481.2900390625,-18800.01953125,-2728.27001953125,-400000.0625,-400000.0625,-400000.0625,-400000.0625,-400000.0625
15.397464513778687,-7525.16015625,-18831.919921875,-2763.989990234375,-400000.0625,-400000.0625,-400000.0625,-400000.0625,-400000.0625
15.444388628005981,-7513.2900390625,-18824.2890625,-2759.030029296875,-400000.0625,-400000.0625,-400000.0625,-400000.0625,-400000.0625
15.512911558151245,-7481.580078125,-18796.30078125,-2729.4599609375,-400000.0625,-400000.0625,-400000.0625,-400000.0625,-400000.0625
15.582302331924438,-7516.669921875,-18831.060546875,-2760.080078125,-400000.0625,-400000.0625,-400000.0625,-400000.0625,-400000.0625
15.636248111724854,-7473.47021484375,-18801.310546875,-2729.27001953125,-400000.0625,-400000.0625,-400000.0625,-400000.0625,-400000.0625
15.704704284667969,-7544.60986328125,-18797.689453125,-2727.989990234375,-400000.0625,-400000.0625,-400000.0625,-400000.0625,-400000.0625
15.754226207733154,-7533.5,-18778.51953125,-2701.239990234375,-400000.0625,-400000.0625,-400000.0625,-400000.0625,-400000.0625
15.830694675445557,-7519.77001953125,-18762.349609375,-2677.72998046875,-400000.0625,-400000.0625,-400000.0625,-400000.0625,-400000.0625
15.891680717468262,-7494.77978515625,-18803.55078125,-2742.429931640625,-400000.0625,-400000.0625,-400000.0625,-400000.0625,-400000.0625
15.950371026992798,-7466.64990234375,-18773.80078125,-2711.580078125,-400000.0625,-400000.0625,-400000.0625,-400000.0625,-400000.0625
16.021026849746704,-7488.2998046875,-18795.869140625,-2743.340087890625,-400000.0625,-400000.0625,-400000.0625,-400000.0625,-400000.0625
16.08468508720398,-7493.93017578125,-18835.58984375,-2744.25,-400000.0625,-400000.0625,-400000.0625,-400000.0625,-400000.0625
16.164124965667725,-7658.47998046875,-18961.669921875,-2759.64990234375,-400000.0625,-400000.0625,-400000.0625,-400000.0625,-400000.0625
16.20998477935791,-7623.72021484375,-18922.759765625,-2723.60009765625,-400000.0625,-400000.0625,-400000.0625,-400000.0625,-400000.0625
16.26765465736389,-7563.02001953125,-18997.669921875,-2803.52001953125,-400000.0625,-400000.0625,-400000.0625,-400000.0625,-400000.0625
16.335816621780396,-7483.0498046875,-19189.359375,-3000.929931640625,-400000.0625,-400000.0625,-400000.0625,-400000.0625,-400000.0625
16.410951137542725,-7360.7900390625,-19346.5703125,-3118.3701171875,-400000.0625,-400000.0625,-400000.0625,-400000.0625,-400000.0625
16.47007393836975,-7326.169921875,-19295.310546875,-3065.35009765625,-400000.0625,-400000.0625,-400000.0625,-400000.0625,-400000.0625
16.527816772460938,-7373.91015625,-19304.08984375,-3089.090087890625,-400000.0625,-400000.0625,-400000.0625,-400000.0625,-400000.0625
16.5904061794281,-7319.06982421875,-19325.880859375,-3097.110107421875,-400000.0625,-400000.0625,-400000.0625,-400000.0625,-400000.0625
16.7388653755188,-7204.72021484375,-19355.349609375,-3157.659912109375,-400000.0625,-400000.0625,-400000.0625,-400000.0625,-400000.0625
16.791468620300293,-7045.509765625,-19311.5703125,-3145.739990234375,-400000.0625,-400000.0625,-400000.0625,-400000.0625,-400000.0625
16.843904733657837,-7104.64013671875,-19257.599609375,-3108.97998046875,-400000.0625,-400000.0625,-400000.0625,-400000.0625,-400000.0625
16.907743215560913,-7185.509765625,-19239.619140625,-3098.77001953125,-400000.0625,-400000.0625,-400000.0625,-400000.0625,-400000.0625
16.984476566314697,-7159.56982421875,-19286.439453125,-3121.330078125,-400000.0625,-400000.0625,-400000.0625,-400000.0625,-400000.0625
17.106648921966553,-7151.93994140625,-19251.25,-3081.56005859375,-400000.0625,-400000.0625,-400000.0625,-400000.0625,-400000.0625
17.18326711654663,-7131.77001953125,-19205.94921875,-3049.469970703125,-400000.0625,-400000.0625,-400000.0625,-400000.0625,-400000.0625
17.2915096282959,-7184.64990234375,-19228.3203125,-3074.5,-400000.0625,-400000.0625,-400000.0625,-400000.0625,-400000.0625
17.356427669525146,-7221.56005859375,-19193.7890625,-3045.64990234375,-400000.0625,-400000.0625,-400000.0625,-400000.0625,-400000.0625
17.425280570983887,-7201.6201171875,-19181.490234375,-3026.340087890625,-400000.0625,-400000.0625,-400000.0625,-400000.0625,-400000.0625
17.494171142578125,-7207.39013671875,-19202.900390625,-3041.93994140625,-400000.0625,-400000.0625,-400000.0625,-400000.0625,-400000.0625
17.549263954162598,-7185.080078125,-19198.75,-3024.9599609375,-400000.0625,-400000.0625,-400000.0625,-400000.0625,-400000.0625
17.7713303565979,-7733.43994140625,-18812.75,-2648.929931640625,-400000.0625,-400000.0625,-400000.0625,-400000.0625,-400000.0625
18.13108205795288,-7624.669921875,-18886.7109375,-2685.590087890625,-400000.0625,-400000.0625,-400000.0625,-400000.0625,-400000.0625
18.197360515594482,-7623.14990234375,-18911.3203125,-2724.739990234375,-400000.0625,-400000.0625,-400000.0625,-400000.0625,-400000.0625
18.442997455596924,-7719.3701171875,-18937.16015625,-2648.5,-400000.0625,-400000.0625,-400000.0625,-400000.0625,-400000.0625
18.649590492248535,-7760.85986328125,-18955.470703125,-2658.610107421875,-400000.0625,-400000.0625,-400000.0625,-400000.0625,-400000.0625
18.768146276474,-7720.81005859375,-18945.890625,-2650.31005859375,-400000.0625,-400000.0625,-400000.0625,-400000.0625,-400000.0625
19.281793355941772,-7453.81982421875,-18868.58984375,-2783.06005859375,-400000.0625,-400000.0625,-400000.0625,-400000.0625,-400000.0625
19.495411157608032,-7416.580078125,-18838.650390625,-2731.0400390625,-400000.0625,-400000.0625,-400000.0625,-400000.0625,-400000.0625
19.721128463745117,-7489.2998046875,-18903.880859375,-2764.610107421875,-400000.0625,-400000.0625,-400000.0625,-400000.0625,-400000.0625
19.931613206863403,-7465.35986328125,-19171.529296875,-2959.679931640625,-400000.0625,-400000.0625,-400000.0625,-400000.0625,-400000.0625
20.04565191268921,-7437.85009765625,-19136.91015625,-2913.429931640625,-400000.0625,-400000.0625,-400000.0625,-400000.0625,-400000.0625
20.111711263656616,-7432.41015625,-19120.740234375,-2892.72998046875,-400000.0625,-400000.0625,-400000.0625,-400000.0625,-400000.0625
20.179945468902588,-7469.7001953125,-19143.919921875,-2917.389892578125,-400000.0625,-400000.0625,-400000.0625,-400000.0625,-400000.0625
20.235103607177734,-7459.97998046875,-19152.5,-2927.830078125,-400000.0625,-400000.0625,-400000.0625,-400000.0625,-400000.0625
20.554391860961914,-7529.93017578125,-19058.849609375,-2849.820068359375,-400000.0625,-400000.0625,-400000.0625,-400000.0625,-400000.0625
20.68135404586792,-7253.1201171875,-19093.66015625,-2955.719970703125,-400000.0625,-400000.0625,-400000.0625,-400000.0625,-400000.0625
20.74670910835266,-7261.60986328125,-19068.859375,-2922.25,-400000.0625,-400000.0625,-400000.0625,-400000.0625,-400000.0625
21.014575481414795,-7637.31005859375,-18959.619140625,-2778.860107421875,-400000.0625,-400000.0625,-400000.0625,-400000.0625,-400000.0625
21.139601469039917,-7547.27978515625,-18870.9296875,-2711.25,-400000.0625,-400000.0625,-400000.0625,-400000.0625,-400000.0625
21.202853441238403,-7222.18017578125,-19005.5390625,-2957.77001953125,-400000.0625,-400000.0625,-400000.0625,-400000.0625,-400000.0625
21.326908111572266,-7266.14013671875,-19001.19921875,-2933.070068359375,-400000.0625,-400000.0625,-400000.0625,-400000.0625,-400000.0625
21.544599533081055,-7174.919921875,-19004.919921875,-2964.929931640625,-400000.0625,-400000.0625,-400000.0625,-400000.0625,-400000.0625
21.58253526687622,-7231.27978515625,-19015.9296875,-2961.449951171875,-400000.0625,-400000.0625,-400000.0625,-400000.0625,-400000.0625
21.645945072174072,-7256.93994140625,-18995.4296875,-2931.550048828125,-400000.0625,-400000.0625,-400000.0625,-400000.0625,-400000.0625
21.847461938858032,-7293.080078125,-18903.310546875,-2884.820068359375,-400000.0625,-400000.0625,-400000.0625,-400000.0625,-400000.0625
21.91408681869507,-7285.93017578125,-18872.9296875,-2847.9599609375,-400000.0625,-400000.0625,-400000.0625,-400000.0625,-400000.0625
21.980778217315674,-7317.02001953125,-18881.419921875,-2855.2099609375,-400000.0625,-400000.0625,-400000.0625,-400000.0625,-400000.0625
22.03872513771057,-7285.5498046875,-18847.560546875,-2829.409912109375,-400000.0625,-400000.0625,-400000.0625,-400000.0625,-400000.0625
22.231061458587646,-7349.919921875,-18867.73046875,-2842.81005859375,-400000.0625,-400000.0625,-400000.0625,-400000.0625,-400000.0625
22.285714626312256,-7358.7900390625,-18831.830078125,-2811.860107421875,-400000.0625,-400000.0625,-400000.0625,-400000.0625,-400000.0625
22.47743821144104,-7388.77978515625,-18856.859375,-2808.330078125,-400000.0625,-400000.0625,-400000.0625,-400000.0625,-400000.0625
22.676502227783203,-7410.0,-18846.419921875,-2777.9599609375,-400000.0625,-400000.0625,-400000.0625,-400000.0625,-400000.0625
22.795199871063232,-7456.35009765625,-18888.330078125,-2806.469970703125,-400000.0625,-400000.0625,-400000.0625,-400000.0625,-400000.0625
22.930908679962158,-7447.39013671875,-18872.5,-2792.169921875,-400000.0625,-400000.0625,-400000.0625,-400000.0625,-400000.0625
22.985103845596313,-7388.16015625,-18851.23046875,-2797.080078125,-400000.0625,-400000.0625,-400000.0625,-400000.0625,-400000.0625
23.051311016082764,-7394.27001953125,-18863.779296875,-2801.610107421875,-400000.0625,-400000.0625,-400000.0625,-400000.0625,-400000.0625
23.204941511154175,-7393.169921875,-18860.8203125,-2796.4599609375,-400000.0625,-400000.0625,-400000.0625,-400000.0625,-400000.0625
23.31093168258667,-7405.52001953125,-18838.220703125,-2779.10009765625,-400000.0625,-400000.0625,-400000.0625,-400000.0625,-400000.0625
23.38429570198059,-7457.02001953125,-18892.619140625,-2828.1201171875,-400000.0625,-400000.0625,-400000.0625,-400000.0625,-400000.0625
23.451531171798706,-7505.27001953125,-18946.169921875,-2874.949951171875,-400000.0625,-400000.0625,-400000.0625,-400000.0625,-400000.0625
23.511480569839478,-7497.1201171875,-18973.5390625,-2889.25,-400000.0625,-400000.0625,-400000.0625,-400000.0625,-400000.0625
23.581382274627686,-7499.22021484375,-18970.30078125,-2895.31005859375,-400000.0625,-400000.0625,-400000.0625,-400000.0625,-400000.0625
23.626126766204834,-7477.6201171875,-18952.939453125,-2880.050048828125,-400000.0625,-400000.0625,-400000.0625,-400000.0625,-400000.0625
23.693074703216553,-7474.52001953125,-18959.099609375,-2878.280029296875,-400000.0625,-400000.0625,-400000.0625,-400000.0625,-400000.0625
23.891752004623413,-7525.8701171875,-18959.859375,-2879.909912109375,-400000.0625,-400000.0625,-400000.0625,-400000.0625,-400000.0625
23.946826457977295,-7482.10009765625,-18920.609375,-2841.52001953125,-400000.0625,-400000.0625,-400000.0625,-400000.0625,-400000.0625
24.07828664779663,-7504.419921875,-18980.359375,-2895.159912109375,-400000.0625,-400000.0625,-400000.0625,-400000.0625,-400000.0625
24.205345630645752,-7470.080078125,-18950.990234375,-2853.679931640625,-400000.0625,-400000.0625,-400000.0625,-400000.0625,-400000.0625
24.334434509277344,-7220.4599609375,-18753.630859375,-2881.0,-400000.0625,-400000.0625,-400000.0625,-400000.0625,-400000.0625
24.671070098876953,-7065.39013671875,-18506.05078125,-2770.419921875,-400000.0625,-400000.0625,-400000.0625,-400000.0625,-400000.0625
24.72095537185669,-7055.14013671875,-18499.470703125,-2763.75,-400000.0625,-400000.0625,-400000.0625,-400000.0625,-400000.0625
24.78513813018799,-7132.0498046875,-18533.609375,-2780.8701171875,-400000.0625,-400000.0625,-400000.0625,-400000.0625,-400000.0625
24.84706163406372,-7130.33984375,-18546.630859375,-2782.820068359375,-400000.0625,-400000.0625,-400000.0625,-400000.0625,-400000.0625
24.91198444366455,-7106.35009765625,-18510.869140625,-2747.010009765625,-400000.0625,-400000.0625,-400000.0625,-400000.0625,-400000.0625
25.110540866851807,-7146.93017578125,-18619.490234375,-2808.090087890625,-400000.0625,-400000.0625,-400000.0625,-400000.0625,-400000.0625
25.176481008529663,-7107.77978515625,-18595.650390625,-2787.070068359375,-400000.0625,-400000.0625,-400000.0625,-400000.0625,-400000.0625
25.23648476600647,-7104.2998046875,-18591.5,-2779.340087890625,-400000.0625,-400000.0625,-400000.0625,-400000.0625,-400000.0625
25.366854429244995,-7128.0,-18614.490234375,-2802.22998046875,-400000.0625,-400000.0625,-400000.0625,-400000.0625,-400000.0625
25.442439317703247,-7127.0,-18610.150390625,-2796.27001953125,-400000.0625,-400000.0625,-400000.0625,-400000.0625,-400000.0625
25.549298524856567,-7092.85986328125,-18573.4296875,-2759.360107421875,-400000.0625,-400000.0625,-400000.0625,-400000.0625,-400000.0625
25.618852853775024,-7090.0,-18565.75,-2749.110107421875,-400000.0625,-400000.0625,-400000.0625,-400000.0625,-400000.0625
25.629971742630005,-7110.8798828125,-18581.109375,-2763.93994140625,-400000.0625,-400000.0625,-400000.0625,-400000.0625,-400000.0625
25.655248880386353,-7134.10009765625,-18602.80078125,-2782.43994140625,-400000.0625,-400000.0625,-400000.0625,-400000.0625,-400000.0625
25.668785095214844,-7132.009765625,-18602.80078125,-2779.820068359375,-400000.0625,-400000.0625,-400000.0625,-400000.0625,-400000.0625
25.67782711982727,-7110.41015625,-18579.25,-2759.929931640625,-400000.0625,-400000.0625,-400000.0625,-400000.0625,-400000.0625
25.687744617462158,-7090.6201171875,-18564.369140625,-2747.489990234375,-400000.0625,-400000.0625,-400000.0625,-400000.0625,-400000.0625
25.69783926010132,-7103.35009765625,-18574.529296875,-2758.31005859375,-400000.0625,-400000.0625,-400000.0625,-400000.0625,-400000.0625
25.708420515060425,-7126.27978515625,-18597.80078125,-2778.909912109375,-400000.0625,-400000.0625,-400000.0625,-400000.0625,-400000.0625
25.72385549545288,-7129.240234375,-18594.55078125,-2775.050048828125,-400000.0625,-400000.0625,-400000.0625,-400000.0625,-400000.0625
25.730993509292603,-7104.830078125,-18575.33984375,-2757.7900390625,-400000.0625,-400000.0625,-400000.0625,-400000.0625,-400000.0625
25.737406730651855,-7089.0,-18563.4609375,-2743.669921875,-400000.0625,-400000.0625,-400000.0625,-400000.0625,-400000.0625
25.747899293899536,-7101.25,-18574.099609375,-2753.449951171875,-400000.0625,-400000.0625,-400000.0625,-400000.0625,-400000.0625
25.756626844406128,-7123.7998046875,-18591.98046875,-2771.52001953125,-400000.0625,-400000.0625,-400000.0625,-400000.0625,-400000.0625
25.767924308776855,-7127.56982421875,-18599.849609375,-2776.719970703125,-400000.0625,-400000.0625,-400000.0625,-400000.0625,-400000.0625
25.780559301376343,-7105.58984375,-18581.33984375,-2761.169921875,-400000.0625,-400000.0625,-400000.0625,-400000.0625,-400000.0625
25.791677474975586,-7089.66015625,-18565.75,-2746.530029296875,-400000.0625,-400000.0625,-400000.0625,-400000.0625,-400000.0625
25.799164295196533,-7101.8701171875,-18577.8203125,-2756.60009765625,-400000.0625,-400000.0625,-400000.0625,-400000.0625,-400000.0625
25.81623077392578,-7126.89990234375,-18595.26953125,-2774.239990234375,-400000.0625,-400000.0625,-400000.0625,-400000.0625,-400000.0625
25.827791452407837,-7128.2900390625,-18593.83984375,-2774.18994140625,-400000.0625,-400000.0625,-400000.0625,-400000.0625,-400000.0625
25.839768409729004,-7100.39013671875,-18577.91015625,-2755.02001953125,-400000.0625,-400000.0625,-400000.0625,-400000.0625,-400000.0625
25.851830005645752,-7089.18994140625,-18563.83984375,-2741.14990234375,-400000.0625,-400000.0625,-400000.0625,-400000.0625,-400000.0625
25.863750219345093,-7101.10986328125,-18577.05078125,-2754.159912109375,-400000.0625,-400000.0625,-400000.0625,-400000.0625,-400000.0625
25.875593900680542,-7122.60986328125,-18599.80078125,-2776.909912109375,-400000.0625,-400000.0625,-400000.0625,-400000.0625,-400000.0625
25.8833646774292,-7123.9501953125,-18601.08984375,-2776.429931640625,-400000.0625,-400000.0625,-400000.0625,-400000.0625,-400000.0625
25.895445823669434,-7101.2001953125,-18579.19921875,-2758.030029296875,-400000.0625,-400000.0625,-400000.0625,-400000.0625,-400000.0625
25.90745711326599,-7087.22998046875,-18570.0390625,-2749.159912109375,-400000.0625,-400000.0625,-400000.0625,-400000.0625,-400000.0625
25.924835205078125,-7103.16015625,-18583.970703125,-2761.510009765625,-400000.0625,-400000.0625,-400000.0625,-400000.0625,-400000.0625
25.935337781906128,-7126.27978515625,-18604.279296875,-2781.580078125,-400000.0625,-400000.0625,-400000.0625,-400000.0625,-400000.0625
25.947028636932373,-7128.0,-18607.0,-2780.909912109375,-400000.0625,-400000.0625,-400000.0625,-400000.0625,-400000.0625
25.961674451828003,-7107.8798828125,-18586.44921875,-2762.169921875,-400000.0625,-400000.0625,-400000.0625,-400000.0625,-400000.0625
25.972801685333252,-7091.56982421875,-18572.4296875,-2748.06005859375,-400000.0625,-400000.0625,-400000.0625,-400000.0625,-400000.0625
25.98128628730774,-7102.58984375,-18583.8203125,-2759.739990234375,-400000.0625,-400000.0625,-400000.0625,-400000.0625,-400000.0625
25.992535829544067,-7126.3798828125,-18603.330078125,-2778.010009765625,-400000.0625,-400000.0625,-400000.0625,-400000.0625,-400000.0625
26.000243186950684,-7129.18994140625,-18602.94921875,-2774.2900390625,-400000.0625,-400000.0625,-400000.0625,-400000.0625,-400000.0625
26.00755476951599,-7104.02001953125,-18580.73046875,-2755.550048828125,-400000.0625,-400000.0625,-400000.0625,-400000.0625,-400000.0625
26.023271799087524,-7087.7099609375,-18570.0390625,-2745.25,-400000.0625,-400000.0625,-400000.0625,-400000.0625,-400000.0625
26.03606128692627,-7102.2998046875,-18582.5390625,-2754.8798828125,-400000.0625,-400000.0625,-400000.0625,-400000.0625,-400000.0625
26.04660654067993,-7127.85986328125,-18605.51953125,-2777.340087890625,-400000.0625,-400000.0625,-400000.0625,-400000.0625,-400000.0625
26.061980724334717,-7128.18994140625,-18605.900390625,-2777.909912109375,-400000.0625,-400000.0625,-400000.0625,-400000.0625,-400000.0625
26.07513189315796,-7103.06005859375,-18585.6796875,-2758.68994140625,-400000.0625,-400000.0625,-400000.0625,-400000.0625,-400000.0625
26.086923360824585,-7091.0,-18570.849609375,-2745.77001953125,-400000.0625,-400000.0625,-400000.0625,-400000.0625,-400000.0625
26.095937490463257,-7104.72998046875,-18580.76953125,-2757.1201171875,-400000.0625,-400000.0625,-400000.0625,-400000.0625,-400000.0625
26.114628553390503,-7124.47021484375,-18604.94921875,-2775.9599609375,-400000.0625,-400000.0625,-400000.0625,-400000.0625,-400000.0625
26.127033233642578,-7125.56982421875,-18614.099609375,-2776.9599609375,-400000.0625,-400000.0625,-400000.0625,-400000.0625,-400000.0625
26.1392023563385,-7107.31005859375,-18607.08984375,-2760.219970703125,-400000.0625,-400000.0625,-400000.0625,-400000.0625,-400000.0625
26.152008056640625,-7093.9501953125,-18602.80078125,-2755.7900390625,-400000.0625,-400000.0625,-400000.0625,-400000.0625,-400000.0625
26.163071632385254,-7106.64013671875,-18613.76953125,-2773.18994140625,-400000.0625,-400000.0625,-400000.0625,-400000.0625,-400000.0625
26.176958322525024,-7136.43994140625,-18641.189453125,-2799.85009765625,-400000.0625,-400000.0625,-400000.0625,-400000.0625,-400000.0625
26.188352584838867,-7145.35986328125,-18652.30078125,-2806.7099609375,-400000.0625,-400000.0625,-400000.0625,-400000.0625,-400000.0625
26.19945788383484,-7131.9599609375,-18644.05078125,-2796.4599609375,-400000.0625,-400000.0625,-400000.0625,-400000.0625,-400000.0625
26.21388816833496,-7125.56982421875,-18644.0,-2790.8798828125,-400000.0625,-400000.0625,-400000.0625,-400000.0625,-400000.0625
26.22340440750122,-7142.16015625,-18673.369140625,-2809.47998046875,-400000.0625,-400000.0625,-400000.0625,-400000.0625,-400000.0625
26.238887786865234,-7173.25,-18707.330078125,-2834.64990234375,-400000.0625,-400000.0625,-400000.0625,-400000.0625,-400000.0625
26.247905492782593,-7178.2099609375,-18711.810546875,-2835.1298828125,-400000.0625,-400000.0625,-400000.0625,-400000.0625,-400000.0625
26.259217023849487,-7155.27978515625,-18692.880859375,-2820.72998046875,-400000.0625,-400000.0625,-400000.0625,-400000.0625,-400000.0625
26.26687216758728,-7145.5,-18688.25,-2811.580078125,-400000.0625,-400000.0625,-400000.0625,-400000.0625,-400000.0625
26.279821634292603,-7156.18017578125,-18704.939453125,-2823.110107421875,-400000.0625,-400000.0625,-400000.0625,-400000.0625,-400000.0625
26.287680625915527,-7180.35986328125,-18722.630859375,-2838.949951171875,-400000.0625,-400000.0625,-400000.0625,-400000.0625,-400000.0625
26.300158977508545,-7187.509765625,-18730.359375,-2842.469970703125,-400000.0625,-400000.0625,-400000.0625,-400000.0625,-400000.0625
26.314522981643677,-7172.43994140625,-18715.669921875,-2826.5,-400000.0625,-400000.0625,-400000.0625,-400000.0625,-400000.0625
26.324407815933228,-7157.18017578125,-18699.890625,-2810.570068359375,-400000.0625,-400000.0625,-400000.0625,-400000.0625,-400000.0625
26.338361740112305,-7166.2900390625,-18711.759765625,-2818.43994140625,-400000.0625,-400000.0625,-400000.0625,-400000.0625,-400000.0625
26.34664273262024,-7184.97998046875,-18730.119140625,-2835.659912109375,-400000.0625,-400000.0625,-400000.0625,-400000.0625,-400000.0625
26.361964225769043,-7188.56005859375,-18729.830078125,-2834.179931640625,-400000.0625,-400000.0625,-400000.0625,-400000.0625,-400000.0625
26.370149612426758,-7166.580078125,-18708.279296875,-2814.820068359375,-400000.0625,-400000.0625,-400000.0625,-400000.0625,-400000.0625
26.38085150718689,-7148.83984375,-18694.689453125,-2801.93994140625,-400000.0625,-400000.0625,-400000.0625,-400000.0625,-400000.0625
26.3961501121521,-7160.27978515625,-18707.470703125,-2814.47998046875,-400000.0625,-400000.0625,-400000.0625,-400000.0625,-400000.0625
26.404736757278442,-7187.7998046875,-18729.359375,-2834.64990234375,-400000.0625,-400000.0625,-400000.0625,-400000.0625,-400000.0625
26.41882085800171,-7192.3701171875,-18725.060546875,-2831.1298828125,-400000.0625,-400000.0625,-400000.0625,-400000.0625,-400000.0625
26.42836046218872,-7165.52978515625,-18704.1796875,-2810.860107421875,-400000.0625,-400000.0625,-400000.0625,-400000.0625,-400000.0625
26.442246198654175,-7148.93017578125,-18695.359375,-2802.3701171875,-400000.0625,-400000.0625,-400000.0625,-400000.0625,-400000.0625
26.454236030578613,-7163.14013671875,-18707.369140625,-2814.820068359375,-400000.0625,-400000.0625,-400000.0625,-400000.0625,-400000.0625
26.467315435409546,-7186.4599609375,-18728.9296875,-2832.219970703125,-400000.0625,-400000.0625,-400000.0625,-400000.0625,-400000.0625
26.47759437561035,-7188.89013671875,-18728.5,-2832.409912109375,-400000.0625,-400000.0625,-400000.0625,-400000.0625,-400000.0625
26.49068307876587,-7165.0498046875,-18705.419921875,-2810.669921875,-400000.0625,-400000.0625,-400000.0625,-400000.0625,-400000.0625
26.49915337562561,-7149.7001953125,-18690.6796875,-2793.739990234375,-400000.0625,-400000.0625,-400000.0625,-400000.0625,-400000.0625
26.5165798664093,-7157.990234375,-18703.509765625,-2806.3798828125,-400000.0625,-400000.0625,-400000.0625,-400000.0625,-400000.0625
26.53016996383667,-7182.4599609375,-18727.5,-2828.360107421875,-400000.0625,-400000.0625,-400000.0625,-400000.0625,-400000.0625
26.541118144989014,-7186.18017578125,-18731.880859375,-2831.550048828125,-400000.0625,-400000.0625,-400000.0625,-400000.0625,-400000.0625
26.55309247970581,-7161.7099609375,-18705.75,-2810.0,-400000.0625,-400000.0625,-400000.0625,-400000.0625,-400000.0625
26.563203811645508,-7146.1201171875,-18690.2109375,-2793.5,-400000.0625,-400000.0625,-400000.0625,-400000.0625,-400000.0625
26.574742794036865,-7158.7998046875,-18702.939453125,-2803.659912109375,-400000.0625,-400000.0625,-400000.0625,-400000.0625,-400000.0625
26.586859226226807,-7182.5,-18722.390625,-2820.5400390625,-400000.0625,-400000.0625,-400000.0625,-400000.0625,-400000.0625
26.598098278045654,-7181.60009765625,-18720.099609375,-2819.199951171875,-400000.0625,-400000.0625,-400000.0625,-400000.0625,-400000.0625
26.60900354385376,-7163.330078125,-18701.359375,-2802.3701171875,-400000.0625,-400000.0625,-400000.0625,-400000.0625,-400000.0625
26.62297773361206,-7147.1201171875,-18690.919921875,-2791.60009765625,-400000.0625,-400000.0625,-400000.0625,-400000.0625,-400000.0625
26.635234594345093,-7157.56982421875,-18703.509765625,-2803.52001953125,-400000.0625,-400000.0625,-400000.0625,-400000.0625,-400000.0625
26.64758539199829,-7181.97998046875,-18726.6796875,-2824.2099609375,-400000.0625,-400000.0625,-400000.0625,-400000.0625,-400000.0625
26.655721187591553,-7180.97998046875,-18721.580078125,-2823.35009765625,-400000.0625,-400000.0625,-400000.0625,-400000.0625,-400000.0625
26.66921091079712,-7156.22998046875,-18700.359375,-2803.52001953125,-400000.0625,-400000.0625,-400000.0625,-400000.0625,-400000.0625
26.677197456359863,-7142.35009765625,-18690.779296875,-2792.7900390625,-400000.0625,-400000.0625,-400000.0625,-400000.0625,-400000.0625
26.688390731811523,-7154.990234375,-18704.26953125,-2806.139892578125,-400000.0625,-400000.0625,-400000.0625,-400000.0625,-400000.0625
26.69640326499939,-7176.97021484375,-18727.109375,-2825.360107421875,-400000.0625,-400000.0625,-400000.0625,-400000.0625,-400000.0625
26.708041429519653,-7177.4501953125,-18727.349609375,-2824.260009765625,-400000.0625,-400000.0625,-400000.0625,-400000.0625,-400000.0625
26.72146463394165,-7155.93994140625,-18706.900390625,-2805.280029296875,-400000.0625,-400000.0625,-400000.0625,-400000.0625,-400000.0625
26.73600721359253,-7137.2001953125,-18694.44921875,-2794.7900390625,-400000.0625,-400000.0625,-400000.0625,-400000.0625,-400000.0625
26.751551628112793,-7150.60009765625,-18706.369140625,-2806.0400390625,-400000.0625,-400000.0625,-400000.0625,-400000.0625,-400000.0625
26.76272678375244,-7173.77978515625,-18726.5390625,-2825.02001953125,-400000.0625,-400000.0625,-400000.0625,-400000.0625,-400000.0625
26.782493829727173,-7178.5,-18723.58984375,-2824.1201171875,-400000.0625,-400000.0625,-400000.0625,-400000.0625,-400000.0625
26.799314498901367,-7157.330078125,-18701.650390625,-2804.090087890625,-400000.0625,-400000.0625,-400000.0625,-400000.0625,-400000.0625
26.817890882492065,-7138.77978515625,-18689.869140625,-2793.8798828125,-400000.0625,-400000.0625,-400000.0625,-400000.0625,-400000.0625
26.83027982711792,-7151.4599609375,-18704.75,-2807.330078125,-400000.0625,-400000.0625,-400000.0625,-400000.0625,-400000.0625
26.849173069000244,-7178.4501953125,-18728.5390625,-2830.699951171875,-400000.0625,-400000.0625,-400000.0625,-400000.0625,-400000.0625
26.86258625984192,-7180.97998046875,-18731.640625,-2831.1298828125,-400000.0625,-400000.0625,-400000.0625,-400000.0625,-400000.0625
26.87761902809143,-7154.89013671875,-18710.380859375,-2810.47998046875,-400000.0625,-400000.0625,-400000.0625,-400000.0625,-400000.0625
26.885987520217896,-7137.2001953125,-18696.880859375,-2798.27001953125,-400000.0625,-400000.0625,-400000.0625,-400000.0625,-400000.0625
26.897817134857178,-7151.990234375,-18706.1796875,-2807.89990234375,-400000.0625,-400000.0625,-400000.0625,-400000.0625,-400000.0625
26.909602880477905,-7177.39990234375,-18726.970703125,-2826.97998046875,-400000.0625,-400000.0625,-400000.0625,-400000.0625,-400000.0625
26.927559852600098,-7181.93017578125,-18729.740234375,-2830.1201171875,-400000.0625,-400000.0625,-400000.0625,-400000.0625,-400000.0625
26.939634561538696,-7161.85986328125,-18710.419921875,-2810.9599609375,-400000.0625,-400000.0625,-400000.0625,-400000.0625,-400000.0625
26.949687004089355,-7146.31005859375,-18693.779296875,-2797.699951171875,-400000.0625,-400000.0625,-400000.0625,-400000.0625,-400000.0625
26.96594262123108,-7153.7998046875,-18703.890625,-2806.469970703125,-400000.0625,-400000.0625,-400000.0625,-400000.0625,-400000.0625
26.978270769119263,-7179.4501953125,-18728.259765625,-2825.8798828125,-400000.0625,-400000.0625,-400000.0625,-400000.0625,-400000.0625
26.99071431159973,-7182.31005859375,-18731.169921875,-2828.31005859375,-400000.0625,-400000.0625,-400000.0625,-400000.0625,-400000.0625
26.998297214508057,-7159.0,-18710.810546875,-2807.7099609375,-400000.0625,-400000.0625,-400000.0625,-400000.0625,-400000.0625
27.017167329788208,-7146.02978515625,-18697.599609375,-2797.699951171875,-400000.0625,-400000.0625,-400000.0625,-400000.0625,-400000.0625
27.02903175354004,-7159.0400390625,-18708.51953125,-2809.050048828125,-400000.0625,-400000.0625,-400000.0625,-400000.0625,-400000.0625
27.037423372268677,-7185.509765625,-18729.689453125,-2827.070068359375,-400000.0625,-400000.0625,-400000.0625,-400000.0625,-400000.0625
27.049564838409424,-7187.83984375,-18733.55078125,-2827.360107421875,-400000.0625,-400000.0625,-400000.0625,-400000.0625,-400000.0625
27.058452606201172,-7165.39013671875,-18713.619140625,-2808.2900390625,-400000.0625,-400000.0625,-400000.0625,-400000.0625,-400000.0625
27.078010320663452,-7147.64990234375,-18697.220703125,-2792.550048828125,-400000.0625,-400000.0625,-400000.0625,-400000.0625,-400000.0625
27.088825941085815,-7159.08984375,-18709.94921875,-2805.760009765625,-400000.0625,-400000.0625,-400000.0625,-400000.0625,-400000.0625
27.099846124649048,-7180.35986328125,-18730.9296875,-2825.929931640625,-400000.0625,-400000.0625,-400000.0625,-400000.0625,-400000.0625
27.117727994918823,-7183.02978515625,-18731.0703125,-2824.159912109375,-400000.0625,-400000.0625,-400000.0625,-400000.0625,-400000.0625
27.127790689468384,-7160.47021484375,-18711.4296875,-2805.81005859375,-400000.0625,-400000.0625,-400000.0625,-400000.0625,-400000.0625
27.13937520980835,-7142.39990234375,-18694.44921875,-2793.1201171875,-400000.0625,-400000.0625,-400000.0625,-400000.0625,-400000.0625
27.148443698883057,-7155.89990234375,-18705.130859375,-2803.760009765625,-400000.0625,-400000.0625,-400000.0625,-400000.0625,-400000.0625
27.161003828048706,-7180.06982421875,-18729.5,-2825.5,-400000.0625,-400000.0625,-400000.0625,-400000.0625,-400000.0625
27.16955876350403,-7183.169921875,-18731.7890625,-2828.409912109375,-400000.0625,-400000.0625,-400000.0625,-400000.0625,-400000.0625
27.182026386260986,-7165.91015625,-18718.8203125,-2812.820068359375,-400000.0625,-400000.0625,-400000.0625,-400000.0625,-400000.0625
27.189656019210815,-7152.18017578125,-18698.119140625,-2795.510009765625,-400000.0625,-400000.0625,-400000.0625,-400000.0625,-400000.0625
27.20257568359375,-7168.9599609375,-18700.890625,-2800.75,-400000.0625,-400000.0625,-400000.0625,-400000.0625,-400000.0625
27.221931219100952,-7192.22998046875,-18722.73046875,-2821.260009765625,-400000.0625,-400000.0625,-400000.0625,-400000.0625,-400000.0625
27.232479333877563,-7196.14013671875,-18722.8203125,-2817.72998046875,-400000.0625,-400000.0625,-400000.0625,-400000.0625,-400000.0625
27.24680519104004,-7173.830078125,-18701.26953125,-2797.3701171875,-400000.0625,-400000.0625,-400000.0625,-400000.0625,-400000.0625
27.25880765914917,-7155.56005859375,-18690.16015625,-2788.159912109375,-400000.0625,-400000.0625,-400000.0625,-400000.0625,-400000.0625
27.271151781082153,-7169.2998046875,-18700.69921875,-2798.409912109375,-400000.0625,-400000.0625,-400000.0625,-400000.0625,-400000.0625
27.28001117706299,-7190.7099609375,-18719.33984375,-2815.340087890625,-400000.0625,-400000.0625,-400000.0625,-400000.0625,-400000.0625
27.28832173347473,-7191.75,-18721.73046875,-2818.159912109375,-400000.0625,-400000.0625,-400000.0625,-400000.0625,-400000.0625
27.301589965820312,-7172.68017578125,-18705.560546875,-2804.7099609375,-400000.0625,-400000.0625,-400000.0625,-400000.0625,-400000.0625
27.31705904006958,-7157.22998046875,-18688.630859375,-2786.39990234375,-400000.0625,-400000.0625,-400000.0625,-400000.0625,-400000.0625
27.32594132423401,-7167.77001953125,-18694.01953125,-2793.5,-400000.0625,-400000.0625,-400000.0625,-400000.0625,-400000.0625
27.337984085083008,-7189.7998046875,-18718.439453125,-2813.77001953125,-400000.0625,-400000.0625,-400000.0625,-400000.0625,-400000.0625
27.35140299797058,-7194.08984375,-18720.390625,-2813.860107421875,-400000.0625,-400000.0625,-400000.0625,-400000.0625,-400000.0625
27.363507509231567,-7172.6298828125,-18697.359375,-2792.8798828125,-400000.0625,-400000.0625,-400000.0625,-400000.0625,-400000.0625
27.373055696487427,-7153.85009765625,-18682.2890625,-2779.909912109375,-400000.0625,-400000.0625,-400000.0625,-400000.0625,-400000.0625
27.38359022140503,-7161.7099609375,-18688.25,-2787.5400390625,-400000.0625,-400000.0625,-400000.0625,-400000.0625,-400000.0625
27.39283061027527,-7187.27001953125,-18716.099609375,-2810.0,-400000.0625,-400000.0625,-400000.0625,-400000.0625,-400000.0625
27.404471158981323,-7191.990234375,-18718.05078125,-2814.10009765625,-400000.0625,-400000.0625,-400000.0625,-400000.0625,-400000.0625
27.421535968780518,-7171.35009765625,-18697.119140625,-2795.64990234375,-400000.0625,-400000.0625,-400000.0625,-400000.0625,-400000.0625
27.434826135635376,-7154.66015625,-18682.009765625,-2782.72998046875,-400000.0625,-400000.0625,-400000.0625,-400000.0625,-400000.0625
27.44603705406189,-7158.27978515625,-18691.490234375,-2788.8798828125,-400000.0625,-400000.0625,-400000.0625,-400000.0625,-400000.0625
27.458954572677612,-7183.27001953125,-18709.5703125,-2804.85009765625,-400000.0625,-400000.0625,-400000.0625,-400000.0625,-400000.0625
27.472425937652588,-7189.31982421875,-18710.189453125,-2807.6201171875,-400000.0625,-400000.0625,-400000.0625,-400000.0625,-400000.0625
27.481298208236694,-7170.33984375,-18695.640625,-2791.7900390625,-400000.0625,-400000.0625,-400000.0625,-400000.0625,-400000.0625
27.494749069213867,-7156.9501953125,-18696.01953125,-2780.2900390625,-400000.0625,-400000.0625,-400000.0625,-400000.0625,-400000.0625
27.507227659225464,-7173.43994140625,-18728.2109375,-2798.840087890625,-400000.0625,-400000.0625,-400000.0625,-400000.0625,-400000.0625
27.524321794509888,-7201.39013671875,-18752.859375,-2817.679931640625,-400000.0625,-400000.0625,-400000.0625,-400000.0625,-400000.0625
27.53523874282837,-7216.83984375,-18733.650390625,-2807.239990234375,-400000.0625,-400000.0625,-400000.0625,-400000.0625,-400000.0625
27.54361319541931,-7205.68017578125,-18715.810546875,-2795.4599609375,-400000.0625,-400000.0625,-400000.0625,-400000.0625,-400000.0625
27.55422592163086,-7200.0498046875,-18732.83984375,-2794.1201171875,-400000.0625,-400000.0625,-400000.0625,-400000.0625,-400000.0625
27.56701397895813,-7222.990234375,-18746.279296875,-2798.610107421875,-400000.0625,-400000.0625,-400000.0625,-400000.0625,-400000.0625
27.583096027374268,-7266.47021484375,-18771.41015625,-2827.8798828125,-400000.0625,-400000.0625,-400000.0625,-400000.0625,-400000.0625
27.593030214309692,-7290.93994140625,-18798.689453125,-2842.280029296875,-400000.0625,-400000.0625,-400000.0625,-400000.0625,-400000.0625
27.603092908859253,-7278.16015625,-18790.490234375,-2827.639892578125,-400000.0625,-400000.0625,-400000.0625,-400000.0625,-400000.0625
27.62203288078308,-7273.9599609375,-18778.900390625,-2819.35009765625,-400000.0625,-400000.0625,-400000.0625,-400000.0625,-400000.0625
27.635117053985596,-7307.91015625,-18803.7890625,-2834.080078125,-400000.0625,-400000.0625,-400000.0625,-400000.0625,-400000.0625
27.646155834197998,-7344.77001953125,-18861.009765625,-2859.68994140625,-400000.0625,-400000.0625,-400000.0625,-400000.0625,-400000.0625
27.66041374206543,-7358.1201171875,-18862.919921875,-2861.68994140625,-400000.0625,-400000.0625,-400000.0625,-400000.0625,-400000.0625
27.673685550689697,-7355.02001953125,-18849.94921875,-2846.77001953125,-400000.0625,-400000.0625,-400000.0625,-400000.0625,-400000.0625
27.686607360839844,-7350.2998046875,-18853.140625,-2838.949951171875,-400000.0625,-400000.0625,-400000.0625,-400000.0625,-400000.0625
27.701378107070923,-7376.0,-18861.869140625,-2844.81005859375,-400000.0625,-400000.0625,-400000.0625,-400000.0625,-400000.0625
27.72056746482849,-7414.68017578125,-18887.619140625,-2863.4599609375,-400000.0625,-400000.0625,-400000.0625,-400000.0625,-400000.0625
27.73217010498047,-7420.58984375,-18898.060546875,-2865.550048828125,-400000.0625,-400000.0625,-400000.0625,-400000.0625,-400000.0625
27.743889570236206,-7415.68017578125,-18885.609375,-2846.47998046875,-400000.0625,-400000.0625,-400000.0625,-400000.0625,-400000.0625
27.759844303131104,-7412.52978515625,-18885.66015625,-2838.800048828125,-400000.0625,-400000.0625,-400000.0625,-400000.0625,-400000.0625
27.77143955230713,-7425.68994140625,-18898.109375,-2847.10009765625,-400000.0625,-400000.0625,-400000.0625,-400000.0625,-400000.0625
27.7867751121521,-7456.35009765625,-18925.619140625,-2865.840087890625,-400000.0625,-400000.0625,-400000.0625,-400000.0625,-400000.0625
27.798838138580322,-7464.31005859375,-18928.390625,-2863.4599609375,-400000.0625,-400000.0625,-400000.0625,-400000.0625,-400000.0625
27.819934606552124,-7448.669921875,-18913.83984375,-2848.909912109375,-400000.0625,-400000.0625,-400000.0625,-400000.0625,-400000.0625
27.83379340171814,-7435.1298828125,-18904.01953125,-2839.570068359375,-400000.0625,-400000.0625,-400000.0625,-400000.0625,-400000.0625
27.849408388137817,-7448.2001953125,-18912.890625,-2845.3798828125,-400000.0625,-400000.0625,-400000.0625,-400000.0625,-400000.0625
27.865501642227173,-7465.93994140625,-18935.01953125,-2861.639892578125,-400000.0625,-400000.0625,-400000.0625,-400000.0625,-400000.0625
27.881091117858887,-7473.0400390625,-18948.26953125,-2865.97998046875,-400000.0625,-400000.0625,-400000.0625,-400000.0625,-400000.0625
27.893179178237915,-7452.2998046875,-18923.859375,-2842.760009765625,-400000.0625,-400000.0625,-400000.0625,-400000.0625,-400000.0625
27.91765570640564,-7440.52001953125,-18907.9296875,-2829.360107421875,-400000.0625,-400000.0625,-400000.0625,-400000.0625,-400000.0625
27.934900522232056,-7449.2001953125,-18923.900390625,-2837.3701171875,-400000.0625,-400000.0625,-400000.0625,-400000.0625,-400000.0625
27.945636987686157,-7474.08984375,-18946.130859375,-2854.489990234375,-400000.0625,-400000.0625,-400000.0625,-400000.0625,-400000.0625
27.95641326904297,-7476.330078125,-18949.080078125,-2858.110107421875,-400000.0625,-400000.0625,-400000.0625,-400000.0625,-400000.0625
27.969178438186646,-7452.06005859375,-18928.240234375,-2838.139892578125,-400000.0625,-400000.0625,-400000.0625,-400000.0625,-400000.0625
27.988242149353027,-7431.22021484375,-18909.69921875,-2820.300048828125,-400000.0625,-400000.0625,-400000.0625,-400000.0625,-400000.0625
28.007029056549072,-7442.18994140625,-18919.23046875,-2830.360107421875,-400000.0625,-400000.0625,-400000.0625,-400000.0625,-400000.0625
28.031437158584595,-7467.93994140625,-18944.689453125,-2851.580078125,-400000.0625,-400000.0625,-400000.0625,-400000.0625,-400000.0625
28.043319702148438,-7472.330078125,-18949.220703125,-2853.389892578125,-400000.0625,-400000.0625,-400000.0625,-400000.0625,-400000.0625
28.054505109786987,-7450.8701171875,-18930.490234375,-2835.989990234375,-400000.0625,-400000.0625,-400000.0625,-400000.0625,-400000.0625
28.067421674728394,-7431.75,-18913.75,-2818.6298828125,-400000.0625,-400000.0625,-400000.0625,-400000.0625,-400000.0625
28.08300805091858,-7438.85009765625,-18923.810546875,-2828.409912109375,-400000.0625,-400000.0625,-400000.0625,-400000.0625,-400000.0625
28.097543478012085,-7464.35986328125,-18948.029296875,-2847.669921875,-400000.0625,-400000.0625,-400000.0625,-400000.0625,-400000.0625
28.12198829650879,-7470.3701171875,-18951.990234375,-2848.9599609375,-400000.0625,-400000.0625,-400000.0625,-400000.0625,-400000.0625
28.133852243423462,-7445.91015625,-18933.390625,-2828.260009765625,-400000.0625,-400000.0625,-400000.0625,-400000.0625,-400000.0625
28.14892864227295,-7427.60009765625,-18917.66015625,-2812.389892578125,-400000.0625,-400000.0625,-400000.0625,-400000.0625,-400000.0625
28.163145542144775,-7440.0,-18927.619140625,-2822.72998046875,-400000.0625,-400000.0625,-400000.0625,-400000.0625,-400000.0625
28.177396059036255,-7468.509765625,-18961.2890625,-2843.949951171875,-400000.0625,-400000.0625,-400000.0625,-400000.0625,-400000.0625
28.18820571899414,-7472.1298828125,-18982.98046875,-2853.010009765625,-400000.0625,-400000.0625,-400000.0625,-400000.0625,-400000.0625
28.203972101211548,-7454.490234375,-18952.23046875,-2833.219970703125,-400000.0625,-400000.0625,-400000.0625,-400000.0625,-400000.0625
28.225322723388672,-7439.9501953125,-18922.380859375,-2817.820068359375,-400000.0625,-400000.0625,-400000.0625,-400000.0625,-400000.0625
28.235100269317627,-7451.490234375,-18933.630859375,-2829.64990234375,-400000.0625,-400000.0625,-400000.0625,-400000.0625,-400000.0625
28.250443935394287,-7478.2900390625,-18964.150390625,-2854.35009765625,-400000.0625,-400000.0625,-400000.0625,-400000.0625,-400000.0625
28.2636501789093,-7479.52978515625,-18972.0703125,-2853.010009765625,-400000.0625,-400000.0625,-400000.0625,-400000.0625,-400000.0625
28.276037454605103,-7455.919921875,-18954.23046875,-2830.219970703125,-400000.0625,-400000.0625,-400000.0625,-400000.0625,-400000.0625
28.28644108772278,-7441.14013671875,-18944.41015625,-2817.43994140625,-400000.0625,-400000.0625,-400000.0625,-400000.0625,-400000.0625
28.304107427597046,-7450.33984375,-18957.240234375,-2830.7900390625,-400000.0625,-400000.0625,-400000.0625,-400000.0625,-400000.0625
28.328709363937378,-7474.85009765625,-18980.599609375,-2853.06005859375,-400000.0625,-400000.0625,-400000.0625,-400000.0625,-400000.0625
28.34377908706665,-7481.2900390625,-18979.169921875,-2854.969970703125,-400000.0625,-400000.0625,-400000.0625,-400000.0625,-400000.0625
28.356806993484497,-7459.740234375,-18956.380859375,-2832.56005859375,-400000.0625,-400000.0625,-400000.0625,-400000.0625,-400000.0625
28.375710487365723,-7434.27001953125,-18940.830078125,-2814.010009765625,-400000.0625,-400000.0625,-400000.0625,-400000.0625,-400000.0625
28.3850314617157,-7449.009765625,-18955.419921875,-2830.219970703125,-400000.0625,-400000.0625,-400000.0625,-400000.0625,-400000.0625
28.40419578552246,-7476.66015625,-18977.9296875,-2850.8701171875,-400000.0625,-400000.0625,-400000.0625,-400000.0625,-400000.0625
28.42303991317749,-7480.10009765625,-18982.650390625,-2853.06005859375,-400000.0625,-400000.0625,-400000.0625,-400000.0625,-400000.0625
28.434504985809326,-7462.22021484375,-18967.76953125,-2838.22998046875,-400000.0625,-400000.0625,-400000.0625,-400000.0625,-400000.0625
28.448335886001587,-7446.240234375,-18950.509765625,-2821.110107421875,-400000.0625,-400000.0625,-400000.0625,-400000.0625,-400000.0625
28.46425437927246,-7456.02001953125,-18958.51953125,-2828.070068359375,-400000.0625,-400000.0625,-400000.0625,-400000.0625,-400000.0625
28.477394580841064,-7473.0400390625,-18977.740234375,-2845.9599609375,-400000.0625,-400000.0625,-400000.0625,-400000.0625,-400000.0625
28.4941143989563,-7476.43017578125,-18979.83984375,-2847.6201171875,-400000.0625,-400000.0625,-400000.0625,-400000.0625,-400000.0625
28.50642442703247,-7458.64013671875,-18960.380859375,-2831.27001953125,-400000.0625,-400000.0625,-400000.0625,-400000.0625,-400000.0625
28.52759289741516,-7435.75,-18945.359375,-2816.14990234375,-400000.0625,-400000.0625,-400000.0625,-400000.0625,-400000.0625
28.538567304611206,-7445.43017578125,-18954.609375,-2829.169921875,-400000.0625,-400000.0625,-400000.0625,-400000.0625,-400000.0625
28.54855751991272,-7475.08984375,-18982.69921875,-2853.25,-400000.0625,-400000.0625,-400000.0625,-400000.0625,-400000.0625
28.562801122665405,-7481.0498046875,-18988.94921875,-2856.919921875,-400000.0625,-400000.0625,-400000.0625,-400000.0625,-400000.0625
28.571524381637573,-7459.31005859375,-18969.919921875,-2840.570068359375,-400000.0625,-400000.0625,-400000.0625,-400000.0625,-400000.0625
28.587515354156494,-7440.81005859375,-18949.890625,-2823.639892578125,-400000.0625,-400000.0625,-400000.0625,-400000.0625,-400000.0625
28.598005771636963,-7451.33984375,-18956.4296875,-2831.7900390625,-400000.0625,-400000.0625,-400000.0625,-400000.0625,-400000.0625
28.61710834503174,-7476.08984375,-18981.26953125,-2853.43994140625,-400000.0625,-400000.0625,-400000.0625,-400000.0625,-400000.0625
28.63021445274353,-7479.47998046875,-18987.80078125,-2856.449951171875,-400000.0625,-400000.0625,-400000.0625,-400000.0625,-400000.0625
28.641175031661987,-7458.68994140625,-18965.6796875,-2836.93994140625,-400000.0625,-400000.0625,-400000.0625,-400000.0625,-400000.0625
28.655569791793823,-7441.56982421875,-18947.939453125,-2821.260009765625,-400000.0625,-400000.0625,-400000.0625,-400000.0625,-400000.0625
28.668240547180176,-7453.919921875,-18958.759765625,-2829.030029296875,-400000.0625,-400000.0625,-400000.0625,-400000.0625,-400000.0625
28.68428325653076,-7479.85986328125,-18985.080078125,-2853.199951171875,-400000.0625,-400000.0625,-400000.0625,-400000.0625,-400000.0625
28.695581674575806,-7489.72998046875,-19002.390625,-2858.35009765625,-400000.0625,-400000.0625,-400000.0625,-400000.0625,-400000.0625
28.70507287979126,-7469.509765625,-18992.0,-2838.56005859375,-400000.0625,-400000.0625,-400000.0625,-400000.0625,-400000.0625
28.721498012542725,-7443.81005859375,-18953.560546875,-2821.919921875,-400000.0625,-400000.0625,-400000.0625,-400000.0625,-400000.0625
28.737679481506348,-7451.9599609375,-18957.7109375,-2838.469970703125,-400000.0625,-400000.0625,-400000.0625,-400000.0625,-400000.0625
28.751688718795776,-7474.47021484375,-18991.759765625,-2861.39990234375,-400000.0625,-400000.0625,-400000.0625,-400000.0625,-400000.0625
28.771093606948853,-7466.1298828125,-18995.240234375,-2863.929931640625,-400000.0625,-400000.0625,-400000.0625,-400000.0625,-400000.0625
28.794716835021973,-7446.72021484375,-18990.330078125,-2853.110107421875,-400000.0625,-400000.0625,-400000.0625,-400000.0625,-400000.0625
28.816739320755005,-7433.4599609375,-18991.419921875,-2851.820068359375,-400000.0625,-400000.0625,-400000.0625,-400000.0625,-400000.0625
28.83581256866455,-7438.22998046875,-18996.33984375,-2863.030029296875,-400000.0625,-400000.0625,-400000.0625,-400000.0625,-400000.0625
28.850494861602783,-7460.169921875,-19017.220703125,-2881.9599609375,-400000.0625,-400000.0625,-400000.0625,-400000.0625,-400000.0625
28.868878841400146,-7464.27001953125,-19025.140625,-2884.010009765625,-400000.0625,-400000.0625,-400000.0625,-400000.0625,-400000.0625
28.883894681930542,-7445.6201171875,-19000.8203125,-2865.169921875,-400000.0625,-400000.0625,-400000.0625,-400000.0625,-400000.0625
28.893117427825928,-7426.1201171875,-18978.55078125,-2847.47998046875,-400000.0625,-400000.0625,-400000.0625,-400000.0625,-400000.0625
28.90644598007202,-7437.52001953125,-18987.990234375,-2855.2099609375,-400000.0625,-400000.0625,-400000.0625,-400000.0625,-400000.0625
28.923279523849487,-7457.10986328125,-19006.349609375,-2876.3798828125,-400000.0625,-400000.0625,-400000.0625,-400000.0625,-400000.0625
28.932069540023804,-7457.10986328125,-19007.689453125,-2875.949951171875,-400000.0625,-400000.0625,-400000.0625,-400000.0625,-400000.0625
28.93911910057068,-7437.330078125,-18997.189453125,-2860.159912109375,-400000.0625,-400000.0625,-400000.0625,-400000.0625,-400000.0625
28.95228338241577,-7420.4501953125,-18977.55078125,-2842.949951171875,-400000.0625,-400000.0625,-400000.0625,-400000.0625,-400000.0625
28.962366342544556,-7426.60009765625,-18981.98046875,-2851.300048828125,-400000.0625,-400000.0625,-400000.0625,-400000.0625,-400000.0625
28.97376799583435,-7449.81982421875,-19005.830078125,-2873.280029296875,-400000.0625,-400000.0625,-400000.0625,-400000.0625,-400000.0625
28.986015558242798,-7456.58984375,-19014.4609375,-2878.3798828125,-400000.0625,-400000.0625,-400000.0625,-400000.0625,-400000.0625
28.995594024658203,-7441.18994140625,-18997.619140625,-2863.030029296875,-400000.0625,-400000.0625,-400000.0625,-400000.0625,-400000.0625
29.01416563987732,-7420.64013671875,-18980.4609375,-2848.719970703125,-400000.0625,-400000.0625,-400000.0625,-400000.0625,-400000.0625
29.027146577835083,-7430.27001953125,-18989.66015625,-2856.35009765625,-400000.0625,-400000.0625,-400000.0625,-400000.0625,-400000.0625
29.04226779937744,-7455.35009765625,-19007.970703125,-2873.800048828125,-400000.0625,-400000.0625,-400000.0625,-400000.0625,-400000.0625
29.063223361968994,-7459.259765625,-19012.640625,-2877.280029296875,-400000.0625,-400000.0625,-400000.0625,-400000.0625,-400000.0625
29.12812829017639,-7437.7099609375,-18994.48046875,-2858.159912109375,-400000.0625,-400000.0625,-400000.0625,-400000.0625,-400000.0625
29.185110807418823,-7419.16015625,-18972.16015625,-2838.0400390625,-400000.0625,-400000.0625,-400000.0625,-400000.0625,-400000.0625
29.197898864746094,-7428.4599609375,-18978.689453125,-2844.860107421875,-400000.0625,-400000.0625,-400000.0625,-400000.0625,-400000.0625
29.22905731201172,-7450.68017578125,-19005.060546875,-2868.4599609375,-400000.0625,-400000.0625,-400000.0625,-400000.0625,-400000.0625
29.246819019317627,-7454.25,-19014.7890625,-2874.949951171875,-400000.0625,-400000.0625,-400000.0625,-400000.0625,-400000.0625
29.28413224220276,-7434.31982421875,-18992.140625,-2856.110107421875,-400000.0625,-400000.0625,-400000.0625,-400000.0625,-400000.0625
29.301832675933838,-7415.68017578125,-18973.779296875,-2837.320068359375,-400000.0625,-400000.0625,-400000.0625,-400000.0625,-400000.0625
29.320205211639404,-7428.06982421875,-18980.359375,-2846.81005859375,-400000.0625,-400000.0625,-400000.0625,-400000.0625,-400000.0625
29.351385831832886,-7454.58984375,-18999.439453125,-2868.080078125,-400000.0625,-400000.0625,-400000.0625,-400000.0625,-400000.0625
29.383963346481323,-7459.740234375,-19008.44921875,-2873.469970703125,-400000.0625,-400000.0625,-400000.0625,-400000.0625,-400000.0625
29.399388551712036,-7435.60986328125,-18988.66015625,-2853.72998046875,-400000.0625,-400000.0625,-400000.0625,-400000.0625,-400000.0625
29.410938262939453,-7415.39013671875,-18968.439453125,-2837.7099609375,-400000.0625,-400000.0625,-400000.0625,-400000.0625,-400000.0625
29.42817711830139,-7425.31005859375,-18978.310546875,-2846.81005859375,-400000.0625,-400000.0625,-400000.0625,-400000.0625,-400000.0625
29.4464430809021,-7452.009765625,-18997.91015625,-2865.030029296875,-400000.0625,-400000.0625,-400000.0625,-400000.0625,-400000.0625
29.47122025489807,-7457.39990234375,-19000.529296875,-2868.4599609375,-400000.0625,-400000.0625,-400000.0625,-400000.0625,-400000.0625
29.501697301864624,-7434.85009765625,-18985.23046875,-2851.06005859375,-400000.0625,-400000.0625,-400000.0625,-400000.0625,-400000.0625
29.51641321182251,-7415.06005859375,-18964.33984375,-2833.4599609375,-400000.0625,-400000.0625,-400000.0625,-400000.0625,-400000.0625
29.53364086151123,-7427.8798828125,-18976.7890625,-2843.7099609375,-400000.0625,-400000.0625,-400000.0625,-400000.0625,-400000.0625
29.549596309661865,-7452.2998046875,-19001.6796875,-2866.4599609375,-400000.0625,-400000.0625,-400000.0625,-400000.0625,-400000.0625
29.563865184783936,-7459.830078125,-19004.919921875,-2868.219970703125,-400000.0625,-400000.0625,-400000.0625,-400000.0625,-400000.0625
29.5838143825531,-7437.1298828125,-18980.359375,-2848.77001953125,-400000.0625,-400000.0625,-400000.0625,-400000.0625,-400000.0625
29.60265612602234,-7414.6298828125,-18965.720703125,-2834.4599609375,-400000.0625,-400000.0625,-400000.0625,-400000.0625,-400000.0625
29.61952233314514,-7422.64013671875,-18974.740234375,-2840.949951171875,-400000.0625,-400000.0625,-400000.0625,-400000.0625,-400000.0625
29.636570930480957,-7446.91015625,-18992.240234375,-2858.8798828125,-400000.0625,-400000.0625,-400000.0625,-400000.0625,-400000.0625
29.64848041534424,-7452.77001953125,-19000.869140625,-2865.030029296875,-400000.0625,-400000.0625,-400000.0625,-400000.0625,-400000.0625
29.6636381149292,-7432.75,-18983.650390625,-2851.679931640625,-400000.0625,-400000.0625,-400000.0625,-400000.0625,-400000.0625
29.68439745903015,-7417.06005859375,-18965.099609375,-2834.699951171875,-400000.0625,-400000.0625,-400000.0625,-400000.0625,-400000.0625
29.695316076278687,-7424.35986328125,-18970.779296875,-2838.330078125,-400000.0625,-400000.0625,-400000.0625,-400000.0625,-400000.0625
29.707749843597412,-7442.330078125,-18992.51953125,-2856.300048828125,-400000.0625,-400000.0625,-400000.0625,-400000.0625,-400000.0625
29.717386960983276,-7455.16015625,-19003.970703125,-2868.93994140625,-400000.0625,-400000.0625,-400000.0625,-400000.0625,-400000.0625
29.73200821876526,-7433.1298828125,-18984.220703125,-2851.919921875,-400000.0625,-400000.0625,-400000.0625,-400000.0625,-400000.0625
29.74085831642151,-7415.10009765625,-18969.25,-2836.22998046875,-400000.0625,-400000.0625,-400000.0625,-400000.0625,-400000.0625
29.755147218704224,-7427.259765625,-18976.44921875,-2844.18994140625,-400000.0625,-400000.0625,-400000.0625,-400000.0625,-400000.0625
29.768900394439697,-7451.8701171875,-18993.7109375,-2860.97998046875,-400000.0625,-400000.0625,-400000.0625,-400000.0625,-400000.0625
29.789604425430298,-7459.02001953125,-19000.439453125,-2866.4599609375,-400000.0625,-400000.0625,-400000.0625,-400000.0625,-400000.0625
29.79988670349121,-7438.759765625,-18984.130859375,-2850.719970703125,-400000.0625,-400000.0625,-400000.0625,-400000.0625,-400000.0625
29.81446886062622,-7418.43994140625,-18967.580078125,-2834.64990234375,-400000.0625,-400000.0625,-400000.0625,-400000.0625,-400000.0625
29.82779860496521,-7425.64013671875,-18969.400390625,-2841.760009765625,-400000.0625,-400000.0625,-400000.0625,-400000.0625,-400000.0625
29.84085774421692,-7443.240234375,-18993.5703125,-2860.260009765625,-400000.0625,-400000.0625,-400000.0625,-400000.0625,-400000.0625
29.855721473693848,-7450.009765625,-19001.919921875,-2863.840087890625,-400000.0625,-400000.0625,-400000.0625,-400000.0625,-400000.0625
29.868721961975098,-7428.4599609375,-18983.80078125,-2845.719970703125,-400000.0625,-400000.0625,-400000.0625,-400000.0625,-400000.0625
29.887860774993896,-7413.669921875,-18974.5,-2836.080078125,-400000.0625,-400000.0625,-400000.0625,-400000.0625,-400000.0625
29.904127836227417,-7425.31005859375,-18980.119140625,-2846.0,-400000.0625,-400000.0625,-400000.0625,-400000.0625,-400000.0625
29.914952278137207,-7443.6201171875,-18999.009765625,-2863.550048828125,-400000.0625,-400000.0625,-400000.0625,-400000.0625,-400000.0625
29.92656922340393,-7450.919921875,-19009.58984375,-2870.699951171875,-400000.0625,-400000.0625,-400000.0625,-400000.0625,-400000.0625
29.941001415252686,-7432.89013671875,-18991.419921875,-2848.719970703125,-400000.0625,-400000.0625,-400000.0625,-400000.0625,-400000.0625
29.95279049873352,-7420.72998046875,-18981.55078125,-2830.64990234375,-400000.0625,-400000.0625,-400000.0625,-400000.0625,-400000.0625
29.96485996246338,-7421.77978515625,-18994.189453125,-2835.3701171875,-400000.0625,-400000.0625,-400000.0625,-400000.0625,-400000.0625
29.98261308670044,-7436.3701171875,-19013.9296875,-2845.570068359375,-400000.0625,-400000.0625,-400000.0625,-400000.0625,-400000.0625
29.994600296020508,-7448.33984375,-19023.75,-2859.070068359375,-400000.0625,-400000.0625,-400000.0625,-400000.0625,-400000.0625
30.007192134857178,-7439.85009765625,-19020.080078125,-2856.449951171875,-400000.0625,-400000.0625,-400000.0625,-400000.0625,-400000.0625
30.018380880355835,-7408.9501953125,-19025.849609375,-2838.22998046875,-400000.0625,-400000.0625,-400000.0625,-400000.0625,-400000.0625
30.029990673065186,-7429.35986328125,-19036.390625,-2864.550048828125,-400000.0625,-400000.0625,-400000.0625,-400000.0625,-400000.0625
30.04382085800171,-7472.08984375,-19082.44921875,-2901.699951171875,-400000.0625,-400000.0625,-400000.0625,-400000.0625,-400000.0625
30.05345392227173,-7465.7001953125,-19108.109375,-2900.080078125,-400000.0625,-400000.0625,-400000.0625,-400000.0625,-400000.0625
30.06586503982544,-7448.6298828125,-19112.640625,-2900.31005859375,-400000.0625,-400000.0625,-400000.0625,-400000.0625,-400000.0625
30.086642742156982,-7458.77978515625,-19139.33984375,-2908.56005859375,-400000.0625,-400000.0625,-400000.0625,-400000.0625,-400000.0625
30.103516817092896,-7486.43994140625,-19188.98046875,-2933.60009765625,-400000.0625,-400000.0625,-400000.0625,-400000.0625,-400000.0625
30.11836314201355,-7522.35009765625,-19241.4296875,-2966.31005859375,-400000.0625,-400000.0625,-400000.0625,-400000.0625,-400000.0625
30.130395889282227,-7539.509765625,-19289.779296875,-2994.389892578125,-400000.0625,-400000.0625,-400000.0625,-400000.0625,-400000.0625
30.141993045806885,-7534.35986328125,-19299.369140625,-2991.6298828125,-400000.0625,-400000.0625,-400000.0625,-400000.0625,-400000.0625
30.156686305999756,-7535.60009765625,-19313.0,-2991.14990234375,-400000.0625,-400000.0625,-400000.0625,-400000.0625,-400000.0625
30.178858280181885,-7546.18994140625,-19344.140625,-3005.1201171875,-400000.0625,-400000.0625,-400000.0625,-400000.0625,-400000.0625
30.19482445716858,-7569.5,-19373.0390625,-3026.679931640625,-400000.0625,-400000.0625,-400000.0625,-400000.0625,-400000.0625
30.209081649780273,-7573.93994140625,-19382.810546875,-3038.070068359375,-400000.0625,-400000.0625,-400000.0625,-400000.0625,-400000.0625
30.22291660308838,-7552.33984375,-19370.369140625,-3021.429931640625,-400000.0625,-400000.0625,-400000.0625,-400000.0625,-400000.0625
30.23933506011963,-7530.31005859375,-19346.240234375,-3001.169921875,-400000.0625,-400000.0625,-400000.0625,-400000.0625,-400000.0625
30.25331425666809,-7539.93994140625,-19351.529296875,-3005.030029296875,-400000.0625,-400000.0625,-400000.0625,-400000.0625,-400000.0625
30.264821767807007,-7559.77978515625,-19368.939453125,-3026.10009765625,-400000.0625,-400000.0625,-400000.0625,-400000.0625,-400000.0625
30.28611707687378,-7563.77978515625,-19362.640625,-3029.06005859375,-400000.0625,-400000.0625,-400000.0625,-400000.0625,-400000.0625
30.30042815208435,-7548.0,-19331.169921875,-3006.320068359375,-400000.0625,-400000.0625,-400000.0625,-400000.0625,-400000.0625
30.31222915649414,-7525.72998046875,-19303.0390625,-2985.760009765625,-400000.0625,-400000.0625,-400000.0625,-400000.0625,-400000.0625
30.32617735862732,-7527.8798828125,-19291.880859375,-2989.14990234375,-400000.0625,-400000.0625,-400000.0625,-400000.0625,-400000.0625
30.33467960357666,-7550.240234375,-19294.44921875,-3003.169921875,-400000.0625,-400000.0625,-400000.0625,-400000.0625,-400000.0625
30.348771333694458,-7553.240234375,-19284.919921875,-2998.919921875,-400000.0625,-400000.0625,-400000.0625,-400000.0625,-400000.0625
30.362521171569824,-7526.4501953125,-19242.4296875,-2971.699951171875,-400000.0625,-400000.0625,-400000.0625,-400000.0625,-400000.0625
30.37672185897827,-7500.169921875,-19210.2890625,-2952.389892578125,-400000.0625,-400000.0625,-400000.0625,-400000.0625,-400000.0625
30.394723176956177,-7506.22998046875,-19203.279296875,-2953.6298828125,-400000.0625,-400000.0625,-400000.0625,-400000.0625,-400000.0625
30.411909103393555,-7525.16015625,-19207.720703125,-2967.739990234375,-400000.0625,-400000.0625,-400000.0625,-400000.0625,-400000.0625
30.421122312545776,-7526.77978515625,-19202.279296875,-2970.550048828125,-400000.0625,-400000.0625,-400000.0625,-400000.0625,-400000.0625
30.432222366333008,-7506.7099609375,-19169.380859375,-2950.050048828125,-400000.0625,-400000.0625,-400000.0625,-400000.0625,-400000.0625
30.449427604675293,-7481.18994140625,-19137.76953125,-2927.159912109375,-400000.0625,-400000.0625,-400000.0625,-400000.0625,-400000.0625
30.46072244644165,-7479.3798828125,-19134.51953125,-2924.199951171875,-400000.0625,-400000.0625,-400000.0625,-400000.0625,-400000.0625
30.47776174545288,-7497.02978515625,-19140.33984375,-2935.4599609375,-400000.0625,-400000.0625,-400000.0625,-400000.0625,-400000.0625
30.497794151306152,-7499.080078125,-19132.0,-2934.27001953125,-400000.0625,-400000.0625,-400000.0625,-400000.0625,-400000.0625
30.50573706626892,-7479.0498046875,-19112.109375,-2915.949951171875,-400000.0625,-400000.0625,-400000.0625,-400000.0625,-400000.0625
30.520707368850708,-7458.93017578125,-19086.55078125,-2897.31005859375,-400000.0625,-400000.0625,-400000.0625,-400000.0625,-400000.0625
30.532877206802368,-7464.509765625,-19083.0703125,-2900.31005859375,-400000.0625,-400000.0625,-400000.0625,-400000.0625,-400000.0625
30.54789423942566,-7484.8701171875,-19098.330078125,-2914.3798828125,-400000.0625,-400000.0625,-400000.0625,-400000.0625,-400000.0625
30.555409908294678,-7486.39013671875,-19097.189453125,-2918.340087890625,-400000.0625,-400000.0625,-400000.0625,-400000.0625,-400000.0625
30.570101261138916,-7462.5498046875,-19068.91015625,-2897.5,-400000.0625,-400000.0625,-400000.0625,-400000.0625,-400000.0625
30.594440698623657,-7439.52001953125,-19044.9296875,-2874.659912109375,-400000.0625,-400000.0625,-400000.0625,-400000.0625,-400000.0625
30.61258888244629,-7444.43017578125,-19047.01953125,-2878.81005859375,-400000.0625,-400000.0625,-400000.0625,-400000.0625,-400000.0625
30.62966251373291,-7468.27001953125,-19060.609375,-2896.5,-400000.0625,-400000.0625,-400000.0625,-400000.0625,-400000.0625
30.641289234161377,-7470.31982421875,-19062.859375,-2899.739990234375,-400000.0625,-400000.0625,-400000.0625,-400000.0625,-400000.0625
30.65398359298706,-7450.39013671875,-19044.5,-2884.25,-400000.0625,-400000.0625,-400000.0625,-400000.0625,-400000.0625
30.669079780578613,-7429.169921875,-19020.75,-2865.889892578125,-400000.0625,-400000.0625,-400000.0625,-400000.0625,-400000.0625
30.68764090538025,-7434.56005859375,-19028.05078125,-2869.889892578125,-400000.0625,-400000.0625,-400000.0625,-400000.0625,-400000.0625
30.700418710708618,-7456.39990234375,-19040.2109375,-2887.43994140625,-400000.0625,-400000.0625,-400000.0625,-400000.0625,-400000.0625
30.715900897979736,-7460.64013671875,-19039.25,-2888.25,-400000.0625,-400000.0625,-400000.0625,-400000.0625,-400000.0625
30.728241443634033,-7438.3701171875,-19023.470703125,-2870.4599609375,-400000.0625,-400000.0625,-400000.0625,-400000.0625,-400000.0625
30.747448682785034,-7419.16015625,-18998.150390625,-2851.300048828125,-400000.0625,-400000.0625,-400000.0625,-400000.0625,-400000.0625
30.757453441619873,-7427.60009765625,-19002.5390625,-2858.2099609375,-400000.0625,-400000.0625,-400000.0625,-400000.0625,-400000.0625
30.77050495147705,-7447.669921875,-19024.900390625,-2878.47998046875,-400000.0625,-400000.0625,-400000.0625,-400000.0625,-400000.0625
30.793123245239258,-7451.10986328125,-19027.51953125,-2882.9599609375,-400000.0625,-400000.0625,-400000.0625,-400000.0625,-400000.0625
30.809072017669678,-7432.93994140625,-19004.630859375,-2861.929931640625,-400000.0625,-400000.0625,-400000.0625,-400000.0625,-400000.0625
30.824946880340576,-7410.52978515625,-18979.9296875,-2839.179931640625,-400000.0625,-400000.0625,-400000.0625,-400000.0625,-400000.0625
30.842562437057495,-7412.81982421875,-18984.080078125,-2845.909912109375,-400000.0625,-400000.0625,-400000.0625,-400000.0625,-400000.0625
30.85526943206787,-7440.47021484375,-19010.119140625,-2870.22998046875,-400000.0625,-400000.0625,-400000.0625,-400000.0625,-400000.0625
30.872240781784058,-7448.52978515625,-19018.41015625,-2878.81005859375,-400000.0625,-400000.0625,-400000.0625,-400000.0625,-400000.0625
30.897618293762207,-7431.93994140625,-19002.060546875,-2861.31005859375,-400000.0625,-400000.0625,-400000.0625,-400000.0625,-400000.0625
30.91235613822937,-7412.9599609375,-18984.029296875,-2847.050048828125,-400000.0625,-400000.0625,-400000.0625,-400000.0625,-400000.0625
30.922873497009277,-7419.25,-18985.4609375,-2851.340087890625,-400000.0625,-400000.0625,-400000.0625,-400000.0625,-400000.0625
30.938270568847656,-7440.66015625,-19005.58984375,-2869.030029296875,-400000.0625,-400000.0625,-400000.0625,-400000.0625,-400000.0625
30.95395565032959,-7446.6201171875,-19008.970703125,-2871.179931640625,-400000.0625,-400000.0625,-400000.0625,-400000.0625,-400000.0625
30.96733069419861,-7426.5498046875,-18991.0,-2857.780029296875,-400000.0625,-400000.0625,-400000.0625,-400000.0625,-400000.0625
30.987133979797363,-7410.14990234375,-18980.220703125,-2846.909912109375,-400000.0625,-400000.0625,-400000.0625,-400000.0625,-400000.0625
31.000526666641235,-7419.58984375,-18987.7109375,-2854.010009765625,-400000.0625,-400000.0625,-400000.0625,-400000.0625,-400000.0625
31.014573097229004,-7441.85986328125,-19004.73046875,-2872.85009765625,-400000.0625,-400000.0625,-400000.0625,-400000.0625,-400000.0625
31.028311491012573,-7446.85986328125,-19009.310546875,-2874.800048828125,-400000.0625,-400000.0625,-400000.0625,-400000.0625,-400000.0625
31.040388345718384,-7429.97998046875,-18994.669921875,-2861.5,-400000.0625,-400000.0625,-400000.0625,-400000.0625,-400000.0625
31.055668830871582,-7411.81005859375,-18975.310546875,-2845.719970703125,-400000.0625,-400000.0625,-400000.0625,-400000.0625,-400000.0625
31.067660093307495,-7419.43994140625,-18981.939453125,-2850.77001953125,-400000.0625,-400000.0625,-400000.0625,-400000.0625,-400000.0625
31.089319705963135,-7441.85986328125,-19004.919921875,-2867.7900390625,-400000.0625,-400000.0625,-400000.0625,-400000.0625,-400000.0625
31.105570077896118,-7449.580078125,-19008.5390625,-2872.419921875,-400000.0625,-400000.0625,-400000.0625,-400000.0625,-400000.0625
31.11916184425354,-7430.7001953125,-18993.5703125,-2858.110107421875,-400000.0625,-400000.0625,-400000.0625,-400000.0625,-400000.0625
31.133355140686035,-7409.0498046875,-18975.830078125,-2839.760009765625,-400000.0625,-400000.0625,-400000.0625,-400000.0625,-400000.0625
31.143786191940308,-7416.2001953125,-18979.98046875,-2846.239990234375,-400000.0625,-400000.0625,-400000.0625,-400000.0625,-400000.0625
31.155954122543335,-7441.43017578125,-19006.5390625,-2869.219970703125,-400000.0625,-400000.0625,-400000.0625,-400000.0625,-400000.0625
31.167054653167725,-7450.77001953125,-19009.740234375,-2873.610107421875,-400000.0625,-400000.0625,-400000.0625,-400000.0625,-400000.0625
31.180184602737427,-7433.1298828125,-18991.189453125,-2857.070068359375,-400000.0625,-400000.0625,-400000.0625,-400000.0625,-400000.0625
31.2018620967865,-7411.0,-18971.16015625,-2838.610107421875,-400000.0625,-400000.0625,-400000.0625,-400000.0625,-400000.0625
31.220267057418823,-7411.85986328125,-18975.779296875,-2843.18994140625,-400000.0625,-400000.0625,-400000.0625,-400000.0625,-400000.0625
31.230782508850098,-7440.14013671875,-18997.48046875,-2862.7900390625,-400000.0625,-400000.0625,-400000.0625,-400000.0625,-400000.0625
31.246280193328857,-7449.91015625,-19006.109375,-2868.989990234375,-400000.0625,-400000.0625,-400000.0625,-400000.0625,-400000.0625
31.25516676902771,-7425.830078125,-18985.609375,-2851.43994140625,-400000.0625,-400000.0625,-400000.0625,-400000.0625,-400000.0625
31.267115831375122,-7403.89990234375,-18966.439453125,-2832.3701171875,-400000.0625,-400000.0625,-400000.0625,-400000.0625,-400000.0625
31.277766466140747,-7414.77001953125,-18976.0703125,-2841.0,-400000.0625,-400000.0625,-400000.0625,-400000.0625,-400000.0625
31.304765939712524,-7440.6201171875,-18998.19921875,-2862.409912109375,-400000.0625,-400000.0625,-400000.0625,-400000.0625,-400000.0625
31.319815158843994,-7450.490234375,-19003.109375,-2870.419921875,-400000.0625,-400000.0625,-400000.0625,-400000.0625,-400000.0625
31.333364725112915,-7429.97998046875,-18987.470703125,-2856.110107421875,-400000.0625,-400000.0625,-400000.0625,-400000.0625,-400000.0625
31.343365907669067,-7410.0,-18968.779296875,-2833.93994140625,-400000.0625,-400000.0625,-400000.0625,-400000.0625,-400000.0625
31.356876373291016,-7420.25,-18958.94921875,-2826.68994140625,-400000.0625,-400000.0625,-400000.0625,-400000.0625,-400000.0625
31.373466730117798,-7448.580078125,-18975.119140625,-2847.580078125,-400000.0625,-400000.0625,-400000.0625,-400000.0625,-400000.0625
31.389076471328735,-7460.39990234375,-18976.98046875,-2849.909912109375,-400000.0625,-400000.0625,-400000.0625,-400000.0625,-400000.0625
31.405444145202637,-7449.43994140625,-18955.609375,-2826.550048828125,-400000.0625,-400000.0625,-400000.0625,-400000.0625,-400000.0625
31.417870044708252,-7425.259765625,-18931.060546875,-2808.89990234375,-400000.0625,-400000.0625,-400000.0625,-400000.0625,-400000.0625
31.43104124069214,-7432.75,-18932.580078125,-2807.239990234375,-400000.0625,-400000.0625,-400000.0625,-400000.0625,-400000.0625
31.445560932159424,-7460.169921875,-18946.359375,-2827.169921875,-400000.0625,-400000.0625,-400000.0625,-400000.0625,-400000.0625
31.46158742904663,-7473.27978515625,-18951.279296875,-2837.3701171875,-400000.0625,-400000.0625,-400000.0625,-400000.0625,-400000.0625
31.47393822669983,-7455.5400390625,-18940.740234375,-2823.159912109375,-400000.0625,-400000.0625,-400000.0625,-400000.0625,-400000.0625
31.490092039108276,-7437.89990234375,-18921.189453125,-2803.659912109375,-400000.0625,-400000.0625,-400000.0625,-400000.0625,-400000.0625
31.50269865989685,-7437.419921875,-18924.810546875,-2806.330078125,-400000.0625,-400000.0625,-400000.0625,-400000.0625,-400000.0625
31.51370406150818,-7460.4501953125,-18950.3203125,-2830.169921875,-400000.0625,-400000.0625,-400000.0625,-400000.0625,-400000.0625
31.525476932525635,-7469.22998046875,-18959.5703125,-2837.179931640625,-400000.0625,-400000.0625,-400000.0625,-400000.0625,-400000.0625
31.53806495666504,-7448.72021484375,-18944.599609375,-2823.68994140625,-400000.0625,-400000.0625,-400000.0625,-400000.0625,-400000.0625
31.55034875869751,-7429.89013671875,-18925.05078125,-2805.89990234375,-400000.0625,-400000.0625,-400000.0625,-400000.0625,-400000.0625
31.5649311542511,-7431.169921875,-18925.619140625,-2809.330078125,-400000.0625,-400000.0625,-400000.0625,-400000.0625,-400000.0625
31.579807996749878,-7455.919921875,-18951.80078125,-2831.27001953125,-400000.0625,-400000.0625,-400000.0625,-400000.0625,-400000.0625
31.600099563598633,-7467.1298828125,-18958.05078125,-2836.0400390625,-400000.0625,-400000.0625,-400000.0625,-400000.0625,-400000.0625
31.617905616760254,-7447.39013671875,-18944.26953125,-2819.159912109375,-400000.0625,-400000.0625,-400000.0625,-400000.0625,-400000.0625
31.62832283973694,-7428.35986328125,-18923.140625,-2799.320068359375,-400000.0625,-400000.0625,-400000.0625,-400000.0625,-400000.0625
31.64231848716736,-7436.27978515625,-18927.529296875,-2807.18994140625,-400000.0625,-400000.0625,-400000.0625,-400000.0625,-400000.0625
31.652240991592407,-7458.02001953125,-18956.23046875,-2830.4599609375,-400000.0625,-400000.0625,-400000.0625,-400000.0625,-400000.0625
31.66765856742859,-7462.5,-18959.099609375,-2833.27001953125,-400000.0625,-400000.0625,-400000.0625,-400000.0625,-400000.0625
31.686911582946777,-7444.14013671875,-18939.779296875,-2814.719970703125,-400000.0625,-400000.0625,-400000.0625,-400000.0625,-400000.0625
31.70052409172058,-7425.830078125,-18921.4296875,-2798.75,-400000.0625,-400000.0625,-400000.0625,-400000.0625,-400000.0625
31.710713863372803,-7432.41015625,-18929.150390625,-2804.139892578125,-400000.0625,-400000.0625,-400000.0625,-400000.0625,-400000.0625
31.724273920059204,-7454.6298828125,-18949.890625,-2823.159912109375,-400000.0625,-400000.0625,-400000.0625,-400000.0625,-400000.0625
31.736268997192383,-7461.41015625,-18955.0390625,-2829.840087890625,-400000.0625,-400000.0625,-400000.0625,-400000.0625,-400000.0625
31.748324155807495,-7444.18994140625,-18938.640625,-2813.050048828125,-400000.0625,-400000.0625,-400000.0625,-400000.0625,-400000.0625
31.76608180999756,-7421.2998046875,-18922.140625,-2797.169921875,-400000.0625,-400000.0625,-400000.0625,-400000.0625,-400000.0625
31.787315368652344,-7420.64013671875,-18919.5703125,-2796.510009765625,-400000.0625,-400000.0625,-400000.0625,-400000.0625,-400000.0625
31.80038857460022,-7445.52978515625,-18940.01953125,-2817.300048828125,-400000.0625,-400000.0625,-400000.0625,-400000.0625,-400000.0625
31.815742254257202,-7454.68017578125,-18950.75,-2825.929931640625,-400000.0625,-400000.0625,-400000.0625,-400000.0625,-400000.0625
31.834223747253418,-7436.7099609375,-18935.919921875,-2812.820068359375,-400000.0625,-400000.0625,-400000.0625,-400000.0625,-400000.0625
31.849464893341064,-7421.77978515625,-18918.470703125,-2798.1298828125,-400000.0625,-400000.0625,-400000.0625,-400000.0625,-400000.0625
31.866849899291992,-7426.740234375,-18922.4296875,-2800.85009765625,-400000.0625,-400000.0625,-400000.0625,-400000.0625,-400000.0625
31.879250049591064,-7450.2998046875,-18942.169921875,-2820.489990234375,-400000.0625,-400000.0625,-400000.0625,-400000.0625,-400000.0625
31.896880865097046,-7459.93017578125,-18956.330078125,-2831.7900390625,-400000.0625,-400000.0625,-400000.0625,-400000.0625,-400000.0625
31.90530562400818,-7440.7099609375,-18939.779296875,-2816.14990234375,-400000.0625,-400000.0625,-400000.0625,-400000.0625,-400000.0625
31.91724157333374,-7418.72998046875,-18915.890625,-2795.510009765625,-400000.0625,-400000.0625,-400000.0625,-400000.0625,-400000.0625
31.93113136291504,-7420.72998046875,-18921.94921875,-2797.989990234375,-400000.0625,-400000.0625,-400000.0625,-400000.0625,-400000.0625
31.940196990966797,-7448.72021484375,-18941.2109375,-2819.110107421875,-400000.0625,-400000.0625,-400000.0625,-400000.0625,-400000.0625
31.95372986793518,-7456.06982421875,-18950.75,-2825.449951171875,-400000.0625,-400000.0625,-400000.0625,-400000.0625,-400000.0625
31.964290618896484,-7438.22998046875,-18930.720703125,-2806.429931640625,-400000.0625,-400000.0625,-400000.0625,-400000.0625,-400000.0625
31.980409383773804,-7414.10009765625,-18908.740234375,-2787.02001953125,-400000.0625,-400000.0625,-400000.0625,-400000.0625,-400000.0625
31.99916124343872,-7418.10986328125,-18915.1796875,-2794.080078125,-400000.0625,-400000.0625,-400000.0625,-400000.0625,-400000.0625
32.01230978965759,-7444.10009765625,-18941.359375,-2816.8701171875,-400000.0625,-400000.0625,-400000.0625,-400000.0625,-400000.0625
32.027952432632446,-7458.259765625,-18951.69921875,-2825.5,-400000.0625,-400000.0625,-400000.0625,-400000.0625,-400000.0625
32.03760647773743,-7437.9501953125,-18931.630859375,-2809.3798828125,-400000.0625,-400000.0625,-400000.0625,-400000.0625,-400000.0625
32.052146434783936,-7413.81982421875,-18913.609375,-2795.409912109375,-400000.0625,-400000.0625,-400000.0625,-400000.0625,-400000.0625
32.063241481781006,-7416.8701171875,-18912.4609375,-2795.889892578125,-400000.0625,-400000.0625,-400000.0625,-400000.0625,-400000.0625
32.08646202087402,-7442.759765625,-18937.30078125,-2814.9599609375,-400000.0625,-400000.0625,-400000.0625,-400000.0625,-400000.0625
32.10355281829834,-7453.77978515625,-18945.650390625,-2824.1201171875,-400000.0625,-400000.0625,-400000.0625,-400000.0625,-400000.0625
32.125919580459595,-7438.0400390625,-18929.05078125,-2810.050048828125,-400000.0625,-400000.0625,-400000.0625,-400000.0625,-400000.0625
32.1489360332489,-7418.77978515625,-18912.599609375,-2792.7900390625,-400000.0625,-400000.0625,-400000.0625,-400000.0625,-400000.0625
32.17256736755371,-7425.60009765625,-18920.23046875,-2799.93994140625,-400000.0625,-400000.0625,-400000.0625,-400000.0625,-400000.0625
32.199345111846924,-7449.10009765625,-18945.359375,-2820.02001953125,-400000.0625,-400000.0625,-400000.0625,-400000.0625,-400000.0625
32.21559119224548,-7457.77978515625,-18946.029296875,-2826.7900390625,-400000.0625,-400000.0625,-400000.0625,-400000.0625,-400000.0625
32.23017501831055,-7440.56982421875,-18934.400390625,-2816.199951171875,-400000.0625,-400000.0625,-400000.0625,-400000.0625,-400000.0625
32.25198531150818,-7414.6298828125,-18919.80078125,-2799.56005859375,-400000.0625,-400000.0625,-400000.0625,-400000.0625,-400000.0625
32.26410365104675,-7420.8701171875,-18917.369140625,-2803.989990234375,-400000.0625,-400000.0625,-400000.0625,-400000.0625,-400000.0625
32.28577280044556,-7449.39013671875,-18942.880859375,-2823.929931640625,-400000.0625,-400000.0625,-400000.0625,-400000.0625,-400000.0625
32.30022668838501,-7458.77978515625,-18953.990234375,-2830.840087890625,-400000.0625,-400000.0625,-400000.0625,-400000.0625,-400000.0625
32.311421155929565,-7444.759765625,-18941.55078125,-2819.06005859375,-400000.0625,-400000.0625,-400000.0625,-400000.0625,-400000.0625
32.32508683204651,-7422.97021484375,-18921.759765625,-2801.469970703125,-400000.0625,-400000.0625,-400000.0625,-400000.0625,-400000.0625
32.33455467224121,-7420.490234375,-18927.4296875,-2812.669921875,-400000.0625,-400000.0625,-400000.0625,-400000.0625,-400000.0625
32.347705602645874,-7437.7998046875,-18952.939453125,-2836.89990234375,-400000.0625,-400000.0625,-400000.0625,-400000.0625,-400000.0625
32.36127543449402,-7444.0,-18964.669921875,-2843.47998046875,-400000.0625,-400000.0625,-400000.0625,-400000.0625,-400000.0625
32.37062072753906,-7425.02001953125,-18957.94921875,-2832.93994140625,-400000.0625,-400000.0625,-400000.0625,-400000.0625,-400000.0625
32.37926530838013,-7402.85009765625,-18939.9296875,-2817.489990234375,-400000.0625,-400000.0625,-400000.0625,-400000.0625,-400000.0625
32.39726114273071,-7405.81005859375,-18938.310546875,-2821.110107421875,-400000.0625,-400000.0625,-400000.0625,-400000.0625,-400000.0625
32.40679669380188,-7433.27001953125,-18966.25,-2845.2900390625,-400000.0625,-400000.0625,-400000.0625,-400000.0625,-400000.0625
32.42142152786255,-7445.14990234375,-18970.060546875,-2852.8701171875,-400000.0625,-400000.0625,-400000.0625,-400000.0625,-400000.0625
32.43383526802063,-7424.5,-18954.80078125,-2837.610107421875,-400000.0625,-400000.0625,-400000.0625,-400000.0625,-400000.0625
32.44945216178894,-7401.85009765625,-18936.6796875,-2820.780029296875,-400000.0625,-400000.0625,-400000.0625,-400000.0625,-400000.0625
32.46083617210388,-7408.10009765625,-18939.0703125,-2828.070068359375,-400000.0625,-400000.0625,-400000.0625,-400000.0625,-400000.0625
32.4761905670166,-7431.7900390625,-18962.720703125,-2847.6201171875,-400000.0625,-400000.0625,-400000.0625,-400000.0625,-400000.0625
32.4951753616333,-7441.759765625,-18968.060546875,-2853.35009765625,-400000.0625,-400000.0625,-400000.0625,-400000.0625,-400000.0625
32.50588059425354,-7425.97998046875,-18951.470703125,-2835.1298828125,-400000.0625,-400000.0625,-400000.0625,-400000.0625,-400000.0625
32.51967120170593,-7402.47021484375,-18934.19921875,-2817.389892578125,-400000.0625,-400000.0625,-400000.0625,-400000.0625,-400000.0625
32.532644748687744,-7402.7998046875,-18938.58984375,-2820.43994140625,-400000.0625,-400000.0625,-400000.0625,-400000.0625,-400000.0625
32.54454779624939,-7429.22021484375,-18959.4296875,-2839.85009765625,-400000.0625,-400000.0625,-400000.0625,-400000.0625,-400000.0625
32.56188893318176,-7438.3701171875,-18965.76953125,-2847.389892578125,-400000.0625,-400000.0625,-400000.0625,-400000.0625,-400000.0625
32.57490944862366,-7416.43994140625,-18949.890625,-2829.64990234375,-400000.0625,-400000.0625,-400000.0625,-400000.0625,-400000.0625
32.59394359588623,-7399.27001953125,-18930.490234375,-2813.9599609375,-400000.0625,-400000.0625,-400000.0625,-400000.0625,-400000.0625
32.60825705528259,-7407.7099609375,-18937.689453125,-2821.5400390625,-400000.0625,-400000.0625,-400000.0625,-400000.0625,-400000.0625
32.61981439590454,-7427.5498046875,-18958.5703125,-2839.89990234375,-400000.0625,-400000.0625,-400000.0625,-400000.0625,-400000.0625
32.63354420661926,-7437.990234375,-18970.30078125,-2852.06005859375,-400000.0625,-400000.0625,-400000.0625,-400000.0625,-400000.0625
32.645944118499756,-7423.64013671875,-18958.669921875,-2841.89990234375,-400000.0625,-400000.0625,-400000.0625,-400000.0625,-400000.0625
32.658862590789795,-7401.66015625,-18934.19921875,-2818.679931640625,-400000.0625,-400000.0625,-400000.0625,-400000.0625,-400000.0625
32.67554831504822,-7403.18017578125,-18937.44921875,-2821.39990234375,-400000.0625,-400000.0625,-400000.0625,-400000.0625,-400000.0625
32.69391226768494,-7427.41015625,-18954.330078125,-2839.610107421875,-400000.0625,-400000.0625,-400000.0625,-400000.0625,-400000.0625
32.711209297180176,-7436.31982421875,-18960.099609375,-2843.18994140625,-400000.0625,-400000.0625,-400000.0625,-400000.0625,-400000.0625
32.7237651348114,-7419.16015625,-18947.890625,-2828.60009765625,-400000.0625,-400000.0625,-400000.0625,-400000.0625,-400000.0625
32.73785042762756,-7394.64990234375,-18921.94921875,-2809.3798828125,-400000.0625,-400000.0625,-400000.0625,-400000.0625,-400000.0625
32.751686573028564,-7395.31982421875,-18929.630859375,-2816.530029296875,-400000.0625,-400000.0625,-400000.0625,-400000.0625,-400000.0625
32.76603698730469,-7419.8701171875,-18952.23046875,-2835.3701171875,-400000.0625,-400000.0625,-400000.0625,-400000.0625,-400000.0625
32.78750538825989,-7429.7900390625,-18960.669921875,-2842.7099609375,-400000.0625,-400000.0625,-400000.0625,-400000.0625,-400000.0625
32.80505442619324,-7416.43994140625,-18946.939453125,-2830.1201171875,-400000.0625,-400000.0625,-400000.0625,-400000.0625,-400000.0625
32.82282018661499,-7397.64990234375,-18927.390625,-2813.6298828125,-400000.0625,-400000.0625,-400000.0625,-400000.0625,-400000.0625
32.83589720726013,-7400.0400390625,-18933.630859375,-2818.389892578125,-400000.0625,-400000.0625,-400000.0625,-400000.0625,-400000.0625
32.8503475189209,-7423.4501953125,-18952.1796875,-2834.419921875,-400000.0625,-400000.0625,-400000.0625,-400000.0625,-400000.0625
32.8646354675293,-7430.64990234375,-18960.33984375,-2843.7099609375,-400000.0625,-400000.0625,-400000.0625,-400000.0625,-400000.0625
32.877358198165894,-7413.33984375,-18948.650390625,-2828.169921875,-400000.0625,-400000.0625,-400000.0625,-400000.0625,-400000.0625
32.89506912231445,-7392.169921875,-18921.279296875,-2806.0400390625,-400000.0625,-400000.0625,-400000.0625,-400000.0625,-400000.0625
32.90654754638672,-7395.22021484375,-18919.0390625,-2808.669921875,-400000.0625,-400000.0625,-400000.0625,-400000.0625,-400000.0625
32.92004203796387,-7417.490234375,-18950.080078125,-2834.419921875,-400000.0625,-400000.0625,-400000.0625,-400000.0625,-400000.0625
32.93025851249695,-7430.31982421875,-18959.330078125,-2843.280029296875,-400000.0625,-400000.0625,-400000.0625,-400000.0625,-400000.0625
32.94199204444885,-7418.919921875,-18941.599609375,-2825.68994140625,-400000.0625,-400000.0625,-400000.0625,-400000.0625,-400000.0625
32.95435547828674,-7394.4599609375,-18927.189453125,-2808.570068359375,-400000.0625,-400000.0625,-400000.0625,-400000.0625,-400000.0625
32.9630651473999,-7393.93017578125,-18920.330078125,-2808.139892578125,-400000.0625,-400000.0625,-400000.0625,-400000.0625,-400000.0625
32.98617911338806,-7411.77001953125,-18935.919921875,-2824.929931640625,-400000.0625,-400000.0625,-400000.0625,-400000.0625,-400000.0625
32.99903893470764,-7422.31005859375,-18948.939453125,-2838.139892578125,-400000.0625,-400000.0625,-400000.0625,-400000.0625,-400000.0625
33.011048316955566,-7405.22998046875,-18933.25,-2824.5,-400000.0625,-400000.0625,-400000.0625,-400000.0625,-400000.0625
33.01986789703369,-7384.97021484375,-18914.560546875,-2806.22998046875,-400000.0625,-400000.0625,-400000.0625,-400000.0625,-400000.0625
33.03196978569031,-7397.4599609375,-18922.759765625,-2816.580078125,-400000.0625,-400000.0625,-400000.0625,-400000.0625,-400000.0625
33.04209232330322,-7417.39013671875,-18939.880859375,-2833.64990234375,-400000.0625,-400000.0625,-400000.0625,-400000.0625,-400000.0625
33.05433893203735,-7424.259765625,-18951.419921875,-2843.090087890625,-400000.0625,-400000.0625,-400000.0625,-400000.0625,-400000.0625
33.06347465515137,-7412.72021484375,-18937.5390625,-2830.360107421875,-400000.0625,-400000.0625,-400000.0625,-400000.0625,-400000.0625
33.08628249168396,-7389.68994140625,-18920.51953125,-2814.8701171875,-400000.0625,-400000.0625,-400000.0625,-400000.0625,-400000.0625
33.10168409347534,-7393.68994140625,-18923.810546875,-2816.530029296875,-400000.0625,-400000.0625,-400000.0625,-400000.0625,-400000.0625
33.11491060256958,-7414.39013671875,-18940.310546875,-2832.320068359375,-400000.0625,-400000.0625,-400000.0625,-400000.0625,-400000.0625
33.131279945373535,-7421.830078125,-18949.650390625,-2838.52001953125,-400000.0625,-400000.0625,-400000.0625,-400000.0625,-400000.0625
33.14511322975159,-7407.0,-18934.919921875,-2824.5,-400000.0625,-400000.0625,-400000.0625,-400000.0625,-400000.0625
33.155266761779785,-7385.919921875,-18916.470703125,-2804.800048828125,-400000.0625,-400000.0625,-400000.0625,-400000.0625,-400000.0625
33.16978359222412,-7386.10986328125,-18914.69921875,-2805.7099609375,-400000.0625,-400000.0625,-400000.0625,-400000.0625,-400000.0625
33.1783127784729,-7409.669921875,-18940.359375,-2832.699951171875,-400000.0625,-400000.0625,-400000.0625,-400000.0625,-400000.0625
33.19491362571716,-7424.259765625,-18954.990234375,-2846.47998046875,-400000.0625,-400000.0625,-400000.0625,-400000.0625,-400000.0625
33.20883846282959,-7405.3798828125,-18937.30078125,-2828.409912109375,-400000.0625,-400000.0625,-400000.0625,-400000.0625,-400000.0625
33.221152544021606,-7378.39013671875,-18914.69921875,-2809.10009765625,-400000.0625,-400000.0625,-400000.0625,-400000.0625,-400000.0625
33.234169006347656,-7385.02001953125,-18921.470703125,-2819.679931640625,-400000.0625,-400000.0625,-400000.0625,-400000.0625,-400000.0625
33.24537420272827,-7408.0,-18947.26953125,-2838.139892578125,-400000.0625,-400000.0625,-400000.0625,-400000.0625,-400000.0625
33.262685775756836,-7416.06005859375,-18955.419921875,-2844.050048828125,-400000.0625,-400000.0625,-400000.0625,-400000.0625,-400000.0625
33.286420583724976,-7397.18017578125,-18937.30078125,-2828.409912109375,-400000.0625,-400000.0625,-400000.0625,-400000.0625,-400000.0625
33.297295808792114,-7376.85986328125,-18915.1796875,-2809.0,-400000.0625,-400000.0625,-400000.0625,-400000.0625,-400000.0625
33.31165528297424,-7376.2900390625,-18917.1796875,-2815.199951171875,-400000.0625,-400000.0625,-400000.0625,-400000.0625,-400000.0625
33.326087951660156,-7399.89013671875,-18952.7109375,-2844.0,-400000.0625,-400000.0625,-400000.0625,-400000.0625,-400000.0625
33.340258836746216,-7417.35009765625,-18968.919921875,-2845.47998046875,-400000.0625,-400000.0625,-400000.0625,-400000.0625,-400000.0625
33.35195255279541,-7413.25,-18931.25,-2806.7099609375,-400000.0625,-400000.0625,-400000.0625,-400000.0625,-400000.0625
33.364386320114136,-7396.02978515625,-18891.4296875,-2776.909912109375,-400000.0625,-400000.0625,-400000.0625,-400000.0625,-400000.0625
33.37660455703735,-7408.240234375,-18876.83984375,-2774.530029296875,-400000.0625,-400000.0625,-400000.0625,-400000.0625,-400000.0625
33.396986961364746,-7443.14013671875,-18879.509765625,-2784.679931640625,-400000.0625,-400000.0625,-400000.0625,-400000.0625,-400000.0625
33.41714954376221,-7470.47021484375,-18874.26953125,-2779.340087890625,-400000.0625,-400000.0625,-400000.0625,-400000.0625,-400000.0625
33.43791365623474,-7472.47021484375,-18848.560546875,-2748.300048828125,-400000.0625,-400000.0625,-400000.0625,-400000.0625,-400000.0625
33.454676389694214,-7464.83984375,-18799.44921875,-2713.919921875,-400000.0625,-400000.0625,-400000.0625,-400000.0625,-400000.0625
33.4724395275116,-7486.8701171875,-18784.859375,-2701.659912109375,-400000.0625,-400000.0625,-400000.0625,-400000.0625,-400000.0625
33.51655030250549,-7534.41015625,-18807.990234375,-2704.669921875,-400000.0625,-400000.0625,-400000.0625,-400000.0625,-400000.0625
33.548328161239624,-7558.35009765625,-18803.029296875,-2695.93994140625,-400000.0625,-400000.0625,-400000.0625,-400000.0625,-400000.0625
33.56682300567627,-7564.5,-18773.26953125,-2665.52001953125,-400000.0625,-400000.0625,-400000.0625,-400000.0625,-400000.0625
33.58747863769531,-7561.97021484375,-18738.939453125,-2625.989990234375,-400000.0625,-400000.0625,-400000.0625,-400000.0625,-400000.0625
33.60893940925598,-7582.18994140625,-18742.279296875,-2613.39990234375,-400000.0625,-400000.0625,-400000.0625,-400000.0625,-400000.0625
33.62099242210388,-7624.72021484375,-18747.279296875,-2618.409912109375,-400000.0625,-400000.0625,-400000.0625,-400000.0625,-400000.0625
33.635552644729614,-7656.2900390625,-18733.26953125,-2606.919921875,-400000.0625,-400000.0625,-400000.0625,-400000.0625,-400000.0625
33.651623249053955,-7661.72998046875,-18723.6796875,-2579.02001953125,-400000.0625,-400000.0625,-400000.0625,-400000.0625,-400000.0625
33.66844654083252,-7656.52978515625,-18692.5,-2539.43994140625,-400000.0625,-400000.0625,-400000.0625,-400000.0625,-400000.0625
33.68022680282593,-7672.31005859375,-18688.060546875,-2525.52001953125,-400000.0625,-400000.0625,-400000.0625,-400000.0625,-400000.0625
33.694788455963135,-7707.60009765625,-18694.01953125,-2520.89990234375,-400000.0625,-400000.0625,-400000.0625,-400000.0625,-400000.0625
33.70990228652954,-7732.68017578125,-18702.130859375,-2509.5,-400000.0625,-400000.0625,-400000.0625,-400000.0625,-400000.0625
33.72467041015625,-7729.009765625,-18677.189453125,-2479.360107421875,-400000.0625,-400000.0625,-400000.0625,-400000.0625,-400000.0625
33.73638415336609,-7717.419921875,-18648.25,-2445.169921875,-400000.0625,-400000.0625,-400000.0625,-400000.0625,-400000.0625
33.752230405807495,-7733.009765625,-18652.490234375,-2432.06005859375,-400000.0625,-400000.0625,-400000.0625,-400000.0625,-400000.0625
33.76646590232849,-7768.580078125,-18666.220703125,-2434.39990234375,-400000.0625,-400000.0625,-400000.0625,-400000.0625,-400000.0625
33.780433654785156,-7794.10009765625,-18659.44921875,-2424.669921875,-400000.0625,-400000.0625,-400000.0625,-400000.0625,-400000.0625
33.79543447494507,-7785.56005859375,-18633.3203125,-2392.10009765625,-400000.0625,-400000.0625,-400000.0625,-400000.0625,-400000.0625
33.81609296798706,-7777.41015625,-18599.560546875,-2358.2900390625,-400000.0625,-400000.0625,-400000.0625,-400000.0625,-400000.0625
33.83033275604248,-7788.9501953125,-18605.5703125,-2350.860107421875,-400000.0625,-400000.0625,-400000.0625,-400000.0625,-400000.0625
33.84850478172302,-7823.18017578125,-18621.400390625,-2353.139892578125,-400000.0625,-400000.0625,-400000.0625,-400000.0625,-400000.0625
33.86058187484741,-7838.2998046875,-18624.740234375,-2347.52001953125,-400000.0625,-400000.0625,-400000.0625,-400000.0625,-400000.0625
33.87385034561157,-7827.3798828125,-18598.130859375,-2324.77001953125,-400000.0625,-400000.0625,-400000.0625,-400000.0625,-400000.0625
33.88958501815796,-7812.2099609375,-18566.470703125,-2290.489990234375,-400000.0625,-400000.0625,-400000.0625,-400000.0625,-400000.0625
33.90452837944031,-7818.83984375,-18570.0,-2282.949951171875,-400000.0625,-400000.0625,-400000.0625,-400000.0625,-400000.0625
33.920865535736084,-7850.60009765625,-18589.169921875,-2295.39990234375,-400000.0625,-400000.0625,-400000.0625,-400000.0625,-400000.0625
33.93593382835388,-7867.14990234375,-18594.69921875,-2298.8798828125,-400000.0625,-400000.0625,-400000.0625,-400000.0625,-400000.0625
33.94753289222717,-7851.1201171875,-18579.060546875,-2280.429931640625,-400000.0625,-400000.0625,-400000.0625,-400000.0625,-400000.0625
33.96110153198242,-7831.14990234375,-18553.119140625,-2255.25,-400000.0625,-400000.0625,-400000.0625,-400000.0625,-400000.0625
33.97234606742859,-7831.91015625,-18561.939453125,-2261.590087890625,-400000.0625,-400000.0625,-400000.0625,-400000.0625,-400000.0625
33.98582363128662,-7855.31982421875,-18599.849609375,-2292.010009765625,-400000.0625,-400000.0625,-400000.0625,-400000.0625,-400000.0625
34.00582146644592,-7859.52001953125,-18612.91015625,-2308.080078125,-400000.0625,-400000.0625,-400000.0625,-400000.0625,-400000.0625
