time,ch1,ch2,ch3,ch4,ch5,ch6,ch7,ch8
185.3983931541443,-400000.0625,9270.33984375,1969.77001953125,-400000.0625,-1620.2900390625,-400000.0625,6273.7001953125,-400000.0625
185.44665598869324,-400000.0625,9264.23046875,1963.4200439453125,-400000.0625,-1619.8599853515625,-400000.0625,6267.830078125,-400000.0625
185.4621126651764,-400000.0625,9258.41015625,1958.1800537109375,-400000.0625,-1627.6400146484375,-400000.0625,6263.830078125,-400000.0625
185.48003888130188,-400000.0625,9264.23046875,1963.18994140625,-400000.0625,-1615.81005859375,-400000.0625,6264.97021484375,-400000.0625
185.49237442016602,-400000.0625,9267.0,1969.0,-400000.0625,-1586.489990234375,-400000.0625,6270.83984375,-400000.0625
185.516343832016,-400000.0625,9265.900390625,1968.239990234375,-400000.0625,-1593.449951171875,-400000.0625,6271.31982421875,-400000.0625
185.55012369155884,-400000.0625,9258.9404296875,1958.469970703125,-400000.0625,-1610.800048828125,-400000.0625,6262.830078125,-400000.0625
185.57081031799316,-400000.0625,9256.1298828125,1954.699951171875,-400000.0625,-1614.050048828125,-400000.0625,6256.25,-400000.0625
185.58623790740967,-400000.0625,9262.0400390625,1959.93994140625,-400000.0625,-1610.6600341796875,-400000.0625,6261.25,-400000.0625
185.60686206817627,-400000.0625,9271.48046875,1968.81005859375,-400000.0625,-1607.22998046875,-400000.0625,6272.4599609375,-400000.0625
185.6253957748413,-400000.0625,9269.2900390625,1968.4300537109375,-400000.0625,-1615.3800048828125,-400000.0625,6271.35986328125,-400000.0625
185.66268515586853,-400000.0625,9259.509765625,1957.699951171875,-400000.0625,-1627.300048828125,-400000.0625,6259.919921875,-400000.0625
185.67472195625305,-400000.0625,9254.169921875,1953.0799560546875,-400000.0625,-1616.1400146484375,-400000.0625,6254.47998046875,-400000.0625
185.6883189678192,-400000.0625,9260.4599609375,1958.280029296875,-400000.0625,-1601.739990234375,-400000.0625,6262.06005859375,-400000.0625
185.70720863342285,-400000.0625,9265.0400390625,1966.52001953125,-400000.0625,-1607.510009765625,-400000.0625,6266.93017578125,-400000.0625
185.7221963405609,-400000.0625,9268.0498046875,1969.77001953125,-400000.0625,-1609.9000244140625,-400000.0625,6265.06982421875,-400000.0625
185.74023175239563,-400000.0625,9261.080078125,1960.6600341796875,-400000.0625,-1621.1500244140625,-400000.0625,6258.2998046875,-400000.0625
185.77229475975037,-400000.0625,9258.7998046875,1957.22998046875,-400000.0625,-1632.31005859375,-400000.0625,6255.14990234375,-400000.0625
185.78874802589417,-400000.0625,9266.66015625,1964.9000244140625,-400000.0625,-1615.719970703125,-400000.0625,6254.85986328125,-400000.0625
185.80666589736938,-400000.0625,9271.669921875,1970.5799560546875,-400000.0625,-1600.0699462890625,-400000.0625,6257.8701171875,-400000.0625
185.82168245315552,-400000.0625,9271.91015625,1970.6300048828125,-400000.0625,-1601.97998046875,-400000.0625,6257.919921875,-400000.0625
185.84198570251465,-400000.0625,9264.419921875,1963.9000244140625,-400000.0625,-1608.800048828125,-400000.0625,6251.240234375,-400000.0625
185.8740954399109,-400000.0625,9258.650390625,1959.1300048828125,-400000.0625,-1607.8499755859375,-400000.0625,6250.240234375,-400000.0625
185.90211272239685,-400000.0625,9260.990234375,1964.5699462890625,-400000.0625,-1603.56005859375,-400000.0625,6254.6298828125,-400000.0625
185.92588067054749,-400000.0625,9265.900390625,1969.5799560546875,-400000.0625,-1606.8900146484375,-400000.0625,6259.5400390625,-400000.0625
185.94720315933228,-400000.0625,9265.5703125,1965.7099609375,-400000.0625,-1615.719970703125,-400000.0625,6261.25,-400000.0625
185.98107647895813,-400000.0625,9259.1796875,1957.6099853515625,-400000.0625,-1627.1600341796875,-400000.0625,6253.240234375,-400000.0625
185.99959516525269,-400000.0625,9257.75,1955.8399658203125,-400000.0625,-1625.5899658203125,-400000.0625,6248.08984375,-400000.0625
186.02610063552856,-400000.0625,9257.990234375,1959.0899658203125,-400000.0625,-1620.9599609375,-400000.0625,6256.009765625,-400000.0625
186.04715776443481,-400000.0625,9265.6103515625,1967.0999755859375,-400000.0625,-1614.6199951171875,-400000.0625,6264.259765625,-400000.0625
186.06846284866333,-400000.0625,9272.8095703125,1971.43994140625,-400000.0625,-1614.280029296875,-400000.0625,6263.58984375,-400000.0625
186.09640765190125,-400000.0625,9263.51953125,1960.9000244140625,-400000.0625,-1618.81005859375,-400000.0625,6258.009765625,-400000.0625
186.11700296401978,-400000.0625,9257.1298828125,1954.4599609375,-400000.0625,-1623.489990234375,-400000.0625,6255.81982421875,-400000.0625
186.12919688224792,-400000.0625,9263.1396484375,1959.8499755859375,-400000.0625,-1626.06005859375,-400000.0625,6256.25,-400000.0625
186.14244747161865,-400000.0625,9269.8603515625,1969.77001953125,-400000.0625,-1607.510009765625,-400000.0625,6260.490234375,-400000.0625
186.16613721847534,-400000.0625,9272.5302734375,1971.6300048828125,-400000.0625,-1603.4100341796875,-400000.0625,6260.2998046875,-400000.0625
186.18309903144836,-400000.0625,9261.6103515625,1962.469970703125,-400000.0625,-1614.7099609375,-400000.0625,6255.06005859375,-400000.0625
186.22068166732788,-400000.0625,9254.26953125,1957.4599609375,-400000.0625,-1624.25,-400000.0625,6252.91015625,-400000.0625
186.23471355438232,-400000.0625,9260.990234375,1961.1800537109375,-400000.0625,-1617.530029296875,-400000.0625,6254.580078125,-400000.0625
186.25116324424744,-400000.0625,9271.240234375,1969.530029296875,-400000.0625,-1607.3699951171875,-400000.0625,6263.5400390625,-400000.0625
186.2710952758789,-400000.0625,9268.240234375,1969.719970703125,-400000.0625,-1604.3699951171875,-400000.0625,6263.39990234375,-400000.0625
186.28913831710815,-400000.0625,9254.169921875,1960.52001953125,-400000.0625,-1618.1500244140625,-400000.0625,6255.2900390625,-400000.0625
186.31830406188965,-400000.0625,9252.41015625,1955.56005859375,-400000.0625,-1628.68994140625,-400000.0625,6249.08984375,-400000.0625
186.3317723274231,-400000.0625,9259.0302734375,1958.22998046875,-400000.0625,-1625.3499755859375,-400000.0625,6251.52978515625,-400000.0625
186.35296201705933,-400000.0625,9265.5703125,1964.5699462890625,-400000.0625,-1615.8599853515625,-400000.0625,6260.5400390625,-400000.0625
186.37386178970337,-400000.0625,9266.4296875,1967.530029296875,-400000.0625,-1621.9599609375,-400000.0625,6264.5400390625,-400000.0625
186.3988745212555,-400000.0625,9254.0302734375,1959.3199462890625,-400000.0625,-1625.6300048828125,-400000.0625,6255.77001953125,-400000.0625
186.44614434242249,-400000.0625,9250.740234375,1955.989990234375,-400000.0625,-1615.6199951171875,-400000.0625,6253.0,-400000.0625
186.47680115699768,-400000.0625,9257.509765625,1961.0899658203125,-400000.0625,-1608.93994140625,-400000.0625,6258.10986328125,-400000.0625
186.49548387527466,-400000.0625,9263.6103515625,1967.9100341796875,-400000.0625,-1602.699951171875,-400000.0625,6262.919921875,-400000.0625
186.52352666854858,-400000.0625,9266.5703125,1970.5799560546875,-400000.0625,-1610.7099609375,-400000.0625,6260.81982421875,-400000.0625
186.57579708099365,-400000.0625,9255.599609375,1959.6600341796875,-400000.0625,-1617.9599609375,-400000.0625,6255.10009765625,-400000.0625
186.59237027168274,-400000.0625,9252.599609375,1955.5999755859375,-400000.0625,-1617.3800048828125,-400000.0625,6252.240234375,-400000.0625
186.6108100414276,-400000.0625,9255.7001953125,1960.75,-400000.0625,-1625.25,-400000.0625,6259.6298828125,-400000.0625
186.63814067840576,-400000.0625,9261.3203125,1967.0,-400000.0625,-1621.0999755859375,-400000.0625,6263.2998046875,-400000.0625
186.67417287826538,-400000.0625,9264.6103515625,1968.18994140625,-400000.0625,-1610.7099609375,-400000.0625,6262.39990234375,-400000.0625
186.68960309028625,-400000.0625,9256.26953125,1960.469970703125,-400000.0625,-1605.6500244140625,-400000.0625,6255.77001953125,-400000.0625
186.7033109664917,-400000.0625,9253.7900390625,1958.699951171875,-400000.0625,-1604.4599609375,-400000.0625,6253.39013671875,-400000.0625
186.72393369674683,-400000.0625,9260.7001953125,1962.3299560546875,-400000.0625,-1604.219970703125,-400000.0625,6262.259765625,-400000.0625
186.74512314796448,-400000.0625,9267.4697265625,1969.8599853515625,-400000.0625,-1609.1300048828125,-400000.0625,6266.31005859375,-400000.0625
186.77790546417236,-400000.0625,9269.1396484375,1972.719970703125,-400000.0625,-1612.81005859375,-400000.0625,6266.68994140625,-400000.0625
186.79274034500122,-400000.0625,9262.1796875,1963.4200439453125,-400000.0625,-1618.239990234375,-400000.0625,6259.2998046875,-400000.0625
186.81292867660522,-400000.0625,9256.509765625,1957.4599609375,-400000.0625,-1626.5400390625,-400000.0625,6254.72021484375,-400000.0625
186.8329575061798,-400000.0625,9259.0302734375,1961.1400146484375,-400000.0625,-1634.3599853515625,-400000.0625,6257.68017578125,-400000.0625
186.84824919700623,-400000.0625,9265.7099609375,1968.3399658203125,-400000.0625,-1612.4300537109375,-400000.0625,6262.02001953125,-400000.0625
186.87203884124756,-400000.0625,9269.669921875,1972.5799560546875,-400000.0625,-1589.969970703125,-400000.0625,6264.259765625,-400000.0625
186.8849720954895,-400000.0625,9257.75,1963.4200439453125,-400000.0625,-1599.0699462890625,-400000.0625,6257.43994140625,-400000.0625
186.89939379692078,-400000.0625,9252.9296875,1959.4200439453125,-400000.0625,-1600.1700439453125,-400000.0625,6254.6298828125,-400000.0625
186.9128770828247,-400000.0625,9263.4697265625,1966.18994140625,-400000.0625,-1596.6400146484375,-400000.0625,6262.16015625,-400000.0625
186.9292643070221,-400000.0625,9271.1904296875,1973.8699951171875,-400000.0625,-1603.030029296875,-400000.0625,6267.02001953125,-400000.0625
186.95010018348694,-400000.0625,9268.7099609375,1975.489990234375,-400000.0625,-1608.22998046875,-400000.0625,6265.5498046875,-400000.0625
186.98190999031067,-400000.0625,9263.2802734375,1966.239990234375,-400000.0625,-1617.239990234375,-400000.0625,6257.2001953125,-400000.0625
186.99979710578918,-400000.0625,9260.5595703125,1963.18994140625,-400000.0625,-1634.030029296875,-400000.0625,6253.580078125,-400000.0625
187.01614809036255,-400000.0625,9259.509765625,1966.8599853515625,-400000.0625,-1636.699951171875,-400000.0625,6261.16015625,-400000.0625
187.02924060821533,-400000.0625,9265.849609375,1968.719970703125,-400000.0625,-1606.56005859375,-400000.0625,6267.31005859375,-400000.0625
187.041095495224,-400000.0625,9268.240234375,1970.4300537109375,-400000.0625,-1594.4000244140625,-400000.0625,6267.5,-400000.0625
187.05171251296997,-400000.0625,9257.3701171875,1966.9100341796875,-400000.0625,-1604.030029296875,-400000.0625,6260.06005859375,-400000.0625
187.0822353363037,-400000.0625,9252.259765625,1959.93994140625,-400000.0625,-1607.22998046875,-400000.0625,6252.0498046875,-400000.0625
187.09914135932922,-400000.0625,9256.0302734375,1962.52001953125,-400000.0625,-1605.3199462890625,-400000.0625,6254.10009765625,-400000.0625
187.11838030815125,-400000.0625,9262.3203125,1969.9599609375,-400000.0625,-1606.6099853515625,-400000.0625,6262.58984375,-400000.0625
187.13170552253723,-400000.0625,9265.08984375,1973.06005859375,-400000.0625,-1620.719970703125,-400000.0625,6264.64013671875,-400000.0625
187.14435195922852,-400000.0625,9261.6103515625,1969.1500244140625,-400000.0625,-1632.8299560546875,-400000.0625,6257.490234375,-400000.0625
187.1580672264099,-400000.0625,9259.3203125,1964.5699462890625,-400000.0625,-1630.5400390625,-400000.0625,6255.25,-400000.0625
187.19084072113037,-400000.0625,9261.23046875,1962.9000244140625,-400000.0625,-1614.52001953125,-400000.0625,6257.580078125,-400000.0625
187.21114134788513,-400000.0625,9269.8603515625,1971.3900146484375,-400000.0625,-1595.2099609375,-400000.0625,6262.4501953125,-400000.0625
187.22271084785461,-400000.0625,9270.240234375,1972.8199462890625,-400000.0625,-1594.6400146484375,-400000.0625,6265.68994140625,-400000.0625
187.23410320281982,-400000.0625,9259.1796875,1962.0899658203125,-400000.0625,-1610.989990234375,-400000.0625,6257.39013671875,-400000.0625
187.25020551681519,-400000.0625,9255.650390625,1959.280029296875,-400000.0625,-1616.239990234375,-400000.0625,6252.47998046875,-400000.0625
187.2651665210724,-400000.0625,9255.2197265625,1964.0400390625,-400000.0625,-1624.199951171875,-400000.0625,6257.25,-400000.0625
187.29221630096436,-400000.0625,9263.5595703125,1972.06005859375,-400000.0625,-1624.43994140625,-400000.0625,6261.8701171875,-400000.0625
187.30701613426208,-400000.0625,9264.23046875,1970.6700439453125,-400000.0625,-1609.0400390625,-400000.0625,6258.77001953125,-400000.0625
187.3266191482544,-400000.0625,9255.080078125,1962.760009765625,-400000.0625,-1610.760009765625,-400000.0625,6251.0498046875,-400000.0625
187.3407871723175,-400000.0625,9252.1201171875,1960.1800537109375,-400000.0625,-1613.3299560546875,-400000.0625,6249.14013671875,-400000.0625
187.35454630851746,-400000.0625,9259.3701171875,1967.8599853515625,-400000.0625,-1609.280029296875,-400000.0625,6257.10986328125,-400000.0625
187.36651921272278,-400000.0625,9267.9501953125,1975.489990234375,-400000.0625,-1615.239990234375,-400000.0625,6264.8798828125,-400000.0625
187.42542338371277,-400000.0625,9268.7099609375,1974.1500244140625,-400000.0625,-1618.8599853515625,-400000.0625,6267.830078125,-400000.0625
187.4415407180786,-400000.0625,9261.3203125,1967.3800048828125,-400000.0625,-1614.6199951171875,-400000.0625,6258.25,-400000.0625
187.458580493927,-400000.0625,9255.1201171875,1964.7099609375,-400000.0625,-1630.5,-400000.0625,6255.91015625,-400000.0625
187.47260880470276,-400000.0625,9259.990234375,1966.18994140625,-400000.0625,-1627.489990234375,-400000.0625,6260.10986328125,-400000.0625
187.50592279434204,-400000.0625,9261.849609375,1970.0999755859375,-400000.0625,-1600.8399658203125,-400000.0625,6263.77978515625,-400000.0625
187.52799201011658,-400000.0625,9262.2802734375,1974.72998046875,-400000.0625,-1593.02001953125,-400000.0625,6264.16015625,-400000.0625
187.549964427948,-400000.0625,9262.1298828125,1968.9599609375,-400000.0625,-1603.0799560546875,-400000.0625,6258.5400390625,-400000.0625
187.56527590751648,-400000.0625,9259.1796875,1964.3800048828125,-400000.0625,-1608.6099853515625,-400000.0625,6256.43994140625,-400000.0625
187.58242797851562,-400000.0625,9260.6103515625,1968.4300537109375,-400000.0625,-1613.0,-400000.0625,6262.919921875,-400000.0625
187.61576890945435,-400000.0625,9267.0498046875,1974.300048828125,-400000.0625,-1610.280029296875,-400000.0625,6267.02001953125,-400000.0625
187.66063570976257,-400000.0625,9267.4296875,1975.9200439453125,-400000.0625,-1621.6300048828125,-400000.0625,6268.93017578125,-400000.0625
187.69717526435852,-400000.0625,9261.75,1969.18994140625,-400000.0625,-1647.280029296875,-400000.0625,6261.25,-400000.0625
187.76776599884033,-400000.0625,9257.7001953125,1967.239990234375,-400000.0625,-1625.969970703125,-400000.0625,6256.72021484375,-400000.0625
187.7865960597992,-400000.0625,9261.3203125,1969.47998046875,-400000.0625,-1597.5,-400000.0625,6258.68017578125,-400000.0625
187.7993004322052,-400000.0625,9265.330078125,1976.06005859375,-400000.0625,-1591.6300048828125,-400000.0625,6265.93017578125,-400000.0625
187.83272337913513,-400000.0625,9264.3701171875,1976.8199462890625,-400000.0625,-1601.739990234375,-400000.0625,6272.22021484375,-400000.0625
187.86507153511047,-400000.0625,9258.9404296875,1971.1500244140625,-400000.0625,-1616.3399658203125,-400000.0625,6264.35009765625,-400000.0625
187.8792109489441,-400000.0625,9255.3603515625,1961.989990234375,-400000.0625,-1616.050048828125,-400000.0625,6258.580078125,-400000.0625
187.89907455444336,-400000.0625,9253.2197265625,1961.52001953125,-400000.0625,-1617.77001953125,-400000.0625,6266.06982421875,-400000.0625
187.92384433746338,-400000.0625,9261.5595703125,1970.5799560546875,-400000.0625,-1621.9100341796875,-400000.0625,6271.080078125,-400000.0625
187.96251606941223,-400000.0625,9264.990234375,1972.47998046875,-400000.0625,-1613.18994140625,-400000.0625,6268.64990234375,-400000.0625
187.9811725616455,-400000.0625,9251.8798828125,1963.52001953125,-400000.0625,-1613.3299560546875,-400000.0625,6259.72998046875,-400000.0625
188.00013947486877,-400000.0625,9252.2197265625,1961.8499755859375,-400000.0625,-1608.75,-400000.0625,6257.580078125,-400000.0625
188.0203514099121,-400000.0625,9256.080078125,1966.239990234375,-400000.0625,-1606.75,-400000.0625,6265.31005859375,-400000.0625
188.03906726837158,-400000.0625,9261.23046875,1972.719970703125,-400000.0625,-1605.219970703125,-400000.0625,6274.080078125,-400000.0625
188.07101821899414,-400000.0625,9262.6103515625,1972.47998046875,-400000.0625,-1603.6500244140625,-400000.0625,6273.56005859375,-400000.0625
188.08564472198486,-400000.0625,9251.830078125,1963.9000244140625,-400000.0625,-1616.3399658203125,-400000.0625,6265.4501953125,-400000.0625
188.10914087295532,-400000.0625,9249.349609375,1959.989990234375,-400000.0625,-1621.1500244140625,-400000.0625,6263.68994140625,-400000.0625
188.12436819076538,-400000.0625,9258.080078125,1966.3800048828125,-400000.0625,-1623.8199462890625,-400000.0625,6267.60009765625,-400000.0625
188.13925909996033,-400000.0625,9262.51953125,1973.3900146484375,-400000.0625,-1618.47998046875,-400000.0625,6271.97998046875,-400000.0625
188.17637634277344,-400000.0625,9260.3701171875,1973.199951171875,-400000.0625,-1611.0400390625,-400000.0625,6273.080078125,-400000.0625
188.18823194503784,-400000.0625,9253.8798828125,1965.0899658203125,-400000.0625,-1620.530029296875,-400000.0625,6266.06982421875,-400000.0625
188.20094275474548,-400000.0625,9250.5498046875,1961.5699462890625,-400000.0625,-1610.469970703125,-400000.0625,6263.35009765625,-400000.0625
188.21645259857178,-400000.0625,9254.2197265625,1965.5699462890625,-400000.0625,-1606.4200439453125,-400000.0625,6269.4599609375,-400000.0625
188.2322859764099,-400000.0625,9263.23046875,1975.5799560546875,-400000.0625,-1615.2900390625,-400000.0625,6279.66015625,-400000.0625
188.2451844215393,-400000.0625,9263.419921875,1977.6300048828125,-400000.0625,-1613.0400390625,-400000.0625,6281.56982421875,-400000.0625
188.27479100227356,-400000.0625,9255.26953125,1969.18994140625,-400000.0625,-1618.6700439453125,-400000.0625,6273.41015625,-400000.0625
188.28766655921936,-400000.0625,9249.58984375,1961.8499755859375,-400000.0625,-1624.1600341796875,-400000.0625,6267.35986328125,-400000.0625
188.30305910110474,-400000.0625,9252.2197265625,1964.6199951171875,-400000.0625,-1620.6300048828125,-400000.0625,6270.4599609375,-400000.0625
188.31815195083618,-400000.0625,9260.4599609375,1971.47998046875,-400000.0625,-1609.0400390625,-400000.0625,6275.31982421875,-400000.0625
188.32985019683838,-400000.0625,9265.2802734375,1977.5899658203125,-400000.0625,-1601.97998046875,-400000.0625,6273.22021484375,-400000.0625
188.34524202346802,-400000.0625,9257.3701171875,1968.77001953125,-400000.0625,-1615.8599853515625,-400000.0625,6268.22021484375,-400000.0625
188.3719358444214,-400000.0625,9253.5,1963.52001953125,-400000.0625,-1619.9100341796875,-400000.0625,6265.8798828125,-400000.0625
188.39245676994324,-400000.0625,9259.26953125,1969.81005859375,-400000.0625,-1610.469970703125,-400000.0625,6267.02001953125,-400000.0625
188.42397379875183,-400000.0625,9266.8095703125,1976.6800537109375,-400000.0625,-1600.550048828125,-400000.0625,6272.02978515625,-400000.0625
188.4434118270874,-400000.0625,9262.990234375,1972.719970703125,-400000.0625,-1613.4300537109375,-400000.0625,6273.4599609375,-400000.0625
188.4603316783905,-400000.0625,9253.740234375,1964.280029296875,-400000.0625,-1619.2900390625,-400000.0625,6264.93017578125,-400000.0625
188.48873710632324,-400000.0625,9250.7900390625,1963.4200439453125,-400000.0625,-1611.18994140625,-400000.0625,6262.4501953125,-400000.0625
188.50881600379944,-400000.0625,9254.26953125,1969.3900146484375,-400000.0625,-1614.6199951171875,-400000.0625,6268.64990234375,-400000.0625
188.52705788612366,-400000.0625,9262.1298828125,1975.1099853515625,-400000.0625,-1609.8499755859375,-400000.0625,6276.27001953125,-400000.0625
188.54272294044495,-400000.0625,9263.2802734375,1973.9599609375,-400000.0625,-1615.719970703125,-400000.0625,6276.0400390625,-400000.0625
188.56036472320557,-400000.0625,9255.2197265625,1966.9100341796875,-400000.0625,-1631.260009765625,-400000.0625,6268.259765625,-400000.0625
188.59309816360474,-400000.0625,9254.0302734375,1964.949951171875,-400000.0625,-1614.949951171875,-400000.0625,6262.72998046875,-400000.0625
188.61108016967773,-400000.0625,9255.2197265625,1967.6199951171875,-400000.0625,-1599.1199951171875,-400000.0625,6268.41015625,-400000.0625
188.62758588790894,-400000.0625,9259.650390625,1975.489990234375,-400000.0625,-1590.1600341796875,-400000.0625,6275.4599609375,-400000.0625
188.64280772209167,-400000.0625,9261.1298828125,1977.3499755859375,-400000.0625,-1599.97998046875,-400000.0625,6274.02978515625,-400000.0625
188.6653597354889,-400000.0625,9255.2197265625,1967.6700439453125,-400000.0625,-1614.8599853515625,-400000.0625,6266.5498046875,-400000.0625
188.69360995292664,-400000.0625,9253.5,1965.18994140625,-400000.0625,-1617.2900390625,-400000.0625,6260.8701171875,-400000.0625
188.70946526527405,-400000.0625,9253.7900390625,1971.6300048828125,-400000.0625,-1610.760009765625,-400000.0625,6265.77978515625,-400000.0625
188.73074793815613,-400000.0625,9258.1298828125,1977.5899658203125,-400000.0625,-1612.280029296875,-400000.0625,6272.64990234375,-400000.0625
188.74772787094116,-400000.0625,9266.8095703125,1982.0699462890625,-400000.0625,-1613.5699462890625,-400000.0625,6274.7001953125,-400000.0625
188.76789045333862,-400000.0625,9260.1298828125,1973.3900146484375,-400000.0625,-1612.8499755859375,-400000.0625,6267.31005859375,-400000.0625
188.79980731010437,-400000.0625,9252.98046875,1966.4300537109375,-400000.0625,-1616.8599853515625,-400000.0625,6263.06982421875,-400000.0625
188.81743335723877,-400000.0625,9262.4697265625,1971.9100341796875,-400000.0625,-1630.68994140625,-400000.0625,6266.64013671875,-400000.0625
188.83334517478943,-400000.0625,9268.8095703125,1978.9200439453125,-400000.0625,-1616.760009765625,-400000.0625,6269.740234375,-400000.0625
188.85143876075745,-400000.0625,9265.23046875,1978.8299560546875,-400000.0625,-1600.4599609375,-400000.0625,6271.4599609375,-400000.0625
188.87305068969727,-400000.0625,9257.9404296875,1971.0999755859375,-400000.0625,-1600.27001953125,-400000.0625,6262.72998046875,-400000.0625
188.90596771240234,-400000.0625,9253.83984375,1965.949951171875,-400000.0625,-1610.6099853515625,-400000.0625,6258.919921875,-400000.0625
188.92428350448608,-400000.0625,9256.3203125,1968.530029296875,-400000.0625,-1615.3800048828125,-400000.0625,6265.77978515625,-400000.0625
188.94180512428284,-400000.0625,9264.51953125,1977.969970703125,-400000.0625,-1602.8399658203125,-400000.0625,6271.41015625,-400000.0625
188.97098183631897,-400000.0625,9267.240234375,1979.4000244140625,-400000.0625,-1607.93994140625,-400000.0625,6273.27001953125,-400000.0625
188.98913550376892,-400000.0625,9259.6103515625,1972.6800537109375,-400000.0625,-1617.050048828125,-400000.0625,6267.41015625,-400000.0625
189.01995205879211,-400000.0625,9249.16015625,1965.52001953125,-400000.0625,-1622.010009765625,-400000.0625,6262.77978515625,-400000.0625
189.03356504440308,-400000.0625,9252.599609375,1970.530029296875,-400000.0625,-1619.530029296875,-400000.0625,6267.93017578125,-400000.0625
189.05103063583374,-400000.0625,9266.4697265625,1981.1199951171875,-400000.0625,-1619.6300048828125,-400000.0625,6275.02978515625,-400000.0625
189.07042407989502,-400000.0625,9263.66015625,1979.72998046875,-400000.0625,-1614.47998046875,-400000.0625,6275.31982421875,-400000.0625
189.09080457687378,-400000.0625,9257.9404296875,1974.5400390625,-400000.0625,-1611.0899658203125,-400000.0625,6266.7900390625,-400000.0625
189.1353235244751,-400000.0625,9255.7001953125,1969.2900390625,-400000.0625,-1614.52001953125,-400000.0625,6262.06005859375,-400000.0625
189.15045976638794,-400000.0625,9258.7998046875,1970.8199462890625,-400000.0625,-1605.3199462890625,-400000.0625,6266.740234375,-400000.0625
189.16547918319702,-400000.0625,9263.9501953125,1979.0699462890625,-400000.0625,-1603.219970703125,-400000.0625,6273.7900390625,-400000.0625
189.17850613594055,-400000.0625,9264.2802734375,1977.969970703125,-400000.0625,-1610.1800537109375,-400000.0625,6274.3701171875,-400000.0625
189.1951549053192,-400000.0625,9254.2197265625,1971.3399658203125,-400000.0625,-1612.760009765625,-400000.0625,6268.02978515625,-400000.0625
189.22267246246338,-400000.0625,9252.9296875,1970.4300537109375,-400000.0625,-1626.489990234375,-400000.0625,6265.16015625,-400000.0625
189.23926877975464,-400000.0625,9254.650390625,1973.8699951171875,-400000.0625,-1630.8299560546875,-400000.0625,6268.22021484375,-400000.0625
189.25539875030518,-400000.0625,9260.1298828125,1975.72998046875,-400000.0625,-1613.4300537109375,-400000.0625,6269.740234375,-400000.0625
189.2684998512268,-400000.0625,9260.080078125,1975.969970703125,-400000.0625,-1604.800048828125,-400000.0625,6268.97998046875,-400000.0625
189.28159379959106,-400000.0625,9252.9296875,1968.0,-400000.0625,-1610.949951171875,-400000.0625,6261.77978515625,-400000.0625
189.29660654067993,-400000.0625,9253.5498046875,1967.760009765625,-400000.0625,-1616.81005859375,-400000.0625,6259.06005859375,-400000.0625
189.32895421981812,-400000.0625,9252.169921875,1967.6199951171875,-400000.0625,-1618.719970703125,-400000.0625,6264.2099609375,-400000.0625
189.341299533844,-400000.0625,9254.599609375,1971.199951171875,-400000.0625,-1608.3199462890625,-400000.0625,6273.93994140625,-400000.0625
189.3563516139984,-400000.0625,9257.26953125,1972.5799560546875,-400000.0625,-1610.9000244140625,-400000.0625,6276.419921875,-400000.0625
189.37068104743958,-400000.0625,9250.4501953125,1965.7099609375,-400000.0625,-1629.9200439453125,-400000.0625,6266.35986328125,-400000.0625
189.39633870124817,-400000.0625,9249.8798828125,1964.0,-400000.0625,-1626.300048828125,-400000.0625,6264.02001953125,-400000.0625
189.42995882034302,-400000.0625,9253.7900390625,1967.719970703125,-400000.0625,-1612.3299560546875,-400000.0625,6267.35986328125,-400000.0625
189.47009801864624,-400000.0625,9256.7900390625,1971.9100341796875,-400000.0625,-1612.760009765625,-400000.0625,6271.02978515625,-400000.0625
189.48468255996704,-400000.0625,9260.080078125,1973.06005859375,-400000.0625,-1614.280029296875,-400000.0625,6272.60009765625,-400000.0625
189.50244402885437,-400000.0625,9256.98046875,1968.47998046875,-400000.0625,-1619.4300537109375,-400000.0625,6267.06982421875,-400000.0625
189.5189061164856,-400000.0625,9245.6396484375,1960.0899658203125,-400000.0625,-1629.1600341796875,-400000.0625,6262.97021484375,-400000.0625
189.54396843910217,-400000.0625,9250.3603515625,1965.050048828125,-400000.0625,-1621.77001953125,-400000.0625,6269.83984375,-400000.0625
189.5715663433075,-400000.0625,9257.1298828125,1972.47998046875,-400000.0625,-1613.6600341796875,-400000.0625,6276.080078125,-400000.0625
189.59022760391235,-400000.0625,9256.3603515625,1973.3399658203125,-400000.0625,-1613.52001953125,-400000.0625,6274.1298828125,-400000.0625
189.60480999946594,-400000.0625,9247.259765625,1965.47998046875,-400000.0625,-1631.0699462890625,-400000.0625,6265.31005859375,-400000.0625
189.6185586452484,-400000.0625,9242.5400390625,1961.3699951171875,-400000.0625,-1630.5899658203125,-400000.0625,6261.58984375,-400000.0625
189.63308572769165,-400000.0625,9248.01953125,1967.719970703125,-400000.0625,-1617.050048828125,-400000.0625,6263.68994140625,-400000.0625
189.65088033676147,-400000.0625,9256.9404296875,1975.1099853515625,-400000.0625,-1611.1400146484375,-400000.0625,6273.41015625,-400000.0625
189.68458580970764,-400000.0625,9257.509765625,1978.6800537109375,-400000.0625,-1616.2900390625,-400000.0625,6275.27001953125,-400000.0625
189.70113682746887,-400000.0625,9251.599609375,1973.199951171875,-400000.0625,-1623.6800537109375,-400000.0625,6268.64990234375,-400000.0625
189.7326271533966,-400000.0625,9247.16015625,1964.8599853515625,-400000.0625,-1628.449951171875,-400000.0625,6262.2099609375,-400000.0625
189.75519227981567,-400000.0625,9253.0302734375,1970.6700439453125,-400000.0625,-1622.530029296875,-400000.0625,6267.64013671875,-400000.0625
189.79912114143372,-400000.0625,9261.3701171875,1979.300048828125,-400000.0625,-1612.9000244140625,-400000.0625,6272.97998046875,-400000.0625
189.82492208480835,-400000.0625,9257.650390625,1980.449951171875,-400000.0625,-1607.0400390625,-400000.0625,6271.64990234375,-400000.0625
189.84130430221558,-400000.0625,9247.73046875,1971.199951171875,-400000.0625,-1618.9599609375,-400000.0625,6261.830078125,-400000.0625
189.86075401306152,-400000.0625,9243.0595703125,1964.1400146484375,-400000.0625,-1627.489990234375,-400000.0625,6254.91015625,-400000.0625
189.91070342063904,-400000.0625,9246.400390625,1967.3800048828125,-400000.0625,-1615.47998046875,-400000.0625,6260.009765625,-400000.0625
189.94427466392517,-400000.0625,9258.2197265625,1977.06005859375,-400000.0625,-1610.280029296875,-400000.0625,6270.02978515625,-400000.0625
189.96790504455566,-400000.0625,9256.41015625,1976.969970703125,-400000.0625,-1614.1400146484375,-400000.0625,6270.31005859375,-400000.0625
190.01321268081665,-400000.0625,9246.2998046875,1969.0999755859375,-400000.0625,-1621.1500244140625,-400000.0625,6262.72998046875,-400000.0625
190.0283362865448,-400000.0625,9242.76953125,1965.6700439453125,-400000.0625,-1622.06005859375,-400000.0625,6261.02001953125,-400000.0625
190.04311871528625,-400000.0625,9247.73046875,1970.4300537109375,-400000.0625,-1623.3399658203125,-400000.0625,6266.02001953125,-400000.0625
190.06665110588074,-400000.0625,9253.9296875,1975.969970703125,-400000.0625,-1628.5899658203125,-400000.0625,6272.22021484375,-400000.0625
190.08531975746155,-400000.0625,9257.990234375,1974.25,-400000.0625,-1632.5999755859375,-400000.0625,6272.83984375,-400000.0625
190.13217043876648,-400000.0625,9249.01953125,1965.050048828125,-400000.0625,-1630.5400390625,-400000.0625,6262.97021484375,-400000.0625
190.15112400054932,-400000.0625,9237.240234375,1959.3699951171875,-400000.0625,-1626.3499755859375,-400000.0625,6256.009765625,-400000.0625
190.1763768196106,-400000.0625,9243.2001953125,1969.18994140625,-400000.0625,-1608.280029296875,-400000.0625,6260.43994140625,-400000.0625
190.19886469841003,-400000.0625,9256.3203125,1980.9200439453125,-400000.0625,-1599.260009765625,-400000.0625,6265.830078125,-400000.0625
190.23712873458862,-400000.0625,9255.8896484375,1976.3499755859375,-400000.0625,-1605.4200439453125,-400000.0625,6268.5498046875,-400000.0625
190.25689935684204,-400000.0625,9244.1103515625,1968.1500244140625,-400000.0625,-1619.3900146484375,-400000.0625,6259.8701171875,-400000.0625
190.27301168441772,-400000.0625,9240.2001953125,1965.18994140625,-400000.0625,-1625.489990234375,-400000.0625,6256.77001953125,-400000.0625
190.2929663658142,-400000.0625,9241.2998046875,1965.6700439453125,-400000.0625,-1634.219970703125,-400000.0625,6262.68017578125,-400000.0625
190.31972980499268,-400000.0625,9246.9697265625,1969.9599609375,-400000.0625,-1631.6400146484375,-400000.0625,6266.169921875,-400000.0625
190.3530466556549,-400000.0625,9250.0703125,1973.1500244140625,-400000.0625,-1626.300048828125,-400000.0625,6266.2099609375,-400000.0625
190.38261222839355,-400000.0625,9237.7197265625,1964.5699462890625,-400000.0625,-1623.5799560546875,-400000.0625,6259.919921875,-400000.0625
190.42894983291626,-400000.0625,9289.3095703125,2053.31005859375,-400000.0625,-1616.3800048828125,-400000.0625,6308.83984375,-400000.0625
190.42899918556213,-400000.0625,9287.7900390625,2055.7900390625,-400000.0625,-1621.5799560546875,-400000.0625,6307.27001953125,-400000.0625
190.42901039123535,-400000.0625,9293.4599609375,2058.360107421875,-400000.0625,-1627.1600341796875,-400000.0625,6314.14013671875,-400000.0625
190.42902064323425,-400000.0625,9298.849609375,2062.320068359375,-400000.0625,-1630.1600341796875,-400000.0625,6320.91015625,-400000.0625
190.42903017997742,-400000.0625,9289.3095703125,2056.68994140625,-400000.0625,-1633.260009765625,-400000.0625,6319.56982421875,-400000.0625
190.42903971672058,-400000.0625,9286.3095703125,2052.070068359375,-400000.0625,-1624.5799560546875,-400000.0625,6310.080078125,-400000.0625
190.42905068397522,-400000.0625,9285.2099609375,2051.5400390625,-400000.0625,-1625.489990234375,-400000.0625,6310.02978515625,-400000.0625
190.42906069755554,-400000.0625,9288.98046875,2057.030029296875,-400000.0625,-1622.1500244140625,-400000.0625,6318.0,-400000.0625
190.42907071113586,-400000.0625,9299.5703125,2064.419921875,-400000.0625,-1621.1500244140625,-400000.0625,6322.10009765625,-400000.0625
190.42908000946045,-400000.0625,9294.2197265625,2060.3701171875,-400000.0625,-1623.199951171875,-400000.0625,6314.22998046875,-400000.0625
190.4290895462036,-400000.0625,9286.98046875,2052.68994140625,-400000.0625,-1625.25,-400000.0625,6306.4599609375,-400000.0625
190.42909860610962,-400000.0625,9283.73046875,2051.39990234375,-400000.0625,-1623.9599609375,-400000.0625,6305.22021484375,-400000.0625
190.42910718917847,-400000.0625,9290.7900390625,2055.1201171875,-400000.0625,-1618.1500244140625,-400000.0625,6308.990234375,-400000.0625
190.42911577224731,-400000.0625,9298.6103515625,2061.989990234375,-400000.0625,-1625.969970703125,-400000.0625,6314.56005859375,-400000.0625
190.42912435531616,-400000.0625,9294.8896484375,2057.409912109375,-400000.0625,-1633.449951171875,-400000.0625,6310.22998046875,-400000.0625
190.4291331768036,-400000.0625,9286.0703125,2049.39990234375,-400000.0625,-1633.68994140625,-400000.0625,6304.68994140625,-400000.0625
190.42914175987244,-400000.0625,9280.8701171875,2048.110107421875,-400000.0625,-1625.010009765625,-400000.0625,6307.35986328125,-400000.0625
190.42915034294128,-400000.0625,9288.6904296875,2057.699951171875,-400000.0625,-1622.530029296875,-400000.0625,6312.0400390625,-400000.0625
190.42915964126587,-400000.0625,9294.080078125,2063.56005859375,-400000.0625,-1617.4300537109375,-400000.0625,6315.52001953125,-400000.0625
190.42916798591614,-400000.0625,9291.8896484375,2060.3701171875,-400000.0625,-1625.5400390625,-400000.0625,6310.419921875,-400000.0625
190.42917680740356,-400000.0625,9282.919921875,2052.1201171875,-400000.0625,-1633.5,-400000.0625,6302.35986328125,-400000.0625
190.4383728504181,-400000.0625,9263.330078125,2045.5799560546875,-400000.0625,-1667.3599853515625,-400000.0625,6274.18017578125,-400000.0625
190.43859553337097,-400000.0625,9271.91015625,2054.2099609375,-400000.0625,-1665.2099609375,-400000.0625,6278.85009765625,-400000.0625
190.43863034248352,-400000.0625,9274.0498046875,2058.169921875,-400000.0625,-1645.1400146484375,-400000.0625,6283.81005859375,-400000.0625
190.43865823745728,-400000.0625,9271.33984375,2054.929931640625,-400000.0625,-1646.280029296875,-400000.0625,6280.60986328125,-400000.0625
190.4386842250824,-400000.0625,9261.1796875,2046.489990234375,-400000.0625,-1660.3900146484375,-400000.0625,6271.080078125,-400000.0625
190.43870949745178,-400000.0625,9262.6103515625,2048.2099609375,-400000.0625,-1662.5899658203125,-400000.0625,6268.64990234375,-400000.0625
190.43873524665833,-400000.0625,9271.91015625,2054.02001953125,-400000.0625,-1664.5,-400000.0625,6279.7998046875,-400000.0625
190.43876242637634,-400000.0625,9274.3896484375,2057.27001953125,-400000.0625,-1670.31005859375,-400000.0625,6282.89990234375,-400000.0625
190.43878984451294,-400000.0625,9269.7197265625,2056.889892578125,-400000.0625,-1659.1600341796875,-400000.0625,6278.7099609375,-400000.0625
190.43881607055664,-400000.0625,9262.990234375,2049.830078125,-400000.0625,-1648.6199951171875,-400000.0625,6272.1298828125,-400000.0625
190.43884229660034,-400000.0625,9262.0400390625,2049.830078125,-400000.0625,-1660.010009765625,-400000.0625,6272.02978515625,-400000.0625
190.4388701915741,-400000.0625,9264.3701171875,2049.969970703125,-400000.0625,-1657.530029296875,-400000.0625,6273.60009765625,-400000.0625
190.43889927864075,-400000.0625,9271.33984375,2054.550048828125,-400000.0625,-1643.0899658203125,-400000.0625,6276.93994140625,-400000.0625
190.43892645835876,-400000.0625,9273.48046875,2056.360107421875,-400000.0625,-1649.6700439453125,-400000.0625,6281.52001953125,-400000.0625
190.43895435333252,-400000.0625,9265.6103515625,2048.830078125,-400000.0625,-1666.97998046875,-400000.0625,6276.3701171875,-400000.0625
190.43898010253906,-400000.0625,9265.900390625,2049.06005859375,-400000.0625,-1675.1800537109375,-400000.0625,6271.31982421875,-400000.0625
190.43900632858276,-400000.0625,9268.9501953125,2051.969970703125,-400000.0625,-1657.5799560546875,-400000.0625,6273.990234375,-400000.0625
190.43903136253357,-400000.0625,9274.0498046875,2058.030029296875,-400000.0625,-1646.469970703125,-400000.0625,6278.27978515625,-400000.0625
190.4390549659729,-400000.0625,9271.9599609375,2056.409912109375,-400000.0625,-1642.3199462890625,-400000.0625,6278.22998046875,-400000.0625
190.4390788078308,-400000.0625,9264.9501953125,2052.02001953125,-400000.0625,-1648.0899658203125,-400000.0625,6273.4599609375,-400000.0625
190.43910241127014,-400000.0625,9266.23046875,2050.260009765625,-400000.0625,-1657.9200439453125,-400000.0625,6269.5,-400000.0625
190.439138174057,-400000.0625,9268.9501953125,2051.639892578125,-400000.0625,-1668.02001953125,-400000.0625,6278.419921875,-400000.0625
190.4391622543335,-400000.0625,9270.240234375,2055.31005859375,-400000.0625,-1676.989990234375,-400000.0625,6284.43017578125,-400000.0625
190.4391884803772,-400000.0625,9270.8095703125,2051.590087890625,-400000.0625,-1672.8399658203125,-400000.0625,6281.66015625,-400000.0625
190.43921327590942,-400000.0625,9260.66015625,2042.1500244140625,-400000.0625,-1659.6800537109375,-400000.0625,6273.31982421875,-400000.0625
190.43923783302307,-400000.0625,9259.23046875,2041.1500244140625,-400000.0625,-1647.280029296875,-400000.0625,6269.259765625,-400000.0625
190.4392614364624,-400000.0625,9265.2802734375,2048.639892578125,-400000.0625,-1647.760009765625,-400000.0625,6273.1298828125,-400000.0625
190.43928599357605,-400000.0625,9271.6201171875,2055.360107421875,-400000.0625,-1650.0,-400000.0625,6282.89990234375,-400000.0625
190.43930983543396,-400000.0625,9267.2802734375,2054.97998046875,-400000.0625,-1653.2900390625,-400000.0625,6282.9501953125,-400000.0625
190.43933391571045,-400000.0625,9258.4599609375,2047.9200439453125,-400000.0625,-1661.4000244140625,-400000.0625,6275.31982421875,-400000.0625
190.43935751914978,-400000.0625,9259.1298828125,2045.300048828125,-400000.0625,-1672.550048828125,-400000.0625,6274.41015625,-400000.0625
190.43938207626343,-400000.0625,9266.08984375,2052.830078125,-400000.0625,-1673.97998046875,-400000.0625,6280.56982421875,-400000.0625
190.43940615653992,-400000.0625,9270.8095703125,2058.550048828125,-400000.0625,-1674.3699951171875,-400000.0625,6284.91015625,-400000.0625
190.43942952156067,-400000.0625,9263.7099609375,2052.68994140625,-400000.0625,-1661.5899658203125,-400000.0625,6282.47021484375,-400000.0625
190.439453125,-400000.0625,9255.4599609375,2043.77001953125,-400000.0625,-1654.9599609375,-400000.0625,6271.7900390625,-400000.0625
190.4396300315857,-400000.0625,9256.0302734375,2043.300048828125,-400000.0625,-1652.77001953125,-400000.0625,6270.7900390625,-400000.0625
190.4409761428833,-400000.0625,9244.349609375,2085.35009765625,-400000.0625,-1668.0699462890625,-400000.0625,6284.6201171875,-400000.0625
190.44104599952698,-400000.0625,9249.400390625,2090.64990234375,-400000.0625,-1665.8800048828125,-400000.0625,6287.580078125,-400000.0625
190.44107699394226,-400000.0625,9252.6396484375,2092.5,-400000.0625,-1659.1099853515625,-400000.0625,6284.669921875,-400000.0625
190.44110441207886,-400000.0625,9244.009765625,2083.919921875,-400000.0625,-1664.02001953125,-400000.0625,6281.47021484375,-400000.0625
190.4411325454712,-400000.0625,9239.9599609375,2080.199951171875,-400000.0625,-1668.6400146484375,-400000.0625,6282.89990234375,-400000.0625
190.44116067886353,-400000.0625,9249.349609375,2086.02001953125,-400000.0625,-1675.4599609375,-400000.0625,6289.43994140625,-400000.0625
190.44118642807007,-400000.0625,9252.740234375,2092.030029296875,-400000.0625,-1670.68994140625,-400000.0625,6291.81982421875,-400000.0625
190.44121313095093,-400000.0625,9254.7001953125,2092.889892578125,-400000.0625,-1657.6800537109375,-400000.0625,6289.2900390625,-400000.0625
190.44123911857605,-400000.0625,9249.9296875,2086.31005859375,-400000.0625,-1670.6500244140625,-400000.0625,6281.27978515625,-400000.0625
190.44126534461975,-400000.0625,9242.3896484375,2082.39990234375,-400000.0625,-1682.469970703125,-400000.0625,6279.66015625,-400000.0625
190.44129276275635,-400000.0625,9246.830078125,2088.260009765625,-400000.0625,-1669.9300537109375,-400000.0625,6281.330078125,-400000.0625
190.44132018089294,-400000.0625,9249.7802734375,2090.739990234375,-400000.0625,-1662.449951171875,-400000.0625,6288.10009765625,-400000.0625
190.44134521484375,-400000.0625,9248.830078125,2090.260009765625,-400000.0625,-1659.8199462890625,-400000.0625,6287.10009765625,-400000.0625
190.44137287139893,-400000.0625,9243.490234375,2086.68994140625,-400000.0625,-1667.449951171875,-400000.0625,6280.14013671875,-400000.0625
190.44140005111694,-400000.0625,9242.4404296875,2086.449951171875,-400000.0625,-1673.030029296875,-400000.0625,6278.52001953125,-400000.0625
190.44142603874207,-400000.0625,9252.2197265625,2094.4599609375,-400000.0625,-1662.2099609375,-400000.0625,6287.81005859375,-400000.0625
190.4414529800415,-400000.0625,9261.509765625,2099.699951171875,-400000.0625,-1671.4599609375,-400000.0625,6289.9599609375,-400000.0625
190.44148802757263,-400000.0625,9260.23046875,2097.889892578125,-400000.0625,-1674.1300048828125,-400000.0625,6290.2001953125,-400000.0625
190.4415180683136,-400000.0625,9250.7900390625,2090.8798828125,-400000.0625,-1668.2099609375,-400000.0625,6281.81005859375,-400000.0625
190.4415442943573,-400000.0625,9247.16015625,2088.639892578125,-400000.0625,-1666.68994140625,-400000.0625,6277.22998046875,-400000.0625
190.44156980514526,-400000.0625,9256.9404296875,2094.840087890625,-400000.0625,-1651.2900390625,-400000.0625,6282.27978515625,-400000.0625
190.4415943622589,-400000.0625,9259.419921875,2102.7099609375,-400000.0625,-1638.8900146484375,-400000.0625,6287.0,-400000.0625
190.44161987304688,-400000.0625,9256.8896484375,2101.610107421875,-400000.0625,-1651.2900390625,-400000.0625,6285.0,-400000.0625
190.44164514541626,-400000.0625,9253.650390625,2095.1298828125,-400000.0625,-1660.199951171875,-400000.0625,6278.22998046875,-400000.0625
190.44167137145996,-400000.0625,9252.3603515625,2095.27001953125,-400000.0625,-1663.449951171875,-400000.0625,6279.990234375,-400000.0625
190.44170713424683,-400000.0625,9256.4599609375,2099.800048828125,-400000.0625,-1670.0699462890625,-400000.0625,6283.08984375,-400000.0625
190.44173336029053,-400000.0625,9263.419921875,2106.909912109375,-400000.0625,-1662.2099609375,-400000.0625,6290.2900390625,-400000.0625
190.4417600631714,-400000.0625,9267.330078125,2109.050048828125,-400000.0625,-1650.760009765625,-400000.0625,6293.35009765625,-400000.0625
190.4417884349823,-400000.0625,9261.66015625,2103.0,-400000.0625,-1651.719970703125,-400000.0625,6284.759765625,-400000.0625
190.44181537628174,-400000.0625,9254.8896484375,2096.3701171875,-400000.0625,-1654.6700439453125,-400000.0625,6280.419921875,-400000.0625
190.4418442249298,-400000.0625,9260.3203125,2097.699951171875,-400000.0625,-1658.300048828125,-400000.0625,6286.669921875,-400000.0625
190.44187355041504,-400000.0625,9267.2802734375,2105.760009765625,-400000.0625,-1665.8299560546875,-400000.0625,6295.25,-400000.0625
190.44190382957458,-400000.0625,9268.330078125,2106.909912109375,-400000.0625,-1669.030029296875,-400000.0625,6298.58984375,-400000.0625
190.4419333934784,-400000.0625,9259.1796875,2101.52001953125,-400000.0625,-1657.719970703125,-400000.0625,6291.77001953125,-400000.0625
190.44196128845215,-400000.0625,9255.98046875,2097.1298828125,-400000.0625,-1655.199951171875,-400000.0625,6286.759765625,-400000.0625
190.44198870658875,-400000.0625,9260.7001953125,2101.139892578125,-400000.0625,-1659.3499755859375,-400000.0625,6287.6201171875,-400000.0625
190.44201612472534,-400000.0625,9264.849609375,2106.239990234375,-400000.0625,-1661.969970703125,-400000.0625,6293.25,-400000.0625
190.44204258918762,-400000.0625,9265.419921875,2106.6201171875,-400000.0625,-1649.949951171875,-400000.0625,6292.25,-400000.0625
190.44207000732422,-400000.0625,9256.5498046875,2097.93994140625,-400000.0625,-1646.81005859375,-400000.0625,6282.85009765625,-400000.0625
190.44209671020508,-400000.0625,9252.2197265625,2094.409912109375,-400000.0625,-1659.300048828125,-400000.0625,6280.60986328125,-400000.0625
190.44212412834167,-400000.0625,9258.4599609375,2099.179931640625,-400000.0625,-1669.449951171875,-400000.0625,6286.81005859375,-400000.0625
190.44215035438538,-400000.0625,9263.0400390625,2101.22998046875,-400000.0625,-1659.1600341796875,-400000.0625,6290.6298828125,-400000.0625
190.44217705726624,-400000.0625,9261.3203125,2103.090087890625,-400000.0625,-1652.2900390625,-400000.0625,6286.240234375,-400000.0625
190.44220614433289,-400000.0625,9254.1201171875,2099.3701171875,-400000.0625,-1664.6400146484375,-400000.0625,6280.89990234375,-400000.0625
190.44223475456238,-400000.0625,9251.740234375,2095.75,-400000.0625,-1672.4599609375,-400000.0625,6275.60986328125,-400000.0625
190.44226169586182,-400000.0625,9255.98046875,2097.22998046875,-400000.0625,-1669.68994140625,-400000.0625,6280.330078125,-400000.0625
190.44228887557983,-400000.0625,9259.6103515625,2103.22998046875,-400000.0625,-1672.219970703125,-400000.0625,6287.240234375,-400000.0625
190.4423155784607,-400000.0625,9259.0302734375,2102.949951171875,-400000.0625,-1659.3499755859375,-400000.0625,6287.3798828125,-400000.0625
190.4423451423645,-400000.0625,9251.5,2095.840087890625,-400000.0625,-1648.6199951171875,-400000.0625,6277.85009765625,-400000.0625
190.44237351417542,-400000.0625,9250.169921875,2091.60009765625,-400000.0625,-1650.3299560546875,-400000.0625,6277.89990234375,-400000.0625
190.44240283966064,-400000.0625,9252.6396484375,2095.1298828125,-400000.0625,-1657.199951171875,-400000.0625,6284.14013671875,-400000.0625
190.44242906570435,-400000.0625,9255.5498046875,2103.7099609375,-400000.0625,-1653.77001953125,-400000.0625,6287.14990234375,-400000.0625
190.44245386123657,-400000.0625,9259.83984375,2105.139892578125,-400000.0625,-1665.6400146484375,-400000.0625,6287.669921875,-400000.0625
190.44248270988464,-400000.0625,9249.6396484375,2092.97998046875,-400000.0625,-1690.199951171875,-400000.0625,6279.56005859375,-400000.0625
190.4425070285797,-400000.0625,9240.580078125,2090.97998046875,-400000.0625,-1680.800048828125,-400000.0625,6275.93994140625,-400000.0625
190.44253158569336,-400000.0625,9249.5,2097.75,-400000.0625,-1646.949951171875,-400000.0625,6278.7099609375,-400000.0625
190.4425563812256,-400000.0625,9254.740234375,2101.800048828125,-400000.0625,-1640.1300048828125,-400000.0625,6282.14013671875,-400000.0625
190.4425814151764,-400000.0625,9257.41015625,2102.469970703125,-400000.0625,-1645.0400390625,-400000.0625,6280.7998046875,-400000.0625
190.4426052570343,-400000.0625,9255.4599609375,2096.699951171875,-400000.0625,-1652.81005859375,-400000.0625,6275.080078125,-400000.0625
190.44263005256653,-400000.0625,9252.599609375,2095.030029296875,-400000.0625,-1659.6300048828125,-400000.0625,6273.4599609375,-400000.0625
190.4426543712616,-400000.0625,9258.080078125,2099.320068359375,-400000.0625,-1669.97998046875,-400000.0625,6276.75,-400000.0625
190.44267892837524,-400000.0625,9259.8896484375,2101.22998046875,-400000.0625,-1678.6600341796875,-400000.0625,6283.14013671875,-400000.0625
190.44270396232605,-400000.0625,9261.75,2102.419921875,-400000.0625,-1673.97998046875,-400000.0625,6282.14013671875,-400000.0625
190.4427306652069,-400000.0625,9255.83984375,2095.699951171875,-400000.0625,-1665.1199951171875,-400000.0625,6273.64990234375,-400000.0625
190.4427571296692,-400000.0625,9246.73046875,2092.889892578125,-400000.0625,-1663.969970703125,-400000.0625,6274.02978515625,-400000.0625
190.44278407096863,-400000.0625,9250.4501953125,2095.75,-400000.0625,-1648.280029296875,-400000.0625,6278.56005859375,-400000.0625
190.442809343338,-400000.0625,9259.0302734375,2101.949951171875,-400000.0625,-1647.81005859375,-400000.0625,6281.85009765625,-400000.0625
190.44283437728882,-400000.0625,9262.08984375,2102.570068359375,-400000.0625,-1661.8699951171875,-400000.0625,6284.56982421875,-400000.0625
190.44285917282104,-400000.0625,9256.650390625,2097.800048828125,-400000.0625,-1670.8900146484375,-400000.0625,6276.47021484375,-400000.0625
190.4428961277008,-400000.0625,9252.740234375,2093.699951171875,-400000.0625,-1671.0799560546875,-400000.0625,6270.5498046875,-400000.0625
190.4429235458374,-400000.0625,9255.3603515625,2097.889892578125,-400000.0625,-1672.27001953125,-400000.0625,6278.7099609375,-400000.0625
190.44294905662537,-400000.0625,9261.1796875,2105.669921875,-400000.0625,-1671.1199951171875,-400000.0625,6284.240234375,-400000.0625
190.4429759979248,-400000.0625,9264.3701171875,2105.570068359375,-400000.0625,-1665.6400146484375,-400000.0625,6284.18994140625,-400000.0625
190.44300079345703,-400000.0625,9256.41015625,2097.64990234375,-400000.0625,-1665.0699462890625,-400000.0625,6278.08984375,-400000.0625
190.4430251121521,-400000.0625,9249.1201171875,2093.60009765625,-400000.0625,-1664.5899658203125,-400000.0625,6274.7001953125,-400000.0625
190.44304847717285,-400000.0625,9254.169921875,2099.469970703125,-400000.0625,-1655.199951171875,-400000.0625,6280.14013671875,-400000.0625
190.44307470321655,-400000.0625,9260.7998046875,2106.239990234375,-400000.0625,-1656.010009765625,-400000.0625,6285.47998046875,-400000.0625
190.4430992603302,-400000.0625,9262.990234375,2107.330078125,-400000.0625,-1666.3599853515625,-400000.0625,6282.85009765625,-400000.0625
190.4431254863739,-400000.0625,9256.0302734375,2101.800048828125,-400000.0625,-1676.8499755859375,-400000.0625,6276.7998046875,-400000.0625
190.44315028190613,-400000.0625,9254.5498046875,2099.179931640625,-400000.0625,-1672.93994140625,-400000.0625,6274.02978515625,-400000.0625
190.44317436218262,-400000.0625,9261.6103515625,2105.52001953125,-400000.0625,-1673.0799560546875,-400000.0625,6280.08984375,-400000.0625
190.4431984424591,-400000.0625,9263.5595703125,2109.47998046875,-400000.0625,-1674.4100341796875,-400000.0625,6284.669921875,-400000.0625
190.44322443008423,-400000.0625,9262.7099609375,2110.2900390625,-400000.0625,-1660.6300048828125,-400000.0625,6285.72021484375,-400000.0625
190.44324946403503,-400000.0625,9255.98046875,2104.6201171875,-400000.0625,-1660.6300048828125,-400000.0625,6279.419921875,-400000.0625
190.44327449798584,-400000.0625,9251.7900390625,2097.889892578125,-400000.0625,-1663.489990234375,-400000.0625,6272.75,-400000.0625
190.44329929351807,-400000.0625,9258.4599609375,2099.800048828125,-400000.0625,-1658.9200439453125,-400000.0625,6276.47021484375,-400000.0625
190.44332337379456,-400000.0625,9263.900390625,2107.18994140625,-400000.0625,-1656.199951171875,-400000.0625,6281.759765625,-400000.0625
190.44334959983826,-400000.0625,9261.6103515625,2109.909912109375,-400000.0625,-1657.77001953125,-400000.0625,6285.2900390625,-400000.0625
190.44337439537048,-400000.0625,9259.7998046875,2103.280029296875,-400000.0625,-1667.3599853515625,-400000.0625,6279.47021484375,-400000.0625
190.44339728355408,-400000.0625,9253.2197265625,2096.320068359375,-400000.0625,-1675.510009765625,-400000.0625,6271.89013671875,-400000.0625
190.47616147994995,-400000.0625,9200.7197265625,2017.1199951171875,-400000.0625,-1692.43994140625,-400000.0625,6227.490234375,-400000.0625
190.52353191375732,-400000.0625,9356.01953125,1979.780029296875,-400000.0625,-1711.0799560546875,-400000.0625,6351.0400390625,-400000.0625
190.56645250320435,-400000.0625,9350.349609375,1977.3499755859375,-400000.0625,-1722.719970703125,-400000.0625,6355.240234375,-400000.0625
190.63069105148315,-400000.0625,9348.6298828125,1977.8299560546875,-400000.0625,-1719.6199951171875,-400000.0625,6345.31982421875,-400000.0625
190.69459462165833,-400000.0625,9339.330078125,1977.72998046875,-400000.0625,-1713.1300048828125,-400000.0625,6344.7998046875,-400000.0625
190.77510380744934,-400000.0625,9332.1298828125,1973.010009765625,-400000.0625,-1752.760009765625,-400000.0625,6327.919921875,-400000.0625
191.0224711894989,-400000.0625,9307.1904296875,1958.8900146484375,-400000.0625,-1747.27001953125,-400000.0625,6310.4599609375,-400000.0625
191.125244140625,-400000.0625,9292.650390625,1950.030029296875,-400000.0625,-1730.6800537109375,-400000.0625,6301.93017578125,-400000.0625
191.2053689956665,-400000.0625,9288.9296875,1953.699951171875,-400000.0625,-1723.3399658203125,-400000.0625,6311.509765625,-400000.0625
191.2669837474823,-400000.0625,9287.01953125,1951.27001953125,-400000.0625,-1742.739990234375,-400000.0625,6310.93994140625,-400000.0625
191.33850383758545,-400000.0625,9277.33984375,1951.6500244140625,-400000.0625,-1729.3499755859375,-400000.0625,6302.93017578125,-400000.0625
191.50009489059448,-400000.0625,9263.5595703125,1938.25,-400000.0625,-1748.6099853515625,-400000.0625,6286.91015625,-400000.0625
191.52911114692688,-400000.0625,9222.650390625,1893.9000244140625,-400000.0625,-1740.3599853515625,-400000.0625,6327.10986328125,-400000.0625
191.60569167137146,-400000.0625,9218.599609375,1886.989990234375,-400000.0625,-1767.1099853515625,-400000.0625,6324.6298828125,-400000.0625
191.72468662261963,-400000.0625,9213.16015625,1893.8499755859375,-400000.0625,-1747.1800537109375,-400000.0625,6319.669921875,-400000.0625
191.78792715072632,-400000.0625,9227.66015625,1911.31005859375,-400000.0625,-1735.9300537109375,-400000.0625,6290.580078125,-400000.0625
191.871160030365,-400000.0625,9222.7001953125,1914.7900390625,-400000.0625,-1736.260009765625,-400000.0625,6259.43994140625,-400000.0625
191.97721076011658,-400000.0625,9219.83984375,1919.56005859375,-400000.0625,-1742.97998046875,-400000.0625,6258.2001953125,-400000.0625
192.03576803207397,-400000.0625,9219.3095703125,1919.4100341796875,-400000.0625,-1749.6099853515625,-400000.0625,6243.0400390625,-400000.0625
192.18743085861206,-400000.0625,9206.33984375,1904.5799560546875,-400000.0625,-1739.550048828125,-400000.0625,6233.68994140625,-400000.0625
192.24946880340576,-400000.0625,9208.16015625,1901.77001953125,-400000.0625,-1737.9300537109375,-400000.0625,6232.93017578125,-400000.0625
192.35878539085388,-400000.0625,9196.5703125,1898.18994140625,-400000.0625,-1784.0400390625,-400000.0625,6221.72021484375,-400000.0625
192.42591619491577,-400000.0625,9184.3603515625,1891.1800537109375,-400000.0625,-1763.06005859375,-400000.0625,6214.81005859375,-400000.0625
192.4885437488556,-400000.0625,9183.7900390625,1889.0400390625,-400000.0625,-1764.25,-400000.0625,6213.0,-400000.0625
192.57704424858093,-400000.0625,9188.26953125,1894.0,-400000.0625,-1755.760009765625,-400000.0625,6208.7099609375,-400000.0625
192.65754461288452,-400000.0625,9166.8603515625,1881.1700439453125,-400000.0625,-1751.800048828125,-400000.0625,6208.22998046875,-400000.0625
192.74450039863586,-400000.0625,9157.3203125,1872.8699951171875,-400000.0625,-1767.8299560546875,-400000.0625,6200.7001953125,-400000.0625
192.87498903274536,-400000.0625,9163.51953125,1878.8299560546875,-400000.0625,-1787.3800048828125,-400000.0625,6205.4599609375,-400000.0625
192.97960591316223,-400000.0625,9156.849609375,1880.7900390625,-400000.0625,-1775.1199951171875,-400000.0625,6198.93017578125,-400000.0625
193.00918340682983,-400000.0625,9145.400390625,1871.8699951171875,-400000.0625,-1772.8299560546875,-400000.0625,6190.25,-400000.0625
193.02115774154663,-400000.0625,9139.58984375,1866.3900146484375,-400000.0625,-1776.550048828125,-400000.0625,6189.39013671875,-400000.0625
193.03497672080994,-400000.0625,9142.830078125,1870.43994140625,-400000.0625,-1779.030029296875,-400000.0625,6192.58984375,-400000.0625
193.04624104499817,-400000.0625,9152.3203125,1874.6400146484375,-400000.0625,-1777.219970703125,-400000.0625,6195.93017578125,-400000.0625
193.0562288761139,-400000.0625,9151.98046875,1873.300048828125,-400000.0625,-1790.18994140625,-400000.0625,6190.77978515625,-400000.0625
193.06781268119812,-400000.0625,9142.6396484375,1867.719970703125,-400000.0625,-1769.449951171875,-400000.0625,6182.47998046875,-400000.0625
193.08405351638794,-400000.0625,9145.2099609375,1869.010009765625,-400000.0625,-1765.3900146484375,-400000.0625,6185.25,-400000.0625
193.10691595077515,-400000.0625,9145.740234375,1870.489990234375,-400000.0625,-1775.1199951171875,-400000.0625,6186.919921875,-400000.0625
193.1184117794037,-400000.0625,9151.83984375,1876.260009765625,-400000.0625,-1766.06005859375,-400000.0625,6189.8701171875,-400000.0625
193.1304063796997,-400000.0625,9152.1298828125,1874.8800048828125,-400000.0625,-1766.6300048828125,-400000.0625,6191.39990234375,-400000.0625
193.14213490486145,-400000.0625,9142.6904296875,1867.43994140625,-400000.0625,-1766.780029296875,-400000.0625,6185.9599609375,-400000.0625
193.15190267562866,-400000.0625,9142.2998046875,1864.77001953125,-400000.0625,-1772.8299560546875,-400000.0625,6186.06005859375,-400000.0625
193.16671562194824,-400000.0625,9149.599609375,1869.72998046875,-400000.0625,-1788.3299560546875,-400000.0625,6192.8798828125,-400000.0625
193.17926812171936,-400000.0625,9150.7001953125,1873.5400390625,-400000.0625,-1784.3199462890625,-400000.0625,6194.97021484375,-400000.0625
193.1902837753296,-400000.0625,9149.1201171875,1874.5899658203125,-400000.0625,-1772.260009765625,-400000.0625,6196.1201171875,-400000.0625
193.21764659881592,-400000.0625,9139.6796875,1864.47998046875,-400000.0625,-1765.3900146484375,-400000.0625,6186.68017578125,-400000.0625
193.2312228679657,-400000.0625,9135.099609375,1860.1400146484375,-400000.0625,-1762.6800537109375,-400000.0625,6183.2900390625,-400000.0625
193.24863076210022,-400000.0625,9142.259765625,1866.47998046875,-400000.0625,-1761.010009765625,-400000.0625,6188.06005859375,-400000.0625
193.26610469818115,-400000.0625,9141.349609375,1870.5400390625,-400000.0625,-1766.6300048828125,-400000.0625,6190.2998046875,-400000.0625
193.27988815307617,-400000.0625,9140.8701171875,1870.780029296875,-400000.0625,-1774.97998046875,-400000.0625,6191.25,-400000.0625
193.29684948921204,-400000.0625,9140.6796875,1865.4300537109375,-400000.0625,-1790.47998046875,-400000.0625,6184.33984375,-400000.0625
193.33350682258606,-400000.0625,9140.7802734375,1863.6700439453125,-400000.0625,-1809.97998046875,-400000.0625,6180.6201171875,-400000.0625
193.3565273284912,-400000.0625,9141.259765625,1867.010009765625,-400000.0625,-1798.300048828125,-400000.0625,6188.35009765625,-400000.0625
193.372953414917,-400000.0625,9144.01953125,1868.06005859375,-400000.0625,-1766.6300048828125,-400000.0625,6190.35009765625,-400000.0625
193.39011669158936,-400000.0625,9141.6796875,1867.719970703125,-400000.0625,-1756.81005859375,-400000.0625,6185.33984375,-400000.0625
193.41284489631653,-400000.0625,9134.33984375,1861.1400146484375,-400000.0625,-1772.8299560546875,-400000.0625,6182.85986328125,-400000.0625
193.51959347724915,-400000.0625,8847.0,1745.8399658203125,-400000.0625,-1704.8800048828125,-400000.0625,6068.18017578125,-400000.0625
193.57973980903625,-400000.0625,8909.1796875,1782.0400390625,-400000.0625,-1697.2099609375,-400000.0625,6090.31005859375,-400000.0625
193.66259121894836,-400000.0625,9064.5302734375,1836.9200439453125,-400000.0625,-1750.800048828125,-400000.0625,6156.35009765625,-400000.0625
193.73014402389526,-400000.0625,9116.4599609375,1858.3800048828125,-400000.0625,-1769.8800048828125,-400000.0625,6172.1298828125,-400000.0625
193.76784110069275,-400000.0625,9128.7099609375,1867.719970703125,-400000.0625,-1760.2900390625,-400000.0625,6182.18994140625,-400000.0625
193.8310558795929,-400000.0625,9132.8203125,1873.5899658203125,-400000.0625,-1753.760009765625,-400000.0625,6185.580078125,-400000.0625
193.89430952072144,-400000.0625,9127.669921875,1869.3399658203125,-400000.0625,-1755.6199951171875,-400000.0625,6178.759765625,-400000.0625
193.95611786842346,-400000.0625,9136.8701171875,1875.780029296875,-400000.0625,-1766.25,-400000.0625,6163.5,-400000.0625
194.06338953971863,-400000.0625,9133.2001953125,1871.5899658203125,-400000.0625,-1771.969970703125,-400000.0625,6169.3701171875,-400000.0625
194.1627175807953,-400000.0625,9130.91015625,1875.68994140625,-400000.0625,-1751.3800048828125,-400000.0625,6179.759765625,-400000.0625
194.2170126438141,-400000.0625,9130.91015625,1874.1600341796875,-400000.0625,-1782.8499755859375,-400000.0625,6177.56982421875,-400000.0625
194.28849816322327,-400000.0625,9120.6103515625,1866.719970703125,-400000.0625,-1763.5799560546875,-400000.0625,6172.7998046875,-400000.0625
194.34563040733337,-400000.0625,9120.1298828125,1868.6800537109375,-400000.0625,-1764.5400390625,-400000.0625,6162.22021484375,-400000.0625
194.4714057445526,-400000.0625,9119.8896484375,1881.6500244140625,-400000.0625,-1751.0400390625,-400000.0625,6158.06982421875,-400000.0625
194.6071982383728,-400000.0625,9110.400390625,1873.72998046875,-400000.0625,-1739.030029296875,-400000.0625,6145.91015625,-400000.0625
194.66770195960999,-400000.0625,9117.26953125,1880.6500244140625,-400000.0625,-1743.8900146484375,-400000.0625,6148.77001953125,-400000.0625
194.72721552848816,-400000.0625,9117.41015625,1871.199951171875,-400000.0625,-1749.56005859375,-400000.0625,6167.1298828125,-400000.0625
194.8284091949463,-400000.0625,9127.51953125,1886.6500244140625,-400000.0625,-1740.550048828125,-400000.0625,6165.31005859375,-400000.0625
194.8557801246643,-400000.0625,9128.1396484375,1885.219970703125,-400000.0625,-1752.469970703125,-400000.0625,6168.31982421875,-400000.0625
194.91824078559875,-400000.0625,9118.75,1878.4000244140625,-400000.0625,-1753.3299560546875,-400000.0625,6154.97021484375,-400000.0625
194.98002409934998,-400000.0625,9108.830078125,1883.3199462890625,-400000.0625,-1740.3599853515625,-400000.0625,6134.75,-400000.0625
195.06485319137573,-400000.0625,9110.0703125,1897.3399658203125,-400000.0625,-1728.1500244140625,-400000.0625,6142.27978515625,-400000.0625
195.1535680294037,-400000.0625,9105.8701171875,1898.3399658203125,-400000.0625,-1744.1300048828125,-400000.0625,6142.43017578125,-400000.0625
195.2144958972931,-400000.0625,9107.6396484375,1900.3900146484375,-400000.0625,-1730.300048828125,-400000.0625,6140.66015625,-400000.0625
195.23883390426636,-400000.0625,9094.759765625,1888.469970703125,-400000.0625,-1735.969970703125,-400000.0625,6129.5498046875,-400000.0625
195.37417602539062,-400000.0625,9094.240234375,1892.6099853515625,-400000.0625,-1731.1600341796875,-400000.0625,6125.35986328125,-400000.0625
195.42965602874756,-400000.0625,9094.5703125,1892.52001953125,-400000.0625,-1716.9000244140625,-400000.0625,6134.56005859375,-400000.0625
195.44574308395386,-400000.0625,9100.150390625,1897.2900390625,-400000.0625,-1716.22998046875,-400000.0625,6136.0400390625,-400000.0625
195.46011900901794,-400000.0625,9094.8603515625,1895.0,-400000.0625,-1733.8800048828125,-400000.0625,6132.41015625,-400000.0625
195.47290754318237,-400000.0625,9089.330078125,1890.7099609375,-400000.0625,-1738.97998046875,-400000.0625,6130.509765625,-400000.0625
195.49988269805908,-400000.0625,9094.759765625,1894.81005859375,-400000.0625,-1731.5899658203125,-400000.0625,6133.83984375,-400000.0625
195.55195260047913,-400000.0625,9097.9599609375,1898.4300537109375,-400000.0625,-1725.3900146484375,-400000.0625,6137.419921875,-400000.0625
195.56729197502136,-400000.0625,9106.6796875,1904.06005859375,-400000.0625,-1717.8499755859375,-400000.0625,6140.9501953125,-400000.0625
195.58225870132446,-400000.0625,9101.3896484375,1898.8599853515625,-400000.0625,-1715.6600341796875,-400000.0625,6135.75,-400000.0625
195.60206174850464,-400000.0625,9088.7099609375,1892.469970703125,-400000.0625,-1714.8499755859375,-400000.0625,6129.31005859375,-400000.0625
195.6399643421173,-400000.0625,9088.330078125,1893.1400146484375,-400000.0625,-1716.800048828125,-400000.0625,6134.7001953125,-400000.0625
195.65460014343262,-400000.0625,9096.5302734375,1901.530029296875,-400000.0625,-1718.0899658203125,-400000.0625,6141.7099609375,-400000.0625
195.66744184494019,-400000.0625,9098.76953125,1903.489990234375,-400000.0625,-1716.760009765625,-400000.0625,6143.0,-400000.0625
195.68083715438843,-400000.0625,9088.9501953125,1896.3800048828125,-400000.0625,-1714.8499755859375,-400000.0625,6133.60009765625,-400000.0625
195.69804620742798,-400000.0625,9084.1298828125,1890.800048828125,-400000.0625,-1726.2900390625,-400000.0625,6129.97998046875,-400000.0625
195.715167760849,-400000.0625,9087.7998046875,1893.3299560546875,-400000.0625,-1725.9599609375,-400000.0625,6135.1298828125,-400000.0625
195.7436785697937,-400000.0625,9096.099609375,1900.5799560546875,-400000.0625,-1712.1800537109375,-400000.0625,6137.18017578125,-400000.0625
195.75525093078613,-400000.0625,9092.8095703125,1902.06005859375,-400000.0625,-1710.510009765625,-400000.0625,6136.89013671875,-400000.0625
195.77267003059387,-400000.0625,9087.900390625,1893.18994140625,-400000.0625,-1712.469970703125,-400000.0625,6128.1201171875,-400000.0625
195.78751015663147,-400000.0625,9087.51953125,1890.8499755859375,-400000.0625,-1721.8599853515625,-400000.0625,6124.68994140625,-400000.0625
195.80007934570312,-400000.0625,9086.2802734375,1894.6600341796875,-400000.0625,-1723.77001953125,-400000.0625,6128.83984375,-400000.0625
195.81914067268372,-400000.0625,9090.7099609375,1899.47998046875,-400000.0625,-1711.800048828125,-400000.0625,6132.3701171875,-400000.0625
195.84776329994202,-400000.0625,9094.91015625,1901.6300048828125,-400000.0625,-1709.56005859375,-400000.0625,6131.02978515625,-400000.0625
195.85881114006042,-400000.0625,9090.6201171875,1898.239990234375,-400000.0625,-1729.300048828125,-400000.0625,6125.93017578125,-400000.0625
195.87259340286255,-400000.0625,9082.4599609375,1892.1400146484375,-400000.0625,-1726.8699951171875,-400000.0625,6123.35009765625,-400000.0625
195.8881356716156,-400000.0625,9084.8896484375,1895.1400146484375,-400000.0625,-1713.0400390625,-400000.0625,6127.02001953125,-400000.0625
195.89955353736877,-400000.0625,9097.6201171875,1904.72998046875,-400000.0625,-1700.9300537109375,-400000.0625,6133.22021484375,-400000.0625
195.91189670562744,-400000.0625,9095.5703125,1902.9599609375,-400000.0625,-1707.3599853515625,-400000.0625,6134.990234375,-400000.0625
195.94079303741455,-400000.0625,9093.8603515625,1891.4200439453125,-400000.0625,-1708.56005859375,-400000.0625,6157.68994140625,-400000.0625
196.0065472126007,-400000.0625,9104.400390625,1898.9599609375,-400000.0625,-1714.1800537109375,-400000.0625,6158.06982421875,-400000.0625
196.0717694759369,-400000.0625,9116.2197265625,1912.739990234375,-400000.0625,-1706.510009765625,-400000.0625,6159.93017578125,-400000.0625
196.1342306137085,-400000.0625,9120.6103515625,1913.739990234375,-400000.0625,-1698.5400390625,-400000.0625,6163.02978515625,-400000.0625
196.23474264144897,-400000.0625,9114.599609375,1909.0699462890625,-400000.0625,-1700.1199951171875,-400000.0625,6156.16015625,-400000.0625
196.2953004837036,-400000.0625,9107.400390625,1906.3499755859375,-400000.0625,-1706.550048828125,-400000.0625,6151.06005859375,-400000.0625
196.32884335517883,-400000.0625,9103.349609375,1901.9100341796875,-400000.0625,-1701.8800048828125,-400000.0625,6140.81005859375,-400000.0625
196.42491173744202,-400000.0625,9106.0595703125,1900.6300048828125,-400000.0625,-1709.989990234375,-400000.0625,6156.16015625,-400000.0625
196.45664143562317,-400000.0625,9099.8701171875,1902.199951171875,-400000.0625,-1695.06005859375,-400000.0625,6144.3798828125,-400000.0625
196.51641368865967,-400000.0625,9099.8701171875,1900.3399658203125,-400000.0625,-1695.969970703125,-400000.0625,6137.7099609375,-400000.0625
196.64257955551147,-400000.0625,9088.419921875,1896.3299560546875,-400000.0625,-1698.5400390625,-400000.0625,6131.31982421875,-400000.0625
196.72235894203186,-400000.0625,9114.7001953125,1925.800048828125,-400000.0625,-1671.030029296875,-400000.0625,6135.66015625,-400000.0625
196.78279042243958,-400000.0625,9106.5400390625,1916.7900390625,-400000.0625,-1680.3299560546875,-400000.0625,6126.60009765625,-400000.0625
196.85087513923645,-400000.0625,9125.900390625,1938.9599609375,-400000.0625,-1663.2099609375,-400000.0625,6104.66015625,-400000.0625
197.02154064178467,-400000.0625,9116.26953125,1979.0699462890625,-400000.0625,-1662.1099853515625,-400000.0625,6034.08984375,-400000.0625
197.09375143051147,-400000.0625,9103.490234375,1910.4000244140625,-400000.0625,-1684.52001953125,-400000.0625,6121.2998046875,-400000.0625
197.15756154060364,-400000.0625,9113.3603515625,1920.989990234375,-400000.0625,-1686.1400146484375,-400000.0625,6131.22021484375,-400000.0625
197.22093152999878,-400000.0625,9116.7001953125,1918.4100341796875,-400000.0625,-1700.3499755859375,-400000.0625,6130.97998046875,-400000.0625
197.37133026123047,-400000.0625,9127.669921875,1930.760009765625,-400000.0625,-1690.6300048828125,-400000.0625,6145.759765625,-400000.0625
197.41220092773438,-400000.0625,9113.1201171875,1922.0400390625,-400000.0625,-1692.010009765625,-400000.0625,6130.35986328125,-400000.0625
197.48259139060974,-400000.0625,9100.0595703125,1920.8900146484375,-400000.0625,-1681.0400390625,-400000.0625,6124.2099609375,-400000.0625
197.53984022140503,-400000.0625,9088.990234375,1908.5899658203125,-400000.0625,-1683.81005859375,-400000.0625,6118.39013671875,-400000.0625
197.60728454589844,-400000.0625,9088.849609375,1909.1099853515625,-400000.0625,-1709.0799560546875,-400000.0625,6121.830078125,-400000.0625
197.67111897468567,-400000.0625,9098.2001953125,1916.219970703125,-400000.0625,-1690.199951171875,-400000.0625,6130.93017578125,-400000.0625
197.7723069190979,-400000.0625,9107.73046875,1917.550048828125,-400000.0625,-1692.8699951171875,-400000.0625,6124.64013671875,-400000.0625
197.79920315742493,-400000.0625,9102.8203125,1912.550048828125,-400000.0625,-1697.300048828125,-400000.0625,6121.64013671875,-400000.0625
197.86697721481323,-400000.0625,9093.330078125,1899.4300537109375,-400000.0625,-1683.18994140625,-400000.0625,6108.56982421875,-400000.0625
197.92851495742798,-400000.0625,9102.009765625,1910.4000244140625,-400000.0625,-1693.489990234375,-400000.0625,6112.9599609375,-400000.0625
197.96134305000305,-400000.0625,9102.490234375,1914.4100341796875,-400000.0625,-1664.1099853515625,-400000.0625,6115.009765625,-400000.0625
197.97606348991394,-400000.0625,9111.5498046875,1922.27001953125,-400000.0625,-1664.260009765625,-400000.0625,6120.8701171875,-400000.0625
197.9886224269867,-400000.0625,9103.8203125,1913.5999755859375,-400000.0625,-1674.030029296875,-400000.0625,6115.9599609375,-400000.0625
198.0015618801117,-400000.0625,9095.5302734375,1906.9200439453125,-400000.0625,-1679.0899658203125,-400000.0625,6109.18994140625,-400000.0625
198.01751136779785,-400000.0625,9101.2998046875,1910.3499755859375,-400000.0625,-1681.0400390625,-400000.0625,6112.0,-400000.0625
198.03215980529785,-400000.0625,9100.33984375,1910.260009765625,-400000.0625,-1691.9599609375,-400000.0625,6113.2900390625,-400000.0625
198.06337571144104,-400000.0625,9099.3896484375,1909.300048828125,-400000.0625,-1690.47998046875,-400000.0625,6117.6298828125,-400000.0625
198.08035278320312,-400000.0625,9099.8203125,1906.199951171875,-400000.0625,-1696.9200439453125,-400000.0625,6113.10009765625,-400000.0625
198.09400820732117,-400000.0625,9094.5703125,1902.3900146484375,-400000.0625,-1686.2900390625,-400000.0625,6107.3798828125,-400000.0625
198.10649275779724,-400000.0625,9096.0498046875,1905.5400390625,-400000.0625,-1669.68994140625,-400000.0625,6109.3798828125,-400000.0625
198.12338757514954,-400000.0625,9100.9599609375,1913.9300537109375,-400000.0625,-1660.8699951171875,-400000.0625,6114.2001953125,-400000.0625
198.1372528076172,-400000.0625,9102.0595703125,1916.7900390625,-400000.0625,-1658.06005859375,-400000.0625,6119.39990234375,-400000.0625
198.1668722629547,-400000.0625,9102.8203125,1914.7900390625,-400000.0625,-1664.02001953125,-400000.0625,6112.85986328125,-400000.0625
198.17952752113342,-400000.0625,9098.240234375,1907.8299560546875,-400000.0625,-1688.6700439453125,-400000.0625,6106.7099609375,-400000.0625
198.19434571266174,-400000.0625,9094.669921875,1907.8699951171875,-400000.0625,-1710.510009765625,-400000.0625,6107.85986328125,-400000.0625
198.20610570907593,-400000.0625,9096.099609375,1908.449951171875,-400000.0625,-1696.969970703125,-400000.0625,6110.0,-400000.0625
198.220153093338,-400000.0625,9101.76953125,1910.260009765625,-400000.0625,-1660.780029296875,-400000.0625,6111.33984375,-400000.0625
198.2379024028778,-400000.0625,9091.3798828125,1902.8699951171875,-400000.0625,-1660.1099853515625,-400000.0625,6107.3798828125,-400000.0625
198.26755499839783,-400000.0625,9083.419921875,1897.530029296875,-400000.0625,-1667.0699462890625,-400000.0625,6102.419921875,-400000.0625
198.2831676006317,-400000.0625,9085.26953125,1898.719970703125,-400000.0625,-1668.550048828125,-400000.0625,6106.330078125,-400000.0625
198.2954807281494,-400000.0625,9091.4697265625,1905.72998046875,-400000.0625,-1667.449951171875,-400000.0625,6111.2900390625,-400000.0625
198.31071758270264,-400000.0625,9098.240234375,1911.2099609375,-400000.0625,-1677.3199462890625,-400000.0625,6112.0,-400000.0625
198.3259780406952,-400000.0625,9100.009765625,1909.489990234375,-400000.0625,-1700.8800048828125,-400000.0625,6110.85986328125,-400000.0625
198.33856534957886,-400000.0625,9095.76953125,1905.969970703125,-400000.0625,-1704.030029296875,-400000.0625,6107.27978515625,-400000.0625
198.3672230243683,-400000.0625,9089.0400390625,1902.5799560546875,-400000.0625,-1692.25,-400000.0625,6102.93994140625,-400000.0625
198.384783744812,-400000.0625,9091.240234375,1902.9599609375,-400000.0625,-1665.5,-400000.0625,6105.56982421875,-400000.0625
198.4033887386322,-400000.0625,9094.7197265625,1906.8699951171875,-400000.0625,-1643.75,-400000.0625,6109.56982421875,-400000.0625
198.42191576957703,-400000.0625,9093.1904296875,1906.780029296875,-400000.0625,-1656.8699951171875,-400000.0625,6109.3798828125,-400000.0625
198.47996759414673,-400000.0625,8824.58984375,1776.219970703125,-400000.0625,-1622.530029296875,-400000.0625,6031.47021484375,-400000.0625
198.56391167640686,-400000.0625,9076.5498046875,1878.9300537109375,-400000.0625,-1689.6199951171875,-400000.0625,6131.97998046875,-400000.0625
198.62888598442078,-400000.0625,9089.6103515625,1878.449951171875,-400000.0625,-1681.22998046875,-400000.0625,6136.56005859375,-400000.0625
198.70750737190247,-400000.0625,9106.73046875,1892.0400390625,-400000.0625,-1680.4200439453125,-400000.0625,6139.56982421875,-400000.0625
198.7640895843506,-400000.0625,9112.8798828125,1894.1400146484375,-400000.0625,-1678.3199462890625,-400000.0625,6135.27001953125,-400000.0625
198.84771156311035,-400000.0625,9106.6796875,1884.7900390625,-400000.0625,-1682.1400146484375,-400000.0625,6119.77978515625,-400000.0625
198.88616967201233,-400000.0625,9108.400390625,1887.93994140625,-400000.0625,-1685.949951171875,-400000.0625,6123.16015625,-400000.0625
199.013436794281,-400000.0625,9120.0400390625,1897.81005859375,-400000.0625,-1697.4000244140625,-400000.0625,6123.68994140625,-400000.0625
199.07722663879395,-400000.0625,9125.1396484375,1899.2900390625,-400000.0625,-1669.97998046875,-400000.0625,6120.25,-400000.0625
199.17747592926025,-400000.0625,9112.2197265625,1889.75,-400000.0625,-1712.27001953125,-400000.0625,6115.6298828125,-400000.0625
199.23077368736267,-400000.0625,9122.330078125,1905.8199462890625,-400000.0625,-1694.8699951171875,-400000.0625,6118.2001953125,-400000.0625
199.33993315696716,-400000.0625,9112.259765625,1900.010009765625,-400000.0625,-1666.02001953125,-400000.0625,6113.2900390625,-400000.0625
199.4078598022461,-400000.0625,9119.26953125,1898.9100341796875,-400000.0625,-1705.68994140625,-400000.0625,6123.919921875,-400000.0625
199.4671847820282,-400000.0625,9102.1103515625,1893.6600341796875,-400000.0625,-1701.97998046875,-400000.0625,6113.2900390625,-400000.0625
199.5776710510254,-400000.0625,9103.25,1897.0,-400000.0625,-1687.5699462890625,-400000.0625,6113.77001953125,-400000.0625
199.6222448348999,-400000.0625,9106.01953125,1902.9599609375,-400000.0625,-1694.3499755859375,-400000.0625,6121.2998046875,-400000.0625
199.65660452842712,-400000.0625,9095.5703125,1899.1500244140625,-400000.0625,-1702.8299560546875,-400000.0625,6109.3798828125,-400000.0625
199.71591067314148,-400000.0625,9101.9599609375,1907.780029296875,-400000.0625,-1702.4000244140625,-400000.0625,6112.18994140625,-400000.0625
199.8555223941803,-400000.0625,9087.990234375,1898.4300537109375,-400000.0625,-1703.8800048828125,-400000.0625,6111.18994140625,-400000.0625
199.93197917938232,-400000.0625,9094.3798828125,1905.5799560546875,-400000.0625,-1687.9599609375,-400000.0625,6112.77001953125,-400000.0625
199.97467732429504,-400000.0625,9095.5703125,1908.1099853515625,-400000.0625,-1687.47998046875,-400000.0625,6111.0498046875,-400000.0625
200.10952711105347,-400000.0625,9088.330078125,1902.719970703125,-400000.0625,-1704.6500244140625,-400000.0625,6100.60986328125,-400000.0625
200.16843605041504,-400000.0625,9090.08984375,1902.0999755859375,-400000.0625,-1705.030029296875,-400000.0625,6100.22998046875,-400000.0625
200.22911405563354,-400000.0625,9093.1904296875,1907.6300048828125,-400000.0625,-1721.719970703125,-400000.0625,6102.31982421875,-400000.0625
200.42340445518494,-400000.0625,9082.3701171875,1903.1500244140625,-400000.0625,-1729.3499755859375,-400000.0625,6089.97021484375,-400000.0625
200.48337483406067,-400000.0625,9074.830078125,1893.0899658203125,-400000.0625,-1720.7099609375,-400000.0625,6086.77978515625,-400000.0625
200.49857759475708,-400000.0625,9080.3603515625,1896.760009765625,-400000.0625,-1726.25,-400000.0625,6092.1201171875,-400000.0625
200.51326727867126,-400000.0625,9086.08984375,1903.77001953125,-400000.0625,-1709.1300048828125,-400000.0625,6093.93017578125,-400000.0625
200.52567720413208,-400000.0625,9090.7099609375,1905.8699951171875,-400000.0625,-1711.4200439453125,-400000.0625,6095.7900390625,-400000.0625
200.55089926719666,-400000.0625,9082.2197265625,1899.8599853515625,-400000.0625,-1715.8499755859375,-400000.0625,6091.5498046875,-400000.0625
200.57249474525452,-400000.0625,9076.4501953125,1894.6600341796875,-400000.0625,-1708.93994140625,-400000.0625,6089.35009765625,-400000.0625
200.58983755111694,-400000.0625,9077.4501953125,1897.8599853515625,-400000.0625,-1704.739990234375,-400000.0625,6093.31005859375,-400000.0625
200.61081218719482,-400000.0625,9086.23046875,1905.5799560546875,-400000.0625,-1700.969970703125,-400000.0625,6093.68994140625,-400000.0625
200.62215638160706,-400000.0625,9085.3701171875,1904.199951171875,-400000.0625,-1705.3599853515625,-400000.0625,6093.169921875,-400000.0625
200.6341667175293,-400000.0625,9080.8896484375,1898.3399658203125,-400000.0625,-1723.9100341796875,-400000.0625,6087.16015625,-400000.0625
200.65997505187988,-400000.0625,9079.509765625,1895.0899658203125,-400000.0625,-1725.530029296875,-400000.0625,6087.8798828125,-400000.0625
200.67416310310364,-400000.0625,9079.8896484375,1898.6700439453125,-400000.0625,-1723.719970703125,-400000.0625,6093.22021484375,-400000.0625
200.69053602218628,-400000.0625,9086.419921875,1905.5799560546875,-400000.0625,-1709.75,-400000.0625,6101.85009765625,-400000.0625
200.7083740234375,-400000.0625,9082.4599609375,1904.6300048828125,-400000.0625,-1712.3699951171875,-400000.0625,6103.47021484375,-400000.0625
200.7226595878601,-400000.0625,9075.3095703125,1898.050048828125,-400000.0625,-1728.9599609375,-400000.0625,6100.31982421875,-400000.0625
200.73648953437805,-400000.0625,9074.98046875,1894.5699462890625,-400000.0625,-1726.6800537109375,-400000.0625,6093.22021484375,-400000.0625
200.76790571212769,-400000.0625,9076.41015625,1897.0,-400000.0625,-1702.3599853515625,-400000.0625,6090.16015625,-400000.0625
200.78322792053223,-400000.0625,9077.1201171875,1900.47998046875,-400000.0625,-1698.72998046875,-400000.0625,6095.740234375,-400000.0625
200.80007696151733,-400000.0625,9080.599609375,1901.199951171875,-400000.0625,-1711.1300048828125,-400000.0625,6094.169921875,-400000.0625
200.81594061851501,-400000.0625,9073.58984375,1892.280029296875,-400000.0625,-1721.3299560546875,-400000.0625,6089.16015625,-400000.0625
200.83047080039978,-400000.0625,9071.0703125,1890.989990234375,-400000.0625,-1722.9599609375,-400000.0625,6090.58984375,-400000.0625
200.84903168678284,-400000.0625,9076.7900390625,1895.7099609375,-400000.0625,-1729.43994140625,-400000.0625,6089.93017578125,-400000.0625
200.88656377792358,-400000.0625,9078.0703125,1897.9599609375,-400000.0625,-1709.699951171875,-400000.0625,6096.22021484375,-400000.0625
200.90146493911743,-400000.0625,9075.830078125,1897.0999755859375,-400000.0625,-1700.2099609375,-400000.0625,6092.93017578125,-400000.0625
200.916597366333,-400000.0625,9071.6396484375,1891.4200439453125,-400000.0625,-1716.3299560546875,-400000.0625,6086.64013671875,-400000.0625
200.9504747390747,-400000.0625,9083.5595703125,1900.47998046875,-400000.0625,-1715.949951171875,-400000.0625,6098.509765625,-400000.0625
201.03166389465332,-400000.0625,9087.3701171875,1907.969970703125,-400000.0625,-1716.4200439453125,-400000.0625,6100.22998046875,-400000.0625
201.07345342636108,-400000.0625,9089.849609375,1906.1600341796875,-400000.0625,-1731.3499755859375,-400000.0625,6088.64013671875,-400000.0625
201.12912940979004,-400000.0625,9082.1298828125,1898.719970703125,-400000.0625,-1724.0,-400000.0625,6079.8701171875,-400000.0625
201.2076439857483,-400000.0625,9082.2197265625,1904.77001953125,-400000.0625,-1716.760009765625,-400000.0625,6088.10986328125,-400000.0625
201.26090478897095,-400000.0625,9090.0,1911.3499755859375,-400000.0625,-1741.030029296875,-400000.0625,6089.39990234375,-400000.0625
201.3207311630249,-400000.0625,9088.7099609375,1912.5899658203125,-400000.0625,-1743.6500244140625,-400000.0625,6092.259765625,-400000.0625
201.41264295578003,-400000.0625,9087.6103515625,1910.449951171875,-400000.0625,-1706.219970703125,-400000.0625,6089.740234375,-400000.0625
201.4473397731781,-400000.0625,9085.849609375,1909.68994140625,-400000.0625,-1722.050048828125,-400000.0625,6091.02001953125,-400000.0625
201.57626032829285,-400000.0625,9084.26953125,1911.1600341796875,-400000.0625,-1745.219970703125,-400000.0625,6091.7900390625,-400000.0625
201.65387558937073,-400000.0625,9081.169921875,1913.8800048828125,-400000.0625,-1705.030029296875,-400000.0625,6086.5400390625,-400000.0625
201.71380591392517,-400000.0625,9078.599609375,1917.219970703125,-400000.0625,-1731.5899658203125,-400000.0625,6082.009765625,-400000.0625
201.79948210716248,-400000.0625,9074.98046875,1912.8299560546875,-400000.0625,-1692.719970703125,-400000.0625,6073.18994140625,-400000.0625
201.83755564689636,-400000.0625,9066.33984375,1905.8699951171875,-400000.0625,-1710.8399658203125,-400000.0625,6088.8798828125,-400000.0625
201.97242856025696,-400000.0625,9059.330078125,1907.969970703125,-400000.0625,-1720.949951171875,-400000.0625,6085.02001953125,-400000.0625
202.08529543876648,-400000.0625,9062.580078125,1907.9200439453125,-400000.0625,-1721.949951171875,-400000.0625,6092.22021484375,-400000.0625
202.1854977607727,-400000.0625,9072.1103515625,1915.6500244140625,-400000.0625,-1696.1600341796875,-400000.0625,6095.27001953125,-400000.0625
202.27636623382568,-400000.0625,9066.0595703125,1918.7900390625,-400000.0625,-1702.2099609375,-400000.0625,6096.02978515625,-400000.0625
202.35519742965698,-400000.0625,9058.2900390625,1910.8299560546875,-400000.0625,-1689.2900390625,-400000.0625,6083.25,-400000.0625
202.41135716438293,-400000.0625,9053.990234375,1910.68994140625,-400000.0625,-1699.3499755859375,-400000.0625,6077.81005859375,-400000.0625
202.5225920677185,-400000.0625,9062.150390625,1922.0799560546875,-400000.0625,-1702.739990234375,-400000.0625,6090.58984375,-400000.0625
202.60342454910278,-400000.0625,9053.6103515625,1928.22998046875,-400000.0625,-1692.9599609375,-400000.0625,6080.580078125,-400000.0625
202.8543906211853,-400000.0625,9048.3203125,1925.800048828125,-400000.0625,-1670.5999755859375,-400000.0625,6085.8701171875,-400000.0625
202.91107964515686,-400000.0625,9052.330078125,1930.47998046875,-400000.0625,-1668.68994140625,-400000.0625,6093.06982421875,-400000.0625
202.93327164649963,-400000.0625,9048.3203125,1930.050048828125,-400000.0625,-1696.43994140625,-400000.0625,6101.66015625,-400000.0625
202.95292949676514,-400000.0625,9040.7900390625,1923.93994140625,-400000.0625,-1705.4599609375,-400000.0625,6090.830078125,-400000.0625
202.97634387016296,-400000.0625,9041.3603515625,1921.800048828125,-400000.0625,-1695.3900146484375,-400000.0625,6081.919921875,-400000.0625
203.00931572914124,-400000.0625,9043.98046875,1924.510009765625,-400000.0625,-1692.9200439453125,-400000.0625,6088.68994140625,-400000.0625
203.0249924659729,-400000.0625,9051.6103515625,1931.949951171875,-400000.0625,-1685.2900390625,-400000.0625,6096.7001953125,-400000.0625
203.0400619506836,-400000.0625,9054.419921875,1937.010009765625,-400000.0625,-1678.469970703125,-400000.0625,6098.60009765625,-400000.0625
203.05597114562988,-400000.0625,9048.1796875,1932.239990234375,-400000.0625,-1679.3299560546875,-400000.0625,6091.5498046875,-400000.0625
203.07738971710205,-400000.0625,9045.26953125,1930.4300537109375,-400000.0625,-1682.5699462890625,-400000.0625,6091.02001953125,-400000.0625
203.11699271202087,-400000.0625,9051.23046875,1933.530029296875,-400000.0625,-1688.3399658203125,-400000.0625,6098.02978515625,-400000.0625
203.13882160186768,-400000.0625,9054.419921875,1939.06005859375,-400000.0625,-1690.719970703125,-400000.0625,6104.0400390625,-400000.0625
203.15936398506165,-400000.0625,9051.900390625,1939.1099853515625,-400000.0625,-1689.9599609375,-400000.0625,6101.89990234375,-400000.0625
203.17649245262146,-400000.0625,9047.5595703125,1931.2900390625,-400000.0625,-1689.050048828125,-400000.0625,6095.740234375,-400000.0625
203.19271683692932,-400000.0625,9038.9697265625,1925.469970703125,-400000.0625,-1693.5400390625,-400000.0625,6093.4599609375,-400000.0625
203.22508645057678,-400000.0625,9043.98046875,1932.18994140625,-400000.0625,-1681.949951171875,-400000.0625,6096.27001953125,-400000.0625
203.23934507369995,-400000.0625,9051.849609375,1939.72998046875,-400000.0625,-1688.9100341796875,-400000.0625,6101.56005859375,-400000.0625
203.25763702392578,-400000.0625,9053.66015625,1937.43994140625,-400000.0625,-1680.8499755859375,-400000.0625,6099.89013671875,-400000.0625
203.27134037017822,-400000.0625,9041.5,1927.280029296875,-400000.0625,-1681.52001953125,-400000.0625,6089.64013671875,-400000.0625
203.2847135066986,-400000.0625,9032.6796875,1921.3699951171875,-400000.0625,-1694.3900146484375,-400000.0625,6086.25,-400000.0625
203.30695414543152,-400000.0625,9040.740234375,1925.3699951171875,-400000.0625,-1687.5699462890625,-400000.0625,6093.169921875,-400000.0625
203.3335406780243,-400000.0625,9047.83984375,1933.719970703125,-400000.0625,-1685.0,-400000.0625,6098.7001953125,-400000.0625
203.34929275512695,-400000.0625,9050.1796875,1938.3900146484375,-400000.0625,-1689.8199462890625,-400000.0625,6100.66015625,-400000.0625
203.36218190193176,-400000.0625,9046.3203125,1932.18994140625,-400000.0625,-1696.489990234375,-400000.0625,6093.5498046875,-400000.0625
203.37662768363953,-400000.0625,9042.0703125,1928.949951171875,-400000.0625,-1691.43994140625,-400000.0625,6090.2099609375,-400000.0625
203.38965010643005,-400000.0625,9046.41015625,1933.050048828125,-400000.0625,-1689.2900390625,-400000.0625,6092.8798828125,-400000.0625
203.4081573486328,-400000.0625,9049.5595703125,1938.77001953125,-400000.0625,-1677.6099853515625,-400000.0625,6096.7900390625,-400000.0625
203.5843608379364,-400000.0625,9063.150390625,1952.5999755859375,-400000.0625,-1684.52001953125,-400000.0625,6162.60009765625,-400000.0625
203.68625807762146,-400000.0625,9059.91015625,1949.449951171875,-400000.0625,-1695.43994140625,-400000.0625,6163.740234375,-400000.0625
203.7583463191986,-400000.0625,9062.240234375,1950.0699462890625,-400000.0625,-1672.7900390625,-400000.0625,6163.259765625,-400000.0625
203.8134572505951,-400000.0625,9070.16015625,1959.22998046875,-400000.0625,-1667.260009765625,-400000.0625,6169.56005859375,-400000.0625
203.87858033180237,-400000.0625,9078.650390625,1968.239990234375,-400000.0625,-1667.6400146484375,-400000.0625,6173.3701171875,-400000.0625
203.98227167129517,-400000.0625,9053.66015625,1947.1600341796875,-400000.0625,-1699.4000244140625,-400000.0625,6164.89013671875,-400000.0625
204.07272005081177,-400000.0625,9052.7099609375,1947.739990234375,-400000.0625,-1687.8599853515625,-400000.0625,6173.75,-400000.0625
204.13987970352173,-400000.0625,9056.66015625,1952.550048828125,-400000.0625,-1679.75,-400000.0625,6177.240234375,-400000.0625
204.21469116210938,-400000.0625,9069.490234375,1962.22998046875,-400000.0625,-1681.3299560546875,-400000.0625,6182.43017578125,-400000.0625
204.2636296749115,-400000.0625,9047.75,1942.8299560546875,-400000.0625,-1682.7099609375,-400000.0625,6170.89013671875,-400000.0625
204.3621861934662,-400000.0625,9047.990234375,1942.72998046875,-400000.0625,-1700.6400146484375,-400000.0625,6178.47998046875,-400000.0625
204.4049186706543,-400000.0625,9052.900390625,1952.31005859375,-400000.0625,-1686.3800048828125,-400000.0625,6179.18994140625,-400000.0625
204.45630168914795,-400000.0625,9052.900390625,1951.3599853515625,-400000.0625,-1676.8499755859375,-400000.0625,6187.490234375,-400000.0625
204.5192220211029,-400000.0625,9057.8095703125,1958.22998046875,-400000.0625,-1685.52001953125,-400000.0625,6194.02001953125,-400000.0625
204.5795774459839,-400000.0625,9050.509765625,1948.7900390625,-400000.0625,-1700.3499755859375,-400000.0625,6191.10986328125,-400000.0625
204.68759155273438,-400000.0625,9044.7001953125,1944.0699462890625,-400000.0625,-1681.1800537109375,-400000.0625,6189.77978515625,-400000.0625
204.77158188819885,-400000.0625,9053.900390625,1953.8900146484375,-400000.0625,-1685.0999755859375,-400000.0625,6191.97021484375,-400000.0625
204.84124302864075,-400000.0625,9057.0,1956.0799560546875,-400000.0625,-1691.77001953125,-400000.0625,6188.8701171875,-400000.0625
204.90426898002625,-400000.0625,9046.41015625,1944.0699462890625,-400000.0625,-1694.8699951171875,-400000.0625,6181.3798828125,-400000.0625
204.9657711982727,-400000.0625,9049.9404296875,1945.68994140625,-400000.0625,-1705.030029296875,-400000.0625,6183.14990234375,-400000.0625
205.09460401535034,-400000.0625,9043.41015625,1943.780029296875,-400000.0625,-1676.0799560546875,-400000.0625,6181.240234375,-400000.0625
205.15758204460144,-400000.0625,9052.9501953125,1953.3199462890625,-400000.0625,-1668.0699462890625,-400000.0625,6190.490234375,-400000.0625
205.22154259681702,-400000.0625,9045.0302734375,1946.02001953125,-400000.0625,-1669.449951171875,-400000.0625,6184.580078125,-400000.0625
205.35985803604126,-400000.0625,9044.3603515625,1940.300048828125,-400000.0625,-1679.800048828125,-400000.0625,6185.9599609375,-400000.0625
205.4670066833496,-400000.0625,9043.2197265625,1946.780029296875,-400000.0625,-1662.8699951171875,-400000.0625,6189.72998046875,-400000.0625
205.49237060546875,-400000.0625,9049.3701171875,1952.739990234375,-400000.0625,-1670.4599609375,-400000.0625,6194.77978515625,-400000.0625
205.51150345802307,-400000.0625,9051.9404296875,1951.8900146484375,-400000.0625,-1691.8199462890625,-400000.0625,6194.93017578125,-400000.0625
205.5312705039978,-400000.0625,9044.3603515625,1943.969970703125,-400000.0625,-1700.02001953125,-400000.0625,6186.68017578125,-400000.0625
205.54620099067688,-400000.0625,9043.650390625,1942.300048828125,-400000.0625,-1669.7900390625,-400000.0625,6185.25,-400000.0625
205.5626142024994,-400000.0625,9048.650390625,1947.780029296875,-400000.0625,-1653.3399658203125,-400000.0625,6192.16015625,-400000.0625
205.5760235786438,-400000.0625,9057.7099609375,1955.93994140625,-400000.0625,-1662.25,-400000.0625,6196.31005859375,-400000.0625
205.6146719455719,-400000.0625,9056.6201171875,1952.9300537109375,-400000.0625,-1661.8699951171875,-400000.0625,6189.77978515625,-400000.0625
205.64176034927368,-400000.0625,9054.7998046875,1945.68994140625,-400000.0625,-1668.260009765625,-400000.0625,6181.56982421875,-400000.0625
205.66556525230408,-400000.0625,9050.66015625,1946.1199951171875,-400000.0625,-1680.280029296875,-400000.0625,6185.68017578125,-400000.0625
205.68255472183228,-400000.0625,9055.66015625,1954.699951171875,-400000.0625,-1680.9000244140625,-400000.0625,6192.06982421875,-400000.0625
205.71498131752014,-400000.0625,9063.150390625,1960.22998046875,-400000.0625,-1672.510009765625,-400000.0625,6197.740234375,-400000.0625
205.73219752311707,-400000.0625,9059.6201171875,1955.4599609375,-400000.0625,-1681.6600341796875,-400000.0625,6194.93017578125,-400000.0625
205.74910354614258,-400000.0625,9051.9404296875,1946.4000244140625,-400000.0625,-1683.6199951171875,-400000.0625,6186.77001953125,-400000.0625
205.76632142066956,-400000.0625,9052.08984375,1948.02001953125,-400000.0625,-1669.8399658203125,-400000.0625,6187.72998046875,-400000.0625
205.78270769119263,-400000.0625,9059.3798828125,1953.75,-400000.0625,-1671.97998046875,-400000.0625,6194.2099609375,-400000.0625
205.8145592212677,-400000.0625,9066.6796875,1956.510009765625,-400000.0625,-1674.5999755859375,-400000.0625,6197.97998046875,-400000.0625
205.83070635795593,-400000.0625,9058.3798828125,1951.8900146484375,-400000.0625,-1670.9300537109375,-400000.0625,6192.490234375,-400000.0625
205.84398913383484,-400000.0625,9048.7001953125,1942.5400390625,-400000.0625,-1672.5999755859375,-400000.0625,6183.580078125,-400000.0625
205.86362051963806,-400000.0625,9053.990234375,1944.02001953125,-400000.0625,-1671.030029296875,-400000.0625,6182.580078125,-400000.0625
205.87813425064087,-400000.0625,9058.330078125,1949.02001953125,-400000.0625,-1680.3299560546875,-400000.0625,6188.580078125,-400000.0625
205.89063048362732,-400000.0625,9062.3896484375,1953.5999755859375,-400000.0625,-1695.489990234375,-400000.0625,6192.68017578125,-400000.0625
205.9277310371399,-400000.0625,9063.150390625,1948.1199951171875,-400000.0625,-1690.8199462890625,-400000.0625,6185.6298828125,-400000.0625
206.02728724479675,-400000.0625,9035.7802734375,1928.3800048828125,-400000.0625,-1693.010009765625,-400000.0625,6183.81982421875,-400000.0625
206.05644154548645,-400000.0625,9046.26953125,1934.2900390625,-400000.0625,-1673.510009765625,-400000.0625,6183.10009765625,-400000.0625
206.19167804718018,-400000.0625,9053.3701171875,1942.2099609375,-400000.0625,-1686.719970703125,-400000.0625,6179.43017578125,-400000.0625
206.2611391544342,-400000.0625,9049.3701171875,1935.9100341796875,-400000.0625,-1705.3599853515625,-400000.0625,6167.1298828125,-400000.0625
206.4550929069519,-400000.0625,9063.4404296875,1952.5999755859375,-400000.0625,-1692.1500244140625,-400000.0625,6183.0498046875,-400000.0625
206.54140210151672,-400000.0625,9065.2998046875,1952.3599853515625,-400000.0625,-1672.8399658203125,-400000.0625,6169.419921875,-400000.0625
206.58276915550232,-400000.0625,9063.3896484375,1946.0699462890625,-400000.0625,-1676.3699951171875,-400000.0625,6164.1201171875,-400000.0625
206.63093066215515,-400000.0625,9067.73046875,1947.8800048828125,-400000.0625,-1691.8699951171875,-400000.0625,6160.39990234375,-400000.0625
206.6937117576599,-400000.0625,9075.169921875,1953.7900390625,-400000.0625,-1687.9599609375,-400000.0625,6160.06982421875,-400000.0625
206.75729608535767,-400000.0625,9080.3203125,1961.949951171875,-400000.0625,-1671.97998046875,-400000.0625,6167.7900390625,-400000.0625
206.82096195220947,-400000.0625,9082.4599609375,1964.8599853515625,-400000.0625,-1660.06005859375,-400000.0625,6166.60009765625,-400000.0625
206.9320993423462,-400000.0625,9065.5302734375,1941.43994140625,-400000.0625,-1670.7900390625,-400000.0625,6145.0498046875,-400000.0625
207.01587319374084,-400000.0625,9075.0703125,1953.0799560546875,-400000.0625,-1691.43994140625,-400000.0625,6153.39013671875,-400000.0625
207.0766236782074,-400000.0625,9080.1201171875,1954.5999755859375,-400000.0625,-1674.93994140625,-400000.0625,6148.91015625,-400000.0625
207.15483808517456,-400000.0625,9063.91015625,1942.2099609375,-400000.0625,-1697.3499755859375,-400000.0625,6144.2900390625,-400000.0625
207.2126979827881,-400000.0625,9066.490234375,1946.969970703125,-400000.0625,-1690.8199462890625,-400000.0625,6143.0,-400000.0625
207.27991771697998,-400000.0625,9070.919921875,1949.68994140625,-400000.0625,-1677.3199462890625,-400000.0625,6142.14013671875,-400000.0625
207.40559434890747,-400000.0625,9087.51953125,1954.97998046875,-400000.0625,-1681.8499755859375,-400000.0625,6151.10009765625,-400000.0625
207.46288967132568,-400000.0625,9082.3701171875,1951.0699462890625,-400000.0625,-1684.239990234375,-400000.0625,6147.669921875,-400000.0625
207.52610659599304,-400000.0625,9085.4697265625,1948.0699462890625,-400000.0625,-1698.4000244140625,-400000.0625,6132.27001953125,-400000.0625
207.59016704559326,-400000.0625,9076.01953125,1945.02001953125,-400000.0625,-1683.0400390625,-400000.0625,6136.47021484375,-400000.0625
207.67068457603455,-400000.0625,9077.740234375,1946.3499755859375,-400000.0625,-1694.1099853515625,-400000.0625,6143.52001953125,-400000.0625
207.78084516525269,-400000.0625,9091.2802734375,1961.1400146484375,-400000.0625,-1679.6600341796875,-400000.0625,6136.509765625,-400000.0625
207.86169695854187,-400000.0625,9071.1103515625,1939.9200439453125,-400000.0625,-1694.72998046875,-400000.0625,6121.77978515625,-400000.0625
207.91968870162964,-400000.0625,9073.6396484375,1940.72998046875,-400000.0625,-1703.1199951171875,-400000.0625,6123.10986328125,-400000.0625
208.0401210784912,-400000.0625,9073.400390625,1944.68994140625,-400000.0625,-1710.93994140625,-400000.0625,6128.31005859375,-400000.0625
208.07249307632446,-400000.0625,9079.4599609375,1947.550048828125,-400000.0625,-1686.9100341796875,-400000.0625,6128.41015625,-400000.0625
208.0957260131836,-400000.0625,9075.6904296875,1948.449951171875,-400000.0625,-1678.989990234375,-400000.0625,6129.27001953125,-400000.0625
208.11724615097046,-400000.0625,9074.7802734375,1943.06005859375,-400000.0625,-1686.9100341796875,-400000.0625,6121.919921875,-400000.0625
208.13290810585022,-400000.0625,9072.5,1940.5400390625,-400000.0625,-1692.3900146484375,-400000.0625,6118.81982421875,-400000.0625
208.15202021598816,-400000.0625,9074.6396484375,1944.8800048828125,-400000.0625,-1683.5699462890625,-400000.0625,6123.259765625,-400000.0625
208.1891279220581,-400000.0625,9081.7900390625,1948.97998046875,-400000.0625,-1679.3299560546875,-400000.0625,6127.97998046875,-400000.0625
208.20864844322205,-400000.0625,9080.8896484375,1948.0699462890625,-400000.0625,-1693.43994140625,-400000.0625,6127.1201171875,-400000.0625
208.22584915161133,-400000.0625,9076.5498046875,1944.68994140625,-400000.0625,-1702.2099609375,-400000.0625,6118.43994140625,-400000.0625
208.2408058643341,-400000.0625,9070.919921875,1939.6800537109375,-400000.0625,-1701.6400146484375,-400000.0625,6115.77001953125,-400000.0625
208.25284147262573,-400000.0625,9073.8798828125,1941.969970703125,-400000.0625,-1694.8699951171875,-400000.0625,6118.919921875,-400000.0625
208.29610657691956,-400000.0625,9085.849609375,1951.1700439453125,-400000.0625,-1689.5799560546875,-400000.0625,6121.68017578125,-400000.0625
208.31711530685425,-400000.0625,9089.1396484375,1956.1800537109375,-400000.0625,-1687.8599853515625,-400000.0625,6126.35986328125,-400000.0625
208.3328857421875,-400000.0625,9079.83984375,1947.97998046875,-400000.0625,-1688.1500244140625,-400000.0625,6121.35009765625,-400000.0625
208.34860372543335,-400000.0625,9075.4501953125,1947.550048828125,-400000.0625,-1680.5699462890625,-400000.0625,6120.6298828125,-400000.0625
208.36355805397034,-400000.0625,9082.599609375,1952.8900146484375,-400000.0625,-1672.4100341796875,-400000.0625,6124.16015625,-400000.0625
208.39756679534912,-400000.0625,9088.66015625,1954.56005859375,-400000.0625,-1673.7900390625,-400000.0625,6128.64990234375,-400000.0625
208.4161901473999,-400000.0625,9088.08984375,1955.56005859375,-400000.0625,-1663.5899658203125,-400000.0625,6129.06982421875,-400000.0625
208.43219351768494,-400000.0625,9081.3203125,1950.219970703125,-400000.0625,-1674.27001953125,-400000.0625,6123.4501953125,-400000.0625
208.48975086212158,-400000.0625,9043.41015625,1915.5999755859375,-400000.0625,-1688.47998046875,-400000.0625,6121.4501953125,-400000.0625
208.5596399307251,-400000.0625,9057.0,1921.1300048828125,-400000.0625,-1701.97998046875,-400000.0625,6120.919921875,-400000.0625
208.67764329910278,-400000.0625,9076.4501953125,1936.25,-400000.0625,-1682.0400390625,-400000.0625,6122.259765625,-400000.0625
208.77709031105042,-400000.0625,9073.5400390625,1936.719970703125,-400000.0625,-1700.2099609375,-400000.0625,6122.97021484375,-400000.0625
208.81251978874207,-400000.0625,9064.76953125,1931.3299560546875,-400000.0625,-1692.43994140625,-400000.0625,6115.39013671875,-400000.0625
208.87217736244202,-400000.0625,9059.3798828125,1923.800048828125,-400000.0625,-1701.4000244140625,-400000.0625,6107.6201171875,-400000.0625
209.00773549079895,-400000.0625,9069.5400390625,1935.77001953125,-400000.0625,-1689.6199951171875,-400000.0625,6118.10986328125,-400000.0625
209.0698366165161,-400000.0625,9072.4501953125,1942.489990234375,-400000.0625,-1699.5,-400000.0625,6124.4501953125,-400000.0625
209.18898057937622,-400000.0625,9055.8095703125,1922.800048828125,-400000.0625,-1707.93994140625,-400000.0625,6098.3701171875,-400000.0625
209.25518250465393,-400000.0625,9060.240234375,1930.18994140625,-400000.0625,-1694.5400390625,-400000.0625,6106.08984375,-400000.0625
209.38318943977356,-400000.0625,9064.0595703125,1933.8599853515625,-400000.0625,-1690.0999755859375,-400000.0625,6111.10009765625,-400000.0625
209.49273586273193,-400000.0625,9053.1796875,1919.1700439453125,-400000.0625,-1694.3900146484375,-400000.0625,6099.7998046875,-400000.0625
209.5776505470276,-400000.0625,9055.8095703125,1923.6600341796875,-400000.0625,-1709.1800537109375,-400000.0625,6108.18994140625,-400000.0625
209.6548297405243,-400000.0625,9046.7001953125,1923.75,-400000.0625,-1725.239990234375,-400000.0625,6100.0400390625,-400000.0625
209.71171021461487,-400000.0625,9052.7099609375,1925.8499755859375,-400000.0625,-1694.77001953125,-400000.0625,6096.509765625,-400000.0625
209.76663184165955,-400000.0625,9042.5498046875,1919.0799560546875,-400000.0625,-1704.1700439453125,-400000.0625,6092.93017578125,-400000.0625
209.8981523513794,-400000.0625,9043.169921875,1923.0799560546875,-400000.0625,-1688.81005859375,-400000.0625,6093.60009765625,-400000.0625
209.97352361679077,-400000.0625,9046.4599609375,1926.3699951171875,-400000.0625,-1698.489990234375,-400000.0625,6091.60009765625,-400000.0625
210.03461074829102,-400000.0625,9047.7001953125,1926.1400146484375,-400000.0625,-1703.8800048828125,-400000.0625,6099.990234375,-400000.0625
210.08395528793335,-400000.0625,9043.8896484375,1922.800048828125,-400000.0625,-1685.8599853515625,-400000.0625,6092.02001953125,-400000.0625
210.16628527641296,-400000.0625,9029.8203125,1910.780029296875,-400000.0625,-1713.56005859375,-400000.0625,6085.06005859375,-400000.0625
210.23782110214233,-400000.0625,9029.91015625,1908.969970703125,-400000.0625,-1709.8900146484375,-400000.0625,6081.43994140625,-400000.0625
210.2832736968994,-400000.0625,9044.98046875,1928.0400390625,-400000.0625,-1710.1800537109375,-400000.0625,6103.419921875,-400000.0625
210.354065656662,-400000.0625,9049.4599609375,1933.0,-400000.0625,-1692.3900146484375,-400000.0625,6104.759765625,-400000.0625
210.41153049468994,-400000.0625,9042.740234375,1928.469970703125,-400000.0625,-1716.1800537109375,-400000.0625,6101.419921875,-400000.0625
210.51259803771973,-400000.0625,9032.16015625,1924.1300048828125,-400000.0625,-1708.7900390625,-400000.0625,6094.83984375,-400000.0625
210.5680434703827,-400000.0625,9032.8203125,1925.3299560546875,-400000.0625,-1716.6600341796875,-400000.0625,6094.97998046875,-400000.0625
210.59207558631897,-400000.0625,9037.400390625,1929.8599853515625,-400000.0625,-1713.469970703125,-400000.0625,6097.02978515625,-400000.0625
210.61816501617432,-400000.0625,9043.83984375,1935.0999755859375,-400000.0625,-1717.8499755859375,-400000.0625,6099.60986328125,-400000.0625
210.6759877204895,-400000.0625,9040.740234375,1930.3800048828125,-400000.0625,-1726.6800537109375,-400000.0625,6094.64990234375,-400000.0625
210.70429921150208,-400000.0625,9029.8203125,1923.8499755859375,-400000.0625,-1721.8599853515625,-400000.0625,6088.16015625,-400000.0625
210.73809838294983,-400000.0625,9033.9697265625,1928.0,-400000.0625,-1718.0400390625,-400000.0625,6092.31005859375,-400000.0625
210.80614280700684,-400000.0625,9036.73046875,1931.8599853515625,-400000.0625,-1716.0899658203125,-400000.0625,6093.7900390625,-400000.0625
210.83385372161865,-400000.0625,9039.01953125,1933.530029296875,-400000.0625,-1707.0799560546875,-400000.0625,6095.5498046875,-400000.0625
210.8567533493042,-400000.0625,9038.259765625,1931.3800048828125,-400000.0625,-1715.6099853515625,-400000.0625,6091.02001953125,-400000.0625
210.9093782901764,-400000.0625,9033.349609375,1924.6099853515625,-400000.0625,-1729.9200439453125,-400000.0625,6088.39990234375,-400000.0625
210.93332076072693,-400000.0625,9028.8603515625,1924.3199462890625,-400000.0625,-1720.2900390625,-400000.0625,6091.97998046875,-400000.0625
210.9890787601471,-400000.0625,8992.76953125,1907.06005859375,-400000.0625,-1693.77001953125,-400000.0625,6098.4599609375,-400000.0625
211.05711483955383,-400000.0625,9021.1904296875,1920.8900146484375,-400000.0625,-1694.010009765625,-400000.0625,6105.22998046875,-400000.0625
211.11306190490723,-400000.0625,9026.76953125,1918.1300048828125,-400000.0625,-1708.27001953125,-400000.0625,6092.740234375,-400000.0625
211.175621509552,-400000.0625,9041.41015625,1935.050048828125,-400000.0625,-1725.77001953125,-400000.0625,6099.64990234375,-400000.0625
211.26543807983398,-400000.0625,9027.8603515625,1922.27001953125,-400000.0625,-1718.3800048828125,-400000.0625,6091.39990234375,-400000.0625
211.33427238464355,-400000.0625,9042.5498046875,1936.3399658203125,-400000.0625,-1713.1800537109375,-400000.0625,6097.56005859375,-400000.0625
211.3643672466278,-400000.0625,9036.8798828125,1935.199951171875,-400000.0625,-1721.2900390625,-400000.0625,6095.1201171875,-400000.0625
211.43140196800232,-400000.0625,9036.4501953125,1938.43994140625,-400000.0625,-1721.1400146484375,-400000.0625,6087.77978515625,-400000.0625
211.51393914222717,-400000.0625,9033.3896484375,1936.9599609375,-400000.0625,-1688.9100341796875,-400000.0625,6082.9599609375,-400000.0625
211.56638503074646,-400000.0625,9034.58984375,1938.8199462890625,-400000.0625,-1694.1500244140625,-400000.0625,6083.580078125,-400000.0625
211.62685894966125,-400000.0625,9042.259765625,1946.6400146484375,-400000.0625,-1699.1600341796875,-400000.0625,6089.5,-400000.0625
211.7233362197876,-400000.0625,9039.5498046875,1942.06005859375,-400000.0625,-1714.280029296875,-400000.0625,6086.16015625,-400000.0625
211.83781599998474,-400000.0625,9030.3896484375,1934.5799560546875,-400000.0625,-1717.9000244140625,-400000.0625,6076.0,-400000.0625
211.88296461105347,-400000.0625,9038.0703125,1942.2099609375,-400000.0625,-1699.6400146484375,-400000.0625,6082.77001953125,-400000.0625
211.9611279964447,-400000.0625,9031.0595703125,1941.4000244140625,-400000.0625,-1696.3499755859375,-400000.0625,6082.580078125,-400000.0625
212.03231239318848,-400000.0625,9027.9599609375,1939.1099853515625,-400000.0625,-1711.3199462890625,-400000.0625,6074.91015625,-400000.0625
212.08273339271545,-400000.0625,9026.240234375,1934.0,-400000.0625,-1703.02001953125,-400000.0625,6070.9501953125,-400000.0625
212.13759899139404,-400000.0625,9024.48046875,1930.4300537109375,-400000.0625,-1694.1099853515625,-400000.0625,6070.18994140625,-400000.0625
212.21104097366333,-400000.0625,9027.91015625,1936.25,-400000.0625,-1694.9200439453125,-400000.0625,6075.3798828125,-400000.0625
212.26852416992188,-400000.0625,9036.0703125,1944.3499755859375,-400000.0625,-1684.6199951171875,-400000.0625,6075.81005859375,-400000.0625
212.3257772922516,-400000.0625,9024.2900390625,1934.5799560546875,-400000.0625,-1703.5999755859375,-400000.0625,6072.9501953125,-400000.0625
212.48492860794067,-400000.0625,9032.490234375,1939.6800537109375,-400000.0625,-1694.489990234375,-400000.0625,6070.9501953125,-400000.0625
212.5171868801117,-400000.0625,9031.8203125,1940.6300048828125,-400000.0625,-1701.02001953125,-400000.0625,6076.580078125,-400000.0625
212.66151571273804,-400000.0625,9034.4404296875,1943.4000244140625,-400000.0625,-1709.56005859375,-400000.0625,6072.52001953125,-400000.0625
212.72076439857483,-400000.0625,9025.0,1937.0999755859375,-400000.0625,-1701.739990234375,-400000.0625,6067.47021484375,-400000.0625
212.8152949810028,-400000.0625,9024.669921875,1932.8599853515625,-400000.0625,-1702.3599853515625,-400000.0625,6058.83984375,-400000.0625
212.90436601638794,-400000.0625,9025.0498046875,1929.0,-400000.0625,-1704.97998046875,-400000.0625,6062.64990234375,-400000.0625
212.9636459350586,-400000.0625,9022.6201171875,1928.0400390625,-400000.0625,-1702.5,-400000.0625,6073.85986328125,-400000.0625
213.00013780593872,-400000.0625,9018.849609375,1922.800048828125,-400000.0625,-1716.9000244140625,-400000.0625,6067.08984375,-400000.0625
213.0188946723938,-400000.0625,9016.900390625,1923.1800537109375,-400000.0625,-1699.6400146484375,-400000.0625,6065.75,-400000.0625
213.0393364429474,-400000.0625,9023.9501953125,1930.280029296875,-400000.0625,-1689.719970703125,-400000.0625,6071.0400390625,-400000.0625
213.06147456169128,-400000.0625,9029.150390625,1932.5699462890625,-400000.0625,-1688.5799560546875,-400000.0625,6075.72021484375,-400000.0625
213.08132410049438,-400000.0625,9023.8095703125,1928.0400390625,-400000.0625,-1686.050048828125,-400000.0625,6073.9501953125,-400000.0625
213.11674809455872,-400000.0625,9020.0,1922.0799560546875,-400000.0625,-1695.300048828125,-400000.0625,6067.89990234375,-400000.0625
213.1304314136505,-400000.0625,9019.5703125,1923.3699951171875,-400000.0625,-1703.1199951171875,-400000.0625,6070.330078125,-400000.0625
213.14315247535706,-400000.0625,9027.76953125,1930.280029296875,-400000.0625,-1695.6800537109375,-400000.0625,6074.85986328125,-400000.0625
213.15765571594238,-400000.0625,9031.6796875,1934.5799560546875,-400000.0625,-1695.3900146484375,-400000.0625,6075.18994140625,-400000.0625
213.17269158363342,-400000.0625,9026.669921875,1930.18994140625,-400000.0625,-1717.4200439453125,-400000.0625,6070.08984375,-400000.0625
213.18468379974365,-400000.0625,9021.1904296875,1921.93994140625,-400000.0625,-1711.93994140625,-400000.0625,6066.509765625,-400000.0625
213.21311450004578,-400000.0625,9018.1396484375,1919.3199462890625,-400000.0625,-1702.5899658203125,-400000.0625,6067.60986328125,-400000.0625
213.2381956577301,-400000.0625,9024.8095703125,1927.8499755859375,-400000.0625,-1680.7099609375,-400000.0625,6073.0,-400000.0625
213.25719809532166,-400000.0625,9032.919921875,1936.3900146484375,-400000.0625,-1671.739990234375,-400000.0625,6072.6201171875,-400000.0625
213.2725546360016,-400000.0625,9033.8701171875,1935.6300048828125,-400000.0625,-1674.989990234375,-400000.0625,6071.7099609375,-400000.0625
213.28884553909302,-400000.0625,9025.5302734375,1930.3800048828125,-400000.0625,-1691.25,-400000.0625,6063.75,-400000.0625
213.32529544830322,-400000.0625,9022.9501953125,1928.0400390625,-400000.0625,-1706.9300537109375,-400000.0625,6063.41015625,-400000.0625
213.33993268013,-400000.0625,9027.5302734375,1929.0400390625,-400000.0625,-1716.4200439453125,-400000.0625,6069.990234375,-400000.0625
213.35427284240723,-400000.0625,9030.2001953125,1932.9100341796875,-400000.0625,-1705.8900146484375,-400000.0625,6074.240234375,-400000.0625
213.36825513839722,-400000.0625,9028.25,1930.4300537109375,-400000.0625,-1687.47998046875,-400000.0625,6069.22998046875,-400000.0625
213.38163328170776,-400000.0625,9019.9501953125,1924.4200439453125,-400000.0625,-1688.8599853515625,-400000.0625,6064.080078125,-400000.0625
213.3984067440033,-400000.0625,9020.8095703125,1925.1300048828125,-400000.0625,-1689.3399658203125,-400000.0625,6064.64990234375,-400000.0625
213.43038034439087,-400000.0625,9027.580078125,1933.0999755859375,-400000.0625,-1684.949951171875,-400000.0625,6067.27978515625,-400000.0625
213.4450752735138,-400000.0625,9034.0595703125,1938.3399658203125,-400000.0625,-1689.9100341796875,-400000.0625,6073.14013671875,-400000.0625
213.4775574207306,-400000.0625,8900.1201171875,1853.1300048828125,-400000.0625,-1662.1600341796875,-400000.0625,6048.25,-400000.0625
213.54157519340515,-400000.0625,9002.01953125,1905.72998046875,-400000.0625,-1677.6099853515625,-400000.0625,6094.4599609375,-400000.0625
213.60544538497925,-400000.0625,9032.3896484375,1920.8900146484375,-400000.0625,-1697.6800537109375,-400000.0625,6102.22998046875,-400000.0625
213.66845679283142,-400000.0625,9033.58984375,1914.8399658203125,-400000.0625,-1686.239990234375,-400000.0625,6086.77978515625,-400000.0625
213.73220872879028,-400000.0625,9036.259765625,1914.1199951171875,-400000.0625,-1684.8599853515625,-400000.0625,6072.18994140625,-400000.0625
213.8125503063202,-400000.0625,9037.7802734375,1919.8900146484375,-400000.0625,-1684.3299560546875,-400000.0625,6076.9599609375,-400000.0625
213.92395663261414,-400000.0625,9048.3701171875,1927.6600341796875,-400000.0625,-1674.93994140625,-400000.0625,6077.240234375,-400000.0625
214.00598526000977,-400000.0625,9040.4501953125,1915.3599853515625,-400000.0625,-1692.3399658203125,-400000.0625,6061.97998046875,-400000.0625
214.06342434883118,-400000.0625,9036.5400390625,1908.72998046875,-400000.0625,-1690.43994140625,-400000.0625,6052.77978515625,-400000.0625
214.12267398834229,-400000.0625,9048.4599609375,1925.52001953125,-400000.0625,-1694.25,-400000.0625,6070.85009765625,-400000.0625
214.2683699131012,-400000.0625,9049.509765625,1921.800048828125,-400000.0625,-1676.8900146484375,-400000.0625,6061.22021484375,-400000.0625
214.35741019248962,-400000.0625,9034.0595703125,1915.1199951171875,-400000.0625,-1689.3399658203125,-400000.0625,6051.35009765625,-400000.0625
214.3775577545166,-400000.0625,9036.1103515625,1914.1199951171875,-400000.0625,-1683.280029296875,-400000.0625,6053.64013671875,-400000.0625
214.46059370040894,-400000.0625,9044.650390625,1927.6600341796875,-400000.0625,-1698.449951171875,-400000.0625,6065.0400390625,-400000.0625
214.52704858779907,-400000.0625,9047.990234375,1923.0400390625,-400000.0625,-1700.969970703125,-400000.0625,6067.7998046875,-400000.0625
214.56481456756592,-400000.0625,9043.650390625,1919.8900146484375,-400000.0625,-1698.5400390625,-400000.0625,6060.7900390625,-400000.0625
214.64713883399963,-400000.0625,9028.5302734375,1904.199951171875,-400000.0625,-1712.93994140625,-400000.0625,6045.2900390625,-400000.0625
214.70759296417236,-400000.0625,9033.3896484375,1907.1099853515625,-400000.0625,-1711.4200439453125,-400000.0625,6053.5,-400000.0625
214.76126265525818,-400000.0625,9038.6904296875,1913.2099609375,-400000.0625,-1686.5699462890625,-400000.0625,6047.919921875,-400000.0625
214.81996035575867,-400000.0625,9044.1201171875,1920.56005859375,-400000.0625,-1697.6800537109375,-400000.0625,6057.7900390625,-400000.0625
214.8834307193756,-400000.0625,9045.3203125,1918.4599609375,-400000.0625,-1689.239990234375,-400000.0625,6051.97021484375,-400000.0625
214.98809814453125,-400000.0625,9031.490234375,1904.199951171875,-400000.0625,-1698.5400390625,-400000.0625,6046.919921875,-400000.0625
215.06226086616516,-400000.0625,9037.2099609375,1908.489990234375,-400000.0625,-1714.800048828125,-400000.0625,6048.25,-400000.0625
215.13965702056885,-400000.0625,9037.6396484375,1908.02001953125,-400000.0625,-1689.050048828125,-400000.0625,6045.91015625,-400000.0625
215.20639324188232,-400000.0625,9032.2998046875,1901.3399658203125,-400000.0625,-1694.6800537109375,-400000.0625,6042.669921875,-400000.0625
215.2704963684082,-400000.0625,9037.16015625,1903.06005859375,-400000.0625,-1677.800048828125,-400000.0625,6039.85986328125,-400000.0625
215.4611325263977,-400000.0625,9043.0703125,1905.8199462890625,-400000.0625,-1694.6300048828125,-400000.0625,6034.66015625,-400000.0625
215.4886372089386,-400000.0625,9046.4599609375,1906.1099853515625,-400000.0625,-1707.6500244140625,-400000.0625,6034.52001953125,-400000.0625
215.50610518455505,-400000.0625,9036.9697265625,1899.4300537109375,-400000.0625,-1733.449951171875,-400000.0625,6025.97998046875,-400000.0625
215.52143263816833,-400000.0625,9032.4404296875,1894.760009765625,-400000.0625,-1715.1400146484375,-400000.0625,6025.5498046875,-400000.0625
215.53675842285156,-400000.0625,9037.01953125,1898.77001953125,-400000.0625,-1698.300048828125,-400000.0625,6028.31982421875,-400000.0625
215.5558898448944,-400000.0625,9043.740234375,1905.489990234375,-400000.0625,-1685.3299560546875,-400000.0625,6035.3798828125,-400000.0625
215.57428526878357,-400000.0625,9042.650390625,1905.5799560546875,-400000.0625,-1687.5699462890625,-400000.0625,6036.43017578125,-400000.0625
215.60569429397583,-400000.0625,9043.41015625,1902.77001953125,-400000.0625,-1697.8299560546875,-400000.0625,6028.1298828125,-400000.0625
215.62120747566223,-400000.0625,9039.3095703125,1898.9599609375,-400000.0625,-1720.949951171875,-400000.0625,6025.22021484375,-400000.0625
215.6361367702484,-400000.0625,9039.830078125,1899.1500244140625,-400000.0625,-1720.7099609375,-400000.0625,6031.85009765625,-400000.0625
215.65230250358582,-400000.0625,9047.1796875,1906.3499755859375,-400000.0625,-1698.8299560546875,-400000.0625,6033.759765625,-400000.0625
215.6669418811798,-400000.0625,9047.7001953125,1906.199951171875,-400000.0625,-1686.760009765625,-400000.0625,6033.990234375,-400000.0625
215.6834099292755,-400000.0625,9038.4501953125,1897.050048828125,-400000.0625,-1697.1600341796875,-400000.0625,6026.64990234375,-400000.0625
215.71853852272034,-400000.0625,9032.2001953125,1896.52001953125,-400000.0625,-1704.6500244140625,-400000.0625,6020.68994140625,-400000.0625
215.7375717163086,-400000.0625,9038.9697265625,1899.3900146484375,-400000.0625,-1705.739990234375,-400000.0625,6023.4599609375,-400000.0625
215.75411653518677,-400000.0625,9045.080078125,1905.9200439453125,-400000.0625,-1704.1700439453125,-400000.0625,6029.27001953125,-400000.0625
215.78087162971497,-400000.0625,9044.599609375,1902.719970703125,-400000.0625,-1718.0,-400000.0625,6029.02978515625,-400000.0625
215.81739020347595,-400000.0625,9038.16015625,1894.239990234375,-400000.0625,-1714.75,-400000.0625,6018.93017578125,-400000.0625
215.86572360992432,-400000.0625,9028.5302734375,1888.4200439453125,-400000.0625,-1708.219970703125,-400000.0625,6018.5400390625,-400000.0625
215.88457918167114,-400000.0625,9034.58984375,1893.5699462890625,-400000.0625,-1698.300048828125,-400000.0625,6022.8798828125,-400000.0625
215.90316700935364,-400000.0625,9044.650390625,1903.8199462890625,-400000.0625,-1698.2099609375,-400000.0625,6029.419921875,-400000.0625
215.92294764518738,-400000.0625,9043.8896484375,1903.8199462890625,-400000.0625,-1704.1700439453125,-400000.0625,6031.3701171875,-400000.0625
215.97642636299133,-400000.0625,8920.669921875,1819.0400390625,-400000.0625,-1695.25,-400000.0625,5993.990234375,-400000.0625
216.01861810684204,-400000.0625,8933.0703125,1824.5699462890625,-400000.0625,-1705.030029296875,-400000.0625,6001.27978515625,-400000.0625
216.05323958396912,-400000.0625,8948.2802734375,1832.77001953125,-400000.0625,-1695.010009765625,-400000.0625,6009.52978515625,-400000.0625
216.14818954467773,-400000.0625,8955.8603515625,1837.02001953125,-400000.0625,-1691.6800537109375,-400000.0625,6016.02001953125,-400000.0625
