time,ch1,ch2,ch3,ch4,ch5,ch6,ch7,ch8
225.70534825325012,-400000.0625,9053.08984375,1882.31005859375,-400000.0625,-1717.4200439453125,-400000.0625,6045.580078125,-400000.0625
225.7349030971527,-400000.0625,9047.9404296875,1879.02001953125,-400000.0625,-1732.6400146484375,-400000.0625,6041.52978515625,-400000.0625
225.76775741577148,-400000.0625,9046.599609375,1872.8299560546875,-400000.0625,-1746.989990234375,-400000.0625,6038.47998046875,-400000.0625
225.85229802131653,-400000.0625,9044.5498046875,1873.9200439453125,-400000.0625,-1728.06005859375,-400000.0625,6044.10009765625,-400000.0625
225.8818440437317,-400000.0625,9049.9404296875,1880.1199951171875,-400000.0625,-1705.030029296875,-400000.0625,6048.2001953125,-400000.0625
225.93015933036804,-400000.0625,9056.6201171875,1885.800048828125,-400000.0625,-1707.0799560546875,-400000.0625,6047.14990234375,-400000.0625
225.9503276348114,-400000.0625,9050.5595703125,1879.6400146484375,-400000.0625,-1719.3800048828125,-400000.0625,6043.85986328125,-400000.0625
225.972163438797,-400000.0625,9046.9404296875,1876.4000244140625,-400000.0625,-1717.1400146484375,-400000.0625,6040.6201171875,-400000.0625
226.00587010383606,-400000.0625,9050.4697265625,1879.1199951171875,-400000.0625,-1718.81005859375,-400000.0625,6036.56982421875,-400000.0625
226.072509765625,-400000.0625,9055.849609375,1880.739990234375,-400000.0625,-1727.300048828125,-400000.0625,6039.9501953125,-400000.0625
226.09918594360352,-400000.0625,9056.1904296875,1882.8399658203125,-400000.0625,-1732.8699951171875,-400000.0625,6044.2001953125,-400000.0625
226.13122630119324,-400000.0625,9048.9404296875,1877.97998046875,-400000.0625,-1724.4300537109375,-400000.0625,6040.759765625,-400000.0625
226.18287014961243,-400000.0625,9043.83984375,1871.4000244140625,-400000.0625,-1711.989990234375,-400000.0625,6036.66015625,-400000.0625
226.21708035469055,-400000.0625,9045.26953125,1876.6400146484375,-400000.0625,-1707.219970703125,-400000.0625,6040.43017578125,-400000.0625
226.24077224731445,-400000.0625,9056.51953125,1886.56005859375,-400000.0625,-1714.56005859375,-400000.0625,6046.33984375,-400000.0625
226.2943549156189,-400000.0625,9063.0498046875,1889.6600341796875,-400000.0625,-1734.2099609375,-400000.0625,6052.919921875,-400000.0625
226.31739497184753,-400000.0625,9052.900390625,1880.4599609375,-400000.0625,-1740.8800048828125,-400000.0625,6050.43994140625,-400000.0625
226.34087491035461,-400000.0625,9040.740234375,1873.6400146484375,-400000.0625,-1724.8199462890625,-400000.0625,6042.91015625,-400000.0625
226.40270113945007,-400000.0625,9043.0302734375,1876.8800048828125,-400000.0625,-1715.3699951171875,-400000.0625,6048.580078125,-400000.0625
226.43166255950928,-400000.0625,9050.8896484375,1882.5999755859375,-400000.0625,-1727.8699951171875,-400000.0625,6054.830078125,-400000.0625
226.45244073867798,-400000.0625,9057.7099609375,1885.8399658203125,-400000.0625,-1741.9300537109375,-400000.0625,6057.41015625,-400000.0625
226.50544714927673,-400000.0625,9048.75,1877.4000244140625,-400000.0625,-1723.530029296875,-400000.0625,6049.43994140625,-400000.0625
226.54908919334412,-400000.0625,9044.509765625,1871.1099853515625,-400000.0625,-1713.22998046875,-400000.0625,6041.77001953125,-400000.0625
226.5749192237854,-400000.0625,9048.0302734375,1875.3499755859375,-400000.0625,-1719.5699462890625,-400000.0625,6046.06005859375,-400000.0625
226.62299990653992,-400000.0625,9058.330078125,1883.3199462890625,-400000.0625,-1736.02001953125,-400000.0625,6052.830078125,-400000.0625
226.6516351699829,-400000.0625,9061.5302734375,1889.6600341796875,-400000.0625,-1729.5799560546875,-400000.0625,6058.35986328125,-400000.0625
226.68563866615295,-400000.0625,9052.66015625,1882.4100341796875,-400000.0625,-1717.3800048828125,-400000.0625,6051.68017578125,-400000.0625
226.74048018455505,-400000.0625,9046.599609375,1873.72998046875,-400000.0625,-1719.050048828125,-400000.0625,6044.81982421875,-400000.0625
226.7668309211731,-400000.0625,9048.0302734375,1876.969970703125,-400000.0625,-1720.8599853515625,-400000.0625,6045.25,-400000.0625
226.81064772605896,-400000.0625,9058.91015625,1884.510009765625,-400000.0625,-1722.3800048828125,-400000.0625,6053.259765625,-400000.0625
226.88741755485535,-400000.0625,9060.099609375,1886.3699951171875,-400000.0625,-1714.3699951171875,-400000.0625,6055.5,-400000.0625
226.93005180358887,-400000.0625,9052.6103515625,1880.1199951171875,-400000.0625,-1718.52001953125,-400000.0625,6046.580078125,-400000.0625
227.00248312950134,-400000.0625,9050.5595703125,1875.2099609375,-400000.0625,-1720.8599853515625,-400000.0625,6045.91015625,-400000.0625
227.05235838890076,-400000.0625,9051.0400390625,1876.1600341796875,-400000.0625,-1719.18994140625,-400000.0625,6050.02001953125,-400000.0625
227.10921955108643,-400000.0625,9055.51953125,1881.7900390625,-400000.0625,-1725.719970703125,-400000.0625,6053.58984375,-400000.0625
227.13167929649353,-400000.0625,9056.3798828125,1885.699951171875,-400000.0625,-1728.25,-400000.0625,6056.02001953125,-400000.0625
227.154212474823,-400000.0625,9052.419921875,1882.1700439453125,-400000.0625,-1735.739990234375,-400000.0625,6051.02001953125,-400000.0625
227.2216079235077,-400000.0625,9049.8896484375,1878.0699462890625,-400000.0625,-1731.8299560546875,-400000.0625,6044.2001953125,-400000.0625
227.2493932247162,-400000.0625,9049.23046875,1879.9300537109375,-400000.0625,-1722.18994140625,-400000.0625,6047.14990234375,-400000.0625
227.2779986858368,-400000.0625,9054.1396484375,1885.6500244140625,-400000.0625,-1707.550048828125,-400000.0625,6051.39990234375,-400000.0625
227.35737299919128,-400000.0625,9059.5703125,1889.8499755859375,-400000.0625,-1714.6099853515625,-400000.0625,6054.5498046875,-400000.0625
227.38533902168274,-400000.0625,9057.1396484375,1884.989990234375,-400000.0625,-1724.2900390625,-400000.0625,6052.06982421875,-400000.0625
227.45206332206726,-400000.0625,9052.08984375,1878.02001953125,-400000.0625,-1727.199951171875,-400000.0625,6044.43994140625,-400000.0625
227.48449563980103,-400000.0625,9047.2197265625,1876.780029296875,-400000.0625,-1718.280029296875,-400000.0625,6044.43994140625,-400000.0625
227.50673651695251,-400000.0625,9053.7998046875,1882.3599853515625,-400000.0625,-1712.4200439453125,-400000.0625,6048.2998046875,-400000.0625
227.55437755584717,-400000.0625,9060.33984375,1885.699951171875,-400000.0625,-1723.0999755859375,-400000.0625,6049.58984375,-400000.0625
227.58490538597107,-400000.0625,9055.900390625,1882.97998046875,-400000.0625,-1723.6199951171875,-400000.0625,6045.77001953125,-400000.0625
227.6047387123108,-400000.0625,9050.3701171875,1876.02001953125,-400000.0625,-1720.4300537109375,-400000.0625,6042.10009765625,-400000.0625
227.63336634635925,-400000.0625,9053.759765625,1877.97998046875,-400000.0625,-1721.4300537109375,-400000.0625,6046.009765625,-400000.0625
227.69999623298645,-400000.0625,9060.1904296875,1883.1300048828125,-400000.0625,-1720.7099609375,-400000.0625,6055.97998046875,-400000.0625
227.72277903556824,-400000.0625,9062.3896484375,1885.800048828125,-400000.0625,-1720.760009765625,-400000.0625,6061.35986328125,-400000.0625
227.76033306121826,-400000.0625,9056.240234375,1881.739990234375,-400000.0625,-1717.6199951171875,-400000.0625,6054.740234375,-400000.0625
227.83918261528015,-400000.0625,9056.0,1878.5999755859375,-400000.0625,-1735.31005859375,-400000.0625,6048.580078125,-400000.0625
227.88563990592957,-400000.0625,9056.4697265625,1878.9300537109375,-400000.0625,-1736.449951171875,-400000.0625,6049.35009765625,-400000.0625
227.96052479743958,-400000.0625,9061.5302734375,1883.3199462890625,-400000.0625,-1719.18994140625,-400000.0625,6055.06982421875,-400000.0625
227.99992036819458,-400000.0625,9062.2001953125,1884.3199462890625,-400000.0625,-1709.8900146484375,-400000.0625,6055.5,-400000.0625
228.0505654811859,-400000.0625,9056.9501953125,1878.260009765625,-400000.0625,-1721.760009765625,-400000.0625,6050.2998046875,-400000.0625
228.09065532684326,-400000.0625,9051.7099609375,1872.3499755859375,-400000.0625,-1733.06005859375,-400000.0625,6046.10986328125,-400000.0625
228.12287425994873,-400000.0625,9052.1796875,1871.72998046875,-400000.0625,-1731.6800537109375,-400000.0625,6047.9599609375,-400000.0625
228.1692020893097,-400000.0625,9054.330078125,1876.5,-400000.0625,-1731.3499755859375,-400000.0625,6054.93017578125,-400000.0625
228.18924641609192,-400000.0625,9061.5302734375,1883.1700439453125,-400000.0625,-1720.239990234375,-400000.0625,6059.080078125,-400000.0625
228.2163507938385,-400000.0625,9060.669921875,1881.4100341796875,-400000.0625,-1718.52001953125,-400000.0625,6053.77978515625,-400000.0625
228.24961352348328,-400000.0625,9054.1396484375,1875.5899658203125,-400000.0625,-1740.030029296875,-400000.0625,6048.16015625,-400000.0625
228.31021642684937,-400000.0625,9059.0498046875,1878.449951171875,-400000.0625,-1725.0999755859375,-400000.0625,6049.58984375,-400000.0625
228.33800315856934,-400000.0625,9061.48046875,1885.030029296875,-400000.0625,-1704.5999755859375,-400000.0625,6058.1201171875,-400000.0625
228.37560892105103,-400000.0625,9060.76953125,1884.3699951171875,-400000.0625,-1714.9000244140625,-400000.0625,6059.7001953125,-400000.0625
228.41552710533142,-400000.0625,9056.900390625,1884.5999755859375,-400000.0625,-1727.5799560546875,-400000.0625,6052.5400390625,-400000.0625
228.4593653678894,-400000.0625,9052.5595703125,1881.7900390625,-400000.0625,-1735.5899658203125,-400000.0625,6049.8701171875,-400000.0625
228.48041939735413,-400000.0625,9053.990234375,1879.739990234375,-400000.0625,-1718.5699462890625,-400000.0625,6058.83984375,-400000.0625
228.53983521461487,-400000.0625,9057.240234375,1881.0799560546875,-400000.0625,-1711.56005859375,-400000.0625,6067.0400390625,-400000.0625
228.5567765235901,-400000.0625,9060.5302734375,1887.0400390625,-400000.0625,-1726.719970703125,-400000.0625,6069.52001953125,-400000.0625
228.58639526367188,-400000.0625,9054.4697265625,1879.3599853515625,-400000.0625,-1749.6099853515625,-400000.0625,6066.509765625,-400000.0625
228.63993453979492,-400000.0625,9052.1298828125,1869.1500244140625,-400000.0625,-1751.949951171875,-400000.0625,6061.89013671875,-400000.0625
228.67148208618164,-400000.0625,9049.23046875,1869.9599609375,-400000.0625,-1732.4000244140625,-400000.0625,6061.93994140625,-400000.0625
228.7109968662262,-400000.0625,9053.330078125,1875.8800048828125,-400000.0625,-1708.27001953125,-400000.0625,6066.47021484375,-400000.0625
228.75800442695618,-400000.0625,9055.900390625,1879.02001953125,-400000.0625,-1706.699951171875,-400000.0625,6069.47021484375,-400000.0625
228.81728529930115,-400000.0625,9051.509765625,1874.449951171875,-400000.0625,-1711.800048828125,-400000.0625,6065.4599609375,-400000.0625
228.89613604545593,-400000.0625,9048.650390625,1871.489990234375,-400000.0625,-1713.1800537109375,-400000.0625,6059.31005859375,-400000.0625
228.9168438911438,-400000.0625,9049.0400390625,1873.300048828125,-400000.0625,-1724.47998046875,-400000.0625,6064.3701171875,-400000.0625
228.93895292282104,-400000.0625,9055.51953125,1877.8299560546875,-400000.0625,-1742.510009765625,-400000.0625,6068.89990234375,-400000.0625
228.97849798202515,-400000.0625,9056.8603515625,1878.4000244140625,-400000.0625,-1751.0400390625,-400000.0625,6072.9501953125,-400000.0625
229.0062608718872,-400000.0625,9047.4599609375,1869.5400390625,-400000.0625,-1743.030029296875,-400000.0625,6064.89013671875,-400000.0625
229.04101157188416,-400000.0625,9040.3095703125,1862.47998046875,-400000.0625,-1729.1099853515625,-400000.0625,6057.4501953125,-400000.0625
229.0866425037384,-400000.0625,9042.0703125,1866.1500244140625,-400000.0625,-1727.8699951171875,-400000.0625,6065.66015625,-400000.0625
229.10790419578552,-400000.0625,9050.0400390625,1870.489990234375,-400000.0625,-1712.1800537109375,-400000.0625,6071.89990234375,-400000.0625
229.13640308380127,-400000.0625,9056.51953125,1873.8299560546875,-400000.0625,-1709.1800537109375,-400000.0625,6076.6201171875,-400000.0625
229.16605830192566,-400000.0625,9047.4599609375,1868.1500244140625,-400000.0625,-1727.0999755859375,-400000.0625,6075.10009765625,-400000.0625
229.20927238464355,-400000.0625,9046.599609375,1867.010009765625,-400000.0625,-1758.8599853515625,-400000.0625,6074.3798828125,-400000.0625
229.24233198165894,-400000.0625,9048.2197265625,1867.8199462890625,-400000.0625,-1767.3499755859375,-400000.0625,6075.759765625,-400000.0625
229.2631320953369,-400000.0625,9050.5595703125,1869.8199462890625,-400000.0625,-1730.3900146484375,-400000.0625,6079.580078125,-400000.0625
229.29017996788025,-400000.0625,9051.75,1872.2099609375,-400000.0625,-1716.1400146484375,-400000.0625,6081.9599609375,-400000.0625
229.337167263031,-400000.0625,9043.7900390625,1868.8699951171875,-400000.0625,-1723.77001953125,-400000.0625,6076.240234375,-400000.0625
229.35637021064758,-400000.0625,9040.169921875,1862.9599609375,-400000.0625,-1727.3399658203125,-400000.0625,6071.14013671875,-400000.0625
229.38235688209534,-400000.0625,9042.169921875,1862.5699462890625,-400000.0625,-1734.300048828125,-400000.0625,6073.89990234375,-400000.0625
229.4105625152588,-400000.0625,9050.5595703125,1869.9599609375,-400000.0625,-1731.969970703125,-400000.0625,6080.52978515625,-400000.0625
229.45934534072876,-400000.0625,9055.6201171875,1873.06005859375,-400000.0625,-1728.3900146484375,-400000.0625,6084.5400390625,-400000.0625
229.4877588748932,-400000.0625,9048.419921875,1867.6800537109375,-400000.0625,-1743.8399658203125,-400000.0625,6080.06005859375,-400000.0625
229.52004051208496,-400000.0625,9039.5498046875,1861.2900390625,-400000.0625,-1750.469970703125,-400000.0625,6073.669921875,-400000.0625
229.56988620758057,-400000.0625,9041.5,1862.9599609375,-400000.0625,-1730.1600341796875,-400000.0625,6076.72021484375,-400000.0625
229.5904996395111,-400000.0625,9047.8896484375,1870.489990234375,-400000.0625,-1721.47998046875,-400000.0625,6084.16015625,-400000.0625
229.61694717407227,-400000.0625,9053.990234375,1875.0699462890625,-400000.0625,-1734.5899658203125,-400000.0625,6089.68994140625,-400000.0625
229.64344096183777,-400000.0625,9052.08984375,1868.6800537109375,-400000.0625,-1736.739990234375,-400000.0625,6081.33984375,-400000.0625
229.69410395622253,-400000.0625,9046.7001953125,1863.5799560546875,-400000.0625,-1733.2099609375,-400000.0625,6075.0498046875,-400000.0625
229.72395157814026,-400000.0625,9043.41015625,1864.47998046875,-400000.0625,-1724.77001953125,-400000.0625,6078.52978515625,-400000.0625
229.74040937423706,-400000.0625,9050.5595703125,1871.8699951171875,-400000.0625,-1720.2900390625,-400000.0625,6081.39013671875,-400000.0625
229.76380109786987,-400000.0625,9056.759765625,1874.969970703125,-400000.0625,-1736.9300537109375,-400000.0625,6086.77978515625,-400000.0625
229.83469486236572,-400000.0625,9047.1298828125,1866.47998046875,-400000.0625,-1750.989990234375,-400000.0625,6082.490234375,-400000.0625
229.86347198486328,-400000.0625,9044.0302734375,1862.050048828125,-400000.0625,-1745.3199462890625,-400000.0625,6073.89990234375,-400000.0625
229.88534665107727,-400000.0625,9046.4599609375,1863.239990234375,-400000.0625,-1744.6500244140625,-400000.0625,6076.10009765625,-400000.0625
229.92869019508362,-400000.0625,9051.990234375,1869.43994140625,-400000.0625,-1734.9200439453125,-400000.0625,6084.2001953125,-400000.0625
229.94936156272888,-400000.0625,9054.330078125,1872.8299560546875,-400000.0625,-1716.3299560546875,-400000.0625,6084.77978515625,-400000.0625
229.9708182811737,-400000.0625,9047.1298828125,1866.43994140625,-400000.0625,-1717.22998046875,-400000.0625,6081.919921875,-400000.0625
230.00009107589722,-400000.0625,9040.7900390625,1859.6700439453125,-400000.0625,-1726.8699951171875,-400000.0625,6074.47998046875,-400000.0625
230.05358505249023,-400000.0625,9045.26953125,1862.47998046875,-400000.0625,-1742.1700439453125,-400000.0625,6077.33984375,-400000.0625
230.08573031425476,-400000.0625,9048.509765625,1867.3399658203125,-400000.0625,-1746.3199462890625,-400000.0625,6086.8701171875,-400000.0625
230.1077058315277,-400000.0625,9051.0400390625,1871.969970703125,-400000.0625,-1731.8699951171875,-400000.0625,6085.919921875,-400000.0625
230.16645669937134,-400000.0625,9047.2197265625,1867.6800537109375,-400000.0625,-1735.1199951171875,-400000.0625,6079.81982421875,-400000.0625
230.18708729743958,-400000.0625,9039.16015625,1862.3399658203125,-400000.0625,-1728.8199462890625,-400000.0625,6077.240234375,-400000.0625
230.22094082832336,-400000.0625,9047.41015625,1868.3900146484375,-400000.0625,-1721.4300537109375,-400000.0625,6077.18994140625,-400000.0625
230.2701690196991,-400000.0625,9049.1298828125,1870.43994140625,-400000.0625,-1729.77001953125,-400000.0625,6080.6298828125,-400000.0625
230.29825711250305,-400000.0625,9047.4599609375,1869.199951171875,-400000.0625,-1724.0999755859375,-400000.0625,6082.10986328125,-400000.0625
230.33309412002563,-400000.0625,9045.1298828125,1867.06005859375,-400000.0625,-1733.260009765625,-400000.0625,6076.77001953125,-400000.0625
230.37726378440857,-400000.0625,9035.919921875,1857.0400390625,-400000.0625,-1760.530029296875,-400000.0625,6069.66015625,-400000.0625
230.40099048614502,-400000.0625,9035.8701171875,1859.050048828125,-400000.0625,-1750.3299560546875,-400000.0625,6070.89990234375,-400000.0625
230.43119430541992,-400000.0625,9050.3701171875,1872.5899658203125,-400000.0625,-1726.77001953125,-400000.0625,6081.490234375,-400000.0625
230.46090006828308,-400000.0625,9065.2998046875,1879.449951171875,-400000.0625,-1719.7099609375,-400000.0625,6082.2001953125,-400000.0625
230.51991391181946,-400000.0625,9058.51953125,1872.43994140625,-400000.0625,-1730.010009765625,-400000.0625,6074.240234375,-400000.0625
230.53994750976562,-400000.0625,9044.2197265625,1866.1500244140625,-400000.0625,-1728.3900146484375,-400000.0625,6066.419921875,-400000.0625
230.56604647636414,-400000.0625,9049.509765625,1872.72998046875,-400000.0625,-1726.8699951171875,-400000.0625,6067.22998046875,-400000.0625
230.62448167800903,-400000.0625,9062.4296875,1880.550048828125,-400000.0625,-1729.6800537109375,-400000.0625,6074.0,-400000.0625
230.650484085083,-400000.0625,9057.7099609375,1878.8800048828125,-400000.0625,-1740.0699462890625,-400000.0625,6076.52978515625,-400000.0625
230.6817057132721,-400000.0625,9052.7998046875,1874.1099853515625,-400000.0625,-1748.75,-400000.0625,6074.759765625,-400000.0625
230.78142070770264,-400000.0625,9048.26953125,1866.6700439453125,-400000.0625,-1732.969970703125,-400000.0625,6065.419921875,-400000.0625
230.83040404319763,-400000.0625,9043.599609375,1865.530029296875,-400000.0625,-1723.47998046875,-400000.0625,6063.509765625,-400000.0625
230.86644887924194,-400000.0625,9053.900390625,1873.1600341796875,-400000.0625,-1730.6300048828125,-400000.0625,6073.27978515625,-400000.0625
230.8841152191162,-400000.0625,9060.4296875,1879.9300537109375,-400000.0625,-1727.010009765625,-400000.0625,6074.52001953125,-400000.0625
230.90089583396912,-400000.0625,9057.0,1878.2099609375,-400000.0625,-1728.010009765625,-400000.0625,6071.14013671875,-400000.0625
230.92744398117065,-400000.0625,9049.0400390625,1869.1500244140625,-400000.0625,-1740.27001953125,-400000.0625,6067.27978515625,-400000.0625
230.9417278766632,-400000.0625,9048.3701171875,1870.5799560546875,-400000.0625,-1733.02001953125,-400000.0625,6068.330078125,-400000.0625
230.97599530220032,-400000.0625,9059.0,1881.739990234375,-400000.0625,-1723.47998046875,-400000.0625,6073.18994140625,-400000.0625
230.9969036579132,-400000.0625,9066.8701171875,1889.0400390625,-400000.0625,-1733.6400146484375,-400000.0625,6080.77001953125,-400000.0625
231.0184395313263,-400000.0625,9057.48046875,1879.550048828125,-400000.0625,-1733.1600341796875,-400000.0625,6076.0,-400000.0625
231.03398633003235,-400000.0625,9047.3203125,1867.199951171875,-400000.0625,-1730.43994140625,-400000.0625,6067.89990234375,-400000.0625
231.05026602745056,-400000.0625,9047.4599609375,1869.1500244140625,-400000.0625,-1733.300048828125,-400000.0625,6068.7099609375,-400000.0625
231.08485054969788,-400000.0625,9048.1298828125,1871.010009765625,-400000.0625,-1726.3399658203125,-400000.0625,6069.52001953125,-400000.0625
231.10858607292175,-400000.0625,9053.23046875,1873.2099609375,-400000.0625,-1730.72998046875,-400000.0625,6072.330078125,-400000.0625
231.12565088272095,-400000.0625,9048.1298828125,1869.3900146484375,-400000.0625,-1741.97998046875,-400000.0625,6067.93994140625,-400000.0625
231.14472103118896,-400000.0625,9041.5498046875,1863.18994140625,-400000.0625,-1747.469970703125,-400000.0625,6060.1201171875,-400000.0625
231.16077518463135,-400000.0625,9045.3203125,1867.0999755859375,-400000.0625,-1740.5,-400000.0625,6066.3701171875,-400000.0625
231.19226241111755,-400000.0625,9054.3798828125,1877.31005859375,-400000.0625,-1744.800048828125,-400000.0625,6075.33984375,-400000.0625
231.22237634658813,-400000.0625,9052.66015625,1875.02001953125,-400000.0625,-1734.6400146484375,-400000.0625,6074.759765625,-400000.0625
231.23908948898315,-400000.0625,9046.650390625,1869.3399658203125,-400000.0625,-1726.010009765625,-400000.0625,6066.990234375,-400000.0625
231.25808215141296,-400000.0625,9041.3603515625,1863.81005859375,-400000.0625,-1723.6700439453125,-400000.0625,6056.97998046875,-400000.0625
231.27422881126404,-400000.0625,9040.740234375,1862.719970703125,-400000.0625,-1737.2099609375,-400000.0625,6059.169921875,-400000.0625
231.32212448120117,-400000.0625,9049.7998046875,1870.6800537109375,-400000.0625,-1751.0400390625,-400000.0625,6069.7099609375,-400000.0625
231.36880111694336,-400000.0625,9055.51953125,1873.780029296875,-400000.0625,-1741.27001953125,-400000.0625,6072.7099609375,-400000.0625
231.40645337104797,-400000.0625,9049.419921875,1867.199951171875,-400000.0625,-1725.0999755859375,-400000.0625,6068.3701171875,-400000.0625
231.47279572486877,-400000.0625,9040.6396484375,1860.6199951171875,-400000.0625,-1732.43994140625,-400000.0625,6062.64990234375,-400000.0625
231.49296164512634,-400000.0625,9045.650390625,1867.199951171875,-400000.0625,-1735.6400146484375,-400000.0625,6062.89013671875,-400000.0625
231.52205395698547,-400000.0625,9046.0302734375,1869.1500244140625,-400000.0625,-1743.7900390625,-400000.0625,6066.990234375,-400000.0625
231.58463406562805,-400000.0625,9047.0302734375,1866.3900146484375,-400000.0625,-1727.77001953125,-400000.0625,6069.14013671875,-400000.0625
231.6061589717865,-400000.0625,9043.0302734375,1862.4300537109375,-400000.0625,-1717.280029296875,-400000.0625,6062.080078125,-400000.0625
231.6375551223755,-400000.0625,9035.6396484375,1855.1800537109375,-400000.0625,-1732.9200439453125,-400000.0625,6056.8798828125,-400000.0625
231.6873812675476,-400000.0625,9040.98046875,1860.0899658203125,-400000.0625,-1741.030029296875,-400000.0625,6059.4599609375,-400000.0625
231.714670419693,-400000.0625,9044.7900390625,1864.81005859375,-400000.0625,-1742.550048828125,-400000.0625,6063.22021484375,-400000.0625
231.7345871925354,-400000.0625,9047.7998046875,1867.9599609375,-400000.0625,-1752.18994140625,-400000.0625,6064.1298828125,-400000.0625
231.76790237426758,-400000.0625,9043.9296875,1864.81005859375,-400000.0625,-1742.699951171875,-400000.0625,6061.75,-400000.0625
231.83468389511108,-400000.0625,9038.7802734375,1856.7099609375,-400000.0625,-1741.8399658203125,-400000.0625,6059.89013671875,-400000.0625
231.86959433555603,-400000.0625,9040.98046875,1857.22998046875,-400000.0625,-1735.260009765625,-400000.0625,6063.509765625,-400000.0625
231.92942667007446,-400000.0625,9039.400390625,1860.4300537109375,-400000.0625,-1724.050048828125,-400000.0625,6065.75,-400000.0625
231.9511947631836,-400000.0625,9035.01953125,1862.050048828125,-400000.0625,-1726.9100341796875,-400000.0625,6063.89013671875,-400000.0625
231.98248624801636,-400000.0625,9032.8203125,1859.280029296875,-400000.0625,-1747.0799560546875,-400000.0625,6060.41015625,-400000.0625
232.0368456840515,-400000.0625,9034.5400390625,1852.22998046875,-400000.0625,-1752.22998046875,-400000.0625,6056.5,-400000.0625
232.0634400844574,-400000.0625,9040.01953125,1850.27001953125,-400000.0625,-1748.0400390625,-400000.0625,6061.83984375,-400000.0625
232.09534454345703,-400000.0625,9039.16015625,1858.4300537109375,-400000.0625,-1729.5400390625,-400000.0625,6063.83984375,-400000.0625
232.148118019104,-400000.0625,9038.8798828125,1868.530029296875,-400000.0625,-1719.7099609375,-400000.0625,6067.419921875,-400000.0625
232.17128777503967,-400000.0625,9042.169921875,1862.9100341796875,-400000.0625,-1734.9200439453125,-400000.0625,6067.66015625,-400000.0625
232.20114016532898,-400000.0625,9042.4501953125,1857.3299560546875,-400000.0625,-1745.030029296875,-400000.0625,6059.7001953125,-400000.0625
232.2435896396637,-400000.0625,9037.73046875,1859.5699462890625,-400000.0625,-1752.22998046875,-400000.0625,6058.740234375,-400000.0625
232.28080463409424,-400000.0625,9041.1201171875,1864.0999755859375,-400000.0625,-1746.510009765625,-400000.0625,6065.56005859375,-400000.0625
232.32038831710815,-400000.0625,9048.1298828125,1868.530029296875,-400000.0625,-1719.280029296875,-400000.0625,6072.81005859375,-400000.0625
232.3835744857788,-400000.0625,9037.349609375,1860.9000244140625,-400000.0625,-1728.9599609375,-400000.0625,6064.3701171875,-400000.0625
232.43317532539368,-400000.0625,9034.2099609375,1856.22998046875,-400000.0625,-1752.6600341796875,-400000.0625,6059.740234375,-400000.0625
232.4908525943756,-400000.0625,9037.4501953125,1857.5699462890625,-400000.0625,-1753.3800048828125,-400000.0625,6065.22998046875,-400000.0625
232.53366923332214,-400000.0625,9042.1201171875,1863.77001953125,-400000.0625,-1738.739990234375,-400000.0625,6069.330078125,-400000.0625
232.58181190490723,-400000.0625,9043.5498046875,1866.43994140625,-400000.0625,-1730.969970703125,-400000.0625,6072.3798828125,-400000.0625
232.61858344078064,-400000.0625,9040.6396484375,1861.239990234375,-400000.0625,-1732.1099853515625,-400000.0625,6069.759765625,-400000.0625
232.64410591125488,-400000.0625,9035.16015625,1855.3699951171875,-400000.0625,-1730.489990234375,-400000.0625,6066.93994140625,-400000.0625
232.68923997879028,-400000.0625,9037.01953125,1853.6600341796875,-400000.0625,-1728.9599609375,-400000.0625,6065.75,-400000.0625
232.72062158584595,-400000.0625,9041.6396484375,1860.8599853515625,-400000.0625,-1738.5999755859375,-400000.0625,6072.47021484375,-400000.0625
232.7398636341095,-400000.0625,9040.6904296875,1862.81005859375,-400000.0625,-1743.1300048828125,-400000.0625,6072.7099609375,-400000.0625
232.76797318458557,-400000.0625,9035.25,1859.469970703125,-400000.0625,-1756.3299560546875,-400000.0625,6067.56005859375,-400000.0625
232.85872602462769,-400000.0625,9029.6796875,1851.8499755859375,-400000.0625,-1751.52001953125,-400000.0625,6061.41015625,-400000.0625
232.88843488693237,-400000.0625,9031.6796875,1850.510009765625,-400000.0625,-1740.9300537109375,-400000.0625,6063.41015625,-400000.0625
232.9577145576477,-400000.0625,9037.8798828125,1860.3299560546875,-400000.0625,-1733.9200439453125,-400000.0625,6071.6201171875,-400000.0625
232.98589062690735,-400000.0625,9042.3095703125,1869.3399658203125,-400000.0625,-1721.81005859375,-400000.0625,6075.52978515625,-400000.0625
233.01817679405212,-400000.0625,9040.9296875,1867.2900390625,-400000.0625,-1732.06005859375,-400000.0625,6072.08984375,-400000.0625
233.07164931297302,-400000.0625,9029.150390625,1855.6600341796875,-400000.0625,-1750.3699951171875,-400000.0625,6063.89013671875,-400000.0625
233.10064959526062,-400000.0625,9028.25,1852.0799560546875,-400000.0625,-1757.9599609375,-400000.0625,6062.31982421875,-400000.0625
233.13106203079224,-400000.0625,9035.9697265625,1856.989990234375,-400000.0625,-1754.3299560546875,-400000.0625,6068.330078125,-400000.0625
233.21004915237427,-400000.0625,9040.599609375,1863.9100341796875,-400000.0625,-1761.47998046875,-400000.0625,6073.14013671875,-400000.0625
233.24757480621338,-400000.0625,9033.349609375,1857.7099609375,-400000.0625,-1744.1300048828125,-400000.0625,6067.60986328125,-400000.0625
233.3164780139923,-400000.0625,9029.009765625,1851.800048828125,-400000.0625,-1729.43994140625,-400000.0625,6060.169921875,-400000.0625
233.35572695732117,-400000.0625,9033.25,1854.7099609375,-400000.0625,-1729.5400390625,-400000.0625,6060.509765625,-400000.0625
233.41412019729614,-400000.0625,9034.8701171875,1853.6600341796875,-400000.0625,-1730.72998046875,-400000.0625,6066.27978515625,-400000.0625
233.45713353157043,-400000.0625,9038.259765625,1857.949951171875,-400000.0625,-1728.06005859375,-400000.0625,6069.7998046875,-400000.0625
233.51888728141785,-400000.0625,9032.6796875,1856.3699951171875,-400000.0625,-1731.969970703125,-400000.0625,6062.89013671875,-400000.0625
233.54265522956848,-400000.0625,9019.900390625,1845.31005859375,-400000.0625,-1751.6600341796875,-400000.0625,6056.740234375,-400000.0625
233.57817125320435,-400000.0625,9021.1904296875,1847.0799560546875,-400000.0625,-1762.1500244140625,-400000.0625,6057.06982421875,-400000.0625
233.62874293327332,-400000.0625,9035.4501953125,1856.280029296875,-400000.0625,-1764.5799560546875,-400000.0625,6063.7998046875,-400000.0625
233.6549789905548,-400000.0625,9042.2197265625,1860.9000244140625,-400000.0625,-1746.0799560546875,-400000.0625,6066.66015625,-400000.0625
233.68200778961182,-400000.0625,9044.599609375,1859.4300537109375,-400000.0625,-1731.489990234375,-400000.0625,6061.97998046875,-400000.0625
233.7539381980896,-400000.0625,9032.3896484375,1851.4599609375,-400000.0625,-1724.6199951171875,-400000.0625,6050.16015625,-400000.0625
233.78795552253723,-400000.0625,9027.0498046875,1854.469970703125,-400000.0625,-1733.2099609375,-400000.0625,6048.6298828125,-400000.0625
233.87807607650757,-400000.0625,9032.580078125,1860.0899658203125,-400000.0625,-1728.6300048828125,-400000.0625,6052.919921875,-400000.0625
233.90460872650146,-400000.0625,9033.16015625,1861.47998046875,-400000.0625,-1732.6800537109375,-400000.0625,6053.31005859375,-400000.0625
233.9672110080719,-400000.0625,9029.150390625,1857.9000244140625,-400000.0625,-1757.239990234375,-400000.0625,6053.16015625,-400000.0625
233.9911072254181,-400000.0625,9024.759765625,1850.56005859375,-400000.0625,-1764.1099853515625,-400000.0625,6048.72998046875,-400000.0625
234.01902103424072,-400000.0625,9025.76953125,1851.1300048828125,-400000.0625,-1752.469970703125,-400000.0625,6047.81982421875,-400000.0625
234.07241344451904,-400000.0625,9028.3896484375,1853.469970703125,-400000.0625,-1748.989990234375,-400000.0625,6051.39990234375,-400000.0625
234.09692788124084,-400000.0625,9030.33984375,1855.52001953125,-400000.0625,-1734.2099609375,-400000.0625,6055.31005859375,-400000.0625
234.13063859939575,-400000.0625,9033.490234375,1854.6099853515625,-400000.0625,-1729.3900146484375,-400000.0625,6051.58984375,-400000.0625
234.1930058002472,-400000.0625,9030.2998046875,1849.8900146484375,-400000.0625,-1741.3599853515625,-400000.0625,6042.580078125,-400000.0625
234.22054171562195,-400000.0625,9024.1904296875,1847.1700439453125,-400000.0625,-1739.68994140625,-400000.0625,6043.6298828125,-400000.0625
234.25358939170837,-400000.0625,9029.8203125,1854.469970703125,-400000.0625,-1738.4100341796875,-400000.0625,6049.009765625,-400000.0625
234.29049849510193,-400000.0625,9032.6298828125,1857.8499755859375,-400000.0625,-1746.0799560546875,-400000.0625,6053.72998046875,-400000.0625
234.3255512714386,-400000.0625,9027.6298828125,1853.9000244140625,-400000.0625,-1754.050048828125,-400000.0625,6053.93017578125,-400000.0625
234.35387587547302,-400000.0625,9025.2900390625,1846.8399658203125,-400000.0625,-1762.9100341796875,-400000.0625,6049.68017578125,-400000.0625
234.41376376152039,-400000.0625,9030.6298828125,1849.989990234375,-400000.0625,-1770.9300537109375,-400000.0625,6052.919921875,-400000.0625
234.4350025653839,-400000.0625,9039.5498046875,1857.4200439453125,-400000.0625,-1744.800048828125,-400000.0625,6055.5498046875,-400000.0625
234.4614737033844,-400000.0625,9039.7802734375,1862.719970703125,-400000.0625,-1721.239990234375,-400000.0625,6060.02978515625,-400000.0625
234.53225183486938,-400000.0625,9031.9599609375,1857.6600341796875,-400000.0625,-1735.5,-400000.0625,6052.68994140625,-400000.0625
234.56776428222656,-400000.0625,9028.0498046875,1850.1800537109375,-400000.0625,-1742.4599609375,-400000.0625,6048.2001953125,-400000.0625
234.62193727493286,-400000.0625,9027.6298828125,1849.93994140625,-400000.0625,-1740.8800048828125,-400000.0625,6050.25,-400000.0625
234.6627960205078,-400000.0625,9033.25,1858.9000244140625,-400000.0625,-1745.75,-400000.0625,6055.259765625,-400000.0625
234.68544006347656,-400000.0625,9040.01953125,1864.6700439453125,-400000.0625,-1758.5799560546875,-400000.0625,6061.4599609375,-400000.0625
234.75049591064453,-400000.0625,9036.9697265625,1860.5699462890625,-400000.0625,-1765.3499755859375,-400000.0625,6057.41015625,-400000.0625
234.76970314979553,-400000.0625,9030.25,1854.93994140625,-400000.0625,-1750.3699951171875,-400000.0625,6050.06005859375,-400000.0625
234.8296139240265,-400000.0625,9031.2001953125,1854.93994140625,-400000.0625,-1739.449951171875,-400000.0625,6051.68017578125,-400000.0625
234.88134336471558,-400000.0625,9039.3603515625,1862.719970703125,-400000.0625,-1732.8699951171875,-400000.0625,6058.740234375,-400000.0625
234.91119742393494,-400000.0625,9042.259765625,1866.199951171875,-400000.0625,-1732.25,-400000.0625,6060.97998046875,-400000.0625
234.9407308101654,-400000.0625,9034.919921875,1860.5699462890625,-400000.0625,-1745.1800537109375,-400000.0625,6055.740234375,-400000.0625
234.99744582176208,-400000.0625,9030.8701171875,1855.1800537109375,-400000.0625,-1759.3399658203125,-400000.0625,6049.490234375,-400000.0625
235.02729201316833,-400000.0625,9035.01953125,1858.6199951171875,-400000.0625,-1748.6099853515625,-400000.0625,6048.6298828125,-400000.0625
235.0501937866211,-400000.0625,9037.5400390625,1864.3399658203125,-400000.0625,-1725.719970703125,-400000.0625,6054.5498046875,-400000.0625
235.09413480758667,-400000.0625,9041.98046875,1868.199951171875,-400000.0625,-1720.239990234375,-400000.0625,6059.64990234375,-400000.0625
235.11587262153625,-400000.0625,9038.7802734375,1864.3399658203125,-400000.0625,-1731.72998046875,-400000.0625,6053.72998046875,-400000.0625
235.13744282722473,-400000.0625,9035.6796875,1860.050048828125,-400000.0625,-1741.8399658203125,-400000.0625,6052.39990234375,-400000.0625
235.16189908981323,-400000.0625,9036.349609375,1859.3800048828125,-400000.0625,-1744.800048828125,-400000.0625,6053.68994140625,-400000.0625
235.2013213634491,-400000.0625,9036.01953125,1861.050048828125,-400000.0625,-1755.0899658203125,-400000.0625,6054.68994140625,-400000.0625
235.22787642478943,-400000.0625,9037.58984375,1861.949951171875,-400000.0625,-1752.949951171875,-400000.0625,6060.02978515625,-400000.0625
235.25329113006592,-400000.0625,9038.6396484375,1856.7099609375,-400000.0625,-1738.5,-400000.0625,6056.35986328125,-400000.0625
235.28710508346558,-400000.0625,9031.919921875,1851.699951171875,-400000.0625,-1743.030029296875,-400000.0625,6050.2998046875,-400000.0625
235.33579564094543,-400000.0625,9031.25,1854.7099609375,-400000.0625,-1748.510009765625,-400000.0625,6053.64013671875,-400000.0625
235.3713128566742,-400000.0625,9040.8798828125,1861.949951171875,-400000.0625,-1732.1600341796875,-400000.0625,6060.35986328125,-400000.0625
235.39730381965637,-400000.0625,9044.5498046875,1866.9599609375,-400000.0625,-1731.489990234375,-400000.0625,6060.7001953125,-400000.0625
235.44548559188843,-400000.0625,9039.8798828125,1863.8599853515625,-400000.0625,-1733.8800048828125,-400000.0625,6056.35986328125,-400000.0625
235.48119831085205,-400000.0625,9035.8701171875,1856.3699951171875,-400000.0625,-1742.4100341796875,-400000.0625,6046.6298828125,-400000.0625
235.51150274276733,-400000.0625,9036.4501953125,1854.4200439453125,-400000.0625,-1748.0899658203125,-400000.0625,6048.39013671875,-400000.0625
235.54821157455444,-400000.0625,9035.01953125,1857.3299560546875,-400000.0625,-1758.6199951171875,-400000.0625,6056.60009765625,-400000.0625
235.5771508216858,-400000.0625,9041.2197265625,1864.47998046875,-400000.0625,-1767.06005859375,-400000.0625,6059.7001953125,-400000.0625
235.6074857711792,-400000.0625,9034.830078125,1857.6099853515625,-400000.0625,-1755.81005859375,-400000.0625,6054.93017578125,-400000.0625
235.63005113601685,-400000.0625,9022.51953125,1849.8399658203125,-400000.0625,-1749.4200439453125,-400000.0625,6047.919921875,-400000.0625
235.67728304862976,-400000.0625,9023.1396484375,1850.8399658203125,-400000.0625,-1748.280029296875,-400000.0625,6048.77978515625,-400000.0625
235.7072570323944,-400000.0625,9034.9697265625,1854.7099609375,-400000.0625,-1738.739990234375,-400000.0625,6055.93017578125,-400000.0625
235.73377084732056,-400000.0625,9039.259765625,1855.800048828125,-400000.0625,-1738.260009765625,-400000.0625,6064.83984375,-400000.0625
235.8093478679657,-400000.0625,9023.91015625,1849.3699951171875,-400000.0625,-1745.6099853515625,-400000.0625,6062.83984375,-400000.0625
235.84908771514893,-400000.0625,9017.51953125,1844.7900390625,-400000.0625,-1751.760009765625,-400000.0625,6056.169921875,-400000.0625
235.89337611198425,-400000.0625,9027.2001953125,1845.4599609375,-400000.0625,-1752.3299560546875,-400000.0625,6059.64990234375,-400000.0625
235.9184274673462,-400000.0625,9030.9599609375,1849.56005859375,-400000.0625,-1745.93994140625,-400000.0625,6067.1298828125,-400000.0625
235.94407725334167,-400000.0625,9031.580078125,1856.7099609375,-400000.0625,-1751.949951171875,-400000.0625,6069.22998046875,-400000.0625
235.96694016456604,-400000.0625,9032.4404296875,1855.52001953125,-400000.0625,-1754.239990234375,-400000.0625,6063.080078125,-400000.0625
236.00566744804382,-400000.0625,9028.9599609375,1851.030029296875,-400000.0625,-1759.239990234375,-400000.0625,6057.60009765625,-400000.0625
236.03435707092285,-400000.0625,9028.669921875,1851.27001953125,-400000.0625,-1755.0,-400000.0625,6056.259765625,-400000.0625
236.0644495487213,-400000.0625,9036.58984375,1853.3199462890625,-400000.0625,-1747.22998046875,-400000.0625,6061.02978515625,-400000.0625
236.0974669456482,-400000.0625,9040.5,1855.22998046875,-400000.0625,-1738.68994140625,-400000.0625,6065.990234375,-400000.0625
236.14066433906555,-400000.0625,9032.25,1853.75,-400000.0625,-1738.68994140625,-400000.0625,6061.27001953125,-400000.0625
236.1659550666809,-400000.0625,9023.330078125,1847.7900390625,-400000.0625,-1742.97998046875,-400000.0625,6055.77978515625,-400000.0625
236.19053769111633,-400000.0625,9027.669921875,1848.6500244140625,-400000.0625,-1749.800048828125,-400000.0625,6061.1298828125,-400000.0625
236.2177677154541,-400000.0625,9033.8203125,1856.22998046875,-400000.0625,-1753.0400390625,-400000.0625,6063.75,-400000.0625
236.26766633987427,-400000.0625,9039.9296875,1865.0999755859375,-400000.0625,-1742.4599609375,-400000.0625,6067.75,-400000.0625
236.29120111465454,-400000.0625,9040.01953125,1862.0,-400000.0625,-1734.2099609375,-400000.0625,6063.64990234375,-400000.0625
236.3229866027832,-400000.0625,9032.0595703125,1854.22998046875,-400000.0625,-1747.56005859375,-400000.0625,6054.64013671875,-400000.0625
236.44602513313293,-400000.0625,9032.25,1853.989990234375,-400000.0625,-1759.239990234375,-400000.0625,6056.68994140625,-400000.0625
236.57960963249207,-400000.0625,9035.830078125,1856.469970703125,-400000.0625,-1747.1300048828125,-400000.0625,6063.56005859375,-400000.0625
236.64514899253845,-400000.0625,9040.7900390625,1859.3800048828125,-400000.0625,-1747.699951171875,-400000.0625,6069.85009765625,-400000.0625
236.709575176239,-400000.0625,9038.01953125,1855.469970703125,-400000.0625,-1759.1500244140625,-400000.0625,6062.990234375,-400000.0625
236.76813673973083,-400000.0625,9032.009765625,1849.0799560546875,-400000.0625,-1743.5999755859375,-400000.0625,6055.259765625,-400000.0625
236.83492755889893,-400000.0625,9030.8701171875,1848.27001953125,-400000.0625,-1731.780029296875,-400000.0625,6057.02001953125,-400000.0625
236.93179726600647,-400000.0625,9034.2998046875,1852.8499755859375,-400000.0625,-1735.780029296875,-400000.0625,6064.7001953125,-400000.0625
236.9674687385559,-400000.0625,9039.0703125,1857.1400146484375,-400000.0625,-1738.3599853515625,-400000.0625,6071.3798828125,-400000.0625
237.04104328155518,-400000.0625,9034.1103515625,1852.27001953125,-400000.0625,-1748.75,-400000.0625,6061.89013671875,-400000.0625
237.10793280601501,-400000.0625,9025.6201171875,1844.68994140625,-400000.0625,-1760.9100341796875,-400000.0625,6051.58984375,-400000.0625
237.16734862327576,-400000.0625,9026.0,1843.6400146484375,-400000.0625,-1763.5799560546875,-400000.0625,6052.97021484375,-400000.0625
237.2108118534088,-400000.0625,9027.8603515625,1848.1300048828125,-400000.0625,-1747.510009765625,-400000.0625,6059.740234375,-400000.0625
237.2681987285614,-400000.0625,9036.400390625,1856.9000244140625,-400000.0625,-1739.9300537109375,-400000.0625,6064.080078125,-400000.0625
237.33087277412415,-400000.0625,9037.6396484375,1853.9000244140625,-400000.0625,-1767.72998046875,-400000.0625,6068.66015625,-400000.0625
237.38821053504944,-400000.0625,9028.4404296875,1845.5,-400000.0625,-1771.02001953125,-400000.0625,6058.60009765625,-400000.0625
237.4528443813324,-400000.0625,9024.5302734375,1846.0799560546875,-400000.0625,-1741.550048828125,-400000.0625,6048.10986328125,-400000.0625
237.5586495399475,-400000.0625,9029.099609375,1848.0799560546875,-400000.0625,-1728.6300048828125,-400000.0625,6055.259765625,-400000.0625
237.67261815071106,-400000.0625,9033.1103515625,1855.3299560546875,-400000.0625,-1731.300048828125,-400000.0625,6059.83984375,-400000.0625
237.78856587409973,-400000.0625,9026.669921875,1851.0799560546875,-400000.0625,-1747.469970703125,-400000.0625,6060.60009765625,-400000.0625
237.9665026664734,-400000.0625,9024.240234375,1844.219970703125,-400000.0625,-1759.4300537109375,-400000.0625,6055.64013671875,-400000.0625
238.0587956905365,-400000.0625,9031.490234375,1847.27001953125,-400000.0625,-1758.530029296875,-400000.0625,6057.68994140625,-400000.0625
238.1225836277008,-400000.0625,9032.9697265625,1850.8900146484375,-400000.0625,-1756.2900390625,-400000.0625,6059.89013671875,-400000.0625
238.2002522945404,-400000.0625,9032.349609375,1853.93994140625,-400000.0625,-1747.800048828125,-400000.0625,6059.60009765625,-400000.0625
238.26956701278687,-400000.0625,9025.150390625,1848.030029296875,-400000.0625,-1747.1800537109375,-400000.0625,6057.41015625,-400000.0625
238.37601494789124,-400000.0625,9018.330078125,1839.68994140625,-400000.0625,-1749.1800537109375,-400000.0625,6051.68017578125,-400000.0625
238.49633312225342,-400000.0625,9025.669921875,1845.030029296875,-400000.0625,-1742.3599853515625,-400000.0625,6052.35009765625,-400000.0625
238.60436630249023,-400000.0625,9029.9599609375,1852.4200439453125,-400000.0625,-1742.550048828125,-400000.0625,6050.919921875,-400000.0625
238.7402241230011,-400000.0625,9024.4296875,1853.0799560546875,-400000.0625,-1740.1700439453125,-400000.0625,6055.97998046875,-400000.0625
238.85309863090515,-400000.0625,9014.8896484375,1841.2099609375,-400000.0625,-1756.3299560546875,-400000.0625,6077.39013671875,-400000.0625
238.9412922859192,-400000.0625,9010.2197265625,1826.47998046875,-400000.0625,-1770.72998046875,-400000.0625,6082.77001953125,-400000.0625
238.97304391860962,-400000.0625,9013.2197265625,1821.22998046875,-400000.0625,-1769.02001953125,-400000.0625,6086.97021484375,-400000.0625
239.03814458847046,-400000.0625,9017.4697265625,1816.0799560546875,-400000.0625,-1760.239990234375,-400000.0625,6102.93994140625,-400000.0625
239.0692548751831,-400000.0625,9012.5595703125,1808.2099609375,-400000.0625,-1763.77001953125,-400000.0625,6121.25,-400000.0625
239.10140371322632,-400000.0625,9006.6396484375,1791.8599853515625,-400000.0625,-1770.9300537109375,-400000.0625,6134.83984375,-400000.0625
239.1652271747589,-400000.0625,9000.16015625,1769.1099853515625,-400000.0625,-1788.52001953125,-400000.0625,6152.490234375,-400000.0625
239.19976687431335,-400000.0625,8998.2998046875,1758.530029296875,-400000.0625,-1795.8199462890625,-400000.0625,6170.60986328125,-400000.0625
239.23416090011597,-400000.0625,9000.9697265625,1753.239990234375,-400000.0625,-1793.6700439453125,-400000.0625,6192.16015625,-400000.0625
239.27916622161865,-400000.0625,9001.919921875,1744.93994140625,-400000.0625,-1786.3299560546875,-400000.0625,6211.56982421875,-400000.0625
239.2979645729065,-400000.0625,9000.2099609375,1735.4000244140625,-400000.0625,-1786.1800537109375,-400000.0625,6221.81982421875,-400000.0625
239.3285195827484,-400000.0625,8988.6201171875,1715.0899658203125,-400000.0625,-1791.760009765625,-400000.0625,6238.31982421875,-400000.0625
239.34831047058105,-400000.0625,8986.66015625,1702.02001953125,-400000.0625,-1801.489990234375,-400000.0625,6252.0,-400000.0625
239.4053406715393,-400000.0625,8999.009765625,1695.8199462890625,-400000.0625,-1809.8399658203125,-400000.0625,6277.89990234375,-400000.0625
239.4384686946869,-400000.0625,9000.830078125,1688.6700439453125,-400000.0625,-1811.8900146484375,-400000.0625,6302.97998046875,-400000.0625
239.46629118919373,-400000.0625,8991.150390625,1678.6099853515625,-400000.0625,-1820.760009765625,-400000.0625,6321.81005859375,-400000.0625
239.5242896080017,-400000.0625,8981.1298828125,1661.72998046875,-400000.0625,-1833.530029296875,-400000.0625,6338.31005859375,-400000.0625
239.5466787815094,-400000.0625,8984.8095703125,1654.3399658203125,-400000.0625,-1832.489990234375,-400000.0625,6357.81005859375,-400000.0625
239.57533621788025,-400000.0625,8991.4296875,1649.18994140625,-400000.0625,-1822.760009765625,-400000.0625,6378.990234375,-400000.0625
239.61554050445557,-400000.0625,8996.009765625,1648.1400146484375,-400000.0625,-1816.4599609375,-400000.0625,6400.97021484375,-400000.0625
239.6316957473755,-400000.0625,8988.3798828125,1637.1300048828125,-400000.0625,-1824.760009765625,-400000.0625,6415.56005859375,-400000.0625
239.65659475326538,-400000.0625,8975.41015625,1623.6800537109375,-400000.0625,-1844.739990234375,-400000.0625,6423.9501953125,-400000.0625
239.6793270111084,-400000.0625,8976.080078125,1619.47998046875,-400000.0625,-1857.9000244140625,-400000.0625,6443.169921875,-400000.0625
239.71469020843506,-400000.0625,8980.1298828125,1619.530029296875,-400000.0625,-1850.6500244140625,-400000.0625,6467.43994140625,-400000.0625
239.7309319972992,-400000.0625,8991.150390625,1619.199951171875,-400000.0625,-1839.6400146484375,-400000.0625,6485.60986328125,-400000.0625
239.7500672340393,-400000.0625,8991.8603515625,1611.6600341796875,-400000.0625,-1845.8800048828125,-400000.0625,6501.2001953125,-400000.0625
239.76645803451538,-400000.0625,8986.330078125,1604.030029296875,-400000.0625,-1848.550048828125,-400000.0625,6515.31005859375,-400000.0625
239.80874109268188,-400000.0625,8988.669921875,1599.3599853515625,-400000.0625,-1852.3699951171875,-400000.0625,6524.9501953125,-400000.0625
239.8597869873047,-400000.0625,8982.419921875,1595.739990234375,-400000.0625,-1865.6700439453125,-400000.0625,6539.14990234375,-400000.0625
239.89061903953552,-400000.0625,8986.0498046875,1597.4000244140625,-400000.0625,-1867.3399658203125,-400000.0625,6556.64990234375,-400000.0625
239.92435264587402,-400000.0625,8991.099609375,1591.8699951171875,-400000.0625,-1854.6600341796875,-400000.0625,6567.0498046875,-400000.0625
239.96112871170044,-400000.0625,8986.8095703125,1587.0999755859375,-400000.0625,-1852.6099853515625,-400000.0625,6574.68017578125,-400000.0625
239.99099564552307,-400000.0625,8985.23046875,1584.47998046875,-400000.0625,-1858.7099609375,-400000.0625,6585.169921875,-400000.0625
240.04909825325012,-400000.0625,8989.8095703125,1587.25,-400000.0625,-1857.0899658203125,-400000.0625,6598.56982421875,-400000.0625
240.13823866844177,-400000.0625,8997.25,1590.06005859375,-400000.0625,-1853.9000244140625,-400000.0625,6607.77001953125,-400000.0625
240.17329788208008,-400000.0625,8989.0498046875,1580.1400146484375,-400000.0625,-1867.0999755859375,-400000.0625,6608.43994140625,-400000.0625
240.24431371688843,-400000.0625,8979.1298828125,1571.75,-400000.0625,-1879.550048828125,-400000.0625,6613.2998046875,-400000.0625
240.31762599945068,-400000.0625,8979.1298828125,1570.6099853515625,-400000.0625,-1880.219970703125,-400000.0625,6613.77978515625,-400000.0625
240.42291498184204,-400000.0625,8981.900390625,1571.4599609375,-400000.0625,-1870.199951171875,-400000.0625,6619.169921875,-400000.0625
240.51612877845764,-400000.0625,8985.1904296875,1573.1300048828125,-400000.0625,-1873.1600341796875,-400000.0625,6623.60009765625,-400000.0625
240.55498147010803,-400000.0625,8989.6201171875,1575.280029296875,-400000.0625,-1872.6800537109375,-400000.0625,6618.68994140625,-400000.0625
240.62313652038574,-400000.0625,8971.740234375,1562.4000244140625,-400000.0625,-1878.1199951171875,-400000.0625,6605.14990234375,-400000.0625
240.66525983810425,-400000.0625,8969.01953125,1559.5,-400000.0625,-1875.8800048828125,-400000.0625,6596.7998046875,-400000.0625
240.7462878227234,-400000.0625,8974.599609375,1571.3199462890625,-400000.0625,-1867.0999755859375,-400000.0625,6594.52001953125,-400000.0625
240.82580852508545,-400000.0625,8985.330078125,1578.6600341796875,-400000.0625,-1856.760009765625,-400000.0625,6596.47021484375,-400000.0625
240.9016284942627,-400000.0625,8984.23046875,1576.5699462890625,-400000.0625,-1859.9000244140625,-400000.0625,6589.7900390625,-400000.0625
240.95226383209229,-400000.0625,8978.6103515625,1570.3199462890625,-400000.0625,-1869.5799560546875,-400000.0625,6579.77978515625,-400000.0625
241.01981472969055,-400000.0625,8979.75,1572.4200439453125,-400000.0625,-1869.9599609375,-400000.0625,6574.2998046875,-400000.0625
241.04799842834473,-400000.0625,8980.3203125,1576.0899658203125,-400000.0625,-1865.4300537109375,-400000.0625,6579.06982421875,-400000.0625
241.08198022842407,-400000.0625,8987.08984375,1583.0,-400000.0625,-1868.77001953125,-400000.0625,6583.169921875,-400000.0625
241.16045498847961,-400000.0625,8985.66015625,1586.489990234375,-400000.0625,-1871.300048828125,-400000.0625,6575.06005859375,-400000.0625
241.19953155517578,-400000.0625,8984.6103515625,1583.6700439453125,-400000.0625,-1882.7900390625,-400000.0625,6566.10009765625,-400000.0625
241.26605820655823,-400000.0625,8979.3701171875,1584.4300537109375,-400000.0625,-1882.7900390625,-400000.0625,6559.56005859375,-400000.0625
241.28952312469482,-400000.0625,8982.4697265625,1586.8699951171875,-400000.0625,-1861.8599853515625,-400000.0625,6559.66015625,-400000.0625
241.30657362937927,-400000.0625,8990.48046875,1596.8299560546875,-400000.0625,-1848.93994140625,-400000.0625,6560.330078125,-400000.0625
241.3615574836731,-400000.0625,8992.6298828125,1596.780029296875,-400000.0625,-1860.5699462890625,-400000.0625,6553.35986328125,-400000.0625
241.391774892807,-400000.0625,8978.4599609375,1588.010009765625,-400000.0625,-1870.8699951171875,-400000.0625,6541.58984375,-400000.0625
241.41722869873047,-400000.0625,8975.83984375,1585.6700439453125,-400000.0625,-1862.5699462890625,-400000.0625,6535.81982421875,-400000.0625
241.46676588058472,-400000.0625,8981.9404296875,1589.780029296875,-400000.0625,-1856.1400146484375,-400000.0625,6537.43994140625,-400000.0625
241.48261880874634,-400000.0625,8985.4296875,1596.3599853515625,-400000.0625,-1861.81005859375,-400000.0625,6538.06005859375,-400000.0625
241.50172686576843,-400000.0625,8983.7998046875,1600.219970703125,-400000.0625,-1860.7099609375,-400000.0625,6535.9599609375,-400000.0625
241.52667880058289,-400000.0625,8983.6103515625,1597.68994140625,-400000.0625,-1865.0999755859375,-400000.0625,6525.419921875,-400000.0625
241.57581663131714,-400000.0625,8987.8095703125,1601.8900146484375,-400000.0625,-1866.5799560546875,-400000.0625,6521.1298828125,-400000.0625
241.59724974632263,-400000.0625,8990.4296875,1605.030029296875,-400000.0625,-1853.56005859375,-400000.0625,6519.7998046875,-400000.0625
241.6329493522644,-400000.0625,8995.4404296875,1612.1400146484375,-400000.0625,-1845.8800048828125,-400000.0625,6520.4599609375,-400000.0625
241.68658900260925,-400000.0625,8984.6103515625,1606.3699951171875,-400000.0625,-1856.52001953125,-400000.0625,6510.2099609375,-400000.0625
241.70993542671204,-400000.0625,8972.6904296875,1597.5999755859375,-400000.0625,-1869.010009765625,-400000.0625,6502.52978515625,-400000.0625
241.74089097976685,-400000.0625,8979.75,1603.27001953125,-400000.0625,-1869.72998046875,-400000.0625,6504.25,-400000.0625
241.82364630699158,-400000.0625,8980.5595703125,1603.4599609375,-400000.0625,-1861.4300537109375,-400000.0625,6500.77001953125,-400000.0625
241.8871624469757,-400000.0625,8978.650390625,1604.3199462890625,-400000.0625,-1843.4000244140625,-400000.0625,6498.10009765625,-400000.0625
241.9589924812317,-400000.0625,8977.599609375,1607.56005859375,-400000.0625,-1845.8800048828125,-400000.0625,6495.14013671875,-400000.0625
241.99985337257385,-400000.0625,8973.169921875,1603.1700439453125,-400000.0625,-1856.949951171875,-400000.0625,6485.83984375,-400000.0625
242.08845782279968,-400000.0625,8972.7900390625,1607.4200439453125,-400000.0625,-1857.7099609375,-400000.0625,6485.83984375,-400000.0625
242.1335895061493,-400000.0625,8978.990234375,1611.8499755859375,-400000.0625,-1855.8499755859375,-400000.0625,6487.3701171875,-400000.0625
242.1806766986847,-400000.0625,8987.1904296875,1616.9100341796875,-400000.0625,-1851.22998046875,-400000.0625,6485.75,-400000.0625
242.22811436653137,-400000.0625,8981.4697265625,1612.0899658203125,-400000.0625,-1860.050048828125,-400000.0625,6476.259765625,-400000.0625
242.26843786239624,-400000.0625,8971.98046875,1604.0799560546875,-400000.0625,-1867.8699951171875,-400000.0625,6465.52978515625,-400000.0625
242.33978748321533,-400000.0625,8976.0302734375,1613.9000244140625,-400000.0625,-1856.1800537109375,-400000.0625,6462.0498046875,-400000.0625
242.39213013648987,-400000.0625,8981.6103515625,1618.9100341796875,-400000.0625,-1851.75,-400000.0625,6465.39013671875,-400000.0625
242.45467329025269,-400000.0625,8986.9501953125,1621.1500244140625,-400000.0625,-1856.1800537109375,-400000.0625,6464.43017578125,-400000.0625
242.4837441444397,-400000.0625,8984.6103515625,1622.25,-400000.0625,-1850.4100341796875,-400000.0625,6458.43017578125,-400000.0625
242.523286819458,-400000.0625,8979.7998046875,1617.8599853515625,-400000.0625,-1839.2099609375,-400000.0625,6449.27001953125,-400000.0625
242.5857036113739,-400000.0625,8978.9404296875,1615.2900390625,-400000.0625,-1841.6400146484375,-400000.0625,6447.7001953125,-400000.0625
242.6199061870575,-400000.0625,8984.9501953125,1621.9100341796875,-400000.0625,-1836.25,-400000.0625,6444.02978515625,-400000.0625
242.66981887817383,-400000.0625,8989.3798828125,1626.6800537109375,-400000.0625,-1831.530029296875,-400000.0625,6442.60009765625,-400000.0625
242.73866438865662,-400000.0625,8988.759765625,1626.25,-400000.0625,-1847.1199951171875,-400000.0625,6438.4501953125,-400000.0625
242.77521872520447,-400000.0625,8983.66015625,1622.719970703125,-400000.0625,-1867.489990234375,-400000.0625,6433.580078125,-400000.0625
242.85761308670044,-400000.0625,8984.0400390625,1622.719970703125,-400000.0625,-1859.0899658203125,-400000.0625,6430.33984375,-400000.0625
242.89248609542847,-400000.0625,8993.9599609375,1631.6400146484375,-400000.0625,-1837.9200439453125,-400000.0625,6439.35009765625,-400000.0625
242.98725271224976,-400000.0625,8993.8701171875,1636.030029296875,-400000.0625,-1849.4599609375,-400000.0625,6439.5,-400000.0625
243.02980089187622,-400000.0625,8985.1904296875,1628.449951171875,-400000.0625,-1855.56005859375,-400000.0625,6425.91015625,-400000.0625
243.0894091129303,-400000.0625,8977.83984375,1620.0999755859375,-400000.0625,-1848.699951171875,-400000.0625,6412.41015625,-400000.0625
243.11870193481445,-400000.0625,8976.1298828125,1617.5699462890625,-400000.0625,-1853.280029296875,-400000.0625,6410.5,-400000.0625
243.15343022346497,-400000.0625,8979.080078125,1626.1600341796875,-400000.0625,-1849.27001953125,-400000.0625,6415.22021484375,-400000.0625
243.22536206245422,-400000.0625,8992.580078125,1641.27001953125,-400000.0625,-1830.8199462890625,-400000.0625,6417.22998046875,-400000.0625
243.26413798332214,-400000.0625,8992.7197265625,1640.800048828125,-400000.0625,-1832.530029296875,-400000.0625,6413.64990234375,-400000.0625
243.35008931159973,-400000.0625,8983.5703125,1635.5,-400000.0625,-1839.0699462890625,-400000.0625,6407.5498046875,-400000.0625
243.38833260536194,-400000.0625,8989.8603515625,1639.3699951171875,-400000.0625,-1833.489990234375,-400000.0625,6408.83984375,-400000.0625
243.45755100250244,-400000.0625,8992.76953125,1640.8399658203125,-400000.0625,-1838.8800048828125,-400000.0625,6410.5498046875,-400000.0625
243.49648308753967,-400000.0625,8999.0595703125,1645.3299560546875,-400000.0625,-1851.800048828125,-400000.0625,6410.89013671875,-400000.0625
243.56511163711548,-400000.0625,8997.16015625,1644.52001953125,-400000.0625,-1845.31005859375,-400000.0625,6408.169921875,-400000.0625
243.5987672805786,-400000.0625,8989.1904296875,1637.1300048828125,-400000.0625,-1855.22998046875,-400000.0625,6396.06005859375,-400000.0625
243.69461584091187,-400000.0625,8987.3798828125,1638.699951171875,-400000.0625,-1865.0999755859375,-400000.0625,6391.9599609375,-400000.0625
243.72216939926147,-400000.0625,8991.8603515625,1642.75,-400000.0625,-1845.260009765625,-400000.0625,6392.52978515625,-400000.0625
243.78185415267944,-400000.0625,8996.6298828125,1647.5699462890625,-400000.0625,-1837.6800537109375,-400000.0625,6396.68017578125,-400000.0625
243.84030437469482,-400000.0625,8997.580078125,1651.3299560546875,-400000.0625,-1830.9100341796875,-400000.0625,6390.759765625,-400000.0625
243.90168118476868,-400000.0625,8993.009765625,1645.949951171875,-400000.0625,-1829.3399658203125,-400000.0625,6375.35986328125,-400000.0625
243.93011379241943,-400000.0625,8991.8603515625,1645.469970703125,-400000.0625,-1836.1600341796875,-400000.0625,6375.02978515625,-400000.0625
243.9732813835144,-400000.0625,9007.83984375,1657.43994140625,-400000.0625,-1831.3900146484375,-400000.0625,6384.52001953125,-400000.0625
244.03867769241333,-400000.0625,9007.740234375,1659.010009765625,-400000.0625,-1844.1199951171875,-400000.0625,6385.419921875,-400000.0625
244.068918466568,-400000.0625,9000.919921875,1656.0999755859375,-400000.0625,-1859.760009765625,-400000.0625,6372.02001953125,-400000.0625
244.10702514648438,-400000.0625,8997.2998046875,1651.760009765625,-400000.0625,-1858.280029296875,-400000.0625,6368.97021484375,-400000.0625
244.19394755363464,-400000.0625,8996.6298828125,1654.199951171875,-400000.0625,-1841.0699462890625,-400000.0625,6364.25,-400000.0625
244.2336506843567,-400000.0625,9002.400390625,1661.010009765625,-400000.0625,-1818.6099853515625,-400000.0625,6364.2998046875,-400000.0625
244.28842163085938,-400000.0625,9003.3095703125,1664.8800048828125,-400000.0625,-1821.3299560546875,-400000.0625,6367.490234375,-400000.0625
244.31897139549255,-400000.0625,9004.259765625,1667.97998046875,-400000.0625,-1830.8199462890625,-400000.0625,6365.35009765625,-400000.0625
244.34697222709656,-400000.0625,8999.830078125,1663.5899658203125,-400000.0625,-1848.0799560546875,-400000.0625,6364.2998046875,-400000.0625
244.41120266914368,-400000.0625,9006.6396484375,1660.300048828125,-400000.0625,-1848.4100341796875,-400000.0625,6374.64990234375,-400000.0625
244.45409727096558,-400000.0625,9000.0595703125,1654.8599853515625,-400000.0625,-1836.199951171875,-400000.0625,6380.75,-400000.0625
244.51743412017822,-400000.0625,8999.009765625,1657.06005859375,-400000.0625,-1837.8299560546875,-400000.0625,6386.759765625,-400000.0625
244.5516448020935,-400000.0625,9000.16015625,1656.3399658203125,-400000.0625,-1849.989990234375,-400000.0625,6393.10009765625,-400000.0625
244.60205459594727,-400000.0625,8994.580078125,1646.81005859375,-400000.0625,-1849.3199462890625,-400000.0625,6388.9501953125,-400000.0625
244.6540012359619,-400000.0625,8985.849609375,1638.56005859375,-400000.0625,-1846.1199951171875,-400000.0625,6387.759765625,-400000.0625
244.68234276771545,-400000.0625,8990.240234375,1642.8900146484375,-400000.0625,-1835.1600341796875,-400000.0625,6390.85986328125,-400000.0625
244.71482253074646,-400000.0625,8997.7802734375,1651.5699462890625,-400000.0625,-1829.77001953125,-400000.0625,6396.39013671875,-400000.0625
244.80994534492493,-400000.0625,8998.7802734375,1651.8599853515625,-400000.0625,-1838.8800048828125,-400000.0625,6392.77001953125,-400000.0625
244.86802554130554,-400000.0625,8992.8203125,1647.3800048828125,-400000.0625,-1842.97998046875,-400000.0625,6383.93994140625,-400000.0625
244.92115545272827,-400000.0625,8994.490234375,1648.0,-400000.0625,-1845.7900390625,-400000.0625,6384.52001953125,-400000.0625
244.95155310630798,-400000.0625,9003.7802734375,1656.5799560546875,-400000.0625,-1856.9000244140625,-400000.0625,6387.89990234375,-400000.0625
244.98614239692688,-400000.0625,9004.2099609375,1657.9200439453125,-400000.0625,-1858.280029296875,-400000.0625,6385.60986328125,-400000.0625
245.03975772857666,-400000.0625,8999.400390625,1651.6700439453125,-400000.0625,-1853.56005859375,-400000.0625,6378.56005859375,-400000.0625
245.06886219978333,-400000.0625,8992.8203125,1645.1400146484375,-400000.0625,-1847.9300537109375,-400000.0625,6368.77978515625,-400000.0625
245.0959403514862,-400000.0625,8995.6298828125,1650.760009765625,-400000.0625,-1844.550048828125,-400000.0625,6367.02001953125,-400000.0625
245.152428150177,-400000.0625,9006.01953125,1658.1099853515625,-400000.0625,-1843.1700439453125,-400000.0625,6370.259765625,-400000.0625
245.1849913597107,-400000.0625,9009.41015625,1660.5400390625,-400000.0625,-1839.9200439453125,-400000.0625,6370.64013671875,-400000.0625
245.21397829055786,-400000.0625,9004.6904296875,1662.9200439453125,-400000.0625,-1833.9200439453125,-400000.0625,6366.77978515625,-400000.0625
245.2724769115448,-400000.0625,9001.830078125,1660.72998046875,-400000.0625,-1835.5400390625,-400000.0625,6358.240234375,-400000.0625
245.30638313293457,-400000.0625,9004.0703125,1658.489990234375,-400000.0625,-1834.3499755859375,-400000.0625,6353.3798828125,-400000.0625
245.33199882507324,-400000.0625,9009.8896484375,1663.8299560546875,-400000.0625,-1850.800048828125,-400000.0625,6358.91015625,-400000.0625
245.38145995140076,-400000.0625,9016.7099609375,1670.8900146484375,-400000.0625,-1849.1300048828125,-400000.0625,6361.490234375,-400000.0625
245.40120100975037,-400000.0625,9018.7099609375,1671.9300537109375,-400000.0625,-1831.47998046875,-400000.0625,6359.240234375,-400000.0625
245.42834091186523,-400000.0625,9009.9296875,1669.219970703125,-400000.0625,-1822.280029296875,-400000.0625,6352.85009765625,-400000.0625
245.4602587223053,-400000.0625,9014.3203125,1669.8800048828125,-400000.0625,-1827.18994140625,-400000.0625,6355.0,-400000.0625
245.52016186714172,-400000.0625,9011.7900390625,1665.8800048828125,-400000.0625,-1842.449951171875,-400000.0625,6355.10009765625,-400000.0625
245.55025339126587,-400000.0625,9017.6103515625,1674.1800537109375,-400000.0625,-1844.1199951171875,-400000.0625,6353.0498046875,-400000.0625
245.58283233642578,-400000.0625,9017.330078125,1673.8900146484375,-400000.0625,-1842.9300537109375,-400000.0625,6349.08984375,-400000.0625
245.6240828037262,-400000.0625,9012.7998046875,1667.6400146484375,-400000.0625,-1847.550048828125,-400000.0625,6339.169921875,-400000.0625
245.64174151420593,-400000.0625,9011.7001953125,1670.030029296875,-400000.0625,-1837.9200439453125,-400000.0625,6344.18017578125,-400000.0625
245.67205834388733,-400000.0625,9022.2802734375,1680.5699462890625,-400000.0625,-1824.81005859375,-400000.0625,6347.31982421875,-400000.0625
245.71534895896912,-400000.0625,9030.3896484375,1686.81005859375,-400000.0625,-1834.8199462890625,-400000.0625,6349.419921875,-400000.0625
245.76873588562012,-400000.0625,9029.3896484375,1686.239990234375,-400000.0625,-1847.699951171875,-400000.0625,6346.1298828125,-400000.0625
245.8198184967041,-400000.0625,9019.8095703125,1678.1300048828125,-400000.0625,-1845.7900390625,-400000.0625,6333.10986328125,-400000.0625
245.88573908805847,-400000.0625,9018.6103515625,1679.1300048828125,-400000.0625,-1831.3399658203125,-400000.0625,6331.64013671875,-400000.0625
245.91675281524658,-400000.0625,9028.8203125,1688.18994140625,-400000.0625,-1810.8399658203125,-400000.0625,6338.4501953125,-400000.0625
245.94306254386902,-400000.0625,9035.2099609375,1694.5400390625,-400000.0625,-1814.4599609375,-400000.0625,6343.4599609375,-400000.0625
246.0117244720459,-400000.0625,9034.830078125,1693.77001953125,-400000.0625,-1824.3299560546875,-400000.0625,6337.41015625,-400000.0625
246.05148887634277,-400000.0625,9030.7197265625,1687.3800048828125,-400000.0625,-1833.530029296875,-400000.0625,6325.91015625,-400000.0625
246.10655999183655,-400000.0625,9035.01953125,1687.9599609375,-400000.0625,-1834.43994140625,-400000.0625,6325.14990234375,-400000.0625
246.1335151195526,-400000.0625,9038.3095703125,1692.8699951171875,-400000.0625,-1828.9599609375,-400000.0625,6332.4501953125,-400000.0625
246.1534023284912,-400000.0625,9042.599609375,1696.6300048828125,-400000.0625,-1837.02001953125,-400000.0625,6332.2998046875,-400000.0625
246.19887351989746,-400000.0625,9037.6396484375,1693.6800537109375,-400000.0625,-1840.5400390625,-400000.0625,6327.06005859375,-400000.0625
246.23377633094788,-400000.0625,9033.8701171875,1691.43994140625,-400000.0625,-1827.18994140625,-400000.0625,6323.85986328125,-400000.0625
246.2551565170288,-400000.0625,9034.2099609375,1691.010009765625,-400000.0625,-1815.510009765625,-400000.0625,6321.240234375,-400000.0625
246.30065274238586,-400000.0625,9039.2099609375,1698.8299560546875,-400000.0625,-1813.75,-400000.0625,6321.56982421875,-400000.0625
246.3303382396698,-400000.0625,9044.1201171875,1702.1199951171875,-400000.0625,-1820.3299560546875,-400000.0625,6323.81982421875,-400000.0625
246.35391283035278,-400000.0625,9043.9296875,1702.449951171875,-400000.0625,-1831.9100341796875,-400000.0625,6322.85986328125,-400000.0625
246.38263392448425,-400000.0625,9034.4404296875,1694.5400390625,-400000.0625,-1840.4000244140625,-400000.0625,6313.22998046875,-400000.0625
246.42520904541016,-400000.0625,9034.2998046875,1691.25,-400000.0625,-1834.1099853515625,-400000.0625,6307.75,-400000.0625
246.46401572227478,-400000.0625,9038.7802734375,1694.5799560546875,-400000.0625,-1831.3399658203125,-400000.0625,6308.75,-400000.0625
246.50053691864014,-400000.0625,9042.6904296875,1699.5,-400000.0625,-1824.52001953125,-400000.0625,6313.27978515625,-400000.0625
246.57324385643005,-400000.0625,9042.83984375,1699.72998046875,-400000.0625,-1804.0699462890625,-400000.0625,6305.64990234375,-400000.0625
246.60641050338745,-400000.0625,9035.5400390625,1692.9599609375,-400000.0625,-1814.4100341796875,-400000.0625,6302.830078125,-400000.0625
246.67092537879944,-400000.0625,9033.9697265625,1693.3900146484375,-400000.0625,-1823.22998046875,-400000.0625,6300.02001953125,-400000.0625
246.68992400169373,-400000.0625,9040.7900390625,1697.969970703125,-400000.0625,-1823.280029296875,-400000.0625,6299.259765625,-400000.0625
246.71825075149536,-400000.0625,9039.259765625,1701.02001953125,-400000.0625,-1827.1400146484375,-400000.0625,6305.60009765625,-400000.0625
246.7639560699463,-400000.0625,9032.3896484375,1699.72998046875,-400000.0625,-1841.02001953125,-400000.0625,6308.27001953125,-400000.0625
246.87299275398254,-400000.0625,9035.73046875,1694.6800537109375,-400000.0625,-1848.97998046875,-400000.0625,6306.97998046875,-400000.0625
246.99537467956543,-400000.0625,9042.3095703125,1691.9599609375,-400000.0625,-1834.010009765625,-400000.0625,6307.02978515625,-400000.0625
247.1033399105072,-400000.0625,9041.259765625,1695.199951171875,-400000.0625,-1827.0999755859375,-400000.0625,6317.43017578125,-400000.0625
247.16223192214966,-400000.0625,9040.259765625,1701.02001953125,-400000.0625,-1834.8199462890625,-400000.0625,6323.669921875,-400000.0625
247.20954370498657,-400000.0625,9026.91015625,1694.9200439453125,-400000.0625,-1822.8499755859375,-400000.0625,6319.669921875,-400000.0625
247.2736303806305,-400000.0625,9025.150390625,1687.4300537109375,-400000.0625,-1814.699951171875,-400000.0625,6307.97998046875,-400000.0625
247.36637377738953,-400000.0625,9016.4697265625,1680.52001953125,-400000.0625,-1829.3399658203125,-400000.0625,6303.7900390625,-400000.0625
247.4200620651245,-400000.0625,9021.0,1685.2900390625,-400000.0625,-1823.3800048828125,-400000.0625,6308.75,-400000.0625
247.46591711044312,-400000.0625,9033.0595703125,1692.530029296875,-400000.0625,-1819.7099609375,-400000.0625,6313.0400390625,-400000.0625
247.51082968711853,-400000.0625,9033.9697265625,1690.199951171875,-400000.0625,-1825.760009765625,-400000.0625,6308.509765625,-400000.0625
247.56055665016174,-400000.0625,9024.8095703125,1685.1400146484375,-400000.0625,-1836.489990234375,-400000.0625,6304.64990234375,-400000.0625
247.6011884212494,-400000.0625,9023.669921875,1686.9100341796875,-400000.0625,-1829.719970703125,-400000.0625,6305.02978515625,-400000.0625
247.66827011108398,-400000.0625,9029.91015625,1690.9599609375,-400000.0625,-1828.0,-400000.0625,6307.1298828125,-400000.0625
247.72114729881287,-400000.0625,9038.1201171875,1695.300048828125,-400000.0625,-1856.1800537109375,-400000.0625,6314.0400390625,-400000.0625
247.7587866783142,-400000.0625,9037.58984375,1694.3900146484375,-400000.0625,-1862.3800048828125,-400000.0625,6314.330078125,-400000.0625
247.84720277786255,-400000.0625,9026.8603515625,1689.719970703125,-400000.0625,-1820.8499755859375,-400000.0625,6300.93017578125,-400000.0625
247.91708874702454,-400000.0625,9026.3896484375,1688.6700439453125,-400000.0625,-1809.6400146484375,-400000.0625,6296.39990234375,-400000.0625
247.9520833492279,-400000.0625,9033.6298828125,1695.06005859375,-400000.0625,-1819.93994140625,-400000.0625,6297.97021484375,-400000.0625
248.0356240272522,-400000.0625,9041.830078125,1702.5899658203125,-400000.0625,-1829.47998046875,-400000.0625,6302.06982421875,-400000.0625
248.07060384750366,-400000.0625,9041.2197265625,1701.8800048828125,-400000.0625,-1830.530029296875,-400000.0625,6296.919921875,-400000.0625
248.14731073379517,-400000.0625,9034.25,1696.1600341796875,-400000.0625,-1828.77001953125,-400000.0625,6287.43017578125,-400000.0625
248.18115949630737,-400000.0625,9038.0703125,1698.6400146484375,-400000.0625,-1831.25,-400000.0625,6289.39013671875,-400000.0625
248.23463439941406,-400000.0625,9039.740234375,1705.4599609375,-400000.0625,-1833.72998046875,-400000.0625,6295.39990234375,-400000.0625
248.2920355796814,-400000.0625,9047.4599609375,1708.510009765625,-400000.0625,-1821.800048828125,-400000.0625,6297.02001953125,-400000.0625
248.4213559627533,-400000.0625,9040.6396484375,1703.02001953125,-400000.0625,-1818.8499755859375,-400000.0625,6295.2001953125,-400000.0625
248.50602793693542,-400000.0625,9035.01953125,1700.780029296875,-400000.0625,-1824.81005859375,-400000.0625,6287.85986328125,-400000.0625
248.54806566238403,-400000.0625,9040.5,1702.02001953125,-400000.0625,-1824.0899658203125,-400000.0625,6283.669921875,-400000.0625
248.61732077598572,-400000.0625,9042.8798828125,1707.5999755859375,-400000.0625,-1813.27001953125,-400000.0625,6284.6201171875,-400000.0625
248.6554741859436,-400000.0625,9049.3203125,1712.4200439453125,-400000.0625,-1813.0799560546875,-400000.0625,6288.91015625,-400000.0625
248.7733724117279,-400000.0625,9050.080078125,1712.0799560546875,-400000.0625,-1832.6800537109375,-400000.0625,6288.14990234375,-400000.0625
248.93936395645142,-400000.0625,9043.83984375,1706.0799560546875,-400000.0625,-1848.550048828125,-400000.0625,6287.77001953125,-400000.0625
249.15764212608337,-400000.0625,9043.41015625,1705.4100341796875,-400000.0625,-1840.1600341796875,-400000.0625,6288.10009765625,-400000.0625
249.36332964897156,-400000.0625,9045.7900390625,1707.4599609375,-400000.0625,-1824.81005859375,-400000.0625,6285.6201171875,-400000.0625
249.57032871246338,-400000.0625,9045.080078125,1709.0799560546875,-400000.0625,-1805.02001953125,-400000.0625,6288.33984375,-400000.0625
249.7087173461914,-400000.0625,9047.75,1710.3699951171875,-400000.0625,-1804.449951171875,-400000.0625,6283.669921875,-400000.0625
249.8529016971588,-400000.0625,9040.830078125,1703.739990234375,-400000.0625,-1813.0799560546875,-400000.0625,6271.4599609375,-400000.0625
249.9809443950653,-400000.0625,9039.58984375,1703.1700439453125,-400000.0625,-1816.22998046875,-400000.0625,6272.7001953125,-400000.0625
250.09458208084106,-400000.0625,9046.8896484375,1711.1800537109375,-400000.0625,-1820.22998046875,-400000.0625,6278.22998046875,-400000.0625
250.21829223632812,-400000.0625,9052.900390625,1717.280029296875,-400000.0625,-1840.6400146484375,-400000.0625,6280.14013671875,-400000.0625
250.35815382003784,-400000.0625,9050.6103515625,1715.3299560546875,-400000.0625,-1864.0,-400000.0625,6276.60986328125,-400000.0625
250.56679821014404,-400000.0625,9044.740234375,1707.739990234375,-400000.0625,-1830.050048828125,-400000.0625,6268.8798828125,-400000.0625
250.72799801826477,-400000.0625,9036.9697265625,1703.9300537109375,-400000.0625,-1807.02001953125,-400000.0625,6265.58984375,-400000.0625
250.87925624847412,-400000.0625,9044.0302734375,1710.989990234375,-400000.0625,-1806.4000244140625,-400000.0625,6270.1201171875,-400000.0625
250.99870491027832,-400000.0625,9050.23046875,1714.9000244140625,-400000.0625,-1812.739990234375,-400000.0625,6272.4599609375,-400000.0625
251.13046979904175,-400000.0625,9045.5498046875,1713.1800537109375,-400000.0625,-1819.469970703125,-400000.0625,6268.4501953125,-400000.0625
251.31505346298218,-400000.0625,9039.16015625,1706.31005859375,-400000.0625,-1817.800048828125,-400000.0625,6261.97021484375,-400000.0625
251.53789591789246,-400000.0625,9040.0703125,1709.75,-400000.0625,-1825.6199951171875,-400000.0625,6258.97021484375,-400000.0625
251.70778274536133,-400000.0625,9051.7998046875,1721.0,-400000.0625,-1827.530029296875,-400000.0625,6266.740234375,-400000.0625
251.9177267551422,-400000.0625,9058.3798828125,1727.530029296875,-400000.0625,-1833.300048828125,-400000.0625,6274.4599609375,-400000.0625
252.08500266075134,-400000.0625,9054.6103515625,1721.530029296875,-400000.0625,-1836.489990234375,-400000.0625,6271.93994140625,-400000.0625
252.28020787239075,-400000.0625,9045.3203125,1709.93994140625,-400000.0625,-1827.18994140625,-400000.0625,6264.02001953125,-400000.0625
252.519846200943,-400000.0625,9044.0302734375,1709.56005859375,-400000.0625,-1827.530029296875,-400000.0625,6262.5400390625,-400000.0625
252.67463898658752,-400000.0625,9048.990234375,1716.0899658203125,-400000.0625,-1810.5999755859375,-400000.0625,6266.5498046875,-400000.0625
252.8142249584198,-400000.0625,9056.8603515625,1720.5699462890625,-400000.0625,-1802.02001953125,-400000.0625,6270.93017578125,-400000.0625
252.9862344264984,-400000.0625,9051.1298828125,1719.18994140625,-400000.0625,-1820.0400390625,-400000.0625,6269.740234375,-400000.0625
253.19745707511902,-400000.0625,9048.990234375,1716.4200439453125,-400000.0625,-1820.760009765625,-400000.0625,6262.58984375,-400000.0625
253.368155002594,-400000.0625,9054.330078125,1721.3299560546875,-400000.0625,-1827.050048828125,-400000.0625,6262.97021484375,-400000.0625
253.54251289367676,-400000.0625,9057.48046875,1725.199951171875,-400000.0625,-1846.5999755859375,-400000.0625,6264.259765625,-400000.0625
253.7077910900116,-400000.0625,9056.0,1726.0999755859375,-400000.0625,-1824.469970703125,-400000.0625,6265.259765625,-400000.0625
253.8572816848755,-400000.0625,9055.419921875,1727.3900146484375,-400000.0625,-1798.06005859375,-400000.0625,6263.5,-400000.0625
254.01402235031128,-400000.0625,9051.509765625,1722.239990234375,-400000.0625,-1806.5899658203125,-400000.0625,6256.52978515625,-400000.0625
254.14422345161438,-400000.0625,9051.2802734375,1720.18994140625,-400000.0625,-1819.1800537109375,-400000.0625,6256.580078125,-400000.0625
254.26142501831055,-400000.0625,9056.0,1724.719970703125,-400000.0625,-1814.93994140625,-400000.0625,6262.58984375,-400000.0625
254.43599033355713,-400000.0625,9062.4296875,1732.4000244140625,-400000.0625,-1813.0799560546875,-400000.0625,6267.4501953125,-400000.0625
254.608083486557,-400000.0625,9061.3896484375,1729.9200439453125,-400000.0625,-1817.800048828125,-400000.0625,6263.68994140625,-400000.0625
255.00954914093018,-400000.0625,9052.849609375,1722.2900390625,-400000.0625,-1811.4100341796875,-400000.0625,6259.10986328125,-400000.0625
255.26430678367615,-400000.0625,9049.9404296875,1719.5699462890625,-400000.0625,-1810.739990234375,-400000.0625,6256.6298828125,-400000.0625
255.47534203529358,-400000.0625,9052.4697265625,1722.8599853515625,-400000.0625,-1820.4200439453125,-400000.0625,6262.8798828125,-400000.0625
255.64283680915833,-400000.0625,9058.8603515625,1728.3399658203125,-400000.0625,-1810.8800048828125,-400000.0625,6267.5498046875,-400000.0625
255.8381597995758,-400000.0625,9057.240234375,1725.6700439453125,-400000.0625,-1800.3499755859375,-400000.0625,6267.60009765625,-400000.0625
256.12779355049133,-400000.0625,9055.3798828125,1721.0999755859375,-400000.0625,-1819.0400390625,-400000.0625,6261.16015625,-400000.0625
256.3922390937805,-400000.0625,9051.7099609375,1718.949951171875,-400000.0625,-1827.8599853515625,-400000.0625,6257.490234375,-400000.0625
256.58452105522156,-400000.0625,9056.4296875,1722.77001953125,-400000.0625,-1824.7099609375,-400000.0625,6261.64013671875,-400000.0625
256.77610301971436,-400000.0625,9056.4296875,1725.3900146484375,-400000.0625,-1811.97998046875,-400000.0625,6262.58984375,-400000.0625
256.98432064056396,-400000.0625,9049.7998046875,1722.2900390625,-400000.0625,-1805.02001953125,-400000.0625,6258.97021484375,-400000.0625
257.2038097381592,-400000.0625,9044.5498046875,1717.18994140625,-400000.0625,-1814.8900146484375,-400000.0625,6253.669921875,-400000.0625
257.4156563282013,-400000.0625,9046.080078125,1719.050048828125,-400000.0625,-1824.0899658203125,-400000.0625,6253.669921875,-400000.0625
257.58040165901184,-400000.0625,9056.4697265625,1728.25,-400000.0625,-1828.6199951171875,-400000.0625,6260.919921875,-400000.0625
257.8215403556824,-400000.0625,9063.91015625,1733.9200439453125,-400000.0625,-1811.8399658203125,-400000.0625,6264.31005859375,-400000.0625
258.0868172645569,-400000.0625,9058.6201171875,1728.010009765625,-400000.0625,-1800.43994140625,-400000.0625,6261.02001953125,-400000.0625
258.3265974521637,-400000.0625,9046.4599609375,1714.7099609375,-400000.0625,-1813.3599853515625,-400000.0625,6252.669921875,-400000.0625
258.53639459609985,-400000.0625,9045.26953125,1714.0400390625,-400000.0625,-1819.800048828125,-400000.0625,6250.47998046875,-400000.0625
258.73062801361084,-400000.0625,9051.1796875,1720.47998046875,-400000.0625,-1831.3399658203125,-400000.0625,6257.490234375,-400000.0625
258.9043273925781,-400000.0625,9048.2197265625,1723.9100341796875,-400000.0625,-1821.1800537109375,-400000.0625,6262.16015625,-400000.0625
259.1334207057953,-400000.0625,9048.3203125,1721.18994140625,-400000.0625,-1802.8699951171875,-400000.0625,6256.43994140625,-400000.0625
259.3573205471039,-400000.0625,9045.4599609375,1716.1800537109375,-400000.0625,-1813.8399658203125,-400000.0625,6251.33984375,-400000.0625
259.57558512687683,-400000.0625,9045.26953125,1716.7099609375,-400000.0625,-1821.469970703125,-400000.0625,6249.9501953125,-400000.0625
259.787326335907,-400000.0625,9047.8896484375,1719.239990234375,-400000.0625,-1814.4100341796875,-400000.0625,6255.2001953125,-400000.0625
260.13605284690857,-400000.0625,9054.7998046875,1727.06005859375,-400000.0625,-1826.239990234375,-400000.0625,6261.77978515625,-400000.0625
260.34404015541077,-400000.0625,9058.669921875,1727.489990234375,-400000.0625,-1832.06005859375,-400000.0625,6260.919921875,-400000.0625
260.5206389427185,-400000.0625,9051.23046875,1718.7099609375,-400000.0625,-1814.4599609375,-400000.0625,6251.81005859375,-400000.0625
260.6485013961792,-400000.0625,9047.7001953125,1719.7099609375,-400000.0625,-1800.300048828125,-400000.0625,6251.14990234375,-400000.0625
260.9447991847992,-400000.0625,9055.330078125,1728.6300048828125,-400000.0625,-1806.5,-400000.0625,6258.2001953125,-400000.0625
261.1174521446228,-400000.0625,9061.48046875,1730.9200439453125,-400000.0625,-1814.93994140625,-400000.0625,6260.77978515625,-400000.0625
261.3749554157257,-400000.0625,9059.759765625,1728.72998046875,-400000.0625,-1814.6500244140625,-400000.0625,6260.81982421875,-400000.0625
261.53563237190247,-400000.0625,9046.4599609375,1720.0899658203125,-400000.0625,-1826.3800048828125,-400000.0625,6251.0,-400000.0625
261.6581840515137,-400000.0625,9047.0302734375,1718.4300537109375,-400000.0625,-1820.6600341796875,-400000.0625,6249.14013671875,-400000.0625
261.8394362926483,-400000.0625,9044.599609375,1718.949951171875,-400000.0625,-1806.5,-400000.0625,6250.91015625,-400000.0625
262.0352454185486,-400000.0625,9044.080078125,1722.3800048828125,-400000.0625,-1805.72998046875,-400000.0625,6250.85986328125,-400000.0625
262.2286915779114,-400000.0625,9054.5703125,1729.9200439453125,-400000.0625,-1813.699951171875,-400000.0625,6253.43017578125,-400000.0625
262.4006369113922,-400000.0625,9062.8603515625,1728.3399658203125,-400000.0625,-1818.6099853515625,-400000.0625,6242.93994140625,-400000.0625
262.6044702529907,-400000.0625,9057.330078125,1723.1500244140625,-400000.0625,-1823.22998046875,-400000.0625,6234.169921875,-400000.0625
262.73022079467773,-400000.0625,9061.8603515625,1730.6800537109375,-400000.0625,-1809.030029296875,-400000.0625,6239.93994140625,-400000.0625
262.9434494972229,-400000.0625,9071.2998046875,1744.4100341796875,-400000.0625,-1800.489990234375,-400000.0625,6240.509765625,-400000.0625
263.13935256004333,-400000.0625,9072.830078125,1740.97998046875,-400000.0625,-1807.0699462890625,-400000.0625,6242.89990234375,-400000.0625
263.29044699668884,-400000.0625,9062.099609375,1733.2099609375,-400000.0625,-1810.6500244140625,-400000.0625,6233.259765625,-400000.0625
263.4451551437378,-400000.0625,9059.5302734375,1732.5899658203125,-400000.0625,-1803.2099609375,-400000.0625,6226.58984375,-400000.0625
263.6076648235321,-400000.0625,9064.0595703125,1735.1199951171875,-400000.0625,-1790.760009765625,-400000.0625,6228.72998046875,-400000.0625
263.6959776878357,-400000.0625,9068.7802734375,1741.550048828125,-400000.0625,-1786.52001953125,-400000.0625,6230.93017578125,-400000.0625
263.7589509487152,-400000.0625,9065.9599609375,1739.449951171875,-400000.0625,-1804.4000244140625,-400000.0625,6229.68994140625,-400000.0625
263.89688992500305,-400000.0625,9059.240234375,1731.9200439453125,-400000.0625,-1819.1800537109375,-400000.0625,6219.14990234375,-400000.0625
263.987717628479,-400000.0625,9050.8896484375,1727.06005859375,-400000.0625,-1816.1300048828125,-400000.0625,6216.77001953125,-400000.0625
264.02215337753296,-400000.0625,9058.7099609375,1733.1099853515625,-400000.0625,-1811.550048828125,-400000.0625,6226.25,-400000.0625
264.095251083374,-400000.0625,9069.1103515625,1738.260009765625,-400000.0625,-1809.4100341796875,-400000.0625,6234.5498046875,-400000.0625
264.1375057697296,-400000.0625,9062.8203125,1738.3599853515625,-400000.0625,-1808.8800048828125,-400000.0625,6232.7900390625,-400000.0625
264.2115898132324,-400000.0625,9054.08984375,1727.719970703125,-400000.0625,-1818.8499755859375,-400000.0625,6221.25,-400000.0625
264.2588551044464,-400000.0625,9049.0400390625,1722.2900390625,-400000.0625,-1823.0,-400000.0625,6216.3798828125,-400000.0625
264.3343379497528,-400000.0625,9052.51953125,1728.77001953125,-400000.0625,-1798.06005859375,-400000.0625,6221.919921875,-400000.0625
264.37695050239563,-400000.0625,9058.2900390625,1735.5400390625,-400000.0625,-1789.280029296875,-400000.0625,6228.2099609375,-400000.0625
264.43591141700745,-400000.0625,9057.759765625,1735.68994140625,-400000.0625,-1794.9100341796875,-400000.0625,6225.68017578125,-400000.0625
264.45931124687195,-400000.0625,9048.75,1728.43994140625,-400000.0625,-1803.6400146484375,-400000.0625,6219.85986328125,-400000.0625
264.48893690109253,-400000.0625,9048.990234375,1728.5799560546875,-400000.0625,-1829.9599609375,-400000.0625,6223.919921875,-400000.0625
264.53541922569275,-400000.0625,9054.759765625,1734.8299560546875,-400000.0625,-1835.5400390625,-400000.0625,6231.58984375,-400000.0625
264.5818953514099,-400000.0625,9055.0400390625,1734.8800048828125,-400000.0625,-1811.31005859375,-400000.0625,6232.06982421875,-400000.0625
264.59744095802307,-400000.0625,9049.849609375,1732.1099853515625,-400000.0625,-1795.43994140625,-400000.0625,6222.919921875,-400000.0625
264.67296528816223,-400000.0625,9040.3603515625,1726.199951171875,-400000.0625,-1794.4300537109375,-400000.0625,6217.52978515625,-400000.0625
264.7060832977295,-400000.0625,9044.9296875,1728.010009765625,-400000.0625,-1801.5400390625,-400000.0625,6216.77001953125,-400000.0625
264.76755118370056,-400000.0625,9053.419921875,1735.449951171875,-400000.0625,-1804.02001953125,-400000.0625,6217.9599609375,-400000.0625
264.8173613548279,-400000.0625,9059.669921875,1742.7900390625,-400000.0625,-1792.0,-400000.0625,6225.35009765625,-400000.0625
264.90925884246826,-400000.0625,9064.6298828125,1744.8900146484375,-400000.0625,-1796.0999755859375,-400000.0625,6229.1201171875,-400000.0625
264.95742654800415,-400000.0625,9057.0,1736.1600341796875,-400000.0625,-1820.0899658203125,-400000.0625,6222.68017578125,-400000.0625
265.0289659500122,-400000.0625,9055.51953125,1734.300048828125,-400000.0625,-1836.06005859375,-400000.0625,6224.58984375,-400000.0625
265.064489364624,-400000.0625,9058.669921875,1736.3599853515625,-400000.0625,-1823.18994140625,-400000.0625,6227.06005859375,-400000.0625
265.1415650844574,-400000.0625,9059.240234375,1740.31005859375,-400000.0625,-1803.02001953125,-400000.0625,6232.5,-400000.0625
265.1885643005371,-400000.0625,9062.580078125,1743.699951171875,-400000.0625,-1788.3299560546875,-400000.0625,6232.93017578125,-400000.0625
265.23009634017944,-400000.0625,9050.1298828125,1733.449951171875,-400000.0625,-1794.050048828125,-400000.0625,6225.25,-400000.0625
265.26180124282837,-400000.0625,9053.1396484375,1736.4000244140625,-400000.0625,-1795.5799560546875,-400000.0625,6228.2998046875,-400000.0625
265.28414154052734,-400000.0625,9059.4296875,1741.699951171875,-400000.0625,-1803.260009765625,-400000.0625,6232.97998046875,-400000.0625
265.30067706108093,-400000.0625,9060.91015625,1744.8900146484375,-400000.0625,-1820.3699951171875,-400000.0625,6237.1298828125,-400000.0625
265.35966300964355,-400000.0625,9064.3896484375,1745.8399658203125,-400000.0625,-1816.75,-400000.0625,6232.93017578125,-400000.0625
265.40546321868896,-400000.0625,9056.08984375,1737.7900390625,-400000.0625,-1797.1500244140625,-400000.0625,6227.68017578125,-400000.0625
265.5149703025818,-400000.0625,9055.900390625,1736.0699462890625,-400000.0625,-1798.9599609375,-400000.0625,6225.16015625,-400000.0625
265.59845089912415,-400000.0625,9060.33984375,1743.97998046875,-400000.0625,-1792.9599609375,-400000.0625,6226.43994140625,-400000.0625
265.63682198524475,-400000.0625,9069.73046875,1752.6600341796875,-400000.0625,-1792.530029296875,-400000.0625,6235.5,-400000.0625
265.71720147132874,-400000.0625,9068.5400390625,1749.0899658203125,-400000.0625,-1790.0,-400000.0625,6228.39990234375,-400000.0625
265.80666875839233,-400000.0625,9056.5703125,1737.02001953125,-400000.0625,-1797.77001953125,-400000.0625,6215.72021484375,-400000.0625
265.8971288204193,-400000.0625,9054.7099609375,1736.0699462890625,-400000.0625,-1808.97998046875,-400000.0625,6215.14013671875,-400000.0625
265.93248677253723,-400000.0625,9056.2802734375,1743.5999755859375,-400000.0625,-1813.030029296875,-400000.0625,6223.35009765625,-400000.0625
265.99967193603516,-400000.0625,9056.0,1747.1800537109375,-400000.0625,-1817.989990234375,-400000.0625,6228.259765625,-400000.0625
266.0575749874115,-400000.0625,9065.76953125,1751.3800048828125,-400000.0625,-1803.02001953125,-400000.0625,6224.009765625,-400000.0625
266.15706968307495,-400000.0625,9070.0595703125,1751.0899658203125,-400000.0625,-1784.52001953125,-400000.0625,6212.14013671875,-400000.0625
266.21617817878723,-400000.0625,9069.1103515625,1749.6600341796875,-400000.0625,-1801.300048828125,-400000.0625,6208.85009765625,-400000.0625
266.2921953201294,-400000.0625,9080.26953125,1757.77001953125,-400000.0625,-1815.0799560546875,-400000.0625,6209.66015625,-400000.0625
266.34623670578003,-400000.0625,9089.900390625,1764.9200439453125,-400000.0625,-1802.780029296875,-400000.0625,6208.7998046875,-400000.0625
266.42576837539673,-400000.0625,9091.66015625,1767.72998046875,-400000.0625,-1780.800048828125,-400000.0625,6205.990234375,-400000.0625
266.46904826164246,-400000.0625,9086.9404296875,1764.1099853515625,-400000.0625,-1785.7099609375,-400000.0625,6198.22021484375,-400000.0625
266.5643482208252,-400000.0625,9088.7998046875,1761.6300048828125,-400000.0625,-1796.530029296875,-400000.0625,6195.1201171875,-400000.0625
266.5907680988312,-400000.0625,9090.23046875,1764.5400390625,-400000.0625,-1794.8199462890625,-400000.0625,6198.93017578125,-400000.0625
266.647665977478,-400000.0625,9095.5703125,1770.5400390625,-400000.0625,-1789.18994140625,-400000.0625,6202.080078125,-400000.0625
266.66406297683716,-400000.0625,9098.91015625,1774.030029296875,-400000.0625,-1785.469970703125,-400000.0625,6200.41015625,-400000.0625
266.68079590797424,-400000.0625,9085.3203125,1764.300048828125,-400000.0625,-1804.0699462890625,-400000.0625,6193.2998046875,-400000.0625
266.6988036632538,-400000.0625,9086.3203125,1764.9200439453125,-400000.0625,-1805.260009765625,-400000.0625,6191.2099609375,-400000.0625
266.75053334236145,-400000.0625,9092.6201171875,1771.1600341796875,-400000.0625,-1794.050048828125,-400000.0625,6199.02978515625,-400000.0625
266.76639556884766,-400000.0625,9091.08984375,1773.02001953125,-400000.0625,-1777.27001953125,-400000.0625,6200.7001953125,-400000.0625
266.7940764427185,-400000.0625,9090.3798828125,1773.550048828125,-400000.0625,-1775.3599853515625,-400000.0625,6201.1201171875,-400000.0625
266.8289415836334,-400000.0625,9084.3203125,1766.5400390625,-400000.0625,-1783.510009765625,-400000.0625,6195.5498046875,-400000.0625
266.86314582824707,-400000.0625,9087.23046875,1765.780029296875,-400000.0625,-1788.81005859375,-400000.0625,6189.8701171875,-400000.0625
266.88005232810974,-400000.0625,9086.7099609375,1767.780029296875,-400000.0625,-1793.0999755859375,-400000.0625,6191.8701171875,-400000.0625
266.90063881874084,-400000.0625,9090.0,1772.3599853515625,-400000.0625,-1792.47998046875,-400000.0625,6195.2099609375,-400000.0625
266.91956543922424,-400000.0625,9084.849609375,1768.780029296875,-400000.0625,-1800.25,-400000.0625,6195.02001953125,-400000.0625
266.9328615665436,-400000.0625,9079.169921875,1762.77001953125,-400000.0625,-1813.219970703125,-400000.0625,6188.25,-400000.0625
266.9689817428589,-400000.0625,9073.16015625,1760.530029296875,-400000.0625,-1827.4300537109375,-400000.0625,6188.35009765625,-400000.0625
266.98334193229675,-400000.0625,9080.169921875,1762.199951171875,-400000.0625,-1808.8800048828125,-400000.0625,6189.77978515625,-400000.0625
266.99537920951843,-400000.0625,9085.849609375,1767.06005859375,-400000.0625,-1778.93994140625,-400000.0625,6194.16015625,-400000.0625
267.0095613002777,-400000.0625,9085.6103515625,1770.1199951171875,-400000.0625,-1771.260009765625,-400000.0625,6193.72998046875,-400000.0625
267.02538561820984,-400000.0625,9077.2197265625,1762.0999755859375,-400000.0625,-1776.5999755859375,-400000.0625,6186.2001953125,-400000.0625
267.03932785987854,-400000.0625,9075.3603515625,1757.5699462890625,-400000.0625,-1793.3399658203125,-400000.0625,6186.580078125,-400000.0625
267.06976294517517,-400000.0625,9081.080078125,1763.72998046875,-400000.0625,-1803.449951171875,-400000.0625,6191.39990234375,-400000.0625
267.08116698265076,-400000.0625,9082.8896484375,1768.449951171875,-400000.0625,-1809.449951171875,-400000.0625,6196.7900390625,-400000.0625
267.0964870452881,-400000.0625,9076.740234375,1766.72998046875,-400000.0625,-1797.6300048828125,-400000.0625,6190.830078125,-400000.0625
267.118346452713,-400000.0625,9070.919921875,1760.6300048828125,-400000.0625,-1809.449951171875,-400000.0625,6183.009765625,-400000.0625
267.15053129196167,-400000.0625,9065.33984375,1755.5699462890625,-400000.0625,-1803.02001953125,-400000.0625,6185.47998046875,-400000.0625
267.2113494873047,-400000.0625,9073.3095703125,1765.300048828125,-400000.0625,-1775.5999755859375,-400000.0625,6190.919921875,-400000.0625
267.24813318252563,-400000.0625,9087.419921875,1773.0699462890625,-400000.0625,-1772.68994140625,-400000.0625,6195.97998046875,-400000.0625
267.2734820842743,-400000.0625,9081.3603515625,1766.8699951171875,-400000.0625,-1792.0,-400000.0625,6188.43994140625,-400000.0625
267.34156560897827,-400000.0625,9067.1103515625,1755.8599853515625,-400000.0625,-1810.0699462890625,-400000.0625,6177.7099609375,-400000.0625
267.36966466903687,-400000.0625,9064.9599609375,1752.280029296875,-400000.0625,-1793.239990234375,-400000.0625,6171.18017578125,-400000.0625
267.39203453063965,-400000.0625,9062.76953125,1756.81005859375,-400000.0625,-1772.68994140625,-400000.0625,6175.3798828125,-400000.0625
267.44383811950684,-400000.0625,9069.4404296875,1764.06005859375,-400000.0625,-1779.989990234375,-400000.0625,6186.52978515625,-400000.0625
267.47862577438354,-400000.0625,9071.9697265625,1765.8199462890625,-400000.0625,-1790.7099609375,-400000.0625,6186.2998046875,-400000.0625
267.5155770778656,-400000.0625,9065.2001953125,1758.9100341796875,-400000.0625,-1822.6600341796875,-400000.0625,6179.759765625,-400000.0625
267.5668263435364,-400000.0625,9062.9599609375,1753.949951171875,-400000.0625,-1828.9100341796875,-400000.0625,6177.85986328125,-400000.0625
267.5924713611603,-400000.0625,9066.1103515625,1760.0999755859375,-400000.0625,-1789.050048828125,-400000.0625,6182.33984375,-400000.0625
267.6171634197235,-400000.0625,9074.8798828125,1768.72998046875,-400000.0625,-1783.93994140625,-400000.0625,6193.2998046875,-400000.0625
267.6715247631073,-400000.0625,9072.2099609375,1765.6300048828125,-400000.0625,-1786.8499755859375,-400000.0625,6192.35009765625,-400000.0625
267.69272923469543,-400000.0625,9064.580078125,1760.719970703125,-400000.0625,-1784.3199462890625,-400000.0625,6182.91015625,-400000.0625
267.72086215019226,-400000.0625,9062.4296875,1759.3399658203125,-400000.0625,-1779.510009765625,-400000.0625,6178.52001953125,-400000.0625
267.79013538360596,-400000.0625,9068.6298828125,1764.199951171875,-400000.0625,-1784.1800537109375,-400000.0625,6183.10009765625,-400000.0625
267.828595161438,-400000.0625,9073.0703125,1768.5400390625,-400000.0625,-1795.3399658203125,-400000.0625,6192.68017578125,-400000.0625
267.8822796344757,-400000.0625,9072.6396484375,1765.43994140625,-400000.0625,-1802.3499755859375,-400000.0625,6190.72998046875,-400000.0625
267.9029166698456,-400000.0625,9064.5302734375,1757.47998046875,-400000.0625,-1809.4100341796875,-400000.0625,6178.7099609375,-400000.0625
267.9286072254181,-400000.0625,9060.76953125,1754.18994140625,-400000.0625,-1790.7099609375,-400000.0625,6180.3798828125,-400000.0625
267.9820718765259,-400000.0625,9068.7802734375,1763.1500244140625,-400000.0625,-1775.0699462890625,-400000.0625,6183.43017578125,-400000.0625
268.01705598831177,-400000.0625,9073.2099609375,1770.6400146484375,-400000.0625,-1775.31005859375,-400000.0625,6186.77001953125,-400000.0625
268.0455062389374,-400000.0625,9071.16015625,1767.8299560546875,-400000.0625,-1784.0899658203125,-400000.0625,6189.2998046875,-400000.0625
268.08738946914673,-400000.0625,9069.4404296875,1761.25,-400000.0625,-1797.8699951171875,-400000.0625,6181.33984375,-400000.0625
268.11302876472473,-400000.0625,9068.009765625,1759.6700439453125,-400000.0625,-1798.6800537109375,-400000.0625,6180.72021484375,-400000.0625
268.1344721317291,-400000.0625,9069.25,1763.489990234375,-400000.0625,-1790.2900390625,-400000.0625,6182.72021484375,-400000.0625
268.1519966125488,-400000.0625,9072.349609375,1766.010009765625,-400000.0625,-1794.77001953125,-400000.0625,6187.580078125,-400000.0625
268.19742155075073,-400000.0625,9070.400390625,1764.43994140625,-400000.0625,-1791.5699462890625,-400000.0625,6186.52978515625,-400000.0625
268.2187659740448,-400000.0625,9063.669921875,1758.2900390625,-400000.0625,-1793.6199951171875,-400000.0625,6175.66015625,-400000.0625
268.23413038253784,-400000.0625,9061.8603515625,1756.3299560546875,-400000.0625,-1792.0999755859375,-400000.0625,6175.9501953125,-400000.0625
268.25944089889526,-400000.0625,9066.1103515625,1756.18994140625,-400000.0625,-1789.6700439453125,-400000.0625,6180.81005859375,-400000.0625
268.3042778968811,-400000.0625,9067.5400390625,1763.25,-400000.0625,-1780.75,-400000.0625,6188.009765625,-400000.0625
268.3338487148285,-400000.0625,9068.16015625,1764.1500244140625,-400000.0625,-1782.4200439453125,-400000.0625,6190.58984375,-400000.0625
268.3688063621521,-400000.0625,9059.0,1753.1400146484375,-400000.0625,-1804.8800048828125,-400000.0625,6181.33984375,-400000.0625
268.4219331741333,-400000.0625,9052.2802734375,1748.8499755859375,-400000.0625,-1818.6099853515625,-400000.0625,6179.14013671875,-400000.0625
268.4439799785614,-400000.0625,9059.330078125,1755.4300537109375,-400000.0625,-1809.9300537109375,-400000.0625,6181.91015625,-400000.0625
268.4766390323639,-400000.0625,9068.7802734375,1764.010009765625,-400000.0625,-1787.760009765625,-400000.0625,6184.6298828125,-400000.0625
268.54902052879333,-400000.0625,9065.580078125,1764.1099853515625,-400000.0625,-1773.9300537109375,-400000.0625,6185.39013671875,-400000.0625
268.6079971790314,-400000.0625,9061.0,1758.9599609375,-400000.0625,-1778.6500244140625,-400000.0625,6178.52001953125,-400000.0625
268.7103621959686,-400000.0625,9058.6201171875,1757.6700439453125,-400000.0625,-1781.800048828125,-400000.0625,6175.330078125,-400000.0625
268.8509476184845,-400000.0625,9060.8603515625,1760.5799560546875,-400000.0625,-1784.469970703125,-400000.0625,6183.580078125,-400000.0625
268.9134798049927,-400000.0625,9071.5400390625,1767.3499755859375,-400000.0625,-1792.3399658203125,-400000.0625,6188.06005859375,-400000.0625
268.9511938095093,-400000.0625,9067.2998046875,1763.010009765625,-400000.0625,-1805.5,-400000.0625,6184.14990234375,-400000.0625
269.01217126846313,-400000.0625,9054.4697265625,1752.3299560546875,-400000.0625,-1800.1600341796875,-400000.0625,6175.66015625,-400000.0625
269.0310914516449,-400000.0625,9054.3798828125,1751.800048828125,-400000.0625,-1807.02001953125,-400000.0625,6175.56982421875,-400000.0625
269.07068967819214,-400000.0625,9057.240234375,1757.6199951171875,-400000.0625,-1804.68994140625,-400000.0625,6181.85986328125,-400000.0625
269.13753724098206,-400000.0625,9062.48046875,1764.06005859375,-400000.0625,-1780.8900146484375,-400000.0625,6189.6298828125,-400000.0625
269.1742434501648,-400000.0625,9067.0595703125,1763.9599609375,-400000.0625,-1771.68994140625,-400000.0625,6184.77001953125,-400000.0625
269.2554907798767,-400000.0625,9059.5703125,1755.52001953125,-400000.0625,-1789.18994140625,-400000.0625,6172.60986328125,-400000.0625
269.2986435890198,-400000.0625,9061.240234375,1756.1400146484375,-400000.0625,-1800.25,-400000.0625,6174.22998046875,-400000.0625
269.3936583995819,-400000.0625,9068.919921875,1761.010009765625,-400000.0625,-1799.6800537109375,-400000.0625,6180.56982421875,-400000.0625
269.44321751594543,-400000.0625,9070.58984375,1765.5400390625,-400000.0625,-1798.5799560546875,-400000.0625,6185.68017578125,-400000.0625
269.51340413093567,-400000.0625,9068.7802734375,1765.969970703125,-400000.0625,-1798.1500244140625,-400000.0625,6188.39013671875,-400000.0625
269.5416433811188,-400000.0625,9065.2001953125,1759.050048828125,-400000.0625,-1795.6300048828125,-400000.0625,6184.6298828125,-400000.0625
269.57333064079285,-400000.0625,9068.2998046875,1758.81005859375,-400000.0625,-1784.4200439453125,-400000.0625,6180.72021484375,-400000.0625
269.62434554100037,-400000.0625,9071.16015625,1765.780029296875,-400000.0625,-1774.6500244140625,-400000.0625,6188.35009765625,-400000.0625
269.6758737564087,-400000.0625,9080.169921875,1772.31005859375,-400000.0625,-1778.93994140625,-400000.0625,6192.4501953125,-400000.0625
269.7470817565918,-400000.0625,9081.41015625,1773.02001953125,-400000.0625,-1785.3699951171875,-400000.0625,6190.009765625,-400000.0625
269.8111939430237,-400000.0625,9069.400390625,1765.8699951171875,-400000.0625,-1805.5,-400000.0625,6187.6298828125,-400000.0625
269.8940179347992,-400000.0625,9064.9599609375,1759.4300537109375,-400000.0625,-1803.3499755859375,-400000.0625,6182.72021484375,-400000.0625
269.9348258972168,-400000.0625,9067.490234375,1763.9200439453125,-400000.0625,-1782.8499755859375,-400000.0625,6187.919921875,-400000.0625
270.01287865638733,-400000.0625,9075.599609375,1771.550048828125,-400000.0625,-1774.8800048828125,-400000.0625,6194.16015625,-400000.0625
270.0466728210449,-400000.0625,9080.9404296875,1771.3499755859375,-400000.0625,-1795.8599853515625,-400000.0625,6191.68017578125,-400000.0625
270.10266184806824,-400000.0625,9067.919921875,1759.8599853515625,-400000.0625,-1809.0699462890625,-400000.0625,6182.10009765625,-400000.0625
270.12991309165955,-400000.0625,9064.580078125,1760.530029296875,-400000.0625,-1783.3199462890625,-400000.0625,6178.9501953125,-400000.0625
270.1907596588135,-400000.0625,9071.01953125,1769.02001953125,-400000.0625,-1770.68994140625,-400000.0625,6183.6298828125,-400000.0625
270.27122735977173,-400000.0625,9079.8896484375,1775.0699462890625,-400000.0625,-1794.530029296875,-400000.0625,6193.58984375,-400000.0625
270.3102865219116,-400000.0625,9077.41015625,1772.31005859375,-400000.0625,-1802.06005859375,-400000.0625,6197.06982421875,-400000.0625
270.3496391773224,-400000.0625,9068.73046875,1767.3499755859375,-400000.0625,-1785.949951171875,-400000.0625,6190.43994140625,-400000.0625
270.38910031318665,-400000.0625,9069.0595703125,1767.6800537109375,-400000.0625,-1790.3800048828125,-400000.0625,6191.2099609375,-400000.0625
270.4101583957672,-400000.0625,9076.41015625,1772.0699462890625,-400000.0625,-1792.3800048828125,-400000.0625,6199.02978515625,-400000.0625
270.4345438480377,-400000.0625,9080.740234375,1778.6500244140625,-400000.0625,-1784.4200439453125,-400000.0625,6201.89013671875,-400000.0625
270.4860637187958,-400000.0625,9081.509765625,1775.5999755859375,-400000.0625,-1773.1199951171875,-400000.0625,6198.06982421875,-400000.0625
270.5453019142151,-400000.0625,9075.599609375,1767.1099853515625,-400000.0625,-1777.4599609375,-400000.0625,6189.39013671875,-400000.0625
270.6308526992798,-400000.0625,9071.7802734375,1764.969970703125,-400000.0625,-1788.22998046875,-400000.0625,6186.919921875,-400000.0625
270.6672623157501,-400000.0625,9072.6904296875,1768.1600341796875,-400000.0625,-1792.3399658203125,-400000.0625,6193.4501953125,-400000.0625
270.7249844074249,-400000.0625,9079.9296875,1776.699951171875,-400000.0625,-1787.1400146484375,-400000.0625,6193.16015625,-400000.0625
270.75459480285645,-400000.0625,9080.8896484375,1779.4100341796875,-400000.0625,-1787.3800048828125,-400000.0625,6194.64013671875,-400000.0625
270.7925262451172,-400000.0625,9072.7802734375,1769.68994140625,-400000.0625,-1788.7099609375,-400000.0625,6188.5400390625,-400000.0625
270.8599126338959,-400000.0625,9070.58984375,1767.8299560546875,-400000.0625,-1790.8599853515625,-400000.0625,6182.14990234375,-400000.0625
270.910014629364,-400000.0625,9075.169921875,1774.97998046875,-400000.0625,-1786.760009765625,-400000.0625,6188.81982421875,-400000.0625
270.97305059432983,-400000.0625,9079.26953125,1776.3599853515625,-400000.0625,-1773.449951171875,-400000.0625,6194.06982421875,-400000.0625
270.9962565898895,-400000.0625,9077.5,1775.5,-400000.0625,-1783.0899658203125,-400000.0625,6190.35009765625,-400000.0625
271.02105355262756,-400000.0625,9070.7802734375,1767.6800537109375,-400000.0625,-1794.3900146484375,-400000.0625,6182.52978515625,-400000.0625
271.084440946579,-400000.0625,9068.8701171875,1766.72998046875,-400000.0625,-1801.6800537109375,-400000.0625,6183.6298828125,-400000.0625
271.13105511665344,-400000.0625,9074.98046875,1771.8299560546875,-400000.0625,-1794.199951171875,-400000.0625,6187.33984375,-400000.0625
271.19848227500916,-400000.0625,9082.41015625,1777.27001953125,-400000.0625,-1788.9000244140625,-400000.0625,6195.97998046875,-400000.0625
271.22573351860046,-400000.0625,9081.080078125,1779.75,-400000.0625,-1791.1400146484375,-400000.0625,6193.97021484375,-400000.0625
271.2633078098297,-400000.0625,9074.1201171875,1775.1700439453125,-400000.0625,-1786.1400146484375,-400000.0625,6184.009765625,-400000.0625
271.334979057312,-400000.0625,9068.490234375,1771.4000244140625,-400000.0625,-1775.739990234375,-400000.0625,6180.47998046875,-400000.0625
271.3828876018524,-400000.0625,9073.4501953125,1774.68994140625,-400000.0625,-1775.9300537109375,-400000.0625,6183.669921875,-400000.0625
271.44384002685547,-400000.0625,9085.1796875,1784.52001953125,-400000.0625,-1785.1800537109375,-400000.0625,6193.02001953125,-400000.0625
271.4797956943512,-400000.0625,9086.7998046875,1785.949951171875,-400000.0625,-1797.8199462890625,-400000.0625,6196.02001953125,-400000.0625
271.5031576156616,-400000.0625,9081.75,1776.699951171875,-400000.0625,-1799.1500244140625,-400000.0625,6189.5400390625,-400000.0625
271.56210684776306,-400000.0625,9072.01953125,1770.02001953125,-400000.0625,-1790.47998046875,-400000.0625,6183.9599609375,-400000.0625
271.5845727920532,-400000.0625,9071.0703125,1771.5899658203125,-400000.0625,-1779.030029296875,-400000.0625,6185.81982421875,-400000.0625
271.6135230064392,-400000.0625,9073.6396484375,1773.9300537109375,-400000.0625,-1770.449951171875,-400000.0625,6189.97021484375,-400000.0625
271.66582679748535,-400000.0625,9073.1201171875,1771.969970703125,-400000.0625,-1774.219970703125,-400000.0625,6188.25,-400000.0625
271.6976556777954,-400000.0625,9062.76953125,1766.969970703125,-400000.0625,-1788.6600341796875,-400000.0625,6183.009765625,-400000.0625
271.7401659488678,-400000.0625,9062.3896484375,1767.72998046875,-400000.0625,-1795.3399658203125,-400000.0625,6184.2001953125,-400000.0625
271.8193464279175,-400000.0625,9071.7802734375,1774.5,-400000.0625,-1799.3900146484375,-400000.0625,6186.52978515625,-400000.0625
271.84724712371826,-400000.0625,9079.83984375,1780.219970703125,-400000.0625,-1779.1800537109375,-400000.0625,6193.06982421875,-400000.0625
271.8970859050751,-400000.0625,9079.41015625,1780.030029296875,-400000.0625,-1776.5999755859375,-400000.0625,6195.68994140625,-400000.0625
271.92083740234375,-400000.0625,9068.58984375,1769.5,-400000.0625,-1792.3800048828125,-400000.0625,6187.490234375,-400000.0625
271.9422173500061,-400000.0625,9065.8203125,1761.6800537109375,-400000.0625,-1810.4599609375,-400000.0625,6179.3798828125,-400000.0625
271.96720266342163,-400000.0625,9068.3896484375,1767.3499755859375,-400000.0625,-1801.5899658203125,-400000.0625,6183.2001953125,-400000.0625
272.0063376426697,-400000.0625,9072.6904296875,1775.1700439453125,-400000.0625,-1789.3800048828125,-400000.0625,6190.58984375,-400000.0625
272.0346064567566,-400000.0625,9075.830078125,1775.68994140625,-400000.0625,-1792.2900390625,-400000.0625,6191.8701171875,-400000.0625
272.0567898750305,-400000.0625,9073.01953125,1767.3499755859375,-400000.0625,-1792.4300537109375,-400000.0625,6179.0,-400000.0625
272.08268117904663,-400000.0625,9072.1103515625,1769.0699462890625,-400000.0625,-1783.989990234375,-400000.0625,6178.47998046875,-400000.0625
272.13594150543213,-400000.0625,9076.5,1774.1199951171875,-400000.0625,-1771.739990234375,-400000.0625,6192.259765625,-400000.0625
272.2301802635193,-400000.0625,9083.9404296875,1777.550048828125,-400000.0625,-1779.8399658203125,-400000.0625,6205.85009765625,-400000.0625
272.32243514060974,-400000.0625,9078.8896484375,1774.8399658203125,-400000.0625,-1789.280029296875,-400000.0625,6203.41015625,-400000.0625
272.36881971359253,-400000.0625,9076.3095703125,1769.72998046875,-400000.0625,-1803.2099609375,-400000.0625,6196.5,-400000.0625
272.42971324920654,-400000.0625,9078.0703125,1764.489990234375,-400000.0625,-1814.510009765625,-400000.0625,6196.97998046875,-400000.0625
272.4921510219574,-400000.0625,9081.509765625,1769.260009765625,-400000.0625,-1799.43994140625,-400000.0625,6197.97998046875,-400000.0625
272.67431569099426,-400000.0625,9090.0400390625,1771.449951171875,-400000.0625,-1801.5899658203125,-400000.0625,6205.85009765625,-400000.0625
272.7791156768799,-400000.0625,9089.759765625,1772.5899658203125,-400000.0625,-1802.02001953125,-400000.0625,6202.35986328125,-400000.0625
272.9456584453583,-400000.0625,9082.650390625,1766.25,-400000.0625,-1788.469970703125,-400000.0625,6195.2099609375,-400000.0625
273.03737473487854,-400000.0625,9080.26953125,1762.06005859375,-400000.0625,-1775.3599853515625,-400000.0625,6196.2099609375,-400000.0625
273.0911898612976,-400000.0625,9086.990234375,1772.9300537109375,-400000.0625,-1779.1800537109375,-400000.0625,6200.4599609375,-400000.0625
273.2400486469269,-400000.0625,9091.330078125,1776.8399658203125,-400000.0625,-1790.7099609375,-400000.0625,6208.1298828125,-400000.0625
273.3267500400543,-400000.0625,9090.900390625,1773.4100341796875,-400000.0625,-1802.489990234375,-400000.0625,6207.3701171875,-400000.0625
273.43597650527954,-400000.0625,9084.75,1768.489990234375,-400000.0625,-1801.43994140625,-400000.0625,6201.1201171875,-400000.0625
273.56789326667786,-400000.0625,9083.3701171875,1764.8199462890625,-400000.0625,-1804.0699462890625,-400000.0625,6200.740234375,-400000.0625
273.66990876197815,-400000.0625,9088.759765625,1771.5899658203125,-400000.0625,-1801.6800537109375,-400000.0625,6204.83984375,-400000.0625
273.861474275589,-400000.0625,9090.0,1776.6500244140625,-400000.0625,-1795.050048828125,-400000.0625,6211.47021484375,-400000.0625
274.03244853019714,-400000.0625,9091.51953125,1781.030029296875,-400000.0625,-1781.0799560546875,-400000.0625,6214.240234375,-400000.0625
274.2092423439026,-400000.0625,9084.26953125,1772.7900390625,-400000.0625,-1785.1400146484375,-400000.0625,6203.22021484375,-400000.0625
274.33419275283813,-400000.0625,9084.26953125,1768.72998046875,-400000.0625,-1800.3499755859375,-400000.0625,6198.35986328125,-400000.0625
274.46366024017334,-400000.0625,9088.4697265625,1771.5899658203125,-400000.0625,-1804.0699462890625,-400000.0625,6201.41015625,-400000.0625
274.60388827323914,-400000.0625,9090.2802734375,1775.8800048828125,-400000.0625,-1791.0,-400000.0625,6206.0400390625,-400000.0625
274.736221075058,-400000.0625,9087.4697265625,1774.739990234375,-400000.0625,-1782.8900146484375,-400000.0625,6205.02978515625,-400000.0625
274.8404264450073,-400000.0625,9084.5595703125,1769.4000244140625,-400000.0625,-1780.3699951171875,-400000.0625,6199.4599609375,-400000.0625
274.91294836997986,-400000.0625,9086.1298828125,1767.780029296875,-400000.0625,-1785.1800537109375,-400000.0625,6198.93017578125,-400000.0625
274.956077337265,-400000.0625,9088.08984375,1773.8800048828125,-400000.0625,-1794.530029296875,-400000.0625,6211.08984375,-400000.0625
275.03700137138367,-400000.0625,9092.0498046875,1780.0799560546875,-400000.0625,-1809.449951171875,-400000.0625,6219.43994140625,-400000.0625
275.0827078819275,-400000.0625,9094.48046875,1780.4599609375,-400000.0625,-1806.550048828125,-400000.0625,6214.56982421875,-400000.0625
275.1734540462494,-400000.0625,9085.75,1769.3499755859375,-400000.0625,-1807.31005859375,-400000.0625,6202.64990234375,-400000.0625
275.2132828235626,-400000.0625,9079.650390625,1767.6400146484375,-400000.0625,-1803.2099609375,-400000.0625,6199.93017578125,-400000.0625
275.28553223609924,-400000.0625,9086.66015625,1773.02001953125,-400000.0625,-1794.0,-400000.0625,6205.75,-400000.0625
275.3265206813812,-400000.0625,9092.759765625,1777.3199462890625,-400000.0625,-1784.989990234375,-400000.0625,6213.56982421875,-400000.0625
275.3864481449127,-400000.0625,9093.8095703125,1776.739990234375,-400000.0625,-1785.7099609375,-400000.0625,6215.85986328125,-400000.0625
275.41505312919617,-400000.0625,9084.1796875,1766.4000244140625,-400000.0625,-1789.52001953125,-400000.0625,6207.27978515625,-400000.0625
275.4309821128845,-400000.0625,9079.509765625,1761.530029296875,-400000.0625,-1797.199951171875,-400000.0625,6202.97998046875,-400000.0625
275.50432300567627,-400000.0625,9084.509765625,1766.300048828125,-400000.0625,-1803.3499755859375,-400000.0625,6207.0400390625,-400000.0625
275.53950333595276,-400000.0625,9087.23046875,1773.68994140625,-400000.0625,-1813.4599609375,-400000.0625,6213.08984375,-400000.0625
275.62124156951904,-400000.0625,9086.849609375,1772.8299560546875,-400000.0625,-1799.199951171875,-400000.0625,6210.3798828125,-400000.0625
275.65215730667114,-400000.0625,9078.2197265625,1763.43994140625,-400000.0625,-1788.949951171875,-400000.0625,6202.97998046875,-400000.0625
275.71959948539734,-400000.0625,9080.3203125,1762.3900146484375,-400000.0625,-1789.949951171875,-400000.0625,6197.35986328125,-400000.0625
275.74886775016785,-400000.0625,9082.75,1769.68994140625,-400000.0625,-1790.47998046875,-400000.0625,6205.080078125,-400000.0625
275.7878351211548,-400000.0625,9088.3701171875,1776.8900146484375,-400000.0625,-1782.800048828125,-400000.0625,6209.7099609375,-400000.0625
275.84998893737793,-400000.0625,9091.240234375,1775.8800048828125,-400000.0625,-1791.050048828125,-400000.0625,6201.97998046875,-400000.0625
275.86762619018555,-400000.0625,9083.7001953125,1769.2099609375,-400000.0625,-1814.4100341796875,-400000.0625,6192.830078125,-400000.0625
275.891126871109,-400000.0625,9078.7900390625,1764.6300048828125,-400000.0625,-1820.4200439453125,-400000.0625,6192.830078125,-400000.0625
275.94252705574036,-400000.0625,9084.26953125,1769.969970703125,-400000.0625,-1810.8800048828125,-400000.0625,6197.35986328125,-400000.0625
275.97990226745605,-400000.0625,9092.330078125,1776.5,-400000.0625,-1796.2900390625,-400000.0625,6205.27001953125,-400000.0625
276.0059463977814,-400000.0625,9098.33984375,1782.8499755859375,-400000.0625,-1770.31005859375,-400000.0625,6208.3701171875,-400000.0625
276.0636112689972,-400000.0625,9087.4697265625,1774.260009765625,-400000.0625,-1777.93994140625,-400000.0625,6197.7900390625,-400000.0625
276.14090514183044,-400000.0625,9077.83984375,1764.969970703125,-400000.0625,-1794.4300537109375,-400000.0625,6193.97021484375,-400000.0625
276.21401810646057,-400000.0625,9081.75,1769.68994140625,-400000.0625,-1794.77001953125,-400000.0625,6201.080078125,-400000.0625
276.2664291858673,-400000.0625,9089.849609375,1777.699951171875,-400000.0625,-1798.6800537109375,-400000.0625,6205.990234375,-400000.0625
276.35346817970276,-400000.0625,9088.5703125,1778.4100341796875,-400000.0625,-1811.9300537109375,-400000.0625,6204.4599609375,-400000.0625
276.4033737182617,-400000.0625,9078.6904296875,1770.969970703125,-400000.0625,-1821.9000244140625,-400000.0625,6197.169921875,-400000.0625
276.4688265323639,-400000.0625,9076.3603515625,1765.5400390625,-400000.0625,-1804.5899658203125,-400000.0625,6189.2998046875,-400000.0625
276.4985411167145,-400000.0625,9080.98046875,1771.5,-400000.0625,-1778.6500244140625,-400000.0625,6194.259765625,-400000.0625
276.5272173881531,-400000.0625,9082.75,1780.1800537109375,-400000.0625,-1780.989990234375,-400000.0625,6198.740234375,-400000.0625
276.58045077323914,-400000.0625,9078.0302734375,1779.510009765625,-400000.0625,-1786.280029296875,-400000.0625,6200.509765625,-400000.0625
276.6307182312012,-400000.0625,9081.080078125,1767.5899658203125,-400000.0625,-1795.47998046875,-400000.0625,6206.66015625,-400000.0625
276.7170717716217,-400000.0625,9076.740234375,1755.52001953125,-400000.0625,-1806.8800048828125,-400000.0625,6207.08984375,-400000.0625
276.7845458984375,-400000.0625,9074.6904296875,1759.0999755859375,-400000.0625,-1809.9300537109375,-400000.0625,6214.56982421875,-400000.0625
276.8727214336395,-400000.0625,9074.9296875,1760.6300048828125,-400000.0625,-1807.97998046875,-400000.0625,6225.5400390625,-400000.0625
276.90193343162537,-400000.0625,9070.0595703125,1756.949951171875,-400000.0625,-1805.1099853515625,-400000.0625,6230.77978515625,-400000.0625
276.97352051734924,-400000.0625,9063.91015625,1746.8499755859375,-400000.0625,-1811.4599609375,-400000.0625,6225.25,-400000.0625
277.03292775154114,-400000.0625,9055.08984375,1743.1300048828125,-400000.0625,-1796.43994140625,-400000.0625,6223.009765625,-400000.0625
277.1043391227722,-400000.0625,9060.0498046875,1747.0799560546875,-400000.0625,-1789.4300537109375,-400000.0625,6229.740234375,-400000.0625
277.1293408870697,-400000.0625,9071.919921875,1757.18994140625,-400000.0625,-1796.2900390625,-400000.0625,6237.22021484375,-400000.0625
277.1531283855438,-400000.0625,9071.4501953125,1757.18994140625,-400000.0625,-1801.5400390625,-400000.0625,6237.35986328125,-400000.0625
277.19159746170044,-400000.0625,9067.9697265625,1748.75,-400000.0625,-1805.6400146484375,-400000.0625,6229.93017578125,-400000.0625
277.2100350856781,-400000.0625,9067.76953125,1746.4599609375,-400000.0625,-1800.8199462890625,-400000.0625,6225.43994140625,-400000.0625
277.22944617271423,-400000.0625,9063.91015625,1748.280029296875,-400000.0625,-1794.0,-400000.0625,6231.259765625,-400000.0625
277.2484710216522,-400000.0625,9070.2099609375,1756.239990234375,-400000.0625,-1789.3800048828125,-400000.0625,6236.740234375,-400000.0625
277.2632007598877,-400000.0625,9070.830078125,1754.280029296875,-400000.0625,-1800.3499755859375,-400000.0625,6236.35986328125,-400000.0625
277.298672914505,-400000.0625,9065.0595703125,1747.8900146484375,-400000.0625,-1821.1800537109375,-400000.0625,6231.259765625,-400000.0625
277.3199796676636,-400000.0625,9062.2001953125,1745.3699951171875,-400000.0625,-1821.3800048828125,-400000.0625,6228.5400390625,-400000.0625
277.34023571014404,-400000.0625,9064.25,1750.0400390625,-400000.0625,-1794.050048828125,-400000.0625,6227.5400390625,-400000.0625
277.3732063770294,-400000.0625,9064.099609375,1752.5699462890625,-400000.0625,-1789.760009765625,-400000.0625,6229.77978515625,-400000.0625
277.41529273986816,-400000.0625,9071.400390625,1753.9000244140625,-400000.0625,-1798.25,-400000.0625,6230.5498046875,-400000.0625
277.43917512893677,-400000.0625,9065.4404296875,1749.3299560546875,-400000.0625,-1798.489990234375,-400000.0625,6222.33984375,-400000.0625
277.4555649757385,-400000.0625,9058.6201171875,1743.8399658203125,-400000.0625,-1799.300048828125,-400000.0625,6218.47998046875,-400000.0625
277.4748980998993,-400000.0625,9059.240234375,1747.8499755859375,-400000.0625,-1797.8199462890625,-400000.0625,6222.52978515625,-400000.0625
277.5127866268158,-400000.0625,9063.5302734375,1753.81005859375,-400000.0625,-1794.0,-400000.0625,6228.68994140625,-400000.0625
277.528635263443,-400000.0625,9069.25,1756.0999755859375,-400000.0625,-1806.1600341796875,-400000.0625,6229.06982421875,-400000.0625
277.5470905303955,-400000.0625,9061.150390625,1750.760009765625,-400000.0625,-1809.8399658203125,-400000.0625,6221.919921875,-400000.0625
277.5617799758911,-400000.0625,9050.75,1743.8399658203125,-400000.0625,-1815.6500244140625,-400000.0625,6220.8701171875,-400000.0625
277.5828456878662,-400000.0625,9057.08984375,1747.56005859375,-400000.0625,-1812.27001953125,-400000.0625,6230.5498046875,-400000.0625
277.67695212364197,-400000.0625,9065.7197265625,1754.7099609375,-400000.0625,-1792.1400146484375,-400000.0625,6230.5498046875,-400000.0625
277.7102701663971,-400000.0625,9063.33984375,1757.8599853515625,-400000.0625,-1794.0,-400000.0625,6230.830078125,-400000.0625
277.8180990219116,-400000.0625,9057.48046875,1746.699951171875,-400000.0625,-1801.06005859375,-400000.0625,6223.72998046875,-400000.0625
277.9419722557068,-400000.0625,9057.4296875,1745.510009765625,-400000.0625,-1810.5,-400000.0625,6222.2001953125,-400000.0625
278.02817702293396,-400000.0625,9060.76953125,1751.52001953125,-400000.0625,-1818.22998046875,-400000.0625,6226.2099609375,-400000.0625
278.08363485336304,-400000.0625,9066.8701171875,1756.3800048828125,-400000.0625,-1808.4100341796875,-400000.0625,6230.8798828125,-400000.0625
