time,ch1,ch2,ch3,ch4,ch5
timestamp,ch7,ch2,ch3,ch5,is_pause
timestamp,ch7,ch2,ch3,ch5,is_pause
timestamp,ch7,ch2,ch3,ch5,is_pause
0.03860354423522949,-400000.0625,-9478.2802734375,-2364.25,-400000.0625,-12727.4501953125,-400000.0625,4331.97021484375,-400000.0625
0.03879284858703613,-400000.0625,-9463.5,-2355.530029296875,-400000.0625,-12708.0,-400000.0625,4337.93017578125,-400000.0625
0.03881359100341797,-400000.0625,-9511.4697265625,-2402.590087890625,-400000.0625,-12751.8701171875,-400000.0625,4282.759765625,-400000.0625
0.03882479667663574,-400000.0625,-9549.1904296875,-2436.919921875,-400000.0625,-12793.73046875,-400000.0625,4248.18994140625,-400000.0625
0.03883481025695801,-400000.0625,-9529.3095703125,-2411.989990234375,-400000.0625,-12773.9404296875,-400000.0625,4268.31005859375,-400000.0625
0.038843631744384766,-400000.0625,-9481.4296875,-2367.929931640625,-400000.0625,-12720.2998046875,-400000.0625,4310.66015625,-400000.0625
0.03885340690612793,-400000.0625,-9464.83984375,-2352.52001953125,-400000.0625,-12703.3203125,-400000.0625,4330.830078125,-400000.0625
0.0388646125793457,-400000.0625,-9505.3203125,-2389.0,-400000.0625,-12749.8203125,-400000.0625,4283.81005859375,-400000.0625
0.038874149322509766,-400000.0625,-9541.3203125,-2425.719970703125,-400000.0625,-12788.580078125,-400000.0625,4250.240234375,-400000.0625
0.03888297080993652,-400000.0625,-9525.73046875,-2409.510009765625,-400000.0625,-12771.080078125,-400000.0625,4273.7001953125,-400000.0625
0.03889107704162598,-400000.0625,-9486.150390625,-2372.60009765625,-400000.0625,-12723.400390625,-400000.0625,4313.0400390625,-400000.0625
0.03889966011047363,-400000.0625,-9466.3603515625,-2348.85009765625,-400000.0625,-12707.3798828125,-400000.0625,4332.97021484375,-400000.0625
0.03890848159790039,-400000.0625,-9513.5703125,-2393.719970703125,-400000.0625,-12758.2099609375,-400000.0625,4285.43017578125,-400000.0625
0.038916826248168945,-400000.0625,-9557.6796875,-2445.75,-400000.0625,-12800.5498046875,-400000.0625,4247.52001953125,-400000.0625
0.038926124572753906,-400000.0625,-9533.8798828125,-2422.2900390625,-400000.0625,-12783.099609375,-400000.0625,4263.68994140625,-400000.0625
0.038934946060180664,-400000.0625,-9492.1103515625,-2379.75,-400000.0625,-12729.740234375,-400000.0625,4308.7001953125,-400000.0625
timestamp,ch7,ch2,ch3,ch5,is_pause
timestamp,ch7,ch2,ch3,ch5,is_pause
timestamp,ch7,ch2,ch3,ch5,is_pause
timestamp,ch7,ch2,ch3,ch5,is_pause
timestamp,ch7,ch2,ch3,ch5,is_pause
0.09672856330871582,-400000.0625,-9470.0302734375,-2352.81005859375,-400000.0625,-12706.08984375,-400000.0625,4329.490234375,-400000.0625
0.09679961204528809,-400000.0625,-9499.9296875,-2386.3798828125,-400000.0625,-12743.08984375,-400000.0625,4293.490234375,-400000.0625
0.09680438041687012,-400000.0625,-9538.0302734375,-2420.85009765625,-400000.0625,-12782.76953125,-400000.0625,4257.97021484375,-400000.0625
0.09680819511413574,-400000.0625,-9528.73046875,-2412.989990234375,-400000.0625,-12768.509765625,-400000.0625,4272.60009765625,-400000.0625
0.09681177139282227,-400000.0625,-9493.919921875,-2380.659912109375,-400000.0625,-12731.1201171875,-400000.0625,4310.7998046875,-400000.0625
0.0968165397644043,-400000.0625,-9478.759765625,-2363.010009765625,-400000.0625,-12714.4404296875,-400000.0625,4325.8701171875,-400000.0625
0.09682011604309082,-400000.0625,-9520.3896484375,-2404.360107421875,-400000.0625,-12752.919921875,-400000.0625,4283.330078125,-400000.0625
0.09682369232177734,-400000.0625,-9552.48046875,-2432.010009765625,-400000.0625,-12788.25,-400000.0625,4251.240234375,-400000.0625
0.09682726860046387,-400000.0625,-9526.830078125,-2411.179931640625,-400000.0625,-12766.080078125,-400000.0625,4271.22021484375,-400000.0625
0.0968320369720459,-400000.0625,-9480.8095703125,-2364.300048828125,-400000.0625,-12723.2099609375,-400000.0625,4317.0,-400000.0625
0.09683537483215332,-400000.0625,-9465.3603515625,-2350.52001953125,-400000.0625,-12710.4296875,-400000.0625,4339.93017578125,-400000.0625
0.09683918952941895,-400000.0625,-9506.3701171875,-2391.6201171875,-400000.0625,-12751.6796875,-400000.0625,4295.25,-400000.0625
0.09684276580810547,-400000.0625,-9536.650390625,-2421.89990234375,-400000.0625,-12779.9501953125,-400000.0625,4260.97021484375,-400000.0625
0.09684634208679199,-400000.0625,-9516.1396484375,-2395.530029296875,-400000.0625,-12760.830078125,-400000.0625,4284.91015625,-400000.0625
0.09685564041137695,-400000.0625,-9477.7099609375,-2357.050048828125,-400000.0625,-12725.6904296875,-400000.0625,4322.72021484375,-400000.0625
0.09686517715454102,-400000.0625,-9458.8798828125,-2342.419921875,-400000.0625,-12700.6103515625,-400000.0625,4339.1201171875,-400000.0625
timestamp,ch7,ch2,ch3,ch5,is_pause
timestamp,ch7,ch2,ch3,ch5,is_pause
timestamp,ch7,ch2,ch3,ch5,is_pause
timestamp,ch7,ch2,ch3,ch5,is_pause
timestamp,ch7,ch2,ch3,ch5,is_pause
timestamp,ch7,ch2,ch3,ch5,is_pause
0.17263364791870117,-400000.0625,-9497.5,-2384.949951171875,-400000.0625,-12740.23046875,-400000.0625,4298.8798828125,-400000.0625
timestamp,ch7,ch2,ch3,ch5,is_pause
0.17961478233337402,-400000.0625,-9535.080078125,-2421.81005859375,-400000.0625,-12783.0,-400000.0625,4260.8701171875,-400000.0625
0.17969870567321777,-400000.0625,-9516.5302734375,-2399.780029296875,-400000.0625,-12769.1298828125,-400000.0625,4278.7998046875,-400000.0625
0.17970991134643555,-400000.0625,-9475.2802734375,-2359.43994140625,-400000.0625,-12717.490234375,-400000.0625,4327.25,-400000.0625
0.1797192096710205,-400000.0625,-9458.01953125,-2344.659912109375,-400000.0625,-12696.7900390625,-400000.0625,4345.47021484375,-400000.0625
0.17972803115844727,-400000.0625,-9488.6796875,-2371.070068359375,-400000.0625,-12736.849609375,-400000.0625,4310.75,-400000.0625
0.17973709106445312,-400000.0625,-9516.5302734375,-2402.8798828125,-400000.0625,-12773.7998046875,-400000.0625,4277.52001953125,-400000.0625
0.17974638938903809,-400000.0625,-9508.9404296875,-2394.77001953125,-400000.0625,-12758.0703125,-400000.0625,4279.56982421875,-400000.0625
0.17975521087646484,-400000.0625,-9472.23046875,-2353.050048828125,-400000.0625,-12709.1904296875,-400000.0625,4327.490234375,-400000.0625
0.1797642707824707,-400000.0625,-9454.1103515625,-2336.070068359375,-400000.0625,-12688.6904296875,-400000.0625,4344.02978515625,-400000.0625
0.17977333068847656,-400000.0625,-9495.5498046875,-2380.89990234375,-400000.0625,-12739.419921875,-400000.0625,4294.5400390625,-400000.0625
0.17978644371032715,-400000.0625,-9526.25,-2411.699951171875,-400000.0625,-12777.759765625,-400000.0625,4265.5,-400000.0625
0.1797957420349121,-400000.0625,-9512.0,-2394.43994140625,-400000.0625,-12758.4501953125,-400000.0625,4284.240234375,-400000.0625
0.17980432510375977,-400000.0625,-9463.4501953125,-2345.3701171875,-400000.0625,-12714.7197265625,-400000.0625,4330.919921875,-400000.0625
0.17981243133544922,-400000.0625,-9446.48046875,-2330.260009765625,-400000.0625,-12695.599609375,-400000.0625,4342.83984375,-400000.0625
0.17982077598571777,-400000.0625,-9496.169921875,-2381.75,-400000.0625,-12745.8095703125,-400000.0625,4289.580078125,-400000.0625
timestamp,ch7,ch2,ch3,ch5,is_pause
timestamp,ch7,ch2,ch3,ch5,is_pause
timestamp,ch7,ch2,ch3,ch5,is_pause
timestamp,ch7,ch2,ch3,ch5,is_pause
0.22683072090148926,-400000.0625,-9525.6796875,-2412.3701171875,-400000.0625,-12778.4697265625,-400000.0625,4260.35009765625,-400000.0625
0.22696399688720703,-400000.0625,-9512.849609375,-2394.8701171875,-400000.0625,-12758.919921875,-400000.0625,4282.9501953125,-400000.0625
0.22696924209594727,-400000.0625,-9476.759765625,-2354.719970703125,-400000.0625,-12713.4296875,-400000.0625,4327.6298828125,-400000.0625
0.226973295211792,-400000.0625,-9475.759765625,-2345.75,-400000.0625,-12696.0302734375,-400000.0625,4337.259765625,-400000.0625
0.22697782516479492,-400000.0625,-9528.349609375,-2390.580078125,-400000.0625,-12743.08984375,-400000.0625,4289.33984375,-400000.0625
0.22698163986206055,-400000.0625,-9552.0498046875,-2422.2900390625,-400000.0625,-12771.4599609375,-400000.0625,4262.10986328125,-400000.0625
0.22698545455932617,-400000.0625,-9549.7099609375,-2418.610107421875,-400000.0625,-12747.9599609375,-400000.0625,4279.330078125,-400000.0625
0.2269906997680664,-400000.0625,-9524.25,-2385.89990234375,-400000.0625,-12701.7001953125,-400000.0625,4311.27978515625,-400000.0625
0.22699427604675293,-400000.0625,-9509.6103515625,-2365.2099609375,-400000.0625,-12673.0,-400000.0625,4332.72998046875,-400000.0625
0.22700095176696777,-400000.0625,-9571.41015625,-2428.25,-400000.0625,-12718.6298828125,-400000.0625,4274.080078125,-400000.0625
0.22700786590576172,-400000.0625,-9630.16015625,-2482.510009765625,-400000.0625,-12769.26953125,-400000.0625,4227.5400390625,-400000.0625
0.22701144218444824,-400000.0625,-9622.099609375,-2466.6298828125,-400000.0625,-12746.8603515625,-400000.0625,4239.27001953125,-400000.0625
0.22701501846313477,-400000.0625,-9602.6904296875,-2432.780029296875,-400000.0625,-12697.650390625,-400000.0625,4275.1298828125,-400000.0625
0.2270183563232422,-400000.0625,-9585.1904296875,-2412.409912109375,-400000.0625,-12666.990234375,-400000.0625,4296.64013671875,-400000.0625
0.2270219326019287,-400000.0625,-9627.919921875,-2462.10009765625,-400000.0625,-12711.33984375,-400000.0625,4245.0400390625,-400000.0625
0.22702527046203613,-400000.0625,-9678.169921875,-2506.35009765625,-400000.0625,-12759.6396484375,-400000.0625,4197.68994140625,-400000.0625
timestamp,ch7,ch2,ch3,ch5,is_pause
timestamp,ch7,ch2,ch3,ch5,is_pause
timestamp,ch7,ch2,ch3,ch5,is_pause
timestamp,ch7,ch2,ch3,ch5,is_pause
timestamp,ch7,ch2,ch3,ch5,is_pause
timestamp,ch7,ch2,ch3,ch5,is_pause
timestamp,ch7,ch2,ch3,ch5,is_pause
0.31315135955810547,-400000.0625,-9653.51953125,-2482.93994140625,-400000.0625,-12734.0302734375,-400000.0625,4228.02001953125,-400000.0625
timestamp,ch7,ch2,ch3,ch5,is_pause
0.32720041275024414,-400000.0625,-9602.7900390625,-2429.9599609375,-400000.0625,-12674.0498046875,-400000.0625,4280.330078125,-400000.0625
timestamp,ch7,ch2,ch3,ch5,is_pause
0.33228015899658203,-400000.0625,-9588.580078125,-2409.320068359375,-400000.0625,-12662.83984375,-400000.0625,4303.06982421875,-400000.0625
0.3360607624053955,-400000.0625,-9640.5,-2469.830078125,-400000.0625,-12718.5400390625,-400000.0625,4242.47021484375,-400000.0625
0.33606839179992676,-400000.0625,-9684.9501953125,-2514.699951171875,-400000.0625,-12757.830078125,-400000.0625,4198.1201171875,-400000.0625
0.3360755443572998,-400000.0625,-9668.5400390625,-2492.6201171875,-400000.0625,-12739.3701171875,-400000.0625,4222.06005859375,-400000.0625
0.33607959747314453,-400000.0625,-9609.75,-2436.02001953125,-400000.0625,-12691.1201171875,-400000.0625,4281.0,-400000.0625
0.33608341217041016,-400000.0625,-9584.9501953125,-2411.219970703125,-400000.0625,-12672.51953125,-400000.0625,4308.509765625,-400000.0625
0.3360867500305176,-400000.0625,-9634.9296875,-2459.860107421875,-400000.0625,-12725.8798828125,-400000.0625,4252.77001953125,-400000.0625
0.3360905647277832,-400000.0625,-9676.98046875,-2504.39990234375,-400000.0625,-12763.5498046875,-400000.0625,4206.509765625,-400000.0625
0.33609437942504883,-400000.0625,-9650.330078125,-2476.169921875,-400000.0625,-12740.9501953125,-400000.0625,4238.27001953125,-400000.0625
0.33609795570373535,-400000.0625,-9586.4296875,-2417.139892578125,-400000.0625,-12688.1103515625,-400000.0625,4294.2099609375,-400000.0625
0.3361015319824219,-400000.0625,-9563.5400390625,-2392.9599609375,-400000.0625,-12663.9404296875,-400000.0625,4315.6201171875,-400000.0625
0.336106538772583,-400000.0625,-9617.2802734375,-2449.0400390625,-400000.0625,-12710.91015625,-400000.0625,4262.16015625,-400000.0625
0.33611011505126953,-400000.0625,-9666.919921875,-2498.050048828125,-400000.0625,-12763.259765625,-400000.0625,4213.14013671875,-400000.0625
0.33611392974853516,-400000.0625,-9650.0400390625,-2478.929931640625,-400000.0625,-12745.9501953125,-400000.0625,4230.64013671875,-400000.0625
timestamp,ch7,ch2,ch3,ch5,is_pause
timestamp,ch7,ch2,ch3,ch5,is_pause
0.3561694622039795,-400000.0625,-9585.9501953125,-2416.090087890625,-400000.0625,-12682.5302734375,-400000.0625,4298.5,-400000.0625
0.36186814308166504,-400000.0625,-9559.6796875,-2390.3798828125,-400000.0625,-12657.1201171875,-400000.0625,4321.0498046875,-400000.0625
0.3661165237426758,-400000.0625,-9622.76953125,-2454.659912109375,-400000.0625,-12727.259765625,-400000.0625,4257.2001953125,-400000.0625
0.36612391471862793,-400000.0625,-9671.0703125,-2508.02001953125,-400000.0625,-12779.8095703125,-400000.0625,4213.3798828125,-400000.0625
0.36612820625305176,-400000.0625,-9644.9404296875,-2479.409912109375,-400000.0625,-12750.25,-400000.0625,4239.85009765625,-400000.0625
0.3661322593688965,-400000.0625,-9587.099609375,-2416.610107421875,-400000.0625,-12686.0595703125,-400000.0625,4296.72998046875,-400000.0625
0.3661360740661621,-400000.0625,-9559.0595703125,-2392.9599609375,-400000.0625,-12660.5498046875,-400000.0625,4330.68017578125,-400000.0625
0.36613965034484863,-400000.0625,-9626.490234375,-2460.669921875,-400000.0625,-12732.7900390625,-400000.0625,4260.68017578125,-400000.0625
0.36614346504211426,-400000.0625,-9681.5595703125,-2515.550048828125,-400000.0625,-12794.0703125,-400000.0625,4206.3701171875,-400000.0625
0.3661470413208008,-400000.0625,-9655.2900390625,-2489.18994140625,-400000.0625,-12764.5,-400000.0625,4237.60009765625,-400000.0625
0.3661506175994873,-400000.0625,-9586.33984375,-2418.3798828125,-400000.0625,-12688.2998046875,-400000.0625,4306.02978515625,-400000.0625
0.3661539554595947,-400000.0625,-9564.9697265625,-2395.300048828125,-400000.0625,-12663.599609375,-400000.0625,4328.43994140625,-400000.0625
0.36615753173828125,-400000.0625,-9639.2197265625,-2468.919921875,-400000.0625,-12731.98046875,-400000.0625,4252.72021484375,-400000.0625
0.3661611080169678,-400000.0625,-9680.6103515625,-2509.070068359375,-400000.0625,-12782.33984375,-400000.0625,4206.60986328125,-400000.0625
0.3661646842956543,-400000.0625,-9643.75,-2472.159912109375,-400000.0625,-12749.9599609375,-400000.0625,4244.7099609375,-400000.0625
0.3661777973175049,-400000.0625,-9591.3896484375,-2416.320068359375,-400000.0625,-12691.58984375,-400000.0625,4303.31005859375,-400000.0625
timestamp,ch7,ch2,ch3,ch5,is_pause
timestamp,ch7,ch2,ch3,ch5,is_pause
timestamp,ch7,ch2,ch3,ch5,is_pause
timestamp,ch7,ch2,ch3,ch5,is_pause
timestamp,ch7,ch2,ch3,ch5,is_pause
0.41562461853027344,-400000.0625,-9573.75,-2401.300048828125,-400000.0625,-12673.0498046875,-400000.0625,4312.990234375,-400000.0625
timestamp,ch7,ch2,ch3,ch5,is_pause
0.42688775062561035,-400000.0625,-9645.419921875,-2473.639892578125,-400000.0625,-12736.0400390625,-400000.0625,4244.27978515625,-400000.0625
0.43138742446899414,-400000.0625,-9706.400390625,-2522.56005859375,-400000.0625,-12787.150390625,-400000.0625,4193.68994140625,-400000.0625
0.4313948154449463,-400000.0625,-9669.5,-2491.81005859375,-400000.0625,-12755.009765625,-400000.0625,4232.60009765625,-400000.0625
0.4313991069793701,-400000.0625,-9603.3095703125,-2436.830078125,-400000.0625,-12693.4501953125,-400000.0625,4308.4599609375,-400000.0625
0.43140316009521484,-400000.0625,-9584.669921875,-2421.090087890625,-400000.0625,-12672.8095703125,-400000.0625,4331.97021484375,-400000.0625
0.43140673637390137,-400000.0625,-9648.849609375,-2490.6201171875,-400000.0625,-12734.83984375,-400000.0625,4272.080078125,-400000.0625
0.431410551071167,-400000.0625,-9713.9404296875,-2560.0,-400000.0625,-12786.76953125,-400000.0625,4213.240234375,-400000.0625
0.4314141273498535,-400000.0625,-9679.83984375,-2529.3798828125,-400000.0625,-12753.8203125,-400000.0625,4254.2001953125,-400000.0625
0.43141770362854004,-400000.0625,-9615.66015625,-2468.5400390625,-400000.0625,-12688.6904296875,-400000.0625,4324.9599609375,-400000.0625
0.43142127990722656,-400000.0625,-9602.2099609375,-2455.090087890625,-400000.0625,-12670.1396484375,-400000.0625,4342.509765625,-400000.0625
0.4314250946044922,-400000.0625,-9668.6904296875,-2524.090087890625,-400000.0625,-12736.9404296875,-400000.0625,4277.89990234375,-400000.0625
0.4314286708831787,-400000.0625,-9719.51953125,-2578.590087890625,-400000.0625,-12788.25,-400000.0625,4227.5,-400000.0625
0.43143653869628906,-400000.0625,-9693.0,-2552.080078125,-400000.0625,-12760.2099609375,-400000.0625,4248.0498046875,-400000.0625
0.4314403533935547,-400000.0625,-9629.2001953125,-2488.7099609375,-400000.0625,-12694.6904296875,-400000.0625,4321.47998046875,-400000.0625
0.4314439296722412,-400000.0625,-9605.5,-2465.010009765625,-400000.0625,-12673.8603515625,-400000.0625,4348.419921875,-400000.0625
timestamp,ch7,ch2,ch3,ch5,is_pause
timestamp,ch7,ch2,ch3,ch5,is_pause
timestamp,ch7,ch2,ch3,ch5,is_pause
timestamp,ch7,ch2,ch3,ch5,is_pause
0.4807002544403076,-400000.0625,-9669.400390625,-2529.719970703125,-400000.0625,-12734.41015625,-400000.0625,4281.18994140625,-400000.0625
timestamp,ch7,ch2,ch3,ch5,is_pause
0.48572754859924316,-400000.0625,-9708.98046875,-2573.35009765625,-400000.0625,-12784.76953125,-400000.0625,4239.7001953125,-400000.0625
0.4904963970184326,-400000.0625,-9686.2802734375,-2550.550048828125,-400000.0625,-12765.7001953125,-400000.0625,4266.2099609375,-400000.0625
0.4905052185058594,-400000.0625,-9633.01953125,-2493.239990234375,-400000.0625,-12704.419921875,-400000.0625,4324.33984375,-400000.0625
0.4905095100402832,-400000.0625,-9610.3203125,-2466.72998046875,-400000.0625,-12671.759765625,-400000.0625,4348.7099609375,-400000.0625
0.49051475524902344,-400000.0625,-9668.5400390625,-2526.429931640625,-400000.0625,-12737.3701171875,-400000.0625,4291.81982421875,-400000.0625
0.49051880836486816,-400000.0625,-9716.75,-2577.35009765625,-400000.0625,-12787.009765625,-400000.0625,4236.93994140625,-400000.0625
0.4905223846435547,-400000.0625,-9692.240234375,-2549.97998046875,-400000.0625,-12760.6904296875,-400000.0625,4259.2998046875,-400000.0625
0.4905261993408203,-400000.0625,-9626.099609375,-2484.85009765625,-400000.0625,-12687.8798828125,-400000.0625,4329.490234375,-400000.0625
0.49053001403808594,-400000.0625,-9601.4501953125,-2463.14990234375,-400000.0625,-12668.419921875,-400000.0625,4357.0,-400000.0625
0.49053382873535156,-400000.0625,-9668.2998046875,-2528.47998046875,-400000.0625,-12744.240234375,-400000.0625,4287.72021484375,-400000.0625
0.4905376434326172,-400000.0625,-9711.3095703125,-2573.35009765625,-400000.0625,-12783.8603515625,-400000.0625,4244.27978515625,-400000.0625
0.490602970123291,-400000.0625,-9683.5595703125,-2545.639892578125,-400000.0625,-12764.259765625,-400000.0625,4270.83984375,-400000.0625
0.49060750007629395,-400000.0625,-9627.3896484375,-2487.3701171875,-400000.0625,-12701.1796875,-400000.0625,4331.8798828125,-400000.0625
0.49068760871887207,-400000.0625,-9606.3603515625,-2464.010009765625,-400000.0625,-12669.330078125,-400000.0625,4355.43017578125,-400000.0625
0.4906916618347168,-400000.0625,-9660.8701171875,-2522.090087890625,-400000.0625,-12732.3203125,-400000.0625,4300.5498046875,-400000.0625
timestamp,ch7,ch2,ch3,ch5,is_pause
timestamp,ch7,ch2,ch3,ch5,is_pause
timestamp,ch7,ch2,ch3,ch5,is_pause
timestamp,ch7,ch2,ch3,ch5,is_pause
0.5457613468170166,-400000.0625,-9710.169921875,-2573.969970703125,-400000.0625,-12789.5400390625,-400000.0625,4245.81005859375,-400000.0625
timestamp,ch7,ch2,ch3,ch5,is_pause
0.5563795566558838,-400000.0625,-9691.3798828125,-2550.93994140625,-400000.0625,-12763.4501953125,-400000.0625,4267.259765625,-400000.0625
timestamp,ch7,ch2,ch3,ch5,is_pause
0.5622744560241699,-400000.0625,-9626.6796875,-2485.989990234375,-400000.0625,-12699.509765625,-400000.0625,4331.97021484375,-400000.0625
0.5667016506195068,-400000.0625,-9612.1298828125,-2470.449951171875,-400000.0625,-12683.919921875,-400000.0625,4348.66015625,-400000.0625
0.5667102336883545,-400000.0625,-9676.3603515625,-2532.429931640625,-400000.0625,-12742.23046875,-400000.0625,4280.759765625,-400000.0625
0.5667150020599365,-400000.0625,-9720.419921875,-2579.68994140625,-400000.0625,-12789.919921875,-400000.0625,4240.419921875,-400000.0625
0.5667188167572021,-400000.0625,-9688.240234375,-2549.739990234375,-400000.0625,-12757.2998046875,-400000.0625,4273.1298828125,-400000.0625
0.5667223930358887,-400000.0625,-9624.33984375,-2481.889892578125,-400000.0625,-12688.259765625,-400000.0625,4339.5,-400000.0625
0.5667293071746826,-400000.0625,-9597.16015625,-2453.280029296875,-400000.0625,-12666.990234375,-400000.0625,4364.2998046875,-400000.0625
0.5667328834533691,-400000.0625,-9655.8095703125,-2522.280029296875,-400000.0625,-12741.08984375,-400000.0625,4297.06982421875,-400000.0625
0.5667366981506348,-400000.0625,-9713.169921875,-2578.449951171875,-400000.0625,-12802.98046875,-400000.0625,4242.56005859375,-400000.0625
0.5667402744293213,-400000.0625,-9689.5703125,-2549.60009765625,-400000.0625,-12760.9697265625,-400000.0625,4266.4501953125,-400000.0625
0.5667440891265869,-400000.0625,-9620.0,-2475.31005859375,-400000.0625,-12679.48046875,-400000.0625,4341.64990234375,-400000.0625
0.5667476654052734,-400000.0625,-9599.259765625,-2453.52001953125,-400000.0625,-12658.4501953125,-400000.0625,4361.919921875,-400000.0625
0.56675124168396,-400000.0625,-9685.3701171875,-2537.5400390625,-400000.0625,-12746.5302734375,-400000.0625,4283.3798828125,-400000.0625
0.5667548179626465,-400000.0625,-9748.83984375,-2595.81005859375,-400000.0625,-12806.3701171875,-400000.0625,4225.2998046875,-400000.0625
timestamp,ch7,ch2,ch3,ch5,is_pause
timestamp,ch7,ch2,ch3,ch5,is_pause
timestamp,ch7,ch2,ch3,ch5,is_pause
timestamp,ch7,ch2,ch3,ch5,is_pause
0.6071627140045166,-400000.0625,-9694.91015625,-2547.97998046875,-400000.0625,-12768.3701171875,-400000.0625,4253.72021484375,-400000.0625
0.6125073432922363,-400000.0625,-9615.6103515625,-2470.35009765625,-400000.0625,-12693.83984375,-400000.0625,4317.18994140625,-400000.0625
0.6164700984954834,-400000.0625,-9587.099609375,-2437.639892578125,-400000.0625,-12663.4599609375,-400000.0625,4338.35986328125,-400000.0625
0.6164777278900146,-400000.0625,-9649.23046875,-2494.81005859375,-400000.0625,-12727.6904296875,-400000.0625,4263.06982421875,-400000.0625
0.6164820194244385,-400000.0625,-9697.2998046875,-2534.010009765625,-400000.0625,-12782.8603515625,-400000.0625,4202.56005859375,-400000.0625
0.616485595703125,-400000.0625,-9660.2001953125,-2490.570068359375,-400000.0625,-12752.76953125,-400000.0625,4226.830078125,-400000.0625
0.6164944171905518,-400000.0625,-9590.33984375,-2419.18994140625,-400000.0625,-12682.76953125,-400000.0625,4281.240234375,-400000.0625
0.6164979934692383,-400000.0625,-9564.6396484375,-2390.669921875,-400000.0625,-12652.58984375,-400000.0625,4300.31005859375,-400000.0625
0.6165018081665039,-400000.0625,-9625.48046875,-2443.27001953125,-400000.0625,-12713.2900390625,-400000.0625,4234.22021484375,-400000.0625
0.6165051460266113,-400000.0625,-9679.509765625,-2494.2900390625,-400000.0625,-12769.3701171875,-400000.0625,4176.81005859375,-400000.0625
0.6165087223052979,-400000.0625,-9655.330078125,-2466.25,-400000.0625,-12744.8603515625,-400000.0625,4203.83984375,-400000.0625
0.6165122985839844,-400000.0625,-9587.0,-2398.110107421875,-400000.0625,-12675.6201171875,-400000.0625,4275.75,-400000.0625
0.6165156364440918,-400000.0625,-9572.1298828125,-2383.179931640625,-400000.0625,-12660.3095703125,-400000.0625,4289.25,-400000.0625
0.6165194511413574,-400000.0625,-9634.830078125,-2445.64990234375,-400000.0625,-12729.259765625,-400000.0625,4225.16015625,-400000.0625
0.616523265838623,-400000.0625,-9676.8896484375,-2486.659912109375,-400000.0625,-12775.0400390625,-400000.0625,4185.2001953125,-400000.0625
0.6165266036987305,-400000.0625,-9650.6103515625,-2461.14990234375,-400000.0625,-12747.3798828125,-400000.0625,4210.759765625,-400000.0625
timestamp,ch7,ch2,ch3,ch5,is_pause
timestamp,ch7,ch2,ch3,ch5,is_pause
timestamp,ch7,ch2,ch3,ch5,is_pause
timestamp,ch7,ch2,ch3,ch5,is_pause
timestamp,ch7,ch2,ch3,ch5,is_pause
timestamp,ch7,ch2,ch3,ch5,is_pause
0.6879785060882568,-400000.0625,-9587.2900390625,-2399.639892578125,-400000.0625,-12679.2900390625,-400000.0625,4276.93994140625,-400000.0625
timestamp,ch7,ch2,ch3,ch5,is_pause
0.697798490524292,-400000.0625,-9569.0302734375,-2379.469970703125,-400000.0625,-12657.2099609375,-400000.0625,4297.64013671875,-400000.0625
0.7017779350280762,-400000.0625,-9628.73046875,-2438.969970703125,-400000.0625,-12725.1201171875,-400000.0625,4230.259765625,-400000.0625
0.7017850875854492,-400000.0625,-9674.0302734375,-2488.179931640625,-400000.0625,-12778.0,-400000.0625,4185.72021484375,-400000.0625
0.701789379119873,-400000.0625,-9646.66015625,-2459.340087890625,-400000.0625,-12746.8603515625,-400000.0625,4216.39013671875,-400000.0625
0.7017934322357178,-400000.0625,-9585.48046875,-2394.300048828125,-400000.0625,-12676.099609375,-400000.0625,4283.08984375,-400000.0625
0.7017970085144043,-400000.0625,-9561.2998046875,-2371.219970703125,-400000.0625,-12652.6796875,-400000.0625,4306.4599609375,-400000.0625
0.7018005847930908,-400000.0625,-9627.25,-2437.639892578125,-400000.0625,-12723.830078125,-400000.0625,4236.89013671875,-400000.0625
0.7018039226531982,-400000.0625,-9678.7900390625,-2491.669921875,-400000.0625,-12776.4697265625,-400000.0625,4183.2900390625,-400000.0625
0.7018077373504639,-400000.0625,-9659.7197265625,-2472.590087890625,-400000.0625,-12755.73046875,-400000.0625,4204.419921875,-400000.0625
0.7018110752105713,-400000.0625,-9601.830078125,-2412.840087890625,-400000.0625,-12694.3095703125,-400000.0625,4266.31005859375,-400000.0625
0.7018144130706787,-400000.0625,-9578.2802734375,-2388.429931640625,-400000.0625,-12672.1396484375,-400000.0625,4287.91015625,-400000.0625
0.7018179893493652,-400000.0625,-9639.7900390625,-2451.3701171875,-400000.0625,-12730.26953125,-400000.0625,4225.58984375,-400000.0625
0.7018215656280518,-400000.0625,-9681.7998046875,-2493.10009765625,-400000.0625,-12782.5302734375,-400000.0625,4182.81982421875,-400000.0625
0.7018249034881592,-400000.0625,-9651.9501953125,-2461.2900390625,-400000.0625,-12752.9599609375,-400000.0625,4215.10009765625,-400000.0625
0.7018294334411621,-400000.0625,-9590.33984375,-2403.39990234375,-400000.0625,-12689.16015625,-400000.0625,4281.0,-400000.0625
timestamp,ch7,ch2,ch3,ch5,is_pause
timestamp,ch7,ch2,ch3,ch5,is_pause
timestamp,ch7,ch2,ch3,ch5,is_pause
timestamp,ch7,ch2,ch3,ch5,is_pause
0.7418153285980225,-400000.0625,-9563.73046875,-2376.030029296875,-400000.0625,-12662.1298828125,-400000.0625,4310.31982421875,-400000.0625
0.7466952800750732,-400000.0625,-9629.349609375,-2440.97998046875,-400000.0625,-12728.41015625,-400000.0625,4235.93994140625,-400000.0625
0.7467036247253418,-400000.0625,-9685.7998046875,-2494.18994140625,-400000.0625,-12782.8603515625,-400000.0625,4177.6201171875,-400000.0625
0.7467079162597656,-400000.0625,-9662.099609375,-2470.449951171875,-400000.0625,-12754.16015625,-400000.0625,4208.7998046875,-400000.0625
0.7467119693756104,-400000.0625,-9587.5302734375,-2397.919921875,-400000.0625,-12683.580078125,-400000.0625,4282.47998046875,-400000.0625
0.7467155456542969,-400000.0625,-9556.8701171875,-2368.639892578125,-400000.0625,-12654.259765625,-400000.0625,4307.27001953125,-400000.0625
0.7467191219329834,-400000.0625,-9622.0498046875,-2436.02001953125,-400000.0625,-12721.16015625,-400000.0625,4242.7998046875,-400000.0625
0.7467226982116699,-400000.0625,-9676.4599609375,-2494.139892578125,-400000.0625,-12782.0498046875,-400000.0625,4188.68017578125,-400000.0625
0.7467262744903564,-400000.0625,-9660.48046875,-2472.110107421875,-400000.0625,-12756.9697265625,-400000.0625,4207.75,-400000.0625
0.746729850769043,-400000.0625,-9594.580078125,-2404.5,-400000.0625,-12694.650390625,-400000.0625,4274.18017578125,-400000.0625
0.7467334270477295,-400000.0625,-9573.0302734375,-2385.0400390625,-400000.0625,-12667.7998046875,-400000.0625,4297.35009765625,-400000.0625
0.746737003326416,-400000.0625,-9638.169921875,-2450.989990234375,-400000.0625,-12730.650390625,-400000.0625,4234.509765625,-400000.0625
0.7467403411865234,-400000.0625,-9684.419921875,-2497.389892578125,-400000.0625,-12785.9599609375,-400000.0625,4182.9599609375,-400000.0625
0.74674391746521,-400000.0625,-9652.7099609375,-2466.35009765625,-400000.0625,-12755.919921875,-400000.0625,4212.43017578125,-400000.0625
0.7467474937438965,-400000.0625,-9587.3798828125,-2398.43994140625,-400000.0625,-12684.6298828125,-400000.0625,4283.240234375,-400000.0625
0.7467513084411621,-400000.0625,-9559.2998046875,-2371.169921875,-400000.0625,-12655.400390625,-400000.0625,4305.93994140625,-400000.0625
timestamp,ch7,ch2,ch3,ch5,is_pause
timestamp,ch7,ch2,ch3,ch5,is_pause
timestamp,ch7,ch2,ch3,ch5,is_pause
timestamp,ch7,ch2,ch3,ch5,is_pause
timestamp,ch7,ch2,ch3,ch5,is_pause
0.8081161975860596,-400000.0625,-9612.4697265625,-2427.14990234375,-400000.0625,-12713.0498046875,-400000.0625,4249.0498046875,-400000.0625
timestamp,ch7,ch2,ch3,ch5,is_pause
0.8181817531585693,-400000.0625,-9671.7802734375,-2485.800048828125,-400000.0625,-12782.7197265625,-400000.0625,4190.2099609375,-400000.0625
timestamp,ch7,ch2,ch3,ch5,is_pause
0.8250148296356201,-400000.0625,-9653.2802734375,-2466.010009765625,-400000.0625,-12759.5,-400000.0625,4205.66015625,-400000.0625
0.8297052383422852,-400000.0625,-9582.759765625,-2396.300048828125,-400000.0625,-12685.2099609375,-400000.0625,4281.0,-400000.0625
0.829714298248291,-400000.0625,-9557.2001953125,-2370.409912109375,-400000.0625,-12654.58984375,-400000.0625,4306.93994140625,-400000.0625
0.829718828201294,-400000.0625,-9627.5302734375,-2438.969970703125,-400000.0625,-12723.1103515625,-400000.0625,4230.93017578125,-400000.0625
0.8297233581542969,-400000.0625,-9681.1298828125,-2496.10009765625,-400000.0625,-12779.759765625,-400000.0625,4179.14013671875,-400000.0625
0.8297271728515625,-400000.0625,-9650.1396484375,-2464.340087890625,-400000.0625,-12749.9599609375,-400000.0625,4214.10009765625,-400000.0625
0.8297324180603027,-400000.0625,-9579.3701171875,-2391.429931640625,-400000.0625,-12679.150390625,-400000.0625,4287.14990234375,-400000.0625
0.8297364711761475,-400000.0625,-9553.4296875,-2365.159912109375,-400000.0625,-12657.5,-400000.0625,4309.990234375,-400000.0625
0.8297402858734131,-400000.0625,-9616.7099609375,-2431.300048828125,-400000.0625,-12722.58984375,-400000.0625,4246.47021484375,-400000.0625
0.8297443389892578,-400000.0625,-9673.01953125,-2481.320068359375,-400000.0625,-12779.3798828125,-400000.0625,4196.31005859375,-400000.0625
0.8297486305236816,-400000.0625,-9646.849609375,-2455.280029296875,-400000.0625,-12748.5302734375,-400000.0625,4217.10009765625,-400000.0625
0.8297574520111084,-400000.0625,-9567.2099609375,-2382.280029296875,-400000.0625,-12669.6103515625,-400000.0625,4285.0498046875,-400000.0625
0.829761266708374,-400000.0625,-9536.5498046875,-2349.949951171875,-400000.0625,-12646.099609375,-400000.0625,4311.990234375,-400000.0625
0.8297653198242188,-400000.0625,-9600.9697265625,-2415.3701171875,-400000.0625,-12718.3896484375,-400000.0625,4237.93994140625,-400000.0625
timestamp,ch7,ch2,ch3,ch5,is_pause
timestamp,ch7,ch2,ch3,ch5,is_pause
timestamp,ch7,ch2,ch3,ch5,is_pause
0.863659143447876,-400000.0625,-9653.759765625,-2463.530029296875,-400000.0625,-12776.419921875,-400000.0625,4183.580078125,-400000.0625
0.8686420917510986,-400000.0625,-9621.8095703125,-2429.389892578125,-400000.0625,-12746.1396484375,-400000.0625,4213.47998046875,-400000.0625
0.8686521053314209,-400000.0625,-9553.9599609375,-2361.919921875,-400000.0625,-12674.48046875,-400000.0625,4274.419921875,-400000.0625
0.8686568737030029,-400000.0625,-9542.2802734375,-2338.4599609375,-400000.0625,-12652.9697265625,-400000.0625,4292.68017578125,-400000.0625
0.8686614036560059,-400000.0625,-9601.98046875,-2399.39990234375,-400000.0625,-12721.349609375,-400000.0625,4225.02001953125,-400000.0625
0.8686652183532715,-400000.0625,-9653.6201171875,-2452.989990234375,-400000.0625,-12767.26953125,-400000.0625,4173.56982421875,-400000.0625
0.8686692714691162,-400000.0625,-9628.8203125,-2427.010009765625,-400000.0625,-12741.5703125,-400000.0625,4203.22021484375,-400000.0625
timestamp,ch7,ch2,ch3,ch5,is_pause
0.8752837181091309,-400000.0625,-9561.01953125,-2360.919921875,-400000.0625,-12680.48046875,-400000.0625,4267.5,-400000.0625
0.8805348873138428,-400000.0625,-9534.0703125,-2334.929931640625,-400000.0625,-12652.0595703125,-400000.0625,4297.39990234375,-400000.0625
timestamp,ch7,ch2,ch3,ch5,is_pause
0.8855879306793213,-400000.0625,-9596.6796875,-2397.43994140625,-400000.0625,-12716.3896484375,-400000.0625,4231.259765625,-400000.0625
0.8907022476196289,-400000.0625,-9647.6103515625,-2448.989990234375,-400000.0625,-12773.849609375,-400000.0625,4177.43017578125,-400000.0625
timestamp,ch7,ch2,ch3,ch5,is_pause
0.8958730697631836,-400000.0625,-9615.6103515625,-2419.419921875,-400000.0625,-12745.51953125,-400000.0625,4208.56982421875,-400000.0625
0.9008157253265381,-400000.0625,-9558.25,-2358.340087890625,-400000.0625,-12674.2900390625,-400000.0625,4270.1201171875,-400000.0625
0.9008235931396484,-400000.0625,-9543.3203125,-2340.97998046875,-400000.0625,-12650.2099609375,-400000.0625,4288.240234375,-400000.0625
0.9008290767669678,-400000.0625,-9606.080078125,-2408.60009765625,-400000.0625,-12725.5498046875,-400000.0625,4219.9599609375,-400000.0625
0.9008336067199707,-400000.0625,-9658.580078125,-2462.2900390625,-400000.0625,-12777.4296875,-400000.0625,4169.66015625,-400000.0625
timestamp,ch7,ch2,ch3,ch5,is_pause
timestamp,ch7,ch2,ch3,ch5,is_pause
timestamp,ch7,ch2,ch3,ch5,is_pause
0.931800365447998,-400000.0625,-9631.4404296875,-2431.43994140625,-400000.0625,-12744.8603515625,-400000.0625,4201.080078125,-400000.0625
timestamp,ch7,ch2,ch3,ch5,is_pause
0.9439659118652344,-400000.0625,-9566.169921875,-2365.919921875,-400000.0625,-12674.91015625,-400000.0625,4267.5,-400000.0625
0.9484775066375732,-400000.0625,-9535.169921875,-2338.080078125,-400000.0625,-12652.16015625,-400000.0625,4292.919921875,-400000.0625
0.9484865665435791,-400000.0625,-9598.6396484375,-2403.5,-400000.0625,-12717.0595703125,-400000.0625,4229.02001953125,-400000.0625
0.948491096496582,-400000.0625,-9651.330078125,-2455.81005859375,-400000.0625,-12775.3701171875,-400000.0625,4176.08984375,-400000.0625
0.948495626449585,-400000.0625,-9623.1904296875,-2427.199951171875,-400000.0625,-12748.669921875,-400000.0625,4200.83984375,-400000.0625
0.9485011100769043,-400000.0625,-9554.2001953125,-2358.340087890625,-400000.0625,-12674.51953125,-400000.0625,4274.7998046875,-400000.0625
0.9485125541687012,-400000.0625,-9528.6904296875,-2332.969970703125,-400000.0625,-12650.830078125,-400000.0625,4302.06982421875,-400000.0625
0.9485507011413574,-400000.0625,-9600.4501953125,-2406.169921875,-400000.0625,-12725.16015625,-400000.0625,4225.2099609375,-400000.0625
0.9485547542572021,-400000.0625,-9658.33984375,-2463.47998046875,-400000.0625,-12774.3701171875,-400000.0625,4167.3701171875,-400000.0625
0.9485585689544678,-400000.0625,-9627.0595703125,-2433.6298828125,-400000.0625,-12746.6201171875,-400000.0625,4201.89013671875,-400000.0625
0.9485623836517334,-400000.0625,-9549.8095703125,-2356.239990234375,-400000.0625,-12673.7099609375,-400000.0625,4271.56005859375,-400000.0625
0.9485664367675781,-400000.0625,-9530.6396484375,-2335.7900390625,-400000.0625,-12652.16015625,-400000.0625,4295.2998046875,-400000.0625
0.9485702514648438,-400000.0625,-9613.0400390625,-2411.080078125,-400000.0625,-12724.259765625,-400000.0625,4222.8701171875,-400000.0625
0.9485743045806885,-400000.0625,-9669.5,-2466.110107421875,-400000.0625,-12774.66015625,-400000.0625,4168.56005859375,-400000.0625
0.9485781192779541,-400000.0625,-9654.4296875,-2433.25,-400000.0625,-12743.669921875,-400000.0625,4194.06982421875,-400000.0625
timestamp,ch7,ch2,ch3,ch5,is_pause
timestamp,ch7,ch2,ch3,ch5,is_pause
timestamp,ch7,ch2,ch3,ch5,is_pause
timestamp,ch7,ch2,ch3,ch5,is_pause
timestamp,ch7,ch2,ch3,ch5,is_pause
timestamp,ch7,ch2,ch3,ch5,is_pause
1.0288243293762207,-400000.0625,-9600.6396484375,-2355.669921875,-400000.0625,-12673.0,-400000.0625,4266.41015625,-400000.0625
timestamp,ch7,ch2,ch3,ch5,is_pause
1.0396745204925537,-400000.0625,-9569.7900390625,-2315.81005859375,-400000.0625,-12649.1103515625,-400000.0625,4294.77978515625,-400000.0625
timestamp,ch7,ch2,ch3,ch5,is_pause
1.0506470203399658,-400000.0625,-9638.6396484375,-2394.8701171875,-400000.0625,-12711.099609375,-400000.0625,4246.9501953125,-400000.0625
1.0555939674377441,-400000.0625,-9696.7197265625,-2454.760009765625,-400000.0625,-12756.4404296875,-400000.0625,4171.08984375,-400000.0625
1.0556042194366455,-400000.0625,-9672.9296875,-2439.1201171875,-400000.0625,-12731.509765625,-400000.0625,4170.93994140625,-400000.0625
1.0556097030639648,-400000.0625,-9639.0703125,-2381.22998046875,-400000.0625,-12647.580078125,-400000.0625,4173.419921875,-400000.0625
1.0556137561798096,-400000.0625,-9597.490234375,-2401.159912109375,-400000.0625,-12621.58984375,-400000.0625,4255.580078125,-400000.0625
1.0556180477142334,-400000.0625,-9605.3603515625,-2492.2900390625,-400000.0625,-12704.23046875,-400000.0625,4219.33984375,-400000.0625
1.0556221008300781,-400000.0625,-9733.3896484375,-2494.570068359375,-400000.0625,-12730.7900390625,-400000.0625,4159.740234375,-400000.0625
1.0556261539459229,-400000.0625,-9766.4404296875,-2446.320068359375,-400000.0625,-12677.2900390625,-400000.0625,4139.330078125,-400000.0625
1.0556302070617676,-400000.0625,-9750.83984375,-2423.81005859375,-400000.0625,-12574.7197265625,-400000.0625,4194.4501953125,-400000.0625
1.0556340217590332,-400000.0625,-9793.8095703125,-2420.52001953125,-400000.0625,-12530.759765625,-400000.0625,4218.2900390625,-400000.0625
1.055638074874878,-400000.0625,-9879.6396484375,-2485.699951171875,-400000.0625,-12585.58984375,-400000.0625,4125.259765625,-400000.0625
1.0556416511535645,-400000.0625,-10020.259765625,-2529.909912109375,-400000.0625,-12634.6103515625,-400000.0625,4053.8798828125,-400000.0625
1.0556457042694092,-400000.0625,-10028.9404296875,-2512.64990234375,-400000.0625,-12591.169921875,-400000.0625,4057.7900390625,-400000.0625
1.055649757385254,-400000.0625,-9948.01953125,-2444.739990234375,-400000.0625,-12518.0302734375,-400000.0625,4149.8701171875,-400000.0625
timestamp,ch7,ch2,ch3,ch5,is_pause
timestamp,ch7,ch2,ch3,ch5,is_pause
1.073134183883667,-400000.0625,-9906.150390625,-2402.780029296875,-400000.0625,-12488.41015625,-400000.0625,4225.5400390625,-400000.0625
1.079554557800293,-400000.0625,-9984.9697265625,-2443.60009765625,-400000.0625,-12542.6298828125,-400000.0625,4163.41015625,-400000.0625
timestamp,ch7,ch2,ch3,ch5,is_pause
1.085630178451538,-400000.0625,-10082.580078125,-2510.169921875,-400000.0625,-12595.4599609375,-400000.0625,4080.919921875,-400000.0625
1.0912809371948242,-400000.0625,-10046.8203125,-2451.610107421875,-400000.0625,-12571.4296875,-400000.0625,4118.43994140625,-400000.0625
timestamp,ch7,ch2,ch3,ch5,is_pause
1.0973765850067139,-400000.0625,-9957.83984375,-2376.75,-400000.0625,-12500.3798828125,-400000.0625,4180.18994140625,-400000.0625
1.1024138927459717,-400000.0625,-9911.25,-2348.52001953125,-400000.0625,-12465.5302734375,-400000.0625,4186.8701171875,-400000.0625
timestamp,ch7,ch2,ch3,ch5,is_pause
1.1081886291503906,-400000.0625,-9974.669921875,-2386.330078125,-400000.0625,-12518.83984375,-400000.0625,4161.7900390625,-400000.0625
1.1136791706085205,-400000.0625,-10009.33984375,-2432.159912109375,-400000.0625,-12570.0,-400000.0625,4117.16015625,-400000.0625
1.1179771423339844,-400000.0625,-9977.2001953125,-2390.669921875,-400000.0625,-12547.73046875,-400000.0625,4124.93017578125,-400000.0625
1.117985486984253,-400000.0625,-9908.0595703125,-2304.320068359375,-400000.0625,-12477.349609375,-400000.0625,4198.27001953125,-400000.0625
1.117990255355835,-400000.0625,-9865.8603515625,-2270.27001953125,-400000.0625,-12436.73046875,-400000.0625,4223.06005859375,-400000.0625
1.117994785308838,-400000.0625,-9923.3203125,-2331.780029296875,-400000.0625,-12509.16015625,-400000.0625,4156.72998046875,-400000.0625
1.1180005073547363,-400000.0625,-9969.8603515625,-2377.1298828125,-400000.0625,-12569.6201171875,-400000.0625,4108.72021484375,-400000.0625
1.118004560470581,-400000.0625,-9940.91015625,-2350.239990234375,-400000.0625,-12538.7197265625,-400000.0625,4137.990234375,-400000.0625
1.1180086135864258,-400000.0625,-9845.259765625,-2269.550048828125,-400000.0625,-12464.51953125,-400000.0625,4217.2900390625,-400000.0625
1.1180250644683838,-400000.0625,-9799.240234375,-2239.22998046875,-400000.0625,-12443.8798828125,-400000.0625,4241.419921875,-400000.0625
timestamp,ch7,ch2,ch3,ch5,is_pause
1.1260695457458496,-400000.0625,-9845.16015625,-2297.260009765625,-400000.0625,-12508.8701171875,-400000.0625,4181.14990234375,-400000.0625
1.1313507556915283,-400000.0625,-9871.669921875,-2338.27001953125,-400000.0625,-12558.1796875,-400000.0625,4129.7900390625,-400000.0625
timestamp,ch7,ch2,ch3,ch5,is_pause
1.1370363235473633,-400000.0625,-9814.599609375,-2302.929931640625,-400000.0625,-12532.2802734375,-400000.0625,4163.89013671875,-400000.0625
1.1428852081298828,-400000.0625,-9743.169921875,-2249.14990234375,-400000.0625,-12492.4697265625,-400000.0625,4220.06005859375,-400000.0625
timestamp,ch7,ch2,ch3,ch5,is_pause
1.1535027027130127,-400000.0625,-9709.7900390625,-2234.7900390625,-400000.0625,-12479.01953125,-400000.0625,4241.66015625,-400000.0625
timestamp,ch7,ch2,ch3,ch5,is_pause
1.1596014499664307,-400000.0625,-9747.599609375,-2295.35009765625,-400000.0625,-12546.8701171875,-400000.0625,4180.85986328125,-400000.0625
1.1642343997955322,-400000.0625,-9767.490234375,-2339.320068359375,-400000.0625,-12606.8095703125,-400000.0625,4141.43017578125,-400000.0625
1.164243221282959,-400000.0625,-9717.7998046875,-2307.219970703125,-400000.0625,-12588.5498046875,-400000.0625,4180.77001953125,-400000.0625
1.164247751235962,-400000.0625,-9645.080078125,-2244.22998046875,-400000.0625,-12512.4501953125,-400000.0625,4244.7099609375,-400000.0625
1.164255142211914,-400000.0625,-9615.1396484375,-2229.97998046875,-400000.0625,-12507.25,-400000.0625,4265.830078125,-400000.0625
1.1642677783966064,-400000.0625,-9657.1904296875,-2294.489990234375,-400000.0625,-12579.5400390625,-400000.0625,4215.77001953125,-400000.0625
1.164271593093872,-400000.0625,-9693.7197265625,-2349.469970703125,-400000.0625,-12637.1904296875,-400000.0625,4159.58984375,-400000.0625
1.164275884628296,-400000.0625,-9655.3798828125,-2322.2900390625,-400000.0625,-12624.740234375,-400000.0625,4189.97021484375,-400000.0625
1.1642799377441406,-400000.0625,-9579.6103515625,-2255.06005859375,-400000.0625,-12566.1904296875,-400000.0625,4267.7900390625,-400000.0625
1.1642844676971436,-400000.0625,-9537.509765625,-2225.969970703125,-400000.0625,-12549.0703125,-400000.0625,4291.68017578125,-400000.0625
1.1642975807189941,-400000.0625,-9600.58984375,-2301.550048828125,-400000.0625,-12627.3203125,-400000.0625,4225.06005859375,-400000.0625
timestamp,ch7,ch2,ch3,ch5,is_pause
timestamp,ch7,ch2,ch3,ch5,is_pause
timestamp,ch7,ch2,ch3,ch5,is_pause
1.2006816864013672,-400000.0625,-9643.8896484375,-2351.280029296875,-400000.0625,-12688.5,-400000.0625,4170.080078125,-400000.0625
timestamp,ch7,ch2,ch3,ch5,is_pause
1.2076246738433838,-400000.0625,-9606.3095703125,-2325.110107421875,-400000.0625,-12661.5498046875,-400000.0625,4203.27001953125,-400000.0625
1.2122306823730469,-400000.0625,-9531.5498046875,-2254.340087890625,-400000.0625,-12601.1904296875,-400000.0625,4282.43017578125,-400000.0625
1.2122385501861572,-400000.0625,-9495.1201171875,-2223.06005859375,-400000.0625,-12580.25,-400000.0625,4311.85009765625,-400000.0625
1.2122433185577393,-400000.0625,-9543.7998046875,-2281.7099609375,-400000.0625,-12645.6796875,-400000.0625,4250.33984375,-400000.0625
1.212247610092163,-400000.0625,-9583.2802734375,-2331.35009765625,-400000.0625,-12705.3798828125,-400000.0625,4203.83984375,-400000.0625
1.212251901626587,-400000.0625,-9552.6201171875,-2303.929931640625,-400000.0625,-12689.2099609375,-400000.0625,4233.27001953125,-400000.0625
1.2122557163238525,-400000.0625,-9484.76953125,-2239.989990234375,-400000.0625,-12629.7001953125,-400000.0625,4296.72998046875,-400000.0625
1.2122595310211182,-400000.0625,-9451.2998046875,-2213.18994140625,-400000.0625,-12603.8095703125,-400000.0625,4327.2001953125,-400000.0625
1.212263822555542,-400000.0625,-9509.0400390625,-2274.93994140625,-400000.0625,-12672.4697265625,-400000.0625,4263.259765625,-400000.0625
1.2122678756713867,-400000.0625,-9555.25,-2324.389892578125,-400000.0625,-12732.9404296875,-400000.0625,4214.72021484375,-400000.0625
1.2122721672058105,-400000.0625,-9525.73046875,-2295.830078125,-400000.0625,-12710.2900390625,-400000.0625,4245.27978515625,-400000.0625
1.2122764587402344,-400000.0625,-9451.490234375,-2223.72998046875,-400000.0625,-12644.33984375,-400000.0625,4318.2900390625,-400000.0625
1.212282419204712,-400000.0625,-9420.6796875,-2194.7900390625,-400000.0625,-12615.73046875,-400000.0625,4349.0400390625,-400000.0625
1.2122864723205566,-400000.0625,-9482.0498046875,-2258.2099609375,-400000.0625,-12687.58984375,-400000.0625,4284.0498046875,-400000.0625
1.2122907638549805,-400000.0625,-9531.58984375,-2310.320068359375,-400000.0625,-12745.9501953125,-400000.0625,4225.5400390625,-400000.0625
timestamp,ch7,ch2,ch3,ch5,is_pause
timestamp,ch7,ch2,ch3,ch5,is_pause
timestamp,ch7,ch2,ch3,ch5,is_pause
timestamp,ch7,ch2,ch3,ch5,is_pause
1.2596282958984375,-400000.0625,-9502.1298828125,-2280.89990234375,-400000.0625,-12717.0595703125,-400000.0625,4253.240234375,-400000.0625
timestamp,ch7,ch2,ch3,ch5,is_pause
timestamp,ch7,ch2,ch3,ch5,is_pause
1.2809967994689941,-400000.0625,-9431.650390625,-2209.280029296875,-400000.0625,-12651.490234375,-400000.0625,4329.10986328125,-400000.0625
1.2856762409210205,-400000.0625,-9404.900390625,-2183.340087890625,-400000.0625,-12624.3603515625,-400000.0625,4350.9501953125,-400000.0625
1.2856848239898682,-400000.0625,-9477.4296875,-2254.580078125,-400000.0625,-12687.01953125,-400000.0625,4281.08984375,-400000.0625
1.2856895923614502,-400000.0625,-9532.3095703125,-2310.1298828125,-400000.0625,-12751.2900390625,-400000.0625,4229.4501953125,-400000.0625
1.285693645477295,-400000.0625,-9507.509765625,-2292.35009765625,-400000.0625,-12728.259765625,-400000.0625,4255.72021484375,-400000.0625
1.2856981754302979,-400000.0625,-9450.6298828125,-2221.679931640625,-400000.0625,-12657.3095703125,-400000.0625,4321.9599609375,-400000.0625
1.2857022285461426,-400000.0625,-9420.25,-2189.35009765625,-400000.0625,-12621.259765625,-400000.0625,4341.75,-400000.0625
1.2857062816619873,-400000.0625,-9511.0,-2260.639892578125,-400000.0625,-12689.6904296875,-400000.0625,4278.60986328125,-400000.0625
1.285710096359253,-400000.0625,-9589.2900390625,-2308.610107421875,-400000.0625,-12743.6201171875,-400000.0625,4232.5498046875,-400000.0625
1.2857141494750977,-400000.0625,-9556.150390625,-2280.7099609375,-400000.0625,-12709.08984375,-400000.0625,4247.85986328125,-400000.0625
1.2857184410095215,-400000.0625,-9485.9599609375,-2205.89990234375,-400000.0625,-12640.330078125,-400000.0625,4308.83984375,-400000.0625
1.2857224941253662,-400000.0625,-9485.0595703125,-2194.830078125,-400000.0625,-12607.4296875,-400000.0625,4344.4599609375,-400000.0625
1.2857263088226318,-400000.0625,-9556.8701171875,-2257.43994140625,-400000.0625,-12664.41015625,-400000.0625,4276.47021484375,-400000.0625
1.2857303619384766,-400000.0625,-9624.5302734375,-2327.780029296875,-400000.0625,-12715.150390625,-400000.0625,4175.9501953125,-400000.0625
1.2857346534729004,-400000.0625,-9623.099609375,-2354.719970703125,-400000.0625,-12681.7197265625,-400000.0625,4140.6201171875,-400000.0625
timestamp,ch7,ch2,ch3,ch5,is_pause
timestamp,ch7,ch2,ch3,ch5,is_pause
1.313040018081665,-400000.0625,-9569.259765625,-2277.610107421875,-400000.0625,-12595.1796875,-400000.0625,4258.10986328125,-400000.0625
timestamp,ch7,ch2,ch3,ch5,is_pause
1.32185959815979,-400000.0625,-9538.509765625,-2240.800048828125,-400000.0625,-12552.98046875,-400000.0625,4321.91015625,-400000.0625
1.3265695571899414,-400000.0625,-9702.0595703125,-2333.2099609375,-400000.0625,-12589.5,-400000.0625,4222.009765625,-400000.0625
1.3265788555145264,-400000.0625,-9813.2099609375,-2402.02001953125,-400000.0625,-12631.1298828125,-400000.0625,4157.64013671875,-400000.0625
1.3265833854675293,-400000.0625,-9851.5,-2387.909912109375,-400000.0625,-12586.6396484375,-400000.0625,4179.3798828125,-400000.0625
1.3265876770019531,-400000.0625,-9830.4296875,-2348.280029296875,-400000.0625,-12497.8603515625,-400000.0625,4246.85986328125,-400000.0625
1.326591968536377,-400000.0625,-9799.3896484375,-2323.06005859375,-400000.0625,-12460.23046875,-400000.0625,4245.14013671875,-400000.0625
1.3265962600708008,-400000.0625,-9843.1103515625,-2347.090087890625,-400000.0625,-12540.3896484375,-400000.0625,4188.77978515625,-400000.0625
1.3266000747680664,-400000.0625,-9890.7998046875,-2407.169921875,-400000.0625,-12591.7001953125,-400000.0625,4157.4501953125,-400000.0625
1.3266041278839111,-400000.0625,-9884.5,-2372.68994140625,-400000.0625,-12559.990234375,-400000.0625,4195.169921875,-400000.0625
1.3266079425811768,-400000.0625,-9814.0703125,-2301.070068359375,-400000.0625,-12476.349609375,-400000.0625,4263.16015625,-400000.0625
1.3266119956970215,-400000.0625,-9782.98046875,-2265.449951171875,-400000.0625,-12442.0703125,-400000.0625,4298.740234375,-400000.0625
1.3266160488128662,-400000.0625,-9817.7900390625,-2325.43994140625,-400000.0625,-12506.2998046875,-400000.0625,4235.97998046875,-400000.0625
1.326620101928711,-400000.0625,-9883.9296875,-2392.860107421875,-400000.0625,-12564.7998046875,-400000.0625,4176.08984375,-400000.0625
1.326625108718872,-400000.0625,-9860.23046875,-2359.6298828125,-400000.0625,-12538.009765625,-400000.0625,4202.83984375,-400000.0625
1.3266291618347168,-400000.0625,-9777.5498046875,-2305.93994140625,-400000.0625,-12462.8095703125,-400000.0625,4275.89013671875,-400000.0625
timestamp,ch7,ch2,ch3,ch5,is_pause
timestamp,ch7,ch2,ch3,ch5,is_pause
timestamp,ch7,ch2,ch3,ch5,is_pause
timestamp,ch7,ch2,ch3,ch5,is_pause
timestamp,ch7,ch2,ch3,ch5,is_pause
timestamp,ch7,ch2,ch3,ch5,is_pause
timestamp,ch7,ch2,ch3,ch5,is_pause
1.4021334648132324,-400000.0625,-9731.48046875,-2268.97998046875,-400000.0625,-12440.0595703125,-400000.0625,4304.89013671875,-400000.0625
timestamp,ch7,ch2,ch3,ch5,is_pause
1.4163901805877686,-400000.0625,-9784.3203125,-2350.469970703125,-400000.0625,-12502.150390625,-400000.0625,4235.89013671875,-400000.0625
1.4217438697814941,-400000.0625,-9875.5400390625,-2408.840087890625,-400000.0625,-12558.4599609375,-400000.0625,4161.5,-400000.0625
timestamp,ch7,ch2,ch3,ch5,is_pause
1.4276635646820068,-400000.0625,-9799.2900390625,-2382.89990234375,-400000.0625,-12533.5703125,-400000.0625,4201.22021484375,-400000.0625
1.4329938888549805,-400000.0625,-9717.5595703125,-2306.56005859375,-400000.0625,-12457.66015625,-400000.0625,4292.06005859375,-400000.0625
timestamp,ch7,ch2,ch3,ch5,is_pause
1.440565824508667,-400000.0625,-9691.669921875,-2281.760009765625,-400000.0625,-12428.8095703125,-400000.0625,4341.89013671875,-400000.0625
1.4453763961791992,-400000.0625,-9763.91015625,-2352.909912109375,-400000.0625,-12499.91015625,-400000.0625,4262.72998046875,-400000.0625
1.4453856945037842,-400000.0625,-9801.7197265625,-2397.25,-400000.0625,-12560.1796875,-400000.0625,4203.990234375,-400000.0625
1.4453904628753662,-400000.0625,-9756.7998046875,-2370.7900390625,-400000.0625,-12539.669921875,-400000.0625,4236.7001953125,-400000.0625
1.44539475440979,-400000.0625,-9659.669921875,-2298.31005859375,-400000.0625,-12472.490234375,-400000.0625,4320.669921875,-400000.0625
1.4453988075256348,-400000.0625,-9614.330078125,-2277.949951171875,-400000.0625,-12451.83984375,-400000.0625,4350.9501953125,-400000.0625
1.4454030990600586,-400000.0625,-9668.8798828125,-2332.8798828125,-400000.0625,-12516.0703125,-400000.0625,4262.16015625,-400000.0625
1.4454073905944824,-400000.0625,-9727.240234375,-2378.27001953125,-400000.0625,-12577.33984375,-400000.0625,4220.6298828125,-400000.0625
1.4454116821289062,-400000.0625,-9721.2802734375,-2361.110107421875,-400000.0625,-12553.98046875,-400000.0625,4238.75,-400000.0625
1.4454162120819092,-400000.0625,-9590.33984375,-2307.93994140625,-400000.0625,-12495.900390625,-400000.0625,4318.6201171875,-400000.0625
1.4454200267791748,-400000.0625,-9555.2900390625,-2288.06005859375,-400000.0625,-12464.330078125,-400000.0625,4341.169921875,-400000.0625
timestamp,ch7,ch2,ch3,ch5,is_pause
1.457141637802124,-400000.0625,-9632.7802734375,-2359.199951171875,-400000.0625,-12526.23046875,-400000.0625,4274.080078125,-400000.0625
timestamp,ch7,ch2,ch3,ch5,is_pause
1.464339256286621,-400000.0625,-9695.8203125,-2418.570068359375,-400000.0625,-12579.2001953125,-400000.0625,4218.2900390625,-400000.0625
1.4690170288085938,-400000.0625,-9666.73046875,-2394.8701171875,-400000.0625,-12561.2802734375,-400000.0625,4247.6201171875,-400000.0625
1.469027042388916,-400000.0625,-9578.23046875,-2323.340087890625,-400000.0625,-12490.5595703125,-400000.0625,4329.25,-400000.0625
1.4690322875976562,-400000.0625,-9522.009765625,-2286.719970703125,-400000.0625,-12463.330078125,-400000.0625,4368.35009765625,-400000.0625
1.4690368175506592,-400000.0625,-9566.3095703125,-2347.0400390625,-400000.0625,-12536.3798828125,-400000.0625,4301.06982421875,-400000.0625
1.469040870666504,-400000.0625,-9601.6904296875,-2401.5400390625,-400000.0625,-12595.1298828125,-400000.0625,4251.39013671875,-400000.0625
1.4690451622009277,-400000.0625,-9549.91015625,-2373.550048828125,-400000.0625,-12568.0,-400000.0625,4285.52978515625,-400000.0625
1.4690492153167725,-400000.0625,-9454.6796875,-2295.489990234375,-400000.0625,-12503.669921875,-400000.0625,4362.14990234375,-400000.0625
1.469053030014038,-400000.0625,-9413.580078125,-2270.3701171875,-400000.0625,-12480.58984375,-400000.0625,4384.7998046875,-400000.0625
1.4690570831298828,-400000.0625,-9456.0595703125,-2335.5,-400000.0625,-12548.8798828125,-400000.0625,4323.85986328125,-400000.0625
1.4690611362457275,-400000.0625,-9487.490234375,-2386.18994140625,-400000.0625,-12612.6796875,-400000.0625,4275.85009765625,-400000.0625
1.4690651893615723,-400000.0625,-9445.7197265625,-2357.340087890625,-400000.0625,-12599.08984375,-400000.0625,4308.93994140625,-400000.0625
1.469069480895996,-400000.0625,-9363.4599609375,-2287.669921875,-400000.0625,-12536.48046875,-400000.0625,4381.47021484375,-400000.0625
1.469074010848999,-400000.0625,-9317.349609375,-2256.919921875,-400000.0625,-12517.5,-400000.0625,4417.66015625,-400000.0625
1.4690783023834229,-400000.0625,-9376.8603515625,-2329.25,-400000.0625,-12599.5703125,-400000.0625,4345.60986328125,-400000.0625
timestamp,ch7,ch2,ch3,ch5,is_pause
timestamp,ch7,ch2,ch3,ch5,is_pause
timestamp,ch7,ch2,ch3,ch5,is_pause
timestamp,ch7,ch2,ch3,ch5,is_pause
1.513420820236206,-400000.0625,-9413.91015625,-2375.75,-400000.0625,-12650.6796875,-400000.0625,4291.25,-400000.0625
timestamp,ch7,ch2,ch3,ch5,is_pause
1.5278830528259277,-400000.0625,-9387.6796875,-2356.0,-400000.0625,-12639.8095703125,-400000.0625,4312.89990234375,-400000.0625
timestamp,ch7,ch2,ch3,ch5,is_pause
1.5341417789459229,-400000.0625,-9312.2001953125,-2289.6298828125,-400000.0625,-12579.0595703125,-400000.0625,4378.3701171875,-400000.0625
timestamp,ch7,ch2,ch3,ch5,is_pause
1.6446053981781006,-400000.0625,-9166.669921875,-2207.610107421875,-400000.0625,-12657.3603515625,-400000.0625,4459.52001953125,-400000.0625
1.7924225330352783,-400000.0625,-9281.400390625,-2318.47998046875,-400000.0625,-12774.2802734375,-400000.0625,4346.27978515625,-400000.0625
1.9524586200714111,-400000.0625,-9274.91015625,-2296.260009765625,-400000.0625,-12690.16015625,-400000.0625,4424.10009765625,-400000.0625
2.0834591388702393,-400000.0625,-9363.26953125,-2355.6201171875,-400000.0625,-12725.9296875,-400000.0625,4376.31982421875,-400000.0625
2.207045078277588,-400000.0625,-9437.849609375,-2404.639892578125,-400000.0625,-12748.33984375,-400000.0625,4327.77001953125,-400000.0625
2.486600160598755,-400000.0625,-9530.349609375,-2453.139892578125,-400000.0625,-12773.0400390625,-400000.0625,4282.3798828125,-400000.0625
2.527470588684082,-400000.0625,-9434.650390625,-2359.530029296875,-400000.0625,-12676.8095703125,-400000.0625,4385.60986328125,-400000.0625
2.6600735187530518,-400000.0625,-9451.490234375,-2372.929931640625,-400000.0625,-12653.73046875,-400000.0625,4409.1201171875,-400000.0625
2.8028812408447266,-400000.0625,-9576.66015625,-2473.639892578125,-400000.0625,-12768.2197265625,-400000.0625,4266.830078125,-400000.0625
2.8814663887023926,-400000.0625,-9558.6298828125,-2451.85009765625,-400000.0625,-12757.349609375,-400000.0625,4286.33984375,-400000.0625
3.0051732063293457,-400000.0625,-9458.400390625,-2350.139892578125,-400000.0625,-12646.9599609375,-400000.0625,4396.72998046875,-400000.0625
3.0544180870056152,-400000.0625,-9531.9296875,-2420.469970703125,-400000.0625,-12714.580078125,-400000.0625,4336.1201171875,-400000.0625
3.1119203567504883,-400000.0625,-9582.849609375,-2466.489990234375,-400000.0625,-12749.9599609375,-400000.0625,4278.3701171875,-400000.0625
3.1712982654571533,-400000.0625,-9595.58984375,-2478.5,-400000.0625,-12759.0703125,-400000.0625,4283.240234375,-400000.0625
3.311933755874634,-400000.0625,-9500.3095703125,-2369.929931640625,-400000.0625,-12650.5400390625,-400000.0625,4391.3798828125,-400000.0625
3.3669018745422363,-400000.0625,-9563.8798828125,-2429.199951171875,-400000.0625,-12711.33984375,-400000.0625,4330.39990234375,-400000.0625
3.424437999725342,-400000.0625,-9618.0,-2487.469970703125,-400000.0625,-12758.2998046875,-400000.0625,4275.7998046875,-400000.0625
3.5518901348114014,-400000.0625,-9546.419921875,-2412.64990234375,-400000.0625,-12683.6796875,-400000.0625,4348.22998046875,-400000.0625
3.616824150085449,-400000.0625,-9505.0302734375,-2367.1201171875,-400000.0625,-12652.830078125,-400000.0625,4380.509765625,-400000.0625
3.7556638717651367,-400000.0625,-9642.4599609375,-2498.10009765625,-400000.0625,-12770.0302734375,-400000.0625,4247.14013671875,-400000.0625
3.8073995113372803,-400000.0625,-9551.5302734375,-2402.159912109375,-400000.0625,-12673.1396484375,-400000.0625,4339.64990234375,-400000.0625
3.8707780838012695,-400000.0625,-9563.490234375,-2412.320068359375,-400000.0625,-12687.349609375,-400000.0625,4338.4599609375,-400000.0625
3.9761123657226562,-400000.0625,-9549.51953125,-2394.389892578125,-400000.0625,-12644.150390625,-400000.0625,4365.490234375,-400000.0625
4.196045398712158,-400000.0625,-9602.400390625,-2607.489990234375,-400000.0625,-12670.2802734375,-400000.0625,4572.68017578125,-400000.0625
4.260549068450928,-400000.0625,-9676.650390625,-2682.919921875,-400000.0625,-12730.41015625,-400000.0625,4497.43017578125,-400000.0625
4.355039358139038,-400000.0625,-9736.009765625,-2739.47998046875,-400000.0625,-12791.490234375,-400000.0625,4438.31005859375,-400000.0625
4.387004613876343,-400000.0625,-9738.2998046875,-2740.570068359375,-400000.0625,-12791.7802734375,-400000.0625,4434.25,-400000.0625
4.450655221939087,-400000.0625,-9712.740234375,-2713.780029296875,-400000.0625,-12765.599609375,-400000.0625,4461.18994140625,-400000.0625
4.514416933059692,-400000.0625,-9655.1396484375,-2655.840087890625,-400000.0625,-12707.1904296875,-400000.0625,4527.18994140625,-400000.0625
4.575717926025391,-400000.0625,-9696.76953125,-2694.080078125,-400000.0625,-12732.0302734375,-400000.0625,4489.56982421875,-400000.0625
4.644489288330078,-400000.0625,-9680.6103515625,-2675.8701171875,-400000.0625,-12720.25,-400000.0625,4494.9501953125,-400000.0625
4.723106384277344,-400000.0625,-9734.6796875,-2726.409912109375,-400000.0625,-12767.8896484375,-400000.0625,4441.830078125,-400000.0625
4.770613670349121,-400000.0625,-9746.0302734375,-2735.419921875,-400000.0625,-12780.759765625,-400000.0625,4444.169921875,-400000.0625
4.898205280303955,-400000.0625,-9646.26953125,-2618.5,-400000.0625,-12670.08984375,-400000.0625,4525.14013671875,-400000.0625
5.024426698684692,-400000.0625,-9784.080078125,-2747.489990234375,-400000.0625,-12806.3701171875,-400000.0625,4384.7998046875,-400000.0625
5.088231801986694,-400000.0625,-9761.669921875,-2719.929931640625,-400000.0625,-12780.8095703125,-400000.0625,4401.8798828125,-400000.0625
5.2884509563446045,-400000.0625,-9719.4697265625,-2668.949951171875,-400000.0625,-12730.1201171875,-400000.0625,4449.4599609375,-400000.0625
5.355053424835205,-400000.0625,-9785.0302734375,-2733.949951171875,-400000.0625,-12791.1103515625,-400000.0625,4383.419921875,-400000.0625
5.471457481384277,-400000.0625,-9694.33984375,-2631.81005859375,-400000.0625,-12692.01953125,-400000.0625,4480.7900390625,-400000.0625
5.545870065689087,-400000.0625,-9667.6796875,-2602.14990234375,-400000.0625,-12656.259765625,-400000.0625,4515.5498046875,-400000.0625
5.598110914230347,-400000.0625,-9781.080078125,-2717.110107421875,-400000.0625,-12780.1904296875,-400000.0625,4384.419921875,-400000.0625
5.669435024261475,-400000.0625,-9795.0498046875,-2724.1201171875,-400000.0625,-12779.08984375,-400000.0625,4383.56005859375,-400000.0625
5.823683023452759,-400000.0625,-9713.3603515625,-2648.5400390625,-400000.0625,-12699.8896484375,-400000.0625,4467.490234375,-400000.0625
5.930328369140625,-400000.0625,-9797.1904296875,-2707.580078125,-400000.0625,-12780.1904296875,-400000.0625,4322.72021484375,-400000.0625
6.020586729049683,-400000.0625,-9661.150390625,-2482.219970703125,-400000.0625,-12729.1201171875,-400000.0625,4188.5400390625,-400000.0625
6.054769039154053,-400000.0625,-9669.349609375,-2478.219970703125,-400000.0625,-12735.849609375,-400000.0625,4194.64013671875,-400000.0625
6.121413946151733,-400000.0625,-9602.3095703125,-2398.43994140625,-400000.0625,-12660.4599609375,-400000.0625,4275.7001953125,-400000.0625
6.194299936294556,-400000.0625,-9589.48046875,-2376.3701171875,-400000.0625,-12636.51953125,-400000.0625,4305.41015625,-400000.0625
6.247189283370972,-400000.0625,-9720.1396484375,-2496.860107421875,-400000.0625,-12756.01953125,-400000.0625,4176.0,-400000.0625
6.45320725440979,-400000.0625,-9641.26953125,-2414.0400390625,-400000.0625,-12664.1796875,-400000.0625,4280.81005859375,-400000.0625
6.569327116012573,-400000.0625,-9604.8798828125,-2370.8798828125,-400000.0625,-12637.330078125,-400000.0625,4314.330078125,-400000.0625
6.6169116497039795,-400000.0625,-9674.650390625,-2441.840087890625,-400000.0625,-12704.5595703125,-400000.0625,4240.89013671875,-400000.0625
6.625697612762451,-400000.0625,-9743.0703125,-2505.969970703125,-400000.0625,-12755.8203125,-400000.0625,4180.47998046875,-400000.0625
6.696904897689819,-400000.0625,-9712.7900390625,-2483.1298828125,-400000.0625,-12730.169921875,-400000.0625,4208.27978515625,-400000.0625
6.769407033920288,-400000.0625,-9658.150390625,-2425.239990234375,-400000.0625,-12661.080078125,-400000.0625,4271.22021484375,-400000.0625
6.823116779327393,-400000.0625,-9631.490234375,-2398.820068359375,-400000.0625,-12632.23046875,-400000.0625,4295.2099609375,-400000.0625
6.915611505508423,-400000.0625,-9699.1103515625,-2463.909912109375,-400000.0625,-12702.1298828125,-400000.0625,4226.35009765625,-400000.0625
6.947701930999756,-400000.0625,-9748.4599609375,-2506.070068359375,-400000.0625,-12748.3896484375,-400000.0625,4179.9599609375,-400000.0625
7.010585308074951,-400000.0625,-9730.2001953125,-2489.760009765625,-400000.0625,-12735.419921875,-400000.0625,4203.83984375,-400000.0625
7.071697235107422,-400000.0625,-9635.9296875,-2395.77001953125,-400000.0625,-12661.8896484375,-400000.0625,4295.39990234375,-400000.0625
7.154613733291626,-400000.0625,-9626.76953125,-2384.280029296875,-400000.0625,-12641.2900390625,-400000.0625,4304.1201171875,-400000.0625
7.306765556335449,-400000.0625,-9625.25,-2382.949951171875,-400000.0625,-12641.150390625,-400000.0625,4309.080078125,-400000.0625
7.33934760093689,-400000.0625,-9647.23046875,-2409.030029296875,-400000.0625,-12662.0302734375,-400000.0625,4284.669921875,-400000.0625
7.393931150436401,-400000.0625,-9643.650390625,-2403.449951171875,-400000.0625,-12657.01953125,-400000.0625,4288.240234375,-400000.0625
7.456846237182617,-400000.0625,-9631.01953125,-2389.909912109375,-400000.0625,-12641.0,-400000.0625,4312.419921875,-400000.0625
7.518815517425537,-400000.0625,-9702.25,-2464.6298828125,-400000.0625,-12713.2900390625,-400000.0625,4237.56005859375,-400000.0625
7.663208961486816,-400000.0625,-9717.3203125,-2479.27001953125,-400000.0625,-12727.2099609375,-400000.0625,4222.490234375,-400000.0625
7.9143571853637695,-400000.0625,-9723.2802734375,-2482.610107421875,-400000.0625,-12721.1103515625,-400000.0625,4215.669921875,-400000.0625
7.971693515777588,-400000.0625,-9637.169921875,-2257.780029296875,-400000.0625,-12694.5,-400000.0625,4065.080078125,-400000.0625
8.0385901927948,-400000.0625,-9571.5498046875,-2146.2900390625,-400000.0625,-12625.169921875,-400000.0625,4117.009765625,-400000.0625
8.096631288528442,-400000.0625,-9636.740234375,-2199.75,-400000.0625,-12683.009765625,-400000.0625,4054.2099609375,-400000.0625
8.16176438331604,-400000.0625,-9630.349609375,-2198.31005859375,-400000.0625,-12681.2001953125,-400000.0625,4059.510009765625,-400000.0625
8.298275232315063,-400000.0625,-9636.5,-2202.610107421875,-400000.0625,-12699.3701171875,-400000.0625,4050.679931640625,-400000.0625
8.41507887840271,-400000.0625,-9577.080078125,-2135.93994140625,-400000.0625,-12632.9404296875,-400000.0625,4108.72021484375,-400000.0625
8.481796264648438,-400000.0625,-9644.509765625,-2216.199951171875,-400000.0625,-12694.5498046875,-400000.0625,4058.169921875,-400000.0625
8.54331374168396,-400000.0625,-9699.2001953125,-2269.7900390625,-400000.0625,-12749.669921875,-400000.0625,4016.300048828125,-400000.0625
8.607104539871216,-400000.0625,-9643.41015625,-2215.239990234375,-400000.0625,-12704.6103515625,-400000.0625,4071.050048828125,-400000.0625
8.67479920387268,-400000.0625,-9579.23046875,-2142.050048828125,-400000.0625,-12627.3203125,-400000.0625,4129.60009765625,-400000.0625
8.766948223114014,-400000.0625,-9568.259765625,-2133.699951171875,-400000.0625,-12625.169921875,-400000.0625,4122.77978515625,-400000.0625
8.863268613815308,-400000.0625,-9656.0,-2199.030029296875,-400000.0625,-12703.900390625,-400000.0625,4045.6298828125,-400000.0625
8.930631160736084,-400000.0625,-9593.33984375,-2135.93994140625,-400000.0625,-12638.669921875,-400000.0625,4115.2998046875,-400000.0625
8.993385553359985,-400000.0625,-9591.5302734375,-2134.0400390625,-400000.0625,-12639.3798828125,-400000.0625,4123.02001953125,-400000.0625
9.057651281356812,-400000.0625,-9577.66015625,-2121.35009765625,-400000.0625,-12629.83984375,-400000.0625,4123.4501953125,-400000.0625
9.188977718353271,-400000.0625,-9724.900390625,-2323.909912109375,-400000.0625,-12754.349609375,-400000.0625,4039.050048828125,-400000.0625
9.313127040863037,-400000.0625,-9695.4404296875,-2425.14990234375,-400000.0625,-12661.2197265625,-400000.0625,4264.5498046875,-400000.0625
9.49432373046875,-400000.0625,-9775.349609375,-2496.389892578125,-400000.0625,-12742.51953125,-400000.0625,4187.6298828125,-400000.0625
9.50944471359253,-400000.0625,-9828.66015625,-2542.449951171875,-400000.0625,-12774.5595703125,-400000.0625,4139.14013671875,-400000.0625
9.566943645477295,-400000.0625,-9768.2001953125,-2479.030029296875,-400000.0625,-12713.0,-400000.0625,4208.7998046875,-400000.0625
timestamp,ch7,ch2,ch3,ch5,is_pause
9.672052383422852,-400000.0625,-9706.9296875,-2419.280029296875,-400000.0625,-12652.349609375,-400000.0625,4263.830078125,-400000.0625
9.683307409286499,-400000.0625,-9708.1201171875,-2417.469970703125,-400000.0625,-12653.4501953125,-400000.0625,4261.830078125,-400000.0625
9.688071012496948,-400000.0625,-9784.83984375,-2492.429931640625,-400000.0625,-12735.509765625,-400000.0625,4188.490234375,-400000.0625
9.688080549240112,-400000.0625,-9823.2802734375,-2533.10009765625,-400000.0625,-12778.1904296875,-400000.0625,4145.47998046875,-400000.0625
9.688085556030273,-400000.0625,-9766.0595703125,-2475.02001953125,-400000.0625,-12716.6298828125,-400000.0625,4204.7998046875,-400000.0625
9.68809199333191,-400000.0625,-9704.349609375,-2412.320068359375,-400000.0625,-12657.599609375,-400000.0625,4272.60009765625,-400000.0625
9.688098430633545,-400000.0625,-9710.0703125,-2419.6201171875,-400000.0625,-12660.080078125,-400000.0625,4265.4501953125,-400000.0625
9.68810224533081,-400000.0625,-9779.6904296875,-2491.570068359375,-400000.0625,-12728.599609375,-400000.0625,4188.25,-400000.0625
9.688106536865234,-400000.0625,-9816.740234375,-2529.340087890625,-400000.0625,-12770.849609375,-400000.0625,4152.35009765625,-400000.0625
9.688110589981079,-400000.0625,-9764.7197265625,-2476.550048828125,-400000.0625,-12722.2998046875,-400000.0625,4210.3798828125,-400000.0625
9.688114643096924,-400000.0625,-9706.830078125,-2419.760009765625,-400000.0625,-12652.58984375,-400000.0625,4268.06982421875,-400000.0625
9.688119173049927,-400000.0625,-9715.2197265625,-2430.300048828125,-400000.0625,-12665.4599609375,-400000.0625,4256.8701171875,-400000.0625
9.688122987747192,-400000.0625,-9793.0,-2505.8701171875,-400000.0625,-12743.4296875,-400000.0625,4180.81005859375,-400000.0625
9.688127040863037,-400000.0625,-9825.08984375,-2541.969970703125,-400000.0625,-12777.7099609375,-400000.0625,4144.91015625,-400000.0625
9.688130855560303,-400000.0625,-9766.6298828125,-2481.3701171875,-400000.0625,-12719.25,-400000.0625,4206.08984375,-400000.0625
9.688134670257568,-400000.0625,-9700.2998046875,-2412.989990234375,-400000.0625,-12652.73046875,-400000.0625,4271.080078125,-400000.0625
9.703433275222778,-400000.0625,-9705.1201171875,-2417.280029296875,-400000.0625,-12658.2197265625,-400000.0625,4264.1201171875,-400000.0625
9.71016788482666,-400000.0625,-9780.83984375,-2494.6201171875,-400000.0625,-12730.080078125,-400000.0625,4191.06982421875,-400000.0625
9.715124130249023,-400000.0625,-9818.3203125,-2535.010009765625,-400000.0625,-12769.8896484375,-400000.0625,4149.2900390625,-400000.0625
9.71513557434082,-400000.0625,-9760.7099609375,-2475.169921875,-400000.0625,-12715.150390625,-400000.0625,4210.3798828125,-400000.0625
9.715142011642456,-400000.0625,-9689.4296875,-2405.8798828125,-400000.0625,-12649.5400390625,-400000.0625,4282.43017578125,-400000.0625
9.715147733688354,-400000.0625,-9699.8203125,-2416.1298828125,-400000.0625,-12661.98046875,-400000.0625,4272.64990234375,-400000.0625
9.715155363082886,-400000.0625,-9781.599609375,-2498.340087890625,-400000.0625,-12743.759765625,-400000.0625,4188.5400390625,-400000.0625
9.715161800384521,-400000.0625,-9821.080078125,-2537.580078125,-400000.0625,-12780.3798828125,-400000.0625,4147.669921875,-400000.0625
9.715167760848999,-400000.0625,-9765.9599609375,-2482.080078125,-400000.0625,-12716.5302734375,-400000.0625,4206.3701171875,-400000.0625
9.715172052383423,-400000.0625,-9696.2001953125,-2415.22998046875,-400000.0625,-12648.580078125,-400000.0625,4269.02978515625,-400000.0625
9.720387697219849,-400000.0625,-9707.400390625,-2418.3798828125,-400000.0625,-12656.6396484375,-400000.0625,4266.68994140625,-400000.0625
9.726058006286621,-400000.0625,-9781.650390625,-2492.0,-400000.0625,-12731.9404296875,-400000.0625,4192.64013671875,-400000.0625
9.731382846832275,-400000.0625,-9815.3603515625,-2528.18994140625,-400000.0625,-12768.169921875,-400000.0625,4153.919921875,-400000.0625
9.736237049102783,-400000.0625,-9755.3701171875,-2468.679931640625,-400000.0625,-12715.33984375,-400000.0625,4211.47021484375,-400000.0625
9.73624563217163,-400000.0625,-9698.8203125,-2411.030029296875,-400000.0625,-12653.400390625,-400000.0625,4273.1298828125,-400000.0625
9.736250400543213,-400000.0625,-9708.5498046875,-2418.89990234375,-400000.0625,-12654.5,-400000.0625,4266.06982421875,-400000.0625
9.77691102027893,-400000.0625,-9775.5400390625,-2490.52001953125,-400000.0625,-12730.9296875,-400000.0625,4196.68994140625,-400000.0625
9.788847923278809,-400000.0625,-9809.400390625,-2525.469970703125,-400000.0625,-12769.41015625,-400000.0625,4159.35986328125,-400000.0625
9.79513168334961,-400000.0625,-9760.08984375,-2473.2099609375,-400000.0625,-12713.48046875,-400000.0625,4210.419921875,-400000.0625
9.80024790763855,-400000.0625,-9708.98046875,-2420.659912109375,-400000.0625,-12658.740234375,-400000.0625,4266.60009765625,-400000.0625
9.804972887039185,-400000.0625,-9717.3203125,-2428.25,-400000.0625,-12660.2197265625,-400000.0625,4256.8701171875,-400000.0625
9.804982662200928,-400000.0625,-9787.1298828125,-2496.0,-400000.0625,-12730.7900390625,-400000.0625,4183.580078125,-400000.0625
9.80498719215393,-400000.0625,-9822.4697265625,-2530.530029296875,-400000.0625,-12768.9404296875,-400000.0625,4150.10986328125,-400000.0625
9.804991483688354,-400000.0625,-9756.1396484375,-2468.5400390625,-400000.0625,-12704.5595703125,-400000.0625,4215.3798828125,-400000.0625
9.8049955368042,-400000.0625,-9693.240234375,-2403.159912109375,-400000.0625,-12645.33984375,-400000.0625,4282.0,-400000.0625
9.805000066757202,-400000.0625,-9706.3095703125,-2416.320068359375,-400000.0625,-12658.9296875,-400000.0625,4267.740234375,-400000.0625
9.805004119873047,-400000.0625,-9777.740234375,-2486.52001953125,-400000.0625,-12734.509765625,-400000.0625,4190.8701171875,-400000.0625
9.805007934570312,-400000.0625,-9815.0703125,-2523.280029296875,-400000.0625,-12767.0302734375,-400000.0625,4157.830078125,-400000.0625
9.805012226104736,-400000.0625,-9759.240234375,-2469.43994140625,-400000.0625,-12707.51953125,-400000.0625,4212.56982421875,-400000.0625
9.805016040802002,-400000.0625,-9692.76953125,-2403.639892578125,-400000.0625,-12638.4296875,-400000.0625,4276.7099609375,-400000.0625
9.805020332336426,-400000.0625,-9704.919921875,-2415.280029296875,-400000.0625,-12656.740234375,-400000.0625,4267.259765625,-400000.0625
9.805024147033691,-400000.0625,-9787.3701171875,-2498.389892578125,-400000.0625,-12737.75,-400000.0625,4182.77001953125,-400000.0625
9.854979276657104,-400000.0625,-9819.599609375,-2530.2900390625,-400000.0625,-12764.5498046875,-400000.0625,4144.669921875,-400000.0625
9.861613512039185,-400000.0625,-9762.0498046875,-2471.68994140625,-400000.0625,-12707.2802734375,-400000.0625,4205.27978515625,-400000.0625
9.866274118423462,-400000.0625,-9701.5400390625,-2410.510009765625,-400000.0625,-12652.400390625,-400000.0625,4271.89013671875,-400000.0625
9.86628246307373,-400000.0625,-9710.650390625,-2418.52001953125,-400000.0625,-12654.8798828125,-400000.0625,4265.8798828125,-400000.0625
9.866287469863892,-400000.0625,-9784.080078125,-2493.429931640625,-400000.0625,-12730.7900390625,-400000.0625,4191.4501953125,-400000.0625
9.866291761398315,-400000.0625,-9818.080078125,-2528.52001953125,-400000.0625,-12764.5,-400000.0625,4154.490234375,-400000.0625
9.86629581451416,-400000.0625,-9755.330078125,-2464.909912109375,-400000.0625,-12700.419921875,-400000.0625,4218.2900390625,-400000.0625
9.866299867630005,-400000.0625,-9694.150390625,-2401.8798828125,-400000.0625,-12644.9599609375,-400000.0625,4279.85009765625,-400000.0625
9.866304159164429,-400000.0625,-9707.6396484375,-2414.75,-400000.0625,-12659.83984375,-400000.0625,4266.93017578125,-400000.0625
9.866308212280273,-400000.0625,-9782.5498046875,-2490.3798828125,-400000.0625,-12729.83984375,-400000.0625,4187.16015625,-400000.0625
9.866312265396118,-400000.0625,-9820.26953125,-2526.330078125,-400000.0625,-12771.75,-400000.0625,4145.0498046875,-400000.0625
9.866316318511963,-400000.0625,-9767.25,-2473.35009765625,-400000.0625,-12715.150390625,-400000.0625,4202.31982421875,-400000.0625
9.866320371627808,-400000.0625,-9706.5,-2411.75,-400000.0625,-12648.1103515625,-400000.0625,4265.58984375,-400000.0625
9.86632490158081,-400000.0625,-9711.9296875,-2415.320068359375,-400000.0625,-12652.7802734375,-400000.0625,4263.02001953125,-400000.0625
9.866328954696655,-400000.0625,-9780.599609375,-2487.760009765625,-400000.0625,-12727.5498046875,-400000.0625,4189.06005859375,-400000.0625
9.8663330078125,-400000.0625,-9812.1201171875,-2522.419921875,-400000.0625,-12766.2197265625,-400000.0625,4153.919921875,-400000.0625
9.893056392669678,-400000.0625,-9747.599609375,-2457.570068359375,-400000.0625,-12702.6103515625,-400000.0625,4221.490234375,-400000.0625
9.903971910476685,-400000.0625,-9690.8095703125,-2398.2099609375,-400000.0625,-12643.8203125,-400000.0625,4280.27978515625,-400000.0625
9.908706188201904,-400000.0625,-9699.73046875,-2408.219970703125,-400000.0625,-12651.9697265625,-400000.0625,4267.169921875,-400000.0625
9.908715724945068,-400000.0625,-9777.1201171875,-2482.4599609375,-400000.0625,-12723.349609375,-400000.0625,4191.06982421875,-400000.0625
9.90872049331665,-400000.0625,-9815.98046875,-2523.179931640625,-400000.0625,-12767.169921875,-400000.0625,4152.2001953125,-400000.0625
9.908725261688232,-400000.0625,-9756.419921875,-2460.6201171875,-400000.0625,-12708.2802734375,-400000.0625,4213.52001953125,-400000.0625
9.908729553222656,-400000.0625,-9698.73046875,-2400.489990234375,-400000.0625,-12646.009765625,-400000.0625,4275.56005859375,-400000.0625
9.90873384475708,-400000.0625,-9711.83984375,-2413.610107421875,-400000.0625,-12655.58984375,-400000.0625,4267.4501953125,-400000.0625
9.908738136291504,-400000.0625,-9786.7998046875,-2490.330078125,-400000.0625,-12730.650390625,-400000.0625,4188.2001953125,-400000.0625
9.908742427825928,-400000.0625,-9815.3603515625,-2521.3701171875,-400000.0625,-12766.9296875,-400000.0625,4155.919921875,-400000.0625
9.908746480941772,-400000.0625,-9757.9501953125,-2461.669921875,-400000.0625,-12708.240234375,-400000.0625,4217.77001953125,-400000.0625
9.908750534057617,-400000.0625,-9702.349609375,-2406.169921875,-400000.0625,-12645.7197265625,-400000.0625,4275.27001953125,-400000.0625
9.908754587173462,-400000.0625,-9707.169921875,-2413.699951171875,-400000.0625,-12653.259765625,-400000.0625,4265.259765625,-400000.0625
9.908758878707886,-400000.0625,-9780.740234375,-2487.469970703125,-400000.0625,-12729.1201171875,-400000.0625,4191.02001953125,-400000.0625
9.908762693405151,-400000.0625,-9814.4501953125,-2525.090087890625,-400000.0625,-12765.2197265625,-400000.0625,4152.10986328125,-400000.0625
9.908766746520996,-400000.0625,-9756.759765625,-2465.43994140625,-400000.0625,-12708.0498046875,-400000.0625,4208.7099609375,-400000.0625
9.955027103424072,-400000.0625,-9697.2998046875,-2403.8798828125,-400000.0625,-12648.0595703125,-400000.0625,4278.27978515625,-400000.0625
9.960676670074463,-400000.0625,-9703.349609375,-2410.320068359375,-400000.0625,-12656.2099609375,-400000.0625,4271.89013671875,-400000.0625
9.96569561958313,-400000.0625,-9768.3896484375,-2475.929931640625,-400000.0625,-12720.2001953125,-400000.0625,4194.2099609375,-400000.0625
9.97057294845581,-400000.0625,-9808.73046875,-2519.56005859375,-400000.0625,-12760.3095703125,-400000.0625,4149.72021484375,-400000.0625
9.9705810546875,-400000.0625,-9761.4296875,-2468.199951171875,-400000.0625,-12708.8095703125,-400000.0625,4212.18994140625,-400000.0625
9.970587491989136,-400000.0625,-9709.9296875,-2420.949951171875,-400000.0625,-12655.740234375,-400000.0625,4280.14013671875,-400000.0625
9.970593452453613,-400000.0625,-9714.3203125,-2436.5,-400000.0625,-12667.4697265625,-400000.0625,4271.75,-400000.0625
9.970598220825195,-400000.0625,-9788.1298828125,-2514.739990234375,-400000.0625,-12738.0400390625,-400000.0625,4202.27001953125,-400000.0625
9.97060227394104,-400000.0625,-9816.7001953125,-2557.090087890625,-400000.0625,-12778.4697265625,-400000.0625,4173.89990234375,-400000.0625
9.970606088638306,-400000.0625,-9756.900390625,-2502.06005859375,-400000.0625,-12719.9697265625,-400000.0625,4240.89013671875,-400000.0625
9.97061014175415,-400000.0625,-9702.6396484375,-2445.7900390625,-400000.0625,-12657.5,-400000.0625,4311.75,-400000.0625
9.970613956451416,-400000.0625,-9705.259765625,-2455.52001953125,-400000.0625,-12669.7998046875,-400000.0625,4306.93994140625,-400000.0625
9.970618963241577,-400000.0625,-9769.490234375,-2525.570068359375,-400000.0625,-12740.51953125,-400000.0625,4232.68994140625,-400000.0625
9.970625162124634,-400000.0625,-9800.8203125,-2564.0,-400000.0625,-12775.990234375,-400000.0625,4200.89013671875,-400000.0625
9.970629453659058,-400000.0625,-9739.2099609375,-2504.969970703125,-400000.0625,-12720.919921875,-400000.0625,4262.2099609375,-400000.0625
9.970633506774902,-400000.0625,-9671.0703125,-2439.2099609375,-400000.0625,-12654.7802734375,-400000.0625,4326.68017578125,-400000.0625
10.039099216461182,-400000.0625,-9674.650390625,-2444.93994140625,-400000.0625,-12652.58984375,-400000.0625,4322.669921875,-400000.0625
10.0504891872406,-400000.0625,-9749.509765625,-2519.419921875,-400000.0625,-12735.080078125,-400000.0625,4249.240234375,-400000.0625
10.055363655090332,-400000.0625,-9779.650390625,-2549.550048828125,-400000.0625,-12776.8095703125,-400000.0625,4211.9501953125,-400000.0625
10.05537223815918,-400000.0625,-9733.1103515625,-2500.25,-400000.0625,-12718.73046875,-400000.0625,4265.4501953125,-400000.0625
10.055377721786499,-400000.0625,-9679.75,-2445.320068359375,-400000.0625,-12656.1201171875,-400000.0625,4323.9599609375,-400000.0625
10.055381774902344,-400000.0625,-9684.66015625,-2449.610107421875,-400000.0625,-12663.599609375,-400000.0625,4316.0,-400000.0625
10.055385828018188,-400000.0625,-9753.0400390625,-2521.0400390625,-400000.0625,-12733.990234375,-400000.0625,4239.85009765625,-400000.0625
10.055390357971191,-400000.0625,-9793.1396484375,-2562.7099609375,-400000.0625,-12771.1298828125,-400000.0625,4202.509765625,-400000.0625
10.055394172668457,-400000.0625,-9737.7802734375,-2503.39990234375,-400000.0625,-12716.7197265625,-400000.0625,4260.2998046875,-400000.0625
10.055397987365723,-400000.0625,-9672.400390625,-2439.1201171875,-400000.0625,-12653.259765625,-400000.0625,4328.8701171875,-400000.0625
10.055402040481567,-400000.0625,-9681.26953125,-2450.22998046875,-400000.0625,-12664.41015625,-400000.0625,4321.47998046875,-400000.0625
10.05540657043457,-400000.0625,-9753.0400390625,-2521.0400390625,-400000.0625,-12736.6103515625,-400000.0625,4246.43017578125,-400000.0625
10.055411100387573,-400000.0625,-9786.4599609375,-2555.419921875,-400000.0625,-12767.75,-400000.0625,4212.759765625,-400000.0625
10.055415153503418,-400000.0625,-9731.25,-2498.340087890625,-400000.0625,-12713.48046875,-400000.0625,4272.64990234375,-400000.0625
10.055419206619263,-400000.0625,-9668.1103515625,-2434.830078125,-400000.0625,-12654.830078125,-400000.0625,4336.31005859375,-400000.0625
10.055423498153687,-400000.0625,-9677.5498046875,-2446.840087890625,-400000.0625,-12662.7001953125,-400000.0625,4326.580078125,-400000.0625
10.094754457473755,-400000.0625,-9752.6103515625,-2519.989990234375,-400000.0625,-12732.1298828125,-400000.0625,4252.580078125,-400000.0625
10.10062551498413,-400000.0625,-9789.4697265625,-2556.75,-400000.0625,-12771.9404296875,-400000.0625,4213.72021484375,-400000.0625
10.105292797088623,-400000.0625,-9728.76953125,-2496.909912109375,-400000.0625,-12716.33984375,-400000.0625,4274.31982421875,-400000.0625
10.105300426483154,-400000.0625,-9667.01953125,-2432.679931640625,-400000.0625,-12647.9599609375,-400000.0625,4335.4501953125,-400000.0625
10.105305671691895,-400000.0625,-9684.2802734375,-2449.320068359375,-400000.0625,-12665.7998046875,-400000.0625,4319.0,-400000.0625
10.105310201644897,-400000.0625,-9763.48046875,-2528.52001953125,-400000.0625,-12743.3798828125,-400000.0625,4238.31982421875,-400000.0625
10.1053147315979,-400000.0625,-9798.3798828125,-2565.340087890625,-400000.0625,-12778.4697265625,-400000.0625,4202.89013671875,-400000.0625
10.105318784713745,-400000.0625,-9738.9697265625,-2503.5400390625,-400000.0625,-12719.1103515625,-400000.0625,4262.10986328125,-400000.0625
10.10532283782959,-400000.0625,-9673.7900390625,-2437.1201171875,-400000.0625,-12654.6396484375,-400000.0625,4329.35009765625,-400000.0625
10.105326890945435,-400000.0625,-9685.9501953125,-2451.280029296875,-400000.0625,-12661.169921875,-400000.0625,4321.81005859375,-400000.0625
10.10533094406128,-400000.0625,-9759.1396484375,-2525.85009765625,-400000.0625,-12736.1796875,-400000.0625,4245.7099609375,-400000.0625
10.105334997177124,-400000.0625,-9792.900390625,-2557.7099609375,-400000.0625,-12771.509765625,-400000.0625,4208.7099609375,-400000.0625
10.105339050292969,-400000.0625,-9736.349609375,-2501.06005859375,-400000.0625,-12715.009765625,-400000.0625,4265.830078125,-400000.0625
10.105342864990234,-400000.0625,-9674.98046875,-2439.550048828125,-400000.0625,-12654.740234375,-400000.0625,4327.35009765625,-400000.0625
10.105346918106079,-400000.0625,-9684.990234375,-2446.93994140625,-400000.0625,-12667.66015625,-400000.0625,4315.330078125,-400000.0625
10.105350732803345,-400000.0625,-9758.4296875,-2519.800048828125,-400000.0625,-12742.4697265625,-400000.0625,4240.7001953125,-400000.0625
10.148087501525879,-400000.0625,-9787.1298828125,-2551.56005859375,-400000.0625,-12780.3798828125,-400000.0625,4209.89990234375,-400000.0625
10.159156322479248,-400000.0625,-9738.9697265625,-2497.9599609375,-400000.0625,-12723.4501953125,-400000.0625,4265.830078125,-400000.0625
10.164954423904419,-400000.0625,-9689.240234375,-2438.39990234375,-400000.0625,-12659.650390625,-400000.0625,4327.10986328125,-400000.0625
10.16969347000122,-400000.0625,-9706.2099609375,-2452.090087890625,-400000.0625,-12664.509765625,-400000.0625,4313.9501953125,-400000.0625
10.16970157623291,-400000.0625,-9766.0595703125,-2520.3701171875,-400000.0625,-12735.23046875,-400000.0625,4239.7001953125,-400000.0625
10.169706583023071,-400000.0625,-9798.240234375,-2557.1298828125,-400000.0625,-12761.0703125,-400000.0625,4196.4501953125,-400000.0625
10.169710636138916,-400000.0625,-9762.1904296875,-2507.830078125,-400000.0625,-12707.51953125,-400000.0625,4241.7998046875,-400000.0625
10.169715166091919,-400000.0625,-9727.1904296875,-2454.659912109375,-400000.0625,-12653.16015625,-400000.0625,4293.39013671875,-400000.0625
10.169719457626343,-400000.0625,-9738.349609375,-2459.47998046875,-400000.0625,-12657.830078125,-400000.0625,4287.43017578125,-400000.0625
10.169723272323608,-400000.0625,-9795.8095703125,-2526.7099609375,-400000.0625,-12726.9296875,-400000.0625,4213.0498046875,-400000.0625
10.169727087020874,-400000.0625,-9833.0498046875,-2561.659912109375,-400000.0625,-12759.6396484375,-400000.0625,4167.1298828125,-400000.0625
10.16973090171814,-400000.0625,-9785.6103515625,-2507.639892578125,-400000.0625,-12700.1298828125,-400000.0625,4220.2001953125,-400000.0625
10.169734477996826,-400000.0625,-9738.8798828125,-2451.3701171875,-400000.0625,-12640.6201171875,-400000.0625,4276.75,-400000.0625
10.169738292694092,-400000.0625,-9751.23046875,-2463.530029296875,-400000.0625,-12652.7802734375,-400000.0625,4261.77978515625,-400000.0625
10.169742107391357,-400000.0625,-9815.259765625,-2528.860107421875,-400000.0625,-12725.0703125,-400000.0625,4191.919921875,-400000.0625
10.169746160507202,-400000.0625,-9849.5,-2560.0,-400000.0625,-12763.98046875,-400000.0625,4156.10986328125,-400000.0625
10.238677740097046,-400000.0625,-9798.4296875,-2503.110107421875,-400000.0625,-12701.7001953125,-400000.0625,4210.22998046875,-400000.0625
10.245332956314087,-400000.0625,-9749.1298828125,-2451.320068359375,-400000.0625,-12641.0498046875,-400000.0625,4272.990234375,-400000.0625
10.250406980514526,-400000.0625,-9755.4697265625,-2460.77001953125,-400000.0625,-12653.2998046875,-400000.0625,4261.5400390625,-400000.0625
10.259641885757446,-400000.0625,-9828.1396484375,-2534.340087890625,-400000.0625,-12727.3095703125,-400000.0625,4190.02001953125,-400000.0625
10.264657020568848,-400000.0625,-9866.330078125,-2573.72998046875,-400000.0625,-12764.4599609375,-400000.0625,4154.16015625,-400000.0625
10.269254446029663,-400000.0625,-9801.76953125,-2511.169921875,-400000.0625,-12709.0,-400000.0625,4215.18994140625,-400000.0625
10.269263744354248,-400000.0625,-9734.2001953125,-2443.409912109375,-400000.0625,-12648.150390625,-400000.0625,4282.7099609375,-400000.0625
10.26926851272583,-400000.0625,-9744.8798828125,-2456.280029296875,-400000.0625,-12655.6904296875,-400000.0625,4268.740234375,-400000.0625
10.269272804260254,-400000.0625,-9818.8896484375,-2526.7099609375,-400000.0625,-12725.400390625,-400000.0625,4191.8798828125,-400000.0625
10.269277095794678,-400000.0625,-9855.080078125,-2561.239990234375,-400000.0625,-12759.9697265625,-400000.0625,4156.16015625,-400000.0625
10.269280910491943,-400000.0625,-9801.9599609375,-2507.5,-400000.0625,-12706.419921875,-400000.0625,4209.89990234375,-400000.0625
10.269284963607788,-400000.0625,-9753.990234375,-2451.89990234375,-400000.0625,-12649.349609375,-400000.0625,4271.60009765625,-400000.0625
10.269288778305054,-400000.0625,-9775.0703125,-2466.389892578125,-400000.0625,-12659.5498046875,-400000.0625,4257.8701171875,-400000.0625
10.26929259300232,-400000.0625,-9851.0302734375,-2540.830078125,-400000.0625,-12735.080078125,-400000.0625,4182.72021484375,-400000.0625
10.269296407699585,-400000.0625,-9884.6904296875,-2576.2099609375,-400000.0625,-12771.9404296875,-400000.0625,4144.52978515625,-400000.0625
10.26930022239685,-400000.0625,-9810.400390625,-2506.72998046875,-400000.0625,-12700.6103515625,-400000.0625,4201.509765625,-400000.0625
10.273487091064453,-400000.0625,-9758.330078125,-2445.409912109375,-400000.0625,-12630.26953125,-400000.0625,4262.64013671875,-400000.0625
10.278814315795898,-400000.0625,-9779.41015625,-2462.2900390625,-400000.0625,-12641.150390625,-400000.0625,4250.91015625,-400000.0625
10.284168243408203,-400000.0625,-9855.4599609375,-2535.820068359375,-400000.0625,-12722.4501953125,-400000.0625,4175.43017578125,-400000.0625
10.288857698440552,-400000.0625,-9892.26953125,-2569.679931640625,-400000.0625,-12763.169921875,-400000.0625,4134.31982421875,-400000.0625
10.288866758346558,-400000.0625,-9832.8095703125,-2505.72998046875,-400000.0625,-12698.990234375,-400000.0625,4192.16015625,-400000.0625
10.28887152671814,-400000.0625,-9777.98046875,-2444.699951171875,-400000.0625,-12634.51953125,-400000.0625,4250.18994140625,-400000.0625
10.288875579833984,-400000.0625,-9793.1904296875,-2457.669921875,-400000.0625,-12647.490234375,-400000.0625,4230.7900390625,-400000.0625
10.288879632949829,-400000.0625,-9861.7099609375,-2523.89990234375,-400000.0625,-12715.669921875,-400000.0625,4161.1201171875,-400000.0625
10.288883686065674,-400000.0625,-9896.5703125,-2561.89990234375,-400000.0625,-12752.580078125,-400000.0625,4124.1201171875,-400000.0625
10.28888726234436,-400000.0625,-9842.01953125,-2507.72998046875,-400000.0625,-12702.6103515625,-400000.0625,4183.0498046875,-400000.0625
10.288891553878784,-400000.0625,-9777.7900390625,-2443.97998046875,-400000.0625,-12638.2802734375,-400000.0625,4247.759765625,-400000.0625
10.289000034332275,-400000.0625,-9794.9501953125,-2460.10009765625,-400000.0625,-12656.740234375,-400000.0625,4233.06982421875,-400000.0625
10.289024591445923,-400000.0625,-9858.900390625,-2529.860107421875,-400000.0625,-12728.41015625,-400000.0625,4161.740234375,-400000.0625
10.28904104232788,-400000.0625,-9893.3701171875,-2563.2900390625,-400000.0625,-12767.1298828125,-400000.0625,4132.41015625,-400000.0625
10.289051294326782,-400000.0625,-9839.4404296875,-2507.070068359375,-400000.0625,-12708.5703125,-400000.0625,4192.16015625,-400000.0625
10.289061069488525,-400000.0625,-9773.919921875,-2443.360107421875,-400000.0625,-12638.759765625,-400000.0625,4254.009765625,-400000.0625
10.348077774047852,-400000.0625,-9791.9501953125,-2459.10009765625,-400000.0625,-12647.6796875,-400000.0625,4236.83984375,-400000.0625
10.353228092193604,-400000.0625,-9861.51953125,-2530.18994140625,-400000.0625,-12721.6796875,-400000.0625,4164.89013671875,-400000.0625
10.362540245056152,-400000.0625,-9893.2802734375,-2561.18994140625,-400000.0625,-12763.3095703125,-400000.0625,4131.93994140625,-400000.0625
10.367840051651001,-400000.0625,-9830.6201171875,-2501.8701171875,-400000.0625,-12703.849609375,-400000.0625,4196.02001953125,-400000.0625
10.372539043426514,-400000.0625,-9762.48046875,-2436.2099609375,-400000.0625,-12641.240234375,-400000.0625,4261.77978515625,-400000.0625
10.372547626495361,-400000.0625,-9784.509765625,-2457.330078125,-400000.0625,-12659.83984375,-400000.0625,4242.330078125,-400000.0625
10.372552156448364,-400000.0625,-9864.8603515625,-2533.719970703125,-400000.0625,-12734.6103515625,-400000.0625,4161.31005859375,-400000.0625
10.372556686401367,-400000.0625,-9902.5703125,-2571.389892578125,-400000.0625,-12768.3203125,-400000.0625,4125.740234375,-400000.0625
10.372560739517212,-400000.0625,-9838.919921875,-2509.2099609375,-400000.0625,-12707.1904296875,-400000.0625,4187.5400390625,-400000.0625
10.372564792633057,-400000.0625,-9777.259765625,-2444.219970703125,-400000.0625,-12644.2900390625,-400000.0625,4253.14990234375,-400000.0625
10.372568607330322,-400000.0625,-9788.7998046875,-2455.0400390625,-400000.0625,-12652.830078125,-400000.0625,4242.85009765625,-400000.0625
10.372572422027588,-400000.0625,-9857.990234375,-2525.7099609375,-400000.0625,-12724.8798828125,-400000.0625,4169.080078125,-400000.0625
10.372576236724854,-400000.0625,-9885.169921875,-2554.4599609375,-400000.0625,-12755.9697265625,-400000.0625,4143.6201171875,-400000.0625
10.372580289840698,-400000.0625,-9822.419921875,-2496.2900390625,-400000.0625,-12698.75,-400000.0625,4207.1298828125,-400000.0625
10.372584342956543,-400000.0625,-9760.8095703125,-2432.489990234375,-400000.0625,-12631.1298828125,-400000.0625,4270.93994140625,-400000.0625
10.372588396072388,-400000.0625,-9780.5,-2447.409912109375,-400000.0625,-12650.009765625,-400000.0625,4253.43994140625,-400000.0625
10.406891822814941,-400000.0625,-9852.83984375,-2522.7099609375,-400000.0625,-12727.1201171875,-400000.0625,4178.43017578125,-400000.0625
10.412086725234985,-400000.0625,-9892.419921875,-2561.52001953125,-400000.0625,-12763.7900390625,-400000.0625,4140.9501953125,-400000.0625
10.417386054992676,-400000.0625,-9834.240234375,-2501.77001953125,-400000.0625,-12705.759765625,-400000.0625,4199.41015625,-400000.0625
10.422147989273071,-400000.0625,-9764.2001953125,-2434.110107421875,-400000.0625,-12634.3701171875,-400000.0625,4263.93017578125,-400000.0625
10.422156572341919,-400000.0625,-9776.3095703125,-2449.699951171875,-400000.0625,-12646.6298828125,-400000.0625,4250.81005859375,-400000.0625
10.42216157913208,-400000.0625,-9852.4599609375,-2524.760009765625,-400000.0625,-12721.58984375,-400000.0625,4173.66015625,-400000.0625
10.422165870666504,-400000.0625,-9885.9296875,-2557.949951171875,-400000.0625,-12755.4404296875,-400000.0625,4138.56982421875,-400000.0625
10.422170162200928,-400000.0625,-9829.8095703125,-2498.580078125,-400000.0625,-12700.849609375,-400000.0625,4202.080078125,-400000.0625
10.422174453735352,-400000.0625,-9765.33984375,-2433.969970703125,-400000.0625,-12636.3798828125,-400000.0625,4271.1298828125,-400000.0625
10.422178506851196,-400000.0625,-9773.2099609375,-2442.8798828125,-400000.0625,-12651.25,-400000.0625,4261.39990234375,-400000.0625
10.422182559967041,-400000.0625,-9855.1298828125,-2524.0400390625,-400000.0625,-12732.41015625,-400000.0625,4180.56982421875,-400000.0625
10.422186374664307,-400000.0625,-9902.1904296875,-2566.77001953125,-400000.0625,-12771.3203125,-400000.0625,4134.93994140625,-400000.0625
10.422190427780151,-400000.0625,-9844.4501953125,-2503.25,-400000.0625,-12700.650390625,-400000.0625,4199.7900390625,-400000.0625
10.422194480895996,-400000.0625,-9777.4501953125,-2434.780029296875,-400000.0625,-12634.330078125,-400000.0625,4268.83984375,-400000.0625
10.422198295593262,-400000.0625,-9785.650390625,-2450.989990234375,-400000.0625,-12653.2099609375,-400000.0625,4244.419921875,-400000.0625
10.422202110290527,-400000.0625,-9855.41015625,-2520.0400390625,-400000.0625,-12720.400390625,-400000.0625,4165.509765625,-400000.0625
10.463171482086182,-400000.0625,-9888.0302734375,-2548.31005859375,-400000.0625,-12752.33984375,-400000.0625,4133.18017578125,-400000.0625
10.475032806396484,-400000.0625,-9836.669921875,-2491.52001953125,-400000.0625,-12696.2197265625,-400000.0625,4187.97021484375,-400000.0625
10.479964017868042,-400000.0625,-9782.650390625,-2436.2099609375,-400000.0625,-12639.0,-400000.0625,4243.3701171875,-400000.0625
10.47997236251831,-400000.0625,-9797.8603515625,-2452.22998046875,-400000.0625,-12650.1103515625,-400000.0625,4222.06005859375,-400000.0625
10.479977130889893,-400000.0625,-9871.0498046875,-2522.280029296875,-400000.0625,-12722.830078125,-400000.0625,4143.72021484375,-400000.0625
10.479981422424316,-400000.0625,-9906.7197265625,-2556.419921875,-400000.0625,-12757.2099609375,-400000.0625,4112.39013671875,-400000.0625
10.479986906051636,-400000.0625,-9839.8203125,-2489.18994140625,-400000.0625,-12697.41015625,-400000.0625,4180.10009765625,-400000.0625
10.47999119758606,-400000.0625,-9772.9697265625,-2421.89990234375,-400000.0625,-12629.0302734375,-400000.0625,4249.330078125,-400000.0625
10.479995250701904,-400000.0625,-9786.419921875,-2437.780029296875,-400000.0625,-12644.3896484375,-400000.0625,4234.02978515625,-400000.0625
10.47999906539917,-400000.0625,-9867.4296875,-2520.1298828125,-400000.0625,-12722.349609375,-400000.0625,4153.58984375,-400000.0625
10.480003118515015,-400000.0625,-9896.759765625,-2549.97998046875,-400000.0625,-12764.3095703125,-400000.0625,4119.5400390625,-400000.0625
10.48000717163086,-400000.0625,-9841.9697265625,-2493.330078125,-400000.0625,-12705.2802734375,-400000.0625,4178.18994140625,-400000.0625
10.480011224746704,-400000.0625,-9781.8896484375,-2431.72998046875,-400000.0625,-12634.7099609375,-400000.0625,4243.0400390625,-400000.0625
10.48001503944397,-400000.0625,-9798.580078125,-2445.510009765625,-400000.0625,-12647.8203125,-400000.0625,4226.16015625,-400000.0625
10.48003101348877,-400000.0625,-9869.76953125,-2518.1298828125,-400000.0625,-12724.7802734375,-400000.0625,4150.81982421875,-400000.0625
10.480035066604614,-400000.0625,-9900.1904296875,-2549.97998046875,-400000.0625,-12759.6904296875,-400000.0625,4119.830078125,-400000.0625
10.530588388442993,-400000.0625,-9846.01953125,-2490.949951171875,-400000.0625,-12701.9404296875,-400000.0625,4174.89990234375,-400000.0625
10.536683797836304,-400000.0625,-9787.66015625,-2432.679931640625,-400000.0625,-12647.73046875,-400000.0625,4238.419921875,-400000.0625
10.542090654373169,-400000.0625,-9797.5703125,-2444.219970703125,-400000.0625,-12652.9697265625,-400000.0625,4227.58984375,-400000.0625
10.546615839004517,-400000.0625,-9870.33984375,-2515.1298828125,-400000.0625,-12722.830078125,-400000.0625,4151.009765625,-400000.0625
10.546623945236206,-400000.0625,-9899.900390625,-2547.5,-400000.0625,-12759.0703125,-400000.0625,4117.2001953125,-400000.0625
10.546628713607788,-400000.0625,-9834.099609375,-2481.080078125,-400000.0625,-12689.58984375,-400000.0625,4184.43994140625,-400000.0625
10.546633005142212,-400000.0625,-9775.4501953125,-2418.3798828125,-400000.0625,-12638.8095703125,-400000.0625,4243.60986328125,-400000.0625
10.546637058258057,-400000.0625,-9792.7099609375,-2435.969970703125,-400000.0625,-12655.3095703125,-400000.0625,4228.8798828125,-400000.0625
10.546640872955322,-400000.0625,-9868.48046875,-2511.449951171875,-400000.0625,-12728.169921875,-400000.0625,4153.919921875,-400000.0625
10.546645164489746,-400000.0625,-9900.900390625,-2546.739990234375,-400000.0625,-12756.2998046875,-400000.0625,4113.14990234375,-400000.0625
10.546648979187012,-400000.0625,-9840.009765625,-2483.889892578125,-400000.0625,-12701.7001953125,-400000.0625,4179.72021484375,-400000.0625
10.546652793884277,-400000.0625,-9788.1298828125,-2427.389892578125,-400000.0625,-12642.580078125,-400000.0625,4242.75,-400000.0625
10.546656608581543,-400000.0625,-9798.3798828125,-2439.7900390625,-400000.0625,-12654.2099609375,-400000.0625,4228.259765625,-400000.0625
10.546660661697388,-400000.0625,-9867.3798828125,-2508.68994140625,-400000.0625,-12724.9697265625,-400000.0625,4157.97021484375,-400000.0625
10.546664476394653,-400000.0625,-9903.91015625,-2546.5,-400000.0625,-12757.4501953125,-400000.0625,4122.16015625,-400000.0625
10.546668529510498,-400000.0625,-9841.5400390625,-2483.800048828125,-400000.0625,-12702.7001953125,-400000.0625,4182.47998046875,-400000.0625
10.606971502304077,-400000.0625,-9786.080078125,-2427.860107421875,-400000.0625,-12645.25,-400000.0625,4239.3701171875,-400000.0625
10.618070840835571,-400000.0625,-9800.580078125,-2442.5,-400000.0625,-12649.1103515625,-400000.0625,4225.06005859375,-400000.0625
10.624279499053955,-400000.0625,-9870.3896484375,-2515.169921875,-400000.0625,-12730.7900390625,-400000.0625,4149.8701171875,-400000.0625
10.628888368606567,-400000.0625,-9900.8603515625,-2547.070068359375,-400000.0625,-12765.7001953125,-400000.0625,4117.2998046875,-400000.0625
10.628911256790161,-400000.0625,-9836.0595703125,-2479.64990234375,-400000.0625,-12690.830078125,-400000.0625,4186.68017578125,-400000.0625
10.628922939300537,-400000.0625,-9777.6396484375,-2422.429931640625,-400000.0625,-12638.7099609375,-400000.0625,4248.2900390625,-400000.0625
10.628928899765015,-400000.0625,-9799.580078125,-2441.840087890625,-400000.0625,-12656.98046875,-400000.0625,4226.58984375,-400000.0625
10.628953456878662,-400000.0625,-9871.33984375,-2514.510009765625,-400000.0625,-12728.6396484375,-400000.0625,4152.580078125,-400000.0625
10.628974199295044,-400000.0625,-9897.3798828125,-2543.159912109375,-400000.0625,-12757.259765625,-400000.0625,4124.06982421875,-400000.0625
10.628992080688477,-400000.0625,-9834.240234375,-2481.030029296875,-400000.0625,-12710.2900390625,-400000.0625,4188.43994140625,-400000.0625
10.628999471664429,-400000.0625,-9772.6796875,-2417.22998046875,-400000.0625,-12640.759765625,-400000.0625,4252.009765625,-400000.0625
10.629005670547485,-400000.0625,-9796.669921875,-2439.1201171875,-400000.0625,-12649.009765625,-400000.0625,4226.58984375,-400000.0625
10.629010915756226,-400000.0625,-9869.2900390625,-2511.97998046875,-400000.0625,-12725.6904296875,-400000.0625,4151.6298828125,-400000.0625
10.62901782989502,-400000.0625,-9903.150390625,-2546.550048828125,-400000.0625,-12764.83984375,-400000.0625,4115.72998046875,-400000.0625
10.62902307510376,-400000.0625,-9841.58984375,-2481.510009765625,-400000.0625,-12696.8896484375,-400000.0625,4181.0,-400000.0625
10.629027128219604,-400000.0625,-9777.98046875,-2419.280029296875,-400000.0625,-12635.0400390625,-400000.0625,4247.14013671875,-400000.0625
10.69068169593811,-400000.0625,-9798.0498046875,-2438.830078125,-400000.0625,-12657.599609375,-400000.0625,4230.31005859375,-400000.0625
10.696778297424316,-400000.0625,-9866.6201171875,-2511.1201171875,-400000.0625,-12729.5498046875,-400000.0625,4156.06982421875,-400000.0625
10.702178716659546,-400000.0625,-9898.9501953125,-2540.919921875,-400000.0625,-12764.3095703125,-400000.0625,4122.31005859375,-400000.0625
10.707597017288208,-400000.0625,-9838.33984375,-2477.840087890625,-400000.0625,-12702.9404296875,-400000.0625,4187.5400390625,-400000.0625
10.718618869781494,-400000.0625,-9774.830078125,-2415.7099609375,-400000.0625,-12632.23046875,-400000.0625,4251.10009765625,-400000.0625
10.725386142730713,-400000.0625,-9788.1796875,-2429.580078125,-400000.0625,-12653.400390625,-400000.0625,4235.4599609375,-400000.0625
10.730956315994263,-400000.0625,-9865.330078125,-2507.929931640625,-400000.0625,-12729.5498046875,-400000.0625,4158.68994140625,-400000.0625
10.73578929901123,-400000.0625,-9898.900390625,-2542.449951171875,-400000.0625,-12758.6904296875,-400000.0625,4121.64013671875,-400000.0625
10.735798597335815,-400000.0625,-9834.48046875,-2477.260009765625,-400000.0625,-12699.41015625,-400000.0625,4186.81982421875,-400000.0625
10.735803365707397,-400000.0625,-9774.01953125,-2416.800048828125,-400000.0625,-12634.5595703125,-400000.0625,4245.66015625,-400000.0625
10.7358078956604,-400000.0625,-9792.08984375,-2434.919921875,-400000.0625,-12652.2998046875,-400000.0625,4228.77978515625,-400000.0625
10.735812187194824,-400000.0625,-9858.3203125,-2502.159912109375,-400000.0625,-12734.26953125,-400000.0625,4157.97021484375,-400000.0625
10.735816240310669,-400000.0625,-9887.509765625,-2531.719970703125,-400000.0625,-12765.98046875,-400000.0625,4127.64990234375,-400000.0625
10.735820293426514,-400000.0625,-9825.2802734375,-2469.110107421875,-400000.0625,-12701.6103515625,-400000.0625,4190.490234375,-400000.0625
10.7358238697052,-400000.0625,-9762.76953125,-2406.070068359375,-400000.0625,-12635.51953125,-400000.0625,4252.9599609375,-400000.0625
10.735828161239624,-400000.0625,-9783.2197265625,-2430.389892578125,-400000.0625,-12652.58984375,-400000.0625,4227.830078125,-400000.0625
10.735832691192627,-400000.0625,-9863.849609375,-2504.35009765625,-400000.0625,-12726.6396484375,-400000.0625,4150.25,-400000.0625
10.735838890075684,-400000.0625,-9895.900390625,-2537.35009765625,-400000.0625,-12757.9697265625,-400000.0625,4115.52978515625,-400000.0625
10.735842943191528,-400000.0625,-9830.3798828125,-2478.739990234375,-400000.0625,-12693.599609375,-400000.0625,4181.91015625,-400000.0625
10.735847473144531,-400000.0625,-9767.580078125,-2414.179931640625,-400000.0625,-12638.51953125,-400000.0625,4244.3798828125,-400000.0625
10.735851526260376,-400000.0625,-9791.1796875,-2435.260009765625,-400000.0625,-12663.1796875,-400000.0625,4224.58984375,-400000.0625
10.735856533050537,-400000.0625,-9863.330078125,-2510.5,-400000.0625,-12735.7001953125,-400000.0625,4148.43994140625,-400000.0625
10.735862255096436,-400000.0625,-9891.7998046875,-2538.679931640625,-400000.0625,-12763.83984375,-400000.0625,4118.6298828125,-400000.0625
10.73586630821228,-400000.0625,-9832.6201171875,-2476.360107421875,-400000.0625,-12703.51953125,-400000.0625,4186.2998046875,-400000.0625
10.735870838165283,-400000.0625,-9769.3896484375,-2412.409912109375,-400000.0625,-12640.1904296875,-400000.0625,4249.85986328125,-400000.0625
10.735874652862549,-400000.0625,-9773.5400390625,-2423.330078125,-400000.0625,-12652.2998046875,-400000.0625,4228.97021484375,-400000.0625
10.735878467559814,-400000.0625,-9842.2099609375,-2494.6201171875,-400000.0625,-12719.6796875,-400000.0625,4148.669921875,-400000.0625
10.73588228225708,-400000.0625,-9884.3603515625,-2531.530029296875,-400000.0625,-12754.6796875,-400000.0625,4111.6201171875,-400000.0625
10.735886096954346,-400000.0625,-9817.0302734375,-2464.340087890625,-400000.0625,-12692.3603515625,-400000.0625,4179.9599609375,-400000.0625
10.73589015007019,-400000.0625,-9749.990234375,-2396.35009765625,-400000.0625,-12632.900390625,-400000.0625,4246.52001953125,-400000.0625
10.735893964767456,-400000.0625,-9765.8203125,-2412.1298828125,-400000.0625,-12651.490234375,-400000.0625,4231.259765625,-400000.0625
10.7358980178833,-400000.0625,-9840.16015625,-2492.760009765625,-400000.0625,-12732.3203125,-400000.0625,4151.5400390625,-400000.0625
10.804600477218628,-400000.0625,-9875.3896484375,-2530.909912109375,-400000.0625,-12770.9404296875,-400000.0625,4111.85986328125,-400000.0625
10.811005353927612,-400000.0625,-9820.650390625,-2476.219970703125,-400000.0625,-12711.8603515625,-400000.0625,4172.27978515625,-400000.0625
10.820761680603027,-400000.0625,-9760.4296875,-2411.219970703125,-400000.0625,-12642.0,-400000.0625,4232.35986328125,-400000.0625
10.825590133666992,-400000.0625,-9777.3603515625,-2423.949951171875,-400000.0625,-12660.7001953125,-400000.0625,4216.91015625,-400000.0625
10.82559871673584,-400000.0625,-9848.259765625,-2498.6298828125,-400000.0625,-12737.849609375,-400000.0625,4147.669921875,-400000.0625
10.825603008270264,-400000.0625,-9879.259765625,-2529.340087890625,-400000.0625,-12762.830078125,-400000.0625,4116.2001953125,-400000.0625
10.825607776641846,-400000.0625,-9817.080078125,-2465.489990234375,-400000.0625,-12699.650390625,-400000.0625,4179.669921875,-400000.0625
10.82561182975769,-400000.0625,-9752.7001953125,-2399.780029296875,-400000.0625,-12633.5595703125,-400000.0625,4251.0498046875,-400000.0625
10.825615644454956,-400000.0625,-9764.150390625,-2413.610107421875,-400000.0625,-12652.1103515625,-400000.0625,4233.27001953125,-400000.0625
10.8256196975708,-400000.0625,-9836.3896484375,-2490.760009765625,-400000.0625,-12735.8896484375,-400000.0625,4152.25,-400000.0625
10.825623273849487,-400000.0625,-9868.6201171875,-2525.3798828125,-400000.0625,-12766.650390625,-400000.0625,4119.830078125,-400000.0625
10.825627088546753,-400000.0625,-9811.4501953125,-2467.43994140625,-400000.0625,-12705.1396484375,-400000.0625,4181.580078125,-400000.0625
10.825631141662598,-400000.0625,-9747.26953125,-2399.02001953125,-400000.0625,-12638.759765625,-400000.0625,4243.990234375,-400000.0625
10.825635194778442,-400000.0625,-9765.580078125,-2415.989990234375,-400000.0625,-12653.7802734375,-400000.0625,4226.8798828125,-400000.0625
10.825639009475708,-400000.0625,-9848.0703125,-2498.719970703125,-400000.0625,-12733.509765625,-400000.0625,4145.10009765625,-400000.0625
10.825643062591553,-400000.0625,-9876.1103515625,-2526.860107421875,-400000.0625,-12765.2197265625,-400000.0625,4112.39013671875,-400000.0625
10.854395151138306,-400000.0625,-9807.349609375,-2458.760009765625,-400000.0625,-12702.23046875,-400000.0625,4180.0498046875,-400000.0625
10.860474348068237,-400000.0625,-9751.0302734375,-2401.639892578125,-400000.0625,-12642.8603515625,-400000.0625,4239.1298828125,-400000.0625
10.865432977676392,-400000.0625,-9772.73046875,-2424.429931640625,-400000.0625,-12662.169921875,-400000.0625,4215.72021484375,-400000.0625
10.865441799163818,-400000.0625,-9842.4404296875,-2495.18994140625,-400000.0625,-12728.41015625,-400000.0625,4143.47998046875,-400000.0625
10.86544680595398,-400000.0625,-9866.4296875,-2519.56005859375,-400000.0625,-12763.98046875,-400000.0625,4121.64013671875,-400000.0625
10.865451097488403,-400000.0625,-9797.91015625,-2450.89990234375,-400000.0625,-12698.41015625,-400000.0625,4190.5400390625,-400000.0625
10.865455150604248,-400000.0625,-9747.080078125,-2398.919921875,-400000.0625,-12638.669921875,-400000.0625,4240.85009765625,-400000.0625
10.865458965301514,-400000.0625,-9774.259765625,-2425.239990234375,-400000.0625,-12659.9296875,-400000.0625,4210.47021484375,-400000.0625
10.86546277999878,-400000.0625,-9845.6396484375,-2498.10009765625,-400000.0625,-12733.169921875,-400000.0625,4139.330078125,-400000.0625
10.865466594696045,-400000.0625,-9867.5703125,-2522.89990234375,-400000.0625,-12762.5498046875,-400000.0625,4114.72021484375,-400000.0625
10.86547040939331,-400000.0625,-9804.2998046875,-2457.7099609375,-400000.0625,-12699.4599609375,-400000.0625,4179.10009765625,-400000.0625
10.865474462509155,-400000.0625,-9749.599609375,-2400.780029296875,-400000.0625,-12643.2001953125,-400000.0625,4237.1298828125,-400000.0625
10.865478277206421,-400000.0625,-9774.58984375,-2430.06005859375,-400000.0625,-12669.419921875,-400000.0625,4210.759765625,-400000.0625
10.865482091903687,-400000.0625,-9853.3603515625,-2504.300048828125,-400000.0625,-12738.7099609375,-400000.0625,4135.89990234375,-400000.0625
10.870510578155518,-400000.0625,-9875.490234375,-2527.52001953125,-400000.0625,-12770.7998046875,-400000.0625,4110.47998046875,-400000.0625
10.875183820724487,-400000.0625,-9809.58984375,-2461.860107421875,-400000.0625,-12705.330078125,-400000.0625,4177.240234375,-400000.0625
10.910613775253296,-400000.0625,-9751.7998046875,-2400.260009765625,-400000.0625,-12639.48046875,-400000.0625,4245.330078125,-400000.0625
10.91591215133667,-400000.0625,-9766.0595703125,-2414.93994140625,-400000.0625,-12654.9296875,-400000.0625,4230.4501953125,-400000.0625
10.926622867584229,-400000.0625,-9841.2998046875,-2492.760009765625,-400000.0625,-12729.98046875,-400000.0625,4147.14990234375,-400000.0625
10.931905746459961,-400000.0625,-9876.4404296875,-2526.669921875,-400000.0625,-12769.75,-400000.0625,4114.580078125,-400000.0625
10.936671018600464,-400000.0625,-9805.2998046875,-2454.81005859375,-400000.0625,-12699.990234375,-400000.0625,4185.77001953125,-400000.0625
10.936679363250732,-400000.0625,-9740.6396484375,-2392.530029296875,-400000.0625,-12634.7099609375,-400000.0625,4247.81005859375,-400000.0625
10.936683893203735,-400000.0625,-9767.8203125,-2420.85009765625,-400000.0625,-12668.7998046875,-400000.0625,4217.72021484375,-400000.0625
10.93668818473816,-400000.0625,-9844.16015625,-2498.25,-400000.0625,-12740.23046875,-400000.0625,4141.66015625,-400000.0625
10.936691999435425,-400000.0625,-9873.2001953125,-2527.89990234375,-400000.0625,-12765.9296875,-400000.0625,4113.47998046875,-400000.0625
10.93669581413269,-400000.0625,-9810.73046875,-2466.300048828125,-400000.0625,-12705.330078125,-400000.0625,4180.0,-400000.0625
10.936699628829956,-400000.0625,-9747.3603515625,-2400.260009765625,-400000.0625,-12639.1904296875,-400000.0625,4240.7998046875,-400000.0625
10.936703443527222,-400000.0625,-9769.73046875,-2419.89990234375,-400000.0625,-12659.2197265625,-400000.0625,4218.009765625,-400000.0625
10.936707019805908,-400000.0625,-9841.0595703125,-2492.3798828125,-400000.0625,-12731.83984375,-400000.0625,4147.9599609375,-400000.0625
10.936711311340332,-400000.0625,-9868.1904296875,-2522.800048828125,-400000.0625,-12761.400390625,-400000.0625,4116.009765625,-400000.0625
10.936715126037598,-400000.0625,-9805.5400390625,-2462.860107421875,-400000.0625,-12705.7998046875,-400000.0625,4178.240234375,-400000.0625
10.936730861663818,-400000.0625,-9747.7900390625,-2402.8798828125,-400000.0625,-12639.08984375,-400000.0625,4237.64990234375,-400000.0625
10.980545043945312,-400000.0625,-9770.2001953125,-2420.280029296875,-400000.0625,-12660.5498046875,-400000.0625,4214.669921875,-400000.0625
10.99142074584961,-400000.0625,-9837.6796875,-2488.7099609375,-400000.0625,-12738.9404296875,-400000.0625,4144.3798828125,-400000.0625
11.0019371509552,-400000.0625,-9857.3701171875,-2511.550048828125,-400000.0625,-12758.6904296875,-400000.0625,4126.740234375,-400000.0625
11.011694431304932,-400000.0625,-9789.6103515625,-2447.030029296875,-400000.0625,-12697.26953125,-400000.0625,4188.2001953125,-400000.0625
11.02265214920044,-400000.0625,-9742.3603515625,-2395.580078125,-400000.0625,-12647.580078125,-400000.0625,4238.27001953125,-400000.0625
11.037853479385376,-400000.0625,-9768.0595703125,-2421.89990234375,-400000.0625,-12662.9404296875,-400000.0625,4212.669921875,-400000.0625
11.044185400009155,-400000.0625,-9840.2001953125,-2495.81005859375,-400000.0625,-12732.75,-400000.0625,4141.0,-400000.0625
11.048889875411987,-400000.0625,-9868.669921875,-2524.81005859375,-400000.0625,-12762.599609375,-400000.0625,4109.33984375,-400000.0625
11.048917531967163,-400000.0625,-9804.3896484375,-2458.050048828125,-400000.0625,-12697.8896484375,-400000.0625,4178.81005859375,-400000.0625
11.048923969268799,-400000.0625,-9735.919921875,-2389.77001953125,-400000.0625,-12626.5498046875,-400000.0625,4248.56982421875,-400000.0625
11.048949241638184,-400000.0625,-9756.900390625,-2415.7099609375,-400000.0625,-12657.169921875,-400000.0625,4223.39013671875,-400000.0625
11.048954963684082,-400000.0625,-9833.0498046875,-2493.429931640625,-400000.0625,-12739.1796875,-400000.0625,4144.52978515625,-400000.0625
11.048959016799927,-400000.0625,-9865.330078125,-2522.610107421875,-400000.0625,-12768.8896484375,-400000.0625,4114.25,-400000.0625
11.048963069915771,-400000.0625,-9805.3896484375,-2456.949951171875,-400000.0625,-12699.990234375,-400000.0625,4174.0400390625,-400000.0625
11.048968315124512,-400000.0625,-9747.3603515625,-2396.389892578125,-400000.0625,-12639.0,-400000.0625,4238.18017578125,-400000.0625
11.048972129821777,-400000.0625,-9763.0,-2416.989990234375,-400000.0625,-12659.4599609375,-400000.0625,4222.35009765625,-400000.0625
11.048975944519043,-400000.0625,-9836.48046875,-2493.949951171875,-400000.0625,-12740.08984375,-400000.0625,4142.3798828125,-400000.0625
11.048980236053467,-400000.0625,-9868.91015625,-2521.75,-400000.0625,-12772.990234375,-400000.0625,4110.3798828125,-400000.0625
11.048984050750732,-400000.0625,-9800.099609375,-2456.760009765625,-400000.0625,-12702.990234375,-400000.0625,4180.33984375,-400000.0625
11.048987865447998,-400000.0625,-9740.5400390625,-2396.820068359375,-400000.0625,-12639.51953125,-400000.0625,4240.7001953125,-400000.0625
11.048991680145264,-400000.0625,-9762.4296875,-2417.989990234375,-400000.0625,-12659.2197265625,-400000.0625,4220.919921875,-400000.0625
11.048995733261108,-400000.0625,-9835.8203125,-2494.3798828125,-400000.0625,-12740.849609375,-400000.0625,4142.89990234375,-400000.0625
11.048999547958374,-400000.0625,-9863.9501953125,-2523.22998046875,-400000.0625,-12765.7001953125,-400000.0625,4110.47998046875,-400000.0625
11.04900312423706,-400000.0625,-9798.8095703125,-2458.429931640625,-400000.0625,-12700.6103515625,-400000.0625,4177.27978515625,-400000.0625
11.049006938934326,-400000.0625,-9739.5,-2398.820068359375,-400000.0625,-12643.91015625,-400000.0625,4242.7099609375,-400000.0625
11.049010753631592,-400000.0625,-9771.25,-2429.679931640625,-400000.0625,-12667.849609375,-400000.0625,4211.85986328125,-400000.0625
11.049014806747437,-400000.0625,-9841.16015625,-2499.010009765625,-400000.0625,-12735.1298828125,-400000.0625,4137.7998046875,-400000.0625
11.049018383026123,-400000.0625,-9864.1904296875,-2522.89990234375,-400000.0625,-12769.3203125,-400000.0625,4109.10009765625,-400000.0625
11.049022197723389,-400000.0625,-9803.1103515625,-2455.0400390625,-400000.0625,-12702.3203125,-400000.0625,4175.08984375,-400000.0625
11.049025774002075,-400000.0625,-9739.2099609375,-2399.969970703125,-400000.0625,-12642.240234375,-400000.0625,4247.9501953125,-400000.0625
11.04902982711792,-400000.0625,-9756.900390625,-2423.139892578125,-400000.0625,-12659.7900390625,-400000.0625,4232.68994140625,-400000.0625
11.049034118652344,-400000.0625,-9834.7197265625,-2498.9599609375,-400000.0625,-12728.9296875,-400000.0625,4161.31005859375,-400000.0625
11.111932277679443,-400000.0625,-9859.990234375,-2526.429931640625,-400000.0625,-12760.9296875,-400000.0625,4132.31982421875,-400000.0625
11.116939783096313,-400000.0625,-9789.7099609375,-2463.6298828125,-400000.0625,-12706.7099609375,-400000.0625,4199.7900390625,-400000.0625
11.122115850448608,-400000.0625,-9739.01953125,-2414.510009765625,-400000.0625,-12649.8203125,-400000.0625,4254.43994140625,-400000.0625
11.126873254776001,-400000.0625,-9768.0595703125,-2440.360107421875,-400000.0625,-12672.0,-400000.0625,4227.58984375,-400000.0625
11.132056474685669,-400000.0625,-9832.33984375,-2505.639892578125,-400000.0625,-12745.4296875,-400000.0625,4156.919921875,-400000.0625
11.136609315872192,-400000.0625,-9845.6396484375,-2525.090087890625,-400000.0625,-12770.1796875,-400000.0625,4140.330078125,-400000.0625
11.136616706848145,-400000.0625,-9786.0302734375,-2466.35009765625,-400000.0625,-12705.419921875,-400000.0625,4199.64990234375,-400000.0625
11.13662075996399,-400000.0625,-9726.1396484375,-2409.550048828125,-400000.0625,-12647.2998046875,-400000.0625,4256.72998046875,-400000.0625
11.136625051498413,-400000.0625,-9743.599609375,-2425.9599609375,-400000.0625,-12669.1796875,-400000.0625,4239.7998046875,-400000.0625
11.136629104614258,-400000.0625,-9811.830078125,-2492.6201171875,-400000.0625,-12738.66015625,-400000.0625,4163.5498046875,-400000.0625
11.136632919311523,-400000.0625,-9841.400390625,-2522.3701171875,-400000.0625,-12759.1103515625,-400000.0625,4137.14013671875,-400000.0625
11.136636734008789,-400000.0625,-9778.3095703125,-2459.47998046875,-400000.0625,-12700.849609375,-400000.0625,4199.7900390625,-400000.0625
11.136640787124634,-400000.0625,-9720.1396484375,-2399.919921875,-400000.0625,-12649.8701171875,-400000.0625,4257.81982421875,-400000.0625
11.1366446018219,-400000.0625,-9743.5498046875,-2423.719970703125,-400000.0625,-12663.5595703125,-400000.0625,4240.31982421875,-400000.0625
11.136648178100586,-400000.0625,-9814.5498046875,-2497.050048828125,-400000.0625,-12739.51953125,-400000.0625,4163.7900390625,-400000.0625
11.136651992797852,-400000.0625,-9849.01953125,-2532.9599609375,-400000.0625,-12773.66015625,-400000.0625,4131.4599609375,-400000.0625
11.173185586929321,-400000.0625,-9785.0302734375,-2469.72998046875,-400000.0625,-12716.009765625,-400000.0625,4195.5,-400000.0625
