time,ch1,ch2,ch3,ch4,ch5,ch6,ch7,ch8
273.4927842617035,-400000.0625,-12072.7998046875,-974.8900146484375,-400000.0625,-4638.81982421875,-400000.0625,-12744.2900390625,-400000.0625
273.51932072639465,-400000.0625,-12047.8203125,-950.530029296875,-400000.0625,-4617.06982421875,-400000.0625,-12723.6904296875,-400000.0625
273.5365982055664,-400000.0625,-12067.509765625,-970.5999755859375,-400000.0625,-4637.10009765625,-400000.0625,-12746.0498046875,-400000.0625
273.5833783149719,-400000.0625,-12112.0,-1013.989990234375,-400000.0625,-4675.10009765625,-400000.0625,-12783.0,-400000.0625
273.6122326850891,-400000.0625,-12107.5595703125,-1012.1300048828125,-400000.0625,-4670.43017578125,-400000.0625,-12778.1396484375,-400000.0625
273.63083505630493,-400000.0625,-12068.0302734375,-971.1699829101562,-400000.0625,-4634.240234375,-400000.0625,-12738.900390625,-400000.0625
273.64776492118835,-400000.0625,-12045.8603515625,-950.3800048828125,-400000.0625,-4614.1201171875,-400000.0625,-12719.1103515625,-400000.0625
273.685998916626,-400000.0625,-12068.419921875,-971.3699951171875,-400000.0625,-4633.3798828125,-400000.0625,-12745.4296875,-400000.0625
273.7133598327637,-400000.0625,-12111.669921875,-1012.3699951171875,-400000.0625,-4670.47998046875,-400000.0625,-12781.0,-400000.0625
273.73206186294556,-400000.0625,-12110.0400390625,-1010.1300048828125,-400000.0625,-4664.60986328125,-400000.0625,-12778.0,-400000.0625
273.7549443244934,-400000.0625,-12068.8896484375,-972.3699951171875,-400000.0625,-4633.6201171875,-400000.0625,-12741.6103515625,-400000.0625
273.7835168838501,-400000.0625,-12047.2001953125,-952.010009765625,-400000.0625,-4617.5,-400000.0625,-12715.48046875,-400000.0625
273.79747200012207,-400000.0625,-12076.5703125,-978.0900268554688,-400000.0625,-4640.47998046875,-400000.0625,-12746.669921875,-400000.0625
273.8126690387726,-400000.0625,-12117.48046875,-1016.0,-400000.0625,-4678.919921875,-400000.0625,-12784.580078125,-400000.0625
273.8373849391937,-400000.0625,-12113.6201171875,-1015.3800048828125,-400000.0625,-4673.33984375,-400000.0625,-12781.48046875,-400000.0625
273.867107629776,-400000.0625,-12070.990234375,-976.469970703125,-400000.0625,-4635.669921875,-400000.0625,-12743.330078125,-400000.0625
273.9323651790619,-400000.0625,-12044.48046875,-947.0499877929688,-400000.0625,-4609.919921875,-400000.0625,-12720.2001953125,-400000.0625
273.95589113235474,-400000.0625,-12072.2802734375,-971.75,-400000.0625,-4634.7099609375,-400000.0625,-12747.8603515625,-400000.0625
273.98299646377563,-400000.0625,-12117.91015625,-1014.52001953125,-400000.0625,-4676.06005859375,-400000.0625,-12784.2001953125,-400000.0625
274.0202212333679,-400000.0625,-12115.8095703125,-1013.0399780273438,-400000.0625,-4671.6201171875,-400000.0625,-12781.099609375,-400000.0625
274.03764843940735,-400000.0625,-12075.23046875,-973.030029296875,-400000.0625,-4637.0498046875,-400000.0625,-12747.33984375,-400000.0625
274.0555920600891,-400000.0625,-12055.6396484375,-954.530029296875,-400000.0625,-4620.1201171875,-400000.0625,-12728.3095703125,-400000.0625
274.08508563041687,-400000.0625,-12084.4404296875,-982.9500122070312,-400000.0625,-4637.14990234375,-400000.0625,-12754.8701171875,-400000.0625
274.1405119895935,-400000.0625,-12121.2998046875,-1015.4199829101562,-400000.0625,-4669.52001953125,-400000.0625,-12793.349609375,-400000.0625
274.1607687473297,-400000.0625,-12119.9599609375,-1013.760009765625,-400000.0625,-4672.85986328125,-400000.0625,-12787.25,-400000.0625
274.1838972568512,-400000.0625,-12075.8095703125,-971.5999755859375,-400000.0625,-4637.10009765625,-400000.0625,-12747.240234375,-400000.0625
274.21454405784607,-400000.0625,-12049.0595703125,-947.0499877929688,-400000.0625,-4609.35009765625,-400000.0625,-12722.6796875,-400000.0625
274.2610638141632,-400000.0625,-12081.150390625,-975.22998046875,-400000.0625,-4634.81005859375,-400000.0625,-12748.150390625,-400000.0625
274.2830648422241,-400000.0625,-12117.240234375,-1015.9000244140625,-400000.0625,-4674.0498046875,-400000.0625,-12786.91015625,-400000.0625
274.3104341030121,-400000.0625,-12113.1904296875,-1007.3699951171875,-400000.0625,-4666.0,-400000.0625,-12785.0498046875,-400000.0625
274.32869362831116,-400000.0625,-12076.4697265625,-971.030029296875,-400000.0625,-4629.60986328125,-400000.0625,-12743.900390625,-400000.0625
274.39088797569275,-400000.0625,-12051.2001953125,-949.0999755859375,-400000.0625,-4614.740234375,-400000.0625,-12723.01953125,-400000.0625
274.40873527526855,-400000.0625,-12072.0400390625,-971.3699951171875,-400000.0625,-4633.6201171875,-400000.0625,-12751.5302734375,-400000.0625
274.4426300525665,-400000.0625,-12117.8203125,-1011.5599975585938,-400000.0625,-4671.18994140625,-400000.0625,-12785.009765625,-400000.0625
274.5125136375427,-400000.0625,-12112.91015625,-1010.0800170898438,-400000.0625,-4668.0,-400000.0625,-12783.240234375,-400000.0625
274.54412508010864,-400000.0625,-12072.66015625,-975.5599975585938,-400000.0625,-4636.9599609375,-400000.0625,-12746.0498046875,-400000.0625
274.5978116989136,-400000.0625,-12052.9697265625,-952.010009765625,-400000.0625,-4614.02001953125,-400000.0625,-12723.9697265625,-400000.0625
274.6168644428253,-400000.0625,-12075.66015625,-971.0800170898438,-400000.0625,-4633.6201171875,-400000.0625,-12744.8603515625,-400000.0625
274.6531822681427,-400000.0625,-12117.669921875,-1014.469970703125,-400000.0625,-4678.6298828125,-400000.0625,-12781.91015625,-400000.0625
274.7267303466797,-400000.0625,-12118.669921875,-1013.3699951171875,-400000.0625,-4676.77001953125,-400000.0625,-12782.8603515625,-400000.0625
274.7596900463104,-400000.0625,-12073.5703125,-968.1699829101562,-400000.0625,-4629.89990234375,-400000.0625,-12742.1396484375,-400000.0625
274.8131351470947,-400000.0625,-12046.91015625,-943.1400146484375,-400000.0625,-4611.06005859375,-400000.0625,-12720.0595703125,-400000.0625
274.83076763153076,-400000.0625,-12073.849609375,-970.3599853515625,-400000.0625,-4637.240234375,-400000.0625,-12746.669921875,-400000.0625
274.86027336120605,-400000.0625,-12118.3896484375,-1008.7000122070312,-400000.0625,-4671.0498046875,-400000.0625,-12785.8701171875,-400000.0625
274.9101400375366,-400000.0625,-12118.6298828125,-1011.0399780273438,-400000.0625,-4674.14990234375,-400000.0625,-12784.669921875,-400000.0625
274.93401885032654,-400000.0625,-12084.25,-979.1400146484375,-400000.0625,-4642.10986328125,-400000.0625,-12750.580078125,-400000.0625
274.9550955295563,-400000.0625,-12060.7900390625,-956.2000122070312,-400000.0625,-4616.39990234375,-400000.0625,-12729.3603515625,-400000.0625
274.9843842983246,-400000.0625,-12087.349609375,-980.0,-400000.0625,-4634.7099609375,-400000.0625,-12754.6298828125,-400000.0625
275.03442192077637,-400000.0625,-12125.2099609375,-1015.6599731445312,-400000.0625,-4673.14990234375,-400000.0625,-12792.16015625,-400000.0625
275.0620458126068,-400000.0625,-12125.830078125,-1017.4299926757812,-400000.0625,-4671.10009765625,-400000.0625,-12792.2998046875,-400000.0625
275.0896201133728,-400000.0625,-12084.6796875,-978.1799926757812,-400000.0625,-4633.85986328125,-400000.0625,-12756.1103515625,-400000.0625
275.1394896507263,-400000.0625,-12058.1201171875,-953.8699951171875,-400000.0625,-4621.02978515625,-400000.0625,-12732.1298828125,-400000.0625
275.1658892631531,-400000.0625,-12085.6298828125,-978.760009765625,-400000.0625,-4643.490234375,-400000.0625,-12751.2900390625,-400000.0625
275.18878841400146,-400000.0625,-12122.8203125,-1015.760009765625,-400000.0625,-4674.85986328125,-400000.0625,-12787.6298828125,-400000.0625
275.21663784980774,-400000.0625,-12120.33984375,-1014.6099853515625,-400000.0625,-4673.52978515625,-400000.0625,-12791.6796875,-400000.0625
275.27416229248047,-400000.0625,-12088.16015625,-985.6199951171875,-400000.0625,-4644.35009765625,-400000.0625,-12755.8701171875,-400000.0625
275.30435729026794,-400000.0625,-12066.26953125,-963.8300170898438,-400000.0625,-4622.64990234375,-400000.0625,-12729.4599609375,-400000.0625
275.33533334732056,-400000.0625,-12086.73046875,-979.4199829101562,-400000.0625,-4634.6201171875,-400000.0625,-12749.6298828125,-400000.0625
275.39567255973816,-400000.0625,-12122.4404296875,-1014.7100219726562,-400000.0625,-4669.91015625,-400000.0625,-12789.4404296875,-400000.0625
275.4194915294647,-400000.0625,-12121.9599609375,-1014.3300170898438,-400000.0625,-4672.43017578125,-400000.0625,-12788.76953125,-400000.0625
275.451717376709,-400000.0625,-12083.0595703125,-977.22998046875,-400000.0625,-4638.669921875,-400000.0625,-12752.3896484375,-400000.0625
275.49458146095276,-400000.0625,-12056.7802734375,-950.8599853515625,-400000.0625,-4617.02001953125,-400000.0625,-12725.740234375,-400000.0625
275.5183832645416,-400000.0625,-12078.8095703125,-971.219970703125,-400000.0625,-4637.81005859375,-400000.0625,-12744.669921875,-400000.0625
275.54823184013367,-400000.0625,-12120.33984375,-1010.7999877929688,-400000.0625,-4676.06005859375,-400000.0625,-12786.8701171875,-400000.0625
275.57778215408325,-400000.0625,-12124.919921875,-1014.9000244140625,-400000.0625,-4679.25,-400000.0625,-12789.8701171875,-400000.0625
275.6372148990631,-400000.0625,-12084.2900390625,-976.989990234375,-400000.0625,-4641.580078125,-400000.0625,-12750.33984375,-400000.0625
275.6628770828247,-400000.0625,-12058.4501953125,-949.0999755859375,-400000.0625,-4612.64013671875,-400000.0625,-12725.6396484375,-400000.0625
275.69753098487854,-400000.0625,-12082.48046875,-972.219970703125,-400000.0625,-4633.669921875,-400000.0625,-12746.0498046875,-400000.0625
275.7513120174408,-400000.0625,-12118.25,-1008.4600219726562,-400000.0625,-4674.0498046875,-400000.0625,-12786.2001953125,-400000.0625
275.7812247276306,-400000.0625,-12116.48046875,-1008.7999877929688,-400000.0625,-4674.580078125,-400000.0625,-12786.8203125,-400000.0625
275.8150279521942,-400000.0625,-12079.2900390625,-973.4600219726562,-400000.0625,-4639.33984375,-400000.0625,-12743.0,-400000.0625
275.8690676689148,-400000.0625,-12048.4404296875,-948.8599853515625,-400000.0625,-4615.02001953125,-400000.0625,-12720.6796875,-400000.0625
275.89984226226807,-400000.0625,-12074.330078125,-971.6500244140625,-400000.0625,-4641.009765625,-400000.0625,-12742.5703125,-400000.0625
275.9343264102936,-400000.0625,-12120.1103515625,-1011.0900268554688,-400000.0625,-4677.490234375,-400000.0625,-12786.6298828125,-400000.0625
275.99116611480713,-400000.0625,-12123.58984375,-1013.7100219726562,-400000.0625,-4675.91015625,-400000.0625,-12790.400390625,-400000.0625
276.01193022727966,-400000.0625,-12085.33984375,-974.3699951171875,-400000.0625,-4642.06005859375,-400000.0625,-12751.009765625,-400000.0625
276.03773021698,-400000.0625,-12058.400390625,-949.719970703125,-400000.0625,-4615.06982421875,-400000.0625,-12722.1103515625,-400000.0625
276.0885660648346,-400000.0625,-12075.330078125,-972.5599975585938,-400000.0625,-4635.72021484375,-400000.0625,-12744.7099609375,-400000.0625
276.1172568798065,-400000.0625,-12114.9599609375,-1010.989990234375,-400000.0625,-4676.52978515625,-400000.0625,-12781.5703125,-400000.0625
276.15115427970886,-400000.0625,-12114.759765625,-1010.510009765625,-400000.0625,-4675.2001953125,-400000.0625,-12783.8203125,-400000.0625
276.21469497680664,-400000.0625,-12074.2802734375,-975.9400024414062,-400000.0625,-4641.580078125,-400000.0625,-12743.900390625,-400000.0625
276.2402243614197,-400000.0625,-12050.150390625,-951.3900146484375,-400000.0625,-4620.02978515625,-400000.0625,-12720.400390625,-400000.0625
276.2760453224182,-400000.0625,-12074.0400390625,-971.5999755859375,-400000.0625,-4630.85009765625,-400000.0625,-12743.9501953125,-400000.0625
276.32146191596985,-400000.0625,-12115.2900390625,-1011.6599731445312,-400000.0625,-4670.43017578125,-400000.0625,-12785.3896484375,-400000.0625
276.3410451412201,-400000.0625,-12116.240234375,-1014.52001953125,-400000.0625,-4681.5400390625,-400000.0625,-12786.25,-400000.0625
276.3579206466675,-400000.0625,-12083.25,-979.6599731445312,-400000.0625,-4649.1201171875,-400000.0625,-12749.6298828125,-400000.0625
276.39406967163086,-400000.0625,-12053.0595703125,-955.0999755859375,-400000.0625,-4620.27001953125,-400000.0625,-12721.58984375,-400000.0625
276.4444227218628,-400000.0625,-12075.4697265625,-976.0900268554688,-400000.0625,-4638.0498046875,-400000.0625,-12742.330078125,-400000.0625
276.4699013233185,-400000.0625,-12110.23046875,-1009.4199829101562,-400000.0625,-4668.27978515625,-400000.0625,-12781.8095703125,-400000.0625
276.49981904029846,-400000.0625,-12110.3798828125,-1010.22998046875,-400000.0625,-4671.85986328125,-400000.0625,-12783.48046875,-400000.0625
276.54551553726196,-400000.0625,-12076.240234375,-973.510009765625,-400000.0625,-4644.2001953125,-400000.0625,-12745.330078125,-400000.0625
276.57668352127075,-400000.0625,-12053.5400390625,-951.6699829101562,-400000.0625,-4623.4599609375,-400000.0625,-12721.0595703125,-400000.0625
276.60925340652466,-400000.0625,-12078.1904296875,-970.4600219726562,-400000.0625,-4639.85986328125,-400000.0625,-12742.8095703125,-400000.0625
276.6815423965454,-400000.0625,-12116.7197265625,-1007.7000122070312,-400000.0625,-4669.85986328125,-400000.0625,-12784.240234375,-400000.0625
276.71041655540466,-400000.0625,-12117.669921875,-1012.4199829101562,-400000.0625,-4671.6201171875,-400000.0625,-12784.4296875,-400000.0625
276.77885723114014,-400000.0625,-12079.91015625,-974.0399780273438,-400000.0625,-4638.47998046875,-400000.0625,-12747.91015625,-400000.0625
276.81333208084106,-400000.0625,-12053.7802734375,-950.8599853515625,-400000.0625,-4617.06982421875,-400000.0625,-12724.6904296875,-400000.0625
276.86661648750305,-400000.0625,-12074.849609375,-971.27001953125,-400000.0625,-4644.10986328125,-400000.0625,-12745.0,-400000.0625
276.88770627975464,-400000.0625,-12120.2001953125,-1012.280029296875,-400000.0625,-4685.93017578125,-400000.0625,-12783.8203125,-400000.0625
276.9167628288269,-400000.0625,-12117.580078125,-1010.3200073242188,-400000.0625,-4680.25,-400000.0625,-12782.8603515625,-400000.0625
276.9795227050781,-400000.0625,-12077.6201171875,-972.3699951171875,-400000.0625,-4638.9599609375,-400000.0625,-12741.330078125,-400000.0625
277.0117425918579,-400000.0625,-12052.490234375,-948.8099975585938,-400000.0625,-4620.4599609375,-400000.0625,-12717.2001953125,-400000.0625
277.03720474243164,-400000.0625,-12075.4697265625,-969.8400268554688,-400000.0625,-4641.2001953125,-400000.0625,-12741.4697265625,-400000.0625
277.0822672843933,-400000.0625,-12119.6298828125,-1011.469970703125,-400000.0625,-4675.8701171875,-400000.0625,-12780.9501953125,-400000.0625
277.10857033729553,-400000.0625,-12124.73046875,-1013.8499755859375,-400000.0625,-4681.64013671875,-400000.0625,-12783.5302734375,-400000.0625
277.1373143196106,-400000.0625,-12084.6298828125,-977.8499755859375,-400000.0625,-4649.58984375,-400000.0625,-12747.0498046875,-400000.0625
277.1814215183258,-400000.0625,-12056.5,-953.77001953125,-400000.0625,-4619.06982421875,-400000.0625,-12723.2998046875,-400000.0625
277.2172312736511,-400000.0625,-12082.2900390625,-974.0399780273438,-400000.0625,-4637.43017578125,-400000.0625,-12747.0,-400000.0625
277.2359986305237,-400000.0625,-12122.9697265625,-1010.7000122070312,-400000.0625,-4680.25,-400000.0625,-12787.0595703125,-400000.0625
277.258517742157,-400000.0625,-12121.150390625,-1007.8400268554688,-400000.0625,-4681.39990234375,-400000.0625,-12787.5302734375,-400000.0625
277.29598903656006,-400000.0625,-12083.33984375,-973.8400268554688,-400000.0625,-4645.16015625,-400000.0625,-12749.5302734375,-400000.0625
277.31497621536255,-400000.0625,-12054.490234375,-951.8099975585938,-400000.0625,-4618.93017578125,-400000.0625,-12722.6396484375,-400000.0625
277.3494589328766,-400000.0625,-12077.9501953125,-972.0800170898438,-400000.0625,-4637.81005859375,-400000.0625,-12743.3798828125,-400000.0625
277.3687307834625,-400000.0625,-12123.6796875,-1012.8499755859375,-400000.0625,-4681.77978515625,-400000.0625,-12786.150390625,-400000.0625
277.4210858345032,-400000.0625,-12127.73046875,-1016.4299926757812,-400000.0625,-4685.830078125,-400000.0625,-12787.33984375,-400000.0625
277.4430592060089,-400000.0625,-12088.16015625,-979.52001953125,-400000.0625,-4647.77978515625,-400000.0625,-12747.91015625,-400000.0625
277.46882939338684,-400000.0625,-12061.41015625,-953.77001953125,-400000.0625,-4616.68994140625,-400000.0625,-12720.2001953125,-400000.0625
277.5089235305786,-400000.0625,-12081.7197265625,-974.1799926757812,-400000.0625,-4633.85986328125,-400000.0625,-12741.900390625,-400000.0625
277.52943897247314,-400000.0625,-12117.240234375,-1009.27001953125,-400000.0625,-4672.580078125,-400000.0625,-12781.91015625,-400000.0625
277.54684925079346,-400000.0625,-12121.490234375,-1011.5599975585938,-400000.0625,-4684.77978515625,-400000.0625,-12784.9599609375,-400000.0625
277.56770038604736,-400000.0625,-12087.6796875,-980.1400146484375,-400000.0625,-4648.72998046875,-400000.0625,-12748.240234375,-400000.0625
277.5864472389221,-400000.0625,-12057.58984375,-955.9199829101562,-400000.0625,-4617.7900390625,-400000.0625,-12724.9697265625,-400000.0625
277.61728167533875,-400000.0625,-12085.919921875,-977.3300170898438,-400000.0625,-4640.06005859375,-400000.0625,-12744.669921875,-400000.0625
277.63791728019714,-400000.0625,-12127.8798828125,-1014.3800048828125,-400000.0625,-4681.43994140625,-400000.0625,-12786.76953125,-400000.0625
277.6554982662201,-400000.0625,-12129.6396484375,-1017.0900268554688,-400000.0625,-4684.16015625,-400000.0625,-12788.8701171875,-400000.0625
277.6726915836334,-400000.0625,-12090.01953125,-980.0,-400000.0625,-4646.830078125,-400000.0625,-12750.25,-400000.0625
277.6943941116333,-400000.0625,-12067.3701171875,-958.0599975585938,-400000.0625,-4622.22021484375,-400000.0625,-12726.1201171875,-400000.0625
277.73868346214294,-400000.0625,-12088.8203125,-975.280029296875,-400000.0625,-4641.8701171875,-400000.0625,-12742.330078125,-400000.0625
277.7615382671356,-400000.0625,-12125.0595703125,-1012.7100219726562,-400000.0625,-4677.52978515625,-400000.0625,-12780.1396484375,-400000.0625
277.7820589542389,-400000.0625,-12130.6904296875,-1015.4199829101562,-400000.0625,-4675.009765625,-400000.0625,-12787.580078125,-400000.0625
277.8071038722992,-400000.0625,-12095.2099609375,-981.5700073242188,-400000.0625,-4646.10986328125,-400000.0625,-12754.009765625,-400000.0625
277.8482723236084,-400000.0625,-12066.9404296875,-953.25,-400000.0625,-4627.3701171875,-400000.0625,-12725.6904296875,-400000.0625
277.8698134422302,-400000.0625,-12085.0595703125,-970.4099731445312,-400000.0625,-4639.52978515625,-400000.0625,-12743.3798828125,-400000.0625
277.8892595767975,-400000.0625,-12127.6904296875,-1011.9400024414062,-400000.0625,-4676.490234375,-400000.0625,-12787.6796875,-400000.0625
277.9079806804657,-400000.0625,-12128.8798828125,-1013.4199829101562,-400000.0625,-4680.10986328125,-400000.0625,-12790.9697265625,-400000.0625
277.94101786613464,-400000.0625,-12094.0703125,-980.52001953125,-400000.0625,-4646.35009765625,-400000.0625,-12753.5400390625,-400000.0625
277.9606156349182,-400000.0625,-12070.23046875,-958.4000244140625,-400000.0625,-4625.4599609375,-400000.0625,-12727.98046875,-400000.0625
277.98334789276123,-400000.0625,-12089.6396484375,-975.1300048828125,-400000.0625,-4642.33984375,-400000.0625,-12748.7197265625,-400000.0625
278.00798177719116,-400000.0625,-12130.400390625,-1012.22998046875,-400000.0625,-4679.77978515625,-400000.0625,-12786.6298828125,-400000.0625
278.0508451461792,-400000.0625,-12132.259765625,-1014.7999877929688,-400000.0625,-4680.35009765625,-400000.0625,-12786.7197265625,-400000.0625
278.07212233543396,-400000.0625,-12093.16015625,-977.9500122070312,-400000.0625,-4641.6298828125,-400000.0625,-12747.8095703125,-400000.0625
278.09377455711365,-400000.0625,-12070.6103515625,-955.0599975585938,-400000.0625,-4619.31005859375,-400000.0625,-12724.6396484375,-400000.0625
278.11306715011597,-400000.0625,-12093.3095703125,-976.4199829101562,-400000.0625,-4641.9599609375,-400000.0625,-12750.009765625,-400000.0625
278.15088391304016,-400000.0625,-12135.83984375,-1016.1900024414062,-400000.0625,-4684.5400390625,-400000.0625,-12785.8701171875,-400000.0625
278.16770911216736,-400000.0625,-12139.1298828125,-1019.6199951171875,-400000.0625,-4686.1201171875,-400000.0625,-12785.669921875,-400000.0625
278.1928815841675,-400000.0625,-12099.080078125,-982.239990234375,-400000.0625,-4650.1201171875,-400000.0625,-12753.2001953125,-400000.0625
278.2094051837921,-400000.0625,-12076.4697265625,-960.0599975585938,-400000.0625,-4627.56005859375,-400000.0625,-12726.400390625,-400000.0625
278.23214387893677,-400000.0625,-12095.3095703125,-975.8499755859375,-400000.0625,-4644.06005859375,-400000.0625,-12747.669921875,-400000.0625
278.27539920806885,-400000.0625,-12131.5498046875,-1013.9000244140625,-400000.0625,-4679.2998046875,-400000.0625,-12786.4404296875,-400000.0625
278.29679012298584,-400000.0625,-12132.0302734375,-1018.1400146484375,-400000.0625,-4682.490234375,-400000.0625,-12788.3896484375,-400000.0625
278.31273317337036,-400000.0625,-12094.3603515625,-979.22998046875,-400000.0625,-4646.919921875,-400000.0625,-12753.349609375,-400000.0625
278.3288872241974,-400000.0625,-12070.3701171875,-955.530029296875,-400000.0625,-4619.64990234375,-400000.0625,-12725.7802734375,-400000.0625
278.34362030029297,-400000.0625,-12093.3095703125,-977.22998046875,-400000.0625,-4642.72998046875,-400000.0625,-12745.669921875,-400000.0625
278.3802897930145,-400000.0625,-12133.4599609375,-1014.9000244140625,-400000.0625,-4684.06982421875,-400000.0625,-12785.7197265625,-400000.0625
278.4007384777069,-400000.0625,-12138.4599609375,-1019.2899780273438,-400000.0625,-4685.259765625,-400000.0625,-12791.6796875,-400000.0625
278.4198956489563,-400000.0625,-12099.080078125,-985.239990234375,-400000.0625,-4651.259765625,-400000.0625,-12754.8203125,-400000.0625
278.43739676475525,-400000.0625,-12071.900390625,-958.969970703125,-400000.0625,-4624.080078125,-400000.0625,-12732.83984375,-400000.0625
278.45379304885864,-400000.0625,-12093.58984375,-976.0900268554688,-400000.0625,-4642.919921875,-400000.0625,-12750.009765625,-400000.0625
278.48483777046204,-400000.0625,-12134.650390625,-1017.760009765625,-400000.0625,-4681.5400390625,-400000.0625,-12787.9599609375,-400000.0625
278.51744174957275,-400000.0625,-12124.9697265625,-1004.739990234375,-400000.0625,-4652.93017578125,-400000.0625,-12809.9501953125,-400000.0625
278.51749634742737,-400000.0625,-12107.330078125,-984.47998046875,-400000.0625,-4638.39013671875,-400000.0625,-12790.009765625,-400000.0625
278.5175082683563,-400000.0625,-12069.080078125,-948.8099975585938,-400000.0625,-4600.56982421875,-400000.0625,-12751.5302734375,-400000.0625
278.51751923561096,-400000.0625,-12054.58984375,-935.3599853515625,-400000.0625,-4585.7001953125,-400000.0625,-12741.3798828125,-400000.0625
278.5175292491913,-400000.0625,-12088.009765625,-965.3099975585938,-400000.0625,-4614.39990234375,-400000.0625,-12775.330078125,-400000.0625
278.51753997802734,-400000.0625,-12122.7802734375,-998.1199951171875,-400000.0625,-4638.81982421875,-400000.0625,-12804.75,-400000.0625
278.5175497531891,-400000.0625,-12103.509765625,-979.1400146484375,-400000.0625,-4627.56005859375,-400000.0625,-12786.490234375,-400000.0625
278.5175590515137,-400000.0625,-12063.8896484375,-943.6599731445312,-400000.0625,-4601.2900390625,-400000.0625,-12749.48046875,-400000.0625
278.5175688266754,-400000.0625,-12054.01953125,-935.8900146484375,-400000.0625,-4592.66015625,-400000.0625,-12737.1298828125,-400000.0625
278.5175778865814,-400000.0625,-12093.259765625,-968.5499877929688,-400000.0625,-4621.35986328125,-400000.0625,-12772.849609375,-400000.0625
278.5175883769989,-400000.0625,-12122.4404296875,-996.5399780273438,-400000.0625,-4646.2099609375,-400000.0625,-12805.6103515625,-400000.0625
278.5175983905792,-400000.0625,-12104.7001953125,-978.22998046875,-400000.0625,-4629.89990234375,-400000.0625,-12788.8701171875,-400000.0625
278.51760816574097,-400000.0625,-12060.9296875,-936.7899780273438,-400000.0625,-4595.9501953125,-400000.0625,-12745.91015625,-400000.0625
278.51761770248413,-400000.0625,-12049.8701171875,-925.5399780273438,-400000.0625,-4583.64990234375,-400000.0625,-12736.3701171875,-400000.0625
278.51762890815735,-400000.0625,-12086.1103515625,-961.02001953125,-400000.0625,-4612.68017578125,-400000.0625,-12774.0400390625,-400000.0625
278.5176386833191,-400000.0625,-12117.4296875,-990.719970703125,-400000.0625,-4643.97021484375,-400000.0625,-12802.98046875,-400000.0625
278.51764845848083,-400000.0625,-12099.7001953125,-974.27001953125,-400000.0625,-4627.31982421875,-400000.0625,-12787.2001953125,-400000.0625
278.5176589488983,-400000.0625,-12063.740234375,-938.4600219726562,-400000.0625,-4595.85009765625,-400000.0625,-12750.4404296875,-400000.0625
278.5176694393158,-400000.0625,-12052.6796875,-929.8800048828125,-400000.0625,-4586.740234375,-400000.0625,-12740.7099609375,-400000.0625
278.5176796913147,-400000.0625,-12089.7802734375,-965.6900024414062,-400000.0625,-4619.5498046875,-400000.0625,-12775.51953125,-400000.0625
278.51768946647644,-400000.0625,-12119.009765625,-996.1599731445312,-400000.0625,-4651.1201171875,-400000.0625,-12805.419921875,-400000.0625
278.51769971847534,-400000.0625,-12101.169921875,-976.3699951171875,-400000.0625,-4632.18994140625,-400000.0625,-12787.1103515625,-400000.0625
278.5177092552185,-400000.0625,-12061.3603515625,-939.6599731445312,-400000.0625,-4594.14013671875,-400000.0625,-12748.669921875,-400000.0625
278.51771879196167,-400000.0625,-12050.8203125,-929.260009765625,-400000.0625,-4587.41015625,-400000.0625,-12737.7998046875,-400000.0625
278.5177278518677,-400000.0625,-12086.8203125,-961.8800048828125,-400000.0625,-4618.1201171875,-400000.0625,-12771.3203125,-400000.0625
278.51773738861084,-400000.0625,-12116.5302734375,-990.6300048828125,-400000.0625,-4640.9599609375,-400000.0625,-12802.4599609375,-400000.0625
278.5177471637726,-400000.0625,-12100.080078125,-975.6599731445312,-400000.0625,-4623.3701171875,-400000.0625,-12785.9599609375,-400000.0625
278.51775646209717,-400000.0625,-12057.0703125,-936.219970703125,-400000.0625,-4589.1298828125,-400000.0625,-12749.8203125,-400000.0625
278.51776576042175,-400000.0625,-12050.490234375,-928.739990234375,-400000.0625,-4587.02978515625,-400000.0625,-12743.330078125,-400000.0625
278.5177752971649,-400000.0625,-12089.349609375,-966.5999755859375,-400000.0625,-4620.83984375,-400000.0625,-12775.9501953125,-400000.0625
278.5177848339081,-400000.0625,-12119.9599609375,-996.260009765625,-400000.0625,-4654.169921875,-400000.0625,-12805.26953125,-400000.0625
278.5177936553955,-400000.0625,-12103.8896484375,-980.6199951171875,-400000.0625,-4639.009765625,-400000.0625,-12786.6298828125,-400000.0625
278.5178031921387,-400000.0625,-12061.3603515625,-940.510009765625,-400000.0625,-4594.14013671875,-400000.0625,-12747.6201171875,-400000.0625
278.51781392097473,-400000.0625,-12051.3896484375,-931.5499877929688,-400000.0625,-4587.4599609375,-400000.0625,-12737.9404296875,-400000.0625
278.5178234577179,-400000.0625,-12085.8701171875,-963.5,-400000.0625,-4619.89013671875,-400000.0625,-12774.4697265625,-400000.0625
278.5178327560425,-400000.0625,-12118.150390625,-993.2000122070312,-400000.0625,-4643.5400390625,-400000.0625,-12807.080078125,-400000.0625
278.51784205436707,-400000.0625,-12101.83984375,-976.1300048828125,-400000.0625,-4627.75,-400000.0625,-12793.73046875,-400000.0625
278.51785135269165,-400000.0625,-12062.259765625,-940.4199829101562,-400000.0625,-4596.56982421875,-400000.0625,-12753.9599609375,-400000.0625
278.5178608894348,-400000.0625,-12047.8603515625,-930.5,-400000.0625,-4585.080078125,-400000.0625,-12743.3798828125,-400000.0625
278.51787066459656,-400000.0625,-12084.7197265625,-961.8800048828125,-400000.0625,-4612.39990234375,-400000.0625,-12780.1396484375,-400000.0625
278.51787972450256,-400000.0625,-12116.33984375,-993.780029296875,-400000.0625,-4640.2900390625,-400000.0625,-12811.330078125,-400000.0625
278.5178897380829,-400000.0625,-12104.509765625,-981.3300170898438,-400000.0625,-4633.240234375,-400000.0625,-12794.7802734375,-400000.0625
278.51790022850037,-400000.0625,-12068.3203125,-944.6599731445312,-400000.0625,-4595.3798828125,-400000.0625,-12754.6298828125,-400000.0625
278.51790976524353,-400000.0625,-12055.919921875,-932.8800048828125,-400000.0625,-4582.2099609375,-400000.0625,-12745.3798828125,-400000.0625
278.5179195404053,-400000.0625,-12089.2099609375,-966.7899780273438,-400000.0625,-4614.31005859375,-400000.0625,-12778.240234375,-400000.0625
278.5179286003113,-400000.0625,-12120.8203125,-994.1599731445312,-400000.0625,-4644.009765625,-400000.0625,-12806.509765625,-400000.0625
278.51793813705444,-400000.0625,-12103.1298828125,-979.6099853515625,-400000.0625,-4628.89990234375,-400000.0625,-12790.7802734375,-400000.0625
278.5179476737976,-400000.0625,-12060.5,-941.6099853515625,-400000.0625,-4592.27978515625,-400000.0625,-12752.8203125,-400000.0625
278.5179567337036,-400000.0625,-12055.4501953125,-933.1199951171875,-400000.0625,-4585.35986328125,-400000.0625,-12743.0,-400000.0625
278.5179660320282,-400000.0625,-12087.919921875,-964.260009765625,-400000.0625,-4614.93017578125,-400000.0625,-12780.3798828125,-400000.0625
278.5179750919342,-400000.0625,-12120.919921875,-995.6799926757812,-400000.0625,-4644.68017578125,-400000.0625,-12810.08984375,-400000.0625
278.51799273490906,-400000.0625,-12107.08984375,-981.3800048828125,-400000.0625,-4634.240234375,-400000.0625,-12790.9697265625,-400000.0625
278.5180060863495,-400000.0625,-12064.4599609375,-943.760009765625,-400000.0625,-4596.18994140625,-400000.0625,-12753.2998046875,-400000.0625
278.51801657676697,-400000.0625,-12049.580078125,-932.5499877929688,-400000.0625,-4582.8798828125,-400000.0625,-12747.0498046875,-400000.0625
278.5180253982544,-400000.0625,-12084.33984375,-963.4000244140625,-400000.0625,-4613.35009765625,-400000.0625,-12781.7197265625,-400000.0625
278.51803517341614,-400000.0625,-12121.6796875,-993.6799926757812,-400000.0625,-4642.77001953125,-400000.0625,-12809.75,-400000.0625
278.5180447101593,-400000.0625,-12105.509765625,-978.1799926757812,-400000.0625,-4631.759765625,-400000.0625,-12796.259765625,-400000.0625
278.5180540084839,-400000.0625,-12063.3603515625,-939.75,-400000.0625,-4595.18017578125,-400000.0625,-12757.919921875,-400000.0625
278.5180633068085,-400000.0625,-12053.919921875,-934.4600219726562,-400000.0625,-4585.02978515625,-400000.0625,-12744.8603515625,-400000.0625
278.51807260513306,-400000.0625,-12089.7802734375,-967.6900024414062,-400000.0625,-4613.72998046875,-400000.0625,-12779.0498046875,-400000.0625
278.5180823802948,-400000.0625,-12120.1103515625,-995.4500122070312,-400000.0625,-4640.91015625,-400000.0625,-12808.66015625,-400000.0625
278.5180914402008,-400000.0625,-12099.4599609375,-975.3200073242188,-400000.0625,-4622.27001953125,-400000.0625,-12790.6298828125,-400000.0625
278.5181016921997,-400000.0625,-12058.740234375,-940.0399780273438,-400000.0625,-4592.89990234375,-400000.0625,-12749.6298828125,-400000.0625
278.5181188583374,-400000.0625,-12050.1103515625,-928.02001953125,-400000.0625,-4588.31982421875,-400000.0625,-12738.849609375,-400000.0625
278.51923084259033,-400000.0625,-12081.669921875,-958.4400024414062,-400000.0625,-4617.1201171875,-400000.0625,-12770.509765625,-400000.0625
278.5192813873291,-400000.0625,-12111.2802734375,-996.260009765625,-400000.0625,-4648.830078125,-400000.0625,-12806.509765625,-400000.0625
278.5193045139313,-400000.0625,-12093.740234375,-984.9500122070312,-400000.0625,-4642.580078125,-400000.0625,-12796.98046875,-400000.0625
278.5193192958832,-400000.0625,-12051.009765625,-945.1400146484375,-400000.0625,-4609.2998046875,-400000.0625,-12758.6396484375,-400000.0625
278.51933336257935,-400000.0625,-12035.23046875,-928.5900268554688,-400000.0625,-4591.66015625,-400000.0625,-12740.330078125,-400000.0625
278.5193462371826,-400000.0625,-12062.599609375,-954.25,-400000.0625,-4609.16015625,-400000.0625,-12767.3203125,-400000.0625
278.51935935020447,-400000.0625,-12101.990234375,-990.4400024414062,-400000.0625,-4649.8798828125,-400000.0625,-12805.080078125,-400000.0625
278.51937317848206,-400000.0625,-12089.9697265625,-980.760009765625,-400000.0625,-4644.68017578125,-400000.0625,-12795.6904296875,-400000.0625
278.5193862915039,-400000.0625,-12048.009765625,-940.989990234375,-400000.0625,-4602.18994140625,-400000.0625,-12755.6796875,-400000.0625
278.51939964294434,-400000.0625,-12032.509765625,-925.4500122070312,-400000.0625,-4586.60009765625,-400000.0625,-12738.66015625,-400000.0625
278.5194180011749,-400000.0625,-12061.169921875,-948.9500122070312,-400000.0625,-4612.77978515625,-400000.0625,-12766.1201171875,-400000.0625
278.5194320678711,-400000.0625,-12096.5498046875,-984.0999755859375,-400000.0625,-4644.35009765625,-400000.0625,-12799.1201171875,-400000.0625
278.519446849823,-400000.0625,-12084.6796875,-974.3699951171875,-400000.0625,-4634.7099609375,-400000.0625,-12786.5302734375,-400000.0625
278.5194606781006,-400000.0625,-12047.0498046875,-937.6099853515625,-400000.0625,-4596.9501953125,-400000.0625,-12749.9599609375,-400000.0625
278.5194745063782,-400000.0625,-12031.41015625,-923.4400024414062,-400000.0625,-4580.2099609375,-400000.0625,-12731.080078125,-400000.0625
278.519490480423,-400000.0625,-12060.5,-952.0499877929688,-400000.0625,-4616.68994140625,-400000.0625,-12762.01953125,-400000.0625
278.5195052623749,-400000.0625,-12094.98046875,-986.239990234375,-400000.0625,-4656.64990234375,-400000.0625,-12797.599609375,-400000.0625
278.519522190094,-400000.0625,-12086.490234375,-975.9000244140625,-400000.0625,-4641.33984375,-400000.0625,-12785.48046875,-400000.0625
278.5195369720459,-400000.0625,-12048.580078125,-940.989990234375,-400000.0625,-4604.2900390625,-400000.0625,-12747.150390625,-400000.0625
278.5195527076721,-400000.0625,-12034.3701171875,-925.02001953125,-400000.0625,-4587.02978515625,-400000.0625,-12732.650390625,-400000.0625
278.51956605911255,-400000.0625,-12067.7998046875,-955.1500244140625,-400000.0625,-4615.06982421875,-400000.0625,-12760.830078125,-400000.0625
278.51957988739014,-400000.0625,-12103.650390625,-989.719970703125,-400000.0625,-4646.97021484375,-400000.0625,-12798.599609375,-400000.0625
278.51959323883057,-400000.0625,-12093.0703125,-978.6099853515625,-400000.0625,-4636.2900390625,-400000.0625,-12787.6796875,-400000.0625
278.51960730552673,-400000.0625,-12051.6796875,-937.4099731445312,-400000.0625,-4599.81005859375,-400000.0625,-12748.3896484375,-400000.0625
278.5196223258972,-400000.0625,-12029.0302734375,-918.9600219726562,-400000.0625,-4584.7900390625,-400000.0625,-12731.599609375,-400000.0625
278.519638299942,-400000.0625,-12060.2099609375,-949.0,-400000.0625,-4615.93017578125,-400000.0625,-12759.5400390625,-400000.0625
278.5196545124054,-400000.0625,-12096.7900390625,-980.8099975585938,-400000.0625,-4651.39990234375,-400000.0625,-12795.400390625,-400000.0625
278.51966977119446,-400000.0625,-12087.2998046875,-968.9299926757812,-400000.0625,-4644.81982421875,-400000.0625,-12784.3896484375,-400000.0625
278.51968598365784,-400000.0625,-12048.4404296875,-932.0700073242188,-400000.0625,-4606.10009765625,-400000.0625,-12746.3798828125,-400000.0625
278.5197055339813,-400000.0625,-12033.75,-917.1500244140625,-400000.0625,-4588.3701171875,-400000.0625,-12731.26953125,-400000.0625
278.5197238922119,-400000.0625,-12067.509765625,-948.0,-400000.0625,-4617.5498046875,-400000.0625,-12759.01953125,-400000.0625
278.5197443962097,-400000.0625,-12099.5498046875,-978.0399780273438,-400000.0625,-4646.10986328125,-400000.0625,-12794.4501953125,-400000.0625
278.51976466178894,-400000.0625,-12088.9697265625,-970.7000122070312,-400000.0625,-4637.240234375,-400000.0625,-12787.2998046875,-400000.0625
278.5197842121124,-400000.0625,-12048.580078125,-932.4099731445312,-400000.0625,-4604.77001953125,-400000.0625,-12748.4296875,-400000.0625
278.51980805397034,-400000.0625,-12033.75,-916.2899780273438,-400000.0625,-4592.1298828125,-400000.0625,-12729.650390625,-400000.0625
278.51982593536377,-400000.0625,-12060.5498046875,-941.0399780273438,-400000.0625,-4617.169921875,-400000.0625,-12759.0703125,-400000.0625
278.5198447704315,-400000.0625,-12096.5498046875,-977.0900268554688,-400000.0625,-4641.2998046875,-400000.0625,-12796.740234375,-400000.0625
278.51986265182495,-400000.0625,-12091.6904296875,-970.510009765625,-400000.0625,-4636.14990234375,-400000.0625,-12787.33984375,-400000.0625
278.51988339424133,-400000.0625,-12048.33984375,-929.2100219726562,-400000.0625,-4610.25,-400000.0625,-12745.0498046875,-400000.0625
278.5199046134949,-400000.0625,-12026.5,-913.760009765625,-400000.0625,-4590.3701171875,-400000.0625,-12726.830078125,-400000.0625
278.5199246406555,-400000.0625,-12057.9296875,-939.7000122070312,-400000.0625,-4614.68994140625,-400000.0625,-12757.01953125,-400000.0625
278.51994490623474,-400000.0625,-12096.98046875,-977.6599731445312,-400000.0625,-4652.2099609375,-400000.0625,-12790.7802734375,-400000.0625
278.5199635028839,-400000.0625,-12086.1103515625,-967.4099731445312,-400000.0625,-4642.580078125,-400000.0625,-12782.4296875,-400000.0625
278.5199851989746,-400000.0625,-12047.0498046875,-930.1199951171875,-400000.0625,-4602.47998046875,-400000.0625,-12743.759765625,-400000.0625
278.5210585594177,-400000.0625,-12031.3203125,-912.9000244140625,-400000.0625,-4585.7900390625,-400000.0625,-12728.9296875,-400000.0625
278.52122473716736,-400000.0625,-12061.5498046875,-941.52001953125,-400000.0625,-4615.5,-400000.0625,-12759.830078125,-400000.0625
278.5212986469269,-400000.0625,-12095.6904296875,-974.4600219726562,-400000.0625,-4647.2998046875,-400000.0625,-12794.2099609375,-400000.0625
278.5213363170624,-400000.0625,-12085.5302734375,-966.8800048828125,-400000.0625,-4632.14013671875,-400000.0625,-12786.25,-400000.0625
278.5213680267334,-400000.0625,-12044.240234375,-925.489990234375,-400000.0625,-4592.27978515625,-400000.0625,-12741.419921875,-400000.0625
278.52139711380005,-400000.0625,-12027.7900390625,-910.8499755859375,-400000.0625,-4588.93994140625,-400000.0625,-12724.830078125,-400000.0625
278.5214250087738,-400000.0625,-12061.3603515625,-944.52001953125,-400000.0625,-4622.7001953125,-400000.0625,-12755.2001953125,-400000.0625
278.52145290374756,-400000.0625,-12098.599609375,-975.280029296875,-400000.0625,-4650.5498046875,-400000.0625,-12791.1103515625,-400000.0625
278.52148032188416,-400000.0625,-12084.0595703125,-963.8800048828125,-400000.0625,-4636.52978515625,-400000.0625,-12779.759765625,-400000.0625
278.5215082168579,-400000.0625,-12048.48046875,-927.9299926757812,-400000.0625,-4606.009765625,-400000.0625,-12739.7998046875,-400000.0625
278.5215377807617,-400000.0625,-12026.3603515625,-908.8499755859375,-400000.0625,-4587.75,-400000.0625,-12720.400390625,-400000.0625
278.521568775177,-400000.0625,-12051.490234375,-932.739990234375,-400000.0625,-4609.10986328125,-400000.0625,-12750.580078125,-400000.0625
278.5215973854065,-400000.0625,-12089.349609375,-968.6500244140625,-400000.0625,-4643.77001953125,-400000.0625,-12785.9599609375,-400000.0625
278.5216257572174,-400000.0625,-12081.240234375,-959.25,-400000.0625,-4637.10009765625,-400000.0625,-12775.759765625,-400000.0625
278.5216529369354,-400000.0625,-12040.4697265625,-920.489990234375,-400000.0625,-4601.81005859375,-400000.0625,-12733.75,-400000.0625
278.52168011665344,-400000.0625,-12024.5,-906.0399780273438,-400000.0625,-4590.89013671875,-400000.0625,-12714.8203125,-400000.0625
278.5217411518097,-400000.0625,-12053.0595703125,-933.030029296875,-400000.0625,-4616.06982421875,-400000.0625,-12746.91015625,-400000.0625
278.52180099487305,-400000.0625,-12092.349609375,-968.27001953125,-400000.0625,-4653.83984375,-400000.0625,-12781.9599609375,-400000.0625
278.52181458473206,-400000.0625,-12083.669921875,-962.6900024414062,-400000.0625,-4646.2099609375,-400000.0625,-12770.8896484375,-400000.0625
278.52182626724243,-400000.0625,-12041.0498046875,-924.780029296875,-400000.0625,-4606.919921875,-400000.0625,-12736.1796875,-400000.0625
278.5218367576599,-400000.0625,-12025.1201171875,-909.0399780273438,-400000.0625,-4594.990234375,-400000.0625,-12718.490234375,-400000.0625
278.52184677124023,-400000.0625,-12053.6796875,-935.5999755859375,-400000.0625,-4614.830078125,-400000.0625,-12747.8603515625,-400000.0625
278.52185678482056,-400000.0625,-12091.919921875,-968.8400268554688,-400000.0625,-4644.10986328125,-400000.0625,-12780.2900390625,-400000.0625
278.52186703681946,-400000.0625,-12087.7802734375,-964.2100219726562,-400000.0625,-4638.47998046875,-400000.0625,-12775.330078125,-400000.0625
278.5218770503998,-400000.0625,-12046.150390625,-926.2999877929688,-400000.0625,-4599.759765625,-400000.0625,-12734.26953125,-400000.0625
278.5218868255615,-400000.0625,-12029.2197265625,-909.8099975585938,-400000.0625,-4582.68994140625,-400000.0625,-12719.8701171875,-400000.0625
278.5218963623047,-400000.0625,-12055.6396484375,-936.5599975585938,-400000.0625,-4617.02001953125,-400000.0625,-12751.9599609375,-400000.0625
278.5219056606293,-400000.0625,-12086.490234375,-968.030029296875,-400000.0625,-4653.4501953125,-400000.0625,-12787.0595703125,-400000.0625
278.521915435791,-400000.0625,-12085.9599609375,-961.5900268554688,-400000.0625,-4647.58984375,-400000.0625,-12775.7998046875,-400000.0625
278.5219259262085,-400000.0625,-12046.099609375,-924.969970703125,-400000.0625,-4607.14990234375,-400000.0625,-12734.7001953125,-400000.0625
278.5219361782074,-400000.0625,-12024.9296875,-904.75,-400000.0625,-4591.27001953125,-400000.0625,-12715.5302734375,-400000.0625
278.52194595336914,-400000.0625,-12052.490234375,-931.97998046875,-400000.0625,-4614.06982421875,-400000.0625,-12745.099609375,-400000.0625
278.5219554901123,-400000.0625,-12091.73046875,-971.3699951171875,-400000.0625,-4646.68017578125,-400000.0625,-12784.0498046875,-400000.0625
278.52196502685547,-400000.0625,-12085.150390625,-966.4099731445312,-400000.0625,-4643.81982421875,-400000.0625,-12776.1396484375,-400000.0625
278.52197527885437,-400000.0625,-12039.7099609375,-924.0599975585938,-400000.0625,-4601.81005859375,-400000.0625,-12737.4697265625,-400000.0625
278.5219888687134,-400000.0625,-12028.8896484375,-908.280029296875,-400000.0625,-4587.22021484375,-400000.0625,-12718.0595703125,-400000.0625
278.52199959754944,-400000.0625,-12059.01953125,-934.4099731445312,-400000.0625,-4610.35009765625,-400000.0625,-12746.91015625,-400000.0625
278.5220100879669,-400000.0625,-12095.5,-970.7899780273438,-400000.0625,-4650.77978515625,-400000.0625,-12786.490234375,-400000.0625
278.5220205783844,-400000.0625,-12087.7802734375,-965.0700073242188,-400000.0625,-4651.31005859375,-400000.0625,-12774.5595703125,-400000.0625
278.5220310688019,-400000.0625,-12046.7197265625,-928.02001953125,-400000.0625,-4611.490234375,-400000.0625,-12732.7001953125,-400000.0625
278.52204036712646,-400000.0625,-12025.259765625,-906.75,-400000.0625,-4590.31982421875,-400000.0625,-12716.76953125,-400000.0625
278.52204966545105,-400000.0625,-12057.16015625,-933.9299926757812,-400000.0625,-4619.7900390625,-400000.0625,-12745.91015625,-400000.0625
278.52207136154175,-400000.0625,-12092.16015625,-966.6400146484375,-400000.0625,-4651.58984375,-400000.0625,-12784.6298828125,-400000.0625
278.5220811367035,-400000.0625,-12085.25,-959.489990234375,-400000.0625,-4645.490234375,-400000.0625,-12774.51953125,-400000.0625
278.52209091186523,-400000.0625,-12046.8203125,-927.0700073242188,-400000.0625,-4609.919921875,-400000.0625,-12734.0302734375,-400000.0625
278.5221004486084,-400000.0625,-12024.2099609375,-906.7999877929688,-400000.0625,-4588.31982421875,-400000.0625,-12718.3896484375,-400000.0625
278.522109746933,-400000.0625,-12053.58984375,-933.7899780273438,-400000.0625,-4612.490234375,-400000.0625,-12746.759765625,-400000.0625
278.52211904525757,-400000.0625,-12095.01953125,-969.5999755859375,-400000.0625,-4649.68994140625,-400000.0625,-12782.099609375,-400000.0625
278.52212858200073,-400000.0625,-12084.580078125,-958.6799926757812,-400000.0625,-4645.8701171875,-400000.0625,-12773.849609375,-400000.0625
278.52213859558105,-400000.0625,-12040.330078125,-917.1500244140625,-400000.0625,-4603.6201171875,-400000.0625,-12732.599609375,-400000.0625
278.52214884757996,-400000.0625,-12024.740234375,-906.8499755859375,-400000.0625,-4584.5,-400000.0625,-12717.580078125,-400000.0625
278.5221586227417,-400000.0625,-12053.4404296875,-930.8300170898438,-400000.0625,-4614.740234375,-400000.0625,-12746.5302734375,-400000.0625
278.5221676826477,-400000.0625,-12089.8701171875,-964.02001953125,-400000.0625,-4651.2099609375,-400000.0625,-12786.5302734375,-400000.0625
278.5221769809723,-400000.0625,-12079.8095703125,-957.1599731445312,-400000.0625,-4642.6298828125,-400000.0625,-12775.759765625,-400000.0625
278.52218651771545,-400000.0625,-12039.419921875,-918.25,-400000.0625,-4605.14990234375,-400000.0625,-12732.1298828125,-400000.0625
278.52219581604004,-400000.0625,-12020.6396484375,-899.4099731445312,-400000.0625,-4586.509765625,-400000.0625,-12714.9599609375,-400000.0625
278.5222051143646,-400000.0625,-12048.48046875,-924.780029296875,-400000.0625,-4611.64013671875,-400000.0625,-12743.1396484375,-400000.0625
278.5222144126892,-400000.0625,-12086.73046875,-960.2999877929688,-400000.0625,-4646.490234375,-400000.0625,-12777.759765625,-400000.0625
278.5222237110138,-400000.0625,-12080.91015625,-955.3400268554688,-400000.0625,-4638.39013671875,-400000.0625,-12772.4697265625,-400000.0625
278.5222337245941,-400000.0625,-12039.759765625,-917.4299926757812,-400000.0625,-4594.52001953125,-400000.0625,-12732.7001953125,-400000.0625
278.522243976593,-400000.0625,-12019.4404296875,-899.030029296875,-400000.0625,-4578.2099609375,-400000.0625,-12712.1904296875,-400000.0625
278.52225375175476,-400000.0625,-12051.5400390625,-926.8300170898438,-400000.0625,-4609.39013671875,-400000.0625,-12745.1396484375,-400000.0625
278.5222637653351,-400000.0625,-12093.8798828125,-963.5399780273438,-400000.0625,-4648.72998046875,-400000.0625,-12782.0498046875,-400000.0625
278.52227330207825,-400000.0625,-12082.2900390625,-955.1500244140625,-400000.0625,-4645.2099609375,-400000.0625,-12773.66015625,-400000.0625
278.5222842693329,-400000.0625,-12043.1904296875,-916.6699829101562,-400000.0625,-4610.5400390625,-400000.0625,-12735.080078125,-400000.0625
278.52229475975037,-400000.0625,-12024.400390625,-898.8400268554688,-400000.0625,-4589.89013671875,-400000.0625,-12717.2001953125,-400000.0625
278.5223045349121,-400000.0625,-12054.58984375,-927.3499755859375,-400000.0625,-4616.2099609375,-400000.0625,-12746.1396484375,-400000.0625
278.52231454849243,-400000.0625,-12088.349609375,-962.0700073242188,-400000.0625,-4651.31005859375,-400000.0625,-12782.2900390625,-400000.0625
278.5223240852356,-400000.0625,-12079.240234375,-954.8699951171875,-400000.0625,-4644.6298828125,-400000.0625,-12774.7998046875,-400000.0625
278.52233386039734,-400000.0625,-12041.669921875,-921.5800170898438,-400000.0625,-4606.14990234375,-400000.0625,-12741.2802734375,-400000.0625
278.5223433971405,-400000.0625,-12023.5498046875,-901.4099731445312,-400000.0625,-4586.080078125,-400000.0625,-12722.1103515625,-400000.0625
278.5223534107208,-400000.0625,-12055.58984375,-932.7899780273438,-400000.0625,-4620.27001953125,-400000.0625,-12751.9599609375,-400000.0625
278.5223639011383,-400000.0625,-12095.169921875,-966.8800048828125,-400000.0625,-4652.31005859375,-400000.0625,-12787.33984375,-400000.0625
278.5223743915558,-400000.0625,-12086.6298828125,-961.1599731445312,-400000.0625,-4644.10986328125,-400000.0625,-12779.0498046875,-400000.0625
278.5223844051361,-400000.0625,-12045.48046875,-922.1099853515625,-400000.0625,-4609.2001953125,-400000.0625,-12744.1396484375,-400000.0625
278.52239441871643,-400000.0625,-12021.830078125,-900.0800170898438,-400000.0625,-4589.509765625,-400000.0625,-12723.2998046875,-400000.0625
278.5224041938782,-400000.0625,-12053.16015625,-928.969970703125,-400000.0625,-4616.68994140625,-400000.0625,-12752.25,-400000.0625
278.52241373062134,-400000.0625,-12090.16015625,-963.4000244140625,-400000.0625,-4650.77978515625,-400000.0625,-12787.6796875,-400000.0625
278.52242374420166,-400000.0625,-12080.9599609375,-955.530029296875,-400000.0625,-4643.10986328125,-400000.0625,-12780.91015625,-400000.0625
278.5224344730377,-400000.0625,-12042.48046875,-922.010009765625,-400000.0625,-4606.81982421875,-400000.0625,-12743.5703125,-400000.0625
278.52244424819946,-400000.0625,-12028.740234375,-907.7100219726562,-400000.0625,-4588.990234375,-400000.0625,-12724.9697265625,-400000.0625
278.5224540233612,-400000.0625,-12057.400390625,-935.27001953125,-400000.0625,-4613.919921875,-400000.0625,-12756.400390625,-400000.0625
278.5524342060089,-400000.0625,-12100.3203125,-970.219970703125,-400000.0625,-4631.56982421875,-400000.0625,-12767.509765625,-400000.0625
278.604355096817,-400000.0625,-12202.9296875,-1048.280029296875,-400000.0625,-4641.10009765625,-400000.0625,-12807.6103515625,-400000.0625
278.7314269542694,-400000.0625,-12224.48046875,-1068.3499755859375,-400000.0625,-4670.0,-400000.0625,-12850.6201171875,-400000.0625
278.7952883243561,-400000.0625,-12257.669921875,-1094.1500244140625,-400000.0625,-4699.330078125,-400000.0625,-12865.740234375,-400000.0625
278.8742024898529,-400000.0625,-12206.41015625,-1042.56005859375,-400000.0625,-4666.27978515625,-400000.0625,-12873.75,-400000.0625
278.93208932876587,-400000.0625,-12174.23046875,-1007.1799926757812,-400000.0625,-4635.669921875,-400000.0625,-12838.080078125,-400000.0625
279.0577697753906,-400000.0625,-12203.9296875,-1037.4100341796875,-400000.0625,-4656.60009765625,-400000.0625,-12879.900390625,-400000.0625
279.11406660079956,-400000.0625,-12244.509765625,-1082.22998046875,-400000.0625,-4692.509765625,-400000.0625,-12897.1103515625,-400000.0625
279.17784094810486,-400000.0625,-12196.1103515625,-1039.97998046875,-400000.0625,-4629.330078125,-400000.0625,-12815.1904296875,-400000.0625
279.25029468536377,-400000.0625,-12200.8798828125,-1041.3199462890625,-400000.0625,-4637.0,-400000.0625,-12817.669921875,-400000.0625
279.3214023113251,-400000.0625,-12191.8203125,-1028.5899658203125,-400000.0625,-4618.60009765625,-400000.0625,-12810.419921875,-400000.0625
279.3751859664917,-400000.0625,-12262.8701171875,-1135.3499755859375,-400000.0625,-4665.330078125,-400000.0625,-12767.9404296875,-400000.0625
279.4343783855438,-400000.0625,-12302.4501953125,-1166.06005859375,-400000.0625,-4698.7998046875,-400000.0625,-12803.83984375,-400000.0625
279.5129370689392,-400000.0625,-12293.5302734375,-1151.0400390625,-400000.0625,-4683.830078125,-400000.0625,-12784.9599609375,-400000.0625
279.5915629863739,-400000.0625,-12219.48046875,-1093.1500244140625,-400000.0625,-4636.52978515625,-400000.0625,-12751.6796875,-400000.0625
279.6619153022766,-400000.0625,-12183.9501953125,-1038.1700439453125,-400000.0625,-4614.93017578125,-400000.0625,-12783.240234375,-400000.0625
279.69622230529785,-400000.0625,-12242.8896484375,-1085.7099609375,-400000.0625,-4652.2099609375,-400000.0625,-12826.6796875,-400000.0625
279.76420879364014,-400000.0625,-12602.1396484375,-1256.9000244140625,-400000.0625,-4596.81005859375,-400000.0625,-12976.4599609375,-400000.0625
279.82044076919556,-400000.0625,-12451.169921875,-1187.6600341796875,-400000.0625,-4626.85009765625,-400000.0625,-12922.8603515625,-400000.0625
279.88308548927307,-400000.0625,-12258.9599609375,-1081.3199462890625,-400000.0625,-4630.419921875,-400000.0625,-12817.91015625,-400000.0625
279.9876482486725,-400000.0625,-12275.41015625,-1114.6500244140625,-400000.0625,-4676.33984375,-400000.0625,-12855.33984375,-400000.0625
280.01895785331726,-400000.0625,-12245.3701171875,-1084.6600341796875,-400000.0625,-4644.58984375,-400000.0625,-12822.7197265625,-400000.0625
280.07856154441833,-400000.0625,-12262.2001953125,-1109.1199951171875,-400000.0625,-4678.2001953125,-400000.0625,-12862.6396484375,-400000.0625
280.1443874835968,-400000.0625,-12247.1796875,-1086.9000244140625,-400000.0625,-4662.509765625,-400000.0625,-12850.669921875,-400000.0625
280.2017431259155,-400000.0625,-12214.2802734375,-1057.199951171875,-400000.0625,-4622.169921875,-400000.0625,-12822.6298828125,-400000.0625
280.2959222793579,-400000.0625,-12200.599609375,-1045.0400390625,-400000.0625,-4608.14990234375,-400000.0625,-12815.0498046875,-400000.0625
280.3644542694092,-400000.0625,-12234.98046875,-1072.5,-400000.0625,-4627.85009765625,-400000.0625,-12843.23046875,-400000.0625
280.4001581668854,-400000.0625,-12271.6904296875,-1108.7900390625,-400000.0625,-4673.85986328125,-400000.0625,-12876.080078125,-400000.0625
280.4722373485565,-400000.0625,-12254.4296875,-1093.6700439453125,-400000.0625,-4654.64990234375,-400000.0625,-12859.73046875,-400000.0625
280.52761054039,-400000.0625,-12208.080078125,-1057.239990234375,-400000.0625,-4618.68994140625,-400000.0625,-12811.0400390625,-400000.0625
280.5887522697449,-400000.0625,-12187.48046875,-1034.02001953125,-400000.0625,-4600.43017578125,-400000.0625,-12798.7900390625,-400000.0625
280.6881537437439,-400000.0625,-12216.1904296875,-1066.5899658203125,-400000.0625,-4625.27001953125,-400000.0625,-12831.7802734375,-400000.0625
280.73057293891907,-400000.0625,-12251.6201171875,-1100.5899658203125,-400000.0625,-4654.60009765625,-400000.0625,-12853.91015625,-400000.0625
280.786554813385,-400000.0625,-12255.0,-1105.5,-400000.0625,-4654.4599609375,-400000.0625,-12863.2099609375,-400000.0625
280.84493827819824,-400000.0625,-12217.669921875,-1065.3499755859375,-400000.0625,-4616.4501953125,-400000.0625,-12817.8603515625,-400000.0625
280.9711196422577,-400000.0625,-12219.759765625,-1073.68994140625,-400000.0625,-4620.4599609375,-400000.0625,-12832.4501953125,-400000.0625
281.0926661491394,-400000.0625,-12258.6298828125,-1108.0699462890625,-400000.0625,-4663.56005859375,-400000.0625,-12868.3603515625,-400000.0625
281.13656091690063,-400000.0625,-12255.5703125,-1105.9300537109375,-400000.0625,-4656.27001953125,-400000.0625,-12863.5400390625,-400000.0625
281.1547076702118,-400000.0625,-12212.9501953125,-1068.31005859375,-400000.0625,-4621.35986328125,-400000.0625,-12825.2998046875,-400000.0625
281.1743769645691,-400000.0625,-12194.400390625,-1050.0899658203125,-400000.0625,-4601.33984375,-400000.0625,-12809.1396484375,-400000.0625
281.19229531288147,-400000.0625,-12217.8095703125,-1074.0799560546875,-400000.0625,-4624.83984375,-400000.0625,-12835.83984375,-400000.0625
281.2163019180298,-400000.0625,-12255.0,-1110.030029296875,-400000.0625,-4661.080078125,-400000.0625,-12872.7001953125,-400000.0625
281.2483322620392,-400000.0625,-12250.8095703125,-1100.489990234375,-400000.0625,-4655.5498046875,-400000.0625,-12865.6396484375,-400000.0625
281.26636481285095,-400000.0625,-12207.3203125,-1063.010009765625,-400000.0625,-4614.16015625,-400000.0625,-12826.9697265625,-400000.0625
281.28435730934143,-400000.0625,-12193.2998046875,-1048.760009765625,-400000.0625,-4597.0,-400000.0625,-12807.1796875,-400000.0625
281.3007118701935,-400000.0625,-12221.6201171875,-1076.56005859375,-400000.0625,-4629.56005859375,-400000.0625,-12835.3603515625,-400000.0625
281.318687915802,-400000.0625,-12263.4404296875,-1112.75,-400000.0625,-4667.330078125,-400000.0625,-12873.98046875,-400000.0625
281.35200715065,-400000.0625,-12256.580078125,-1105.3599853515625,-400000.0625,-4652.4501953125,-400000.0625,-12868.5,-400000.0625
281.36685514450073,-400000.0625,-12215.6201171875,-1068.9300537109375,-400000.0625,-4618.02978515625,-400000.0625,-12830.400390625,-400000.0625
281.3826823234558,-400000.0625,-12196.6396484375,-1054.0,-400000.0625,-4604.85986328125,-400000.0625,-12810.23046875,-400000.0625
281.3982939720154,-400000.0625,-12225.150390625,-1079.6099853515625,-400000.0625,-4629.330078125,-400000.0625,-12838.7900390625,-400000.0625
281.4228491783142,-400000.0625,-12262.2998046875,-1114.1300048828125,-400000.0625,-4658.7900390625,-400000.0625,-12875.509765625,-400000.0625
281.4589946269989,-400000.0625,-12256.1904296875,-1107.68994140625,-400000.0625,-4650.2099609375,-400000.0625,-12869.0703125,-400000.0625
281.4762542247772,-400000.0625,-12215.330078125,-1069.1199951171875,-400000.0625,-4615.39990234375,-400000.0625,-12830.830078125,-400000.0625
281.48906922340393,-400000.0625,-12195.7802734375,-1050.760009765625,-400000.0625,-4598.52001953125,-400000.0625,-12811.7099609375,-400000.0625
281.57503604888916,-400000.0625,-12249.9501953125,-1125.47998046875,-400000.0625,-4565.47998046875,-400000.0625,-12831.6396484375,-400000.0625
281.6277093887329,-400000.0625,-12181.3798828125,-1102.300048828125,-400000.0625,-4608.009765625,-400000.0625,-12816.0,-400000.0625
281.6843273639679,-400000.0625,-12209.9404296875,-1129.3399658203125,-400000.0625,-4654.27001953125,-400000.0625,-12854.48046875,-400000.0625
281.7417805194855,-400000.0625,-12159.2099609375,-1085.81005859375,-400000.0625,-4621.080078125,-400000.0625,-12805.5595703125,-400000.0625
281.8267328739166,-400000.0625,-12148.9501953125,-1082.1300048828125,-400000.0625,-4618.41015625,-400000.0625,-12808.7099609375,-400000.0625
281.9323036670685,-400000.0625,-12150.76953125,-1074.4599609375,-400000.0625,-4613.919921875,-400000.0625,-12821.150390625,-400000.0625
281.99422240257263,-400000.0625,-12194.1103515625,-1110.97998046875,-400000.0625,-4653.93017578125,-400000.0625,-12859.0595703125,-400000.0625
282.07366037368774,-400000.0625,-12196.73046875,-1110.3599853515625,-400000.0625,-4656.60009765625,-400000.0625,-12857.099609375,-400000.0625
282.1660189628601,-400000.0625,-12157.25,-1065.06005859375,-400000.0625,-4624.7998046875,-400000.0625,-12825.490234375,-400000.0625
282.2500898838043,-400000.0625,-12166.0703125,-1075.93994140625,-400000.0625,-4627.7998046875,-400000.0625,-12811.7099609375,-400000.0625
282.3163115978241,-400000.0625,-12210.080078125,-1115.989990234375,-400000.0625,-4657.4599609375,-400000.0625,-12851.91015625,-400000.0625
282.44170355796814,-400000.0625,-12161.6396484375,-1070.6400146484375,-400000.0625,-4622.41015625,-400000.0625,-12815.2900390625,-400000.0625
282.5529236793518,-400000.0625,-12140.3203125,-1043.8399658203125,-400000.0625,-4602.9599609375,-400000.0625,-12792.7802734375,-400000.0625
282.6357808113098,-400000.0625,-12219.8095703125,-1113.3699951171875,-400000.0625,-4662.08984375,-400000.0625,-12849.8603515625,-400000.0625
282.7029163837433,-400000.0625,-12215.9501953125,-1114.3199462890625,-400000.0625,-4673.580078125,-400000.0625,-12853.8095703125,-400000.0625
282.87314796447754,-400000.0625,-12143.849609375,-1050.81005859375,-400000.0625,-4606.68017578125,-400000.0625,-12788.490234375,-400000.0625
282.9258053302765,-400000.0625,-12157.6796875,-1064.5400390625,-400000.0625,-4617.41015625,-400000.0625,-12800.7900390625,-400000.0625
282.95785188674927,-400000.0625,-12201.3603515625,-1098.300048828125,-400000.0625,-4656.7001953125,-400000.0625,-12843.900390625,-400000.0625
283.045058965683,-400000.0625,-12210.7998046875,-1111.699951171875,-400000.0625,-4668.3798828125,-400000.0625,-12848.330078125,-400000.0625
283.0827724933624,-400000.0625,-12171.26953125,-1075.93994140625,-400000.0625,-4635.14013671875,-400000.0625,-12806.1298828125,-400000.0625
283.1453423500061,-400000.0625,-12148.330078125,-1054.47998046875,-400000.0625,-4613.919921875,-400000.0625,-12782.33984375,-400000.0625
283.2600939273834,-400000.0625,-12160.6796875,-1071.449951171875,-400000.0625,-4624.7998046875,-400000.0625,-12800.650390625,-400000.0625
283.30433344841003,-400000.0625,-12202.599609375,-1102.0699462890625,-400000.0625,-4660.1298828125,-400000.0625,-12838.7001953125,-400000.0625
283.3676269054413,-400000.0625,-12214.2802734375,-1117.0400390625,-400000.0625,-4679.16015625,-400000.0625,-12845.9501953125,-400000.0625
283.49282598495483,-400000.0625,-12150.580078125,-1050.9000244140625,-400000.0625,-4612.2998046875,-400000.0625,-12772.509765625,-400000.0625
283.5330822467804,-400000.0625,-12165.8798828125,-1067.780029296875,-400000.0625,-4627.27978515625,-400000.0625,-12790.16015625,-400000.0625
283.54725193977356,-400000.0625,-12212.6103515625,-1108.6500244140625,-400000.0625,-4669.14013671875,-400000.0625,-12830.5498046875,-400000.0625
283.5643107891083,-400000.0625,-12218.51953125,-1116.3699951171875,-400000.0625,-4675.47998046875,-400000.0625,-12840.7001953125,-400000.0625
283.575754404068,-400000.0625,-12184.0,-1084.6600341796875,-400000.0625,-4644.43994140625,-400000.0625,-12808.66015625,-400000.0625
283.59085178375244,-400000.0625,-12155.009765625,-1056.77001953125,-400000.0625,-4617.2099609375,-400000.0625,-12775.1396484375,-400000.0625
283.6100640296936,-400000.0625,-12164.259765625,-1067.8800048828125,-400000.0625,-4627.08984375,-400000.0625,-12789.73046875,-400000.0625
283.63994908332825,-400000.0625,-12211.1796875,-1110.5999755859375,-400000.0625,-4670.91015625,-400000.0625,-12831.6904296875,-400000.0625
283.6514844894409,-400000.0625,-12225.150390625,-1123.47998046875,-400000.0625,-4683.06982421875,-400000.0625,-12845.6103515625,-400000.0625
283.6673605442047,-400000.0625,-12195.400390625,-1091.18994140625,-400000.0625,-4651.740234375,-400000.0625,-12810.900390625,-400000.0625
283.6874485015869,-400000.0625,-12157.2001953125,-1056.719970703125,-400000.0625,-4626.27001953125,-400000.0625,-12779.2900390625,-400000.0625
283.70235443115234,-400000.0625,-12168.98046875,-1067.969970703125,-400000.0625,-4634.9501953125,-400000.0625,-12789.2998046875,-400000.0625
283.715847492218,-400000.0625,-12215.8095703125,-1110.7900390625,-400000.0625,-4671.14990234375,-400000.0625,-12829.400390625,-400000.0625
283.74500250816345,-400000.0625,-12229.8701171875,-1120.81005859375,-400000.0625,-4679.6298828125,-400000.0625,-12841.8896484375,-400000.0625
283.76119780540466,-400000.0625,-12187.150390625,-1084.800048828125,-400000.0625,-4645.5400390625,-400000.0625,-12809.7998046875,-400000.0625
283.7732195854187,-400000.0625,-12154.0595703125,-1055.6199951171875,-400000.0625,-4616.58984375,-400000.0625,-12777.51953125,-400000.0625
283.7923913002014,-400000.0625,-12168.26953125,-1066.8800048828125,-400000.0625,-4631.9501953125,-400000.0625,-12789.349609375,-400000.0625
283.8144154548645,-400000.0625,-12207.83984375,-1104.31005859375,-400000.0625,-4670.10009765625,-400000.0625,-12831.01953125,-400000.0625
283.8325307369232,-400000.0625,-12219.5703125,-1116.800048828125,-400000.0625,-4678.009765625,-400000.0625,-12841.7998046875,-400000.0625
283.86915278434753,-400000.0625,-12188.9599609375,-1086.0400390625,-400000.0625,-4644.77978515625,-400000.0625,-12805.5595703125,-400000.0625
283.8822748661041,-400000.0625,-12156.2001953125,-1056.77001953125,-400000.0625,-4619.7900390625,-400000.0625,-12777.1904296875,-400000.0625
283.89521169662476,-400000.0625,-12174.1796875,-1072.449951171875,-400000.0625,-4638.72021484375,-400000.0625,-12788.33984375,-400000.0625
283.90765953063965,-400000.0625,-12215.23046875,-1109.97998046875,-400000.0625,-4672.2900390625,-400000.0625,-12830.5498046875,-400000.0625
283.92058968544006,-400000.0625,-12224.099609375,-1119.6600341796875,-400000.0625,-4680.77978515625,-400000.0625,-12843.849609375,-400000.0625
283.9318895339966,-400000.0625,-12192.2001953125,-1088.9100341796875,-400000.0625,-4648.8798828125,-400000.0625,-12809.23046875,-400000.0625
283.9444742202759,-400000.0625,-12154.33984375,-1054.719970703125,-400000.0625,-4617.68994140625,-400000.0625,-12778.7099609375,-400000.0625
283.9681429862976,-400000.0625,-12168.1201171875,-1066.300048828125,-400000.0625,-4629.60986328125,-400000.0625,-12793.2099609375,-400000.0625
283.9869520664215,-400000.0625,-12208.509765625,-1108.219970703125,-400000.0625,-4667.85009765625,-400000.0625,-12835.5498046875,-400000.0625
284.00162720680237,-400000.0625,-12221.8095703125,-1117.6600341796875,-400000.0625,-4678.14990234375,-400000.0625,-12845.4697265625,-400000.0625
284.0260908603668,-400000.0625,-12301.490234375,-1158.4300537109375,-400000.0625,-4667.14013671875,-400000.0625,-12871.3603515625,-400000.0625
284.04795002937317,-400000.0625,-12207.599609375,-1096.6300048828125,-400000.0625,-4657.83984375,-400000.0625,-12806.849609375,-400000.0625
284.13536167144775,-400000.0625,-12168.9296875,-1067.5,-400000.0625,-4638.2900390625,-400000.0625,-12777.3798828125,-400000.0625
284.17288541793823,-400000.0625,-12166.9296875,-1065.2099609375,-400000.0625,-4642.81982421875,-400000.0625,-12776.419921875,-400000.0625
284.2340364456177,-400000.0625,-12210.4697265625,-1101.449951171875,-400000.0625,-4669.47998046875,-400000.0625,-12818.150390625,-400000.0625
284.3626296520233,-400000.0625,-12223.580078125,-1111.6500244140625,-400000.0625,-4692.97998046875,-400000.0625,-12838.650390625,-400000.0625
284.4053044319153,-400000.0625,-12185.240234375,-1074.0799560546875,-400000.0625,-4667.0,-400000.0625,-12803.509765625,-400000.0625
284.42776799201965,-400000.0625,-12148.1904296875,-1042.8399658203125,-400000.0625,-4636.14990234375,-400000.0625,-12773.3203125,-400000.0625
284.4912052154541,-400000.0625,-12153.150390625,-1045.56005859375,-400000.0625,-4642.8701171875,-400000.0625,-12774.66015625,-400000.0625
284.6244566440582,-400000.0625,-12199.9296875,-1092.239990234375,-400000.0625,-4675.91015625,-400000.0625,-12799.9296875,-400000.0625
284.6827619075775,-400000.0625,-12202.4599609375,-1086.760009765625,-400000.0625,-4680.490234375,-400000.0625,-12799.83984375,-400000.0625
284.79774022102356,-400000.0625,-12142.7998046875,-1019.0999755859375,-400000.0625,-4637.14990234375,-400000.0625,-12804.990234375,-400000.0625
284.8738942146301,-400000.0625,-12209.8896484375,-1081.800048828125,-400000.0625,-4676.52978515625,-400000.0625,-12822.8203125,-400000.0625
284.9399755001068,-400000.0625,-12232.6904296875,-1112.1800537109375,-400000.0625,-4698.31982421875,-400000.0625,-12829.6396484375,-400000.0625
285.01665568351746,-400000.0625,-12201.5,-1082.0400390625,-400000.0625,-4676.91015625,-400000.0625,-12801.2197265625,-400000.0625
285.1054108142853,-400000.0625,-12175.1796875,-1047.4200439453125,-400000.0625,-4646.8701171875,-400000.0625,-12758.5400390625,-400000.0625
285.14015340805054,-400000.0625,-12170.2197265625,-1039.9300537109375,-400000.0625,-4642.52978515625,-400000.0625,-12768.7001953125,-400000.0625
285.19385504722595,-400000.0625,-12218.0,-1079.3699951171875,-400000.0625,-4669.7099609375,-400000.0625,-12805.3203125,-400000.0625
285.27282786369324,-400000.0625,-12231.5400390625,-1096.9200439453125,-400000.0625,-4696.7001953125,-400000.0625,-12822.2998046875,-400000.0625
285.33389616012573,-400000.0625,-12209.3701171875,-1073.1199951171875,-400000.0625,-4674.009765625,-400000.0625,-12819.580078125,-400000.0625
285.4729516506195,-400000.0625,-12172.9404296875,-1030.4000244140625,-400000.0625,-4641.91015625,-400000.0625,-12768.2197265625,-400000.0625
285.52010679244995,-400000.0625,-12222.33984375,-1076.4100341796875,-400000.0625,-4683.06982421875,-400000.0625,-12807.66015625,-400000.0625
285.5833320617676,-400000.0625,-12243.1298828125,-1092.2900390625,-400000.0625,-4697.18017578125,-400000.0625,-12823.4404296875,-400000.0625
285.6427643299103,-400000.0625,-12224.8701171875,-1077.699951171875,-400000.0625,-4685.5498046875,-400000.0625,-12807.0400390625,-400000.0625
285.7193145751953,-400000.0625,-12183.1396484375,-1037.8800048828125,-400000.0625,-4646.02001953125,-400000.0625,-12765.1201171875,-400000.0625
285.7854952812195,-400000.0625,-12179.419921875,-1031.3499755859375,-400000.0625,-4640.2001953125,-400000.0625,-12759.16015625,-400000.0625
285.86554765701294,-400000.0625,-12220.099609375,-1068.2099609375,-400000.0625,-4679.8701171875,-400000.0625,-12797.01953125,-400000.0625
285.8976445198059,-400000.0625,-12249.900390625,-1090.8599853515625,-400000.0625,-4696.89013671875,-400000.0625,-12813.1904296875,-400000.0625
285.96648144721985,-400000.0625,-12238.1201171875,-1077.3199462890625,-400000.0625,-4682.490234375,-400000.0625,-12793.01953125,-400000.0625
286.06053495407104,-400000.0625,-12195.9697265625,-1040.510009765625,-400000.0625,-4638.9599609375,-400000.0625,-12760.6396484375,-400000.0625
286.07112860679626,-400000.0625,-12189.580078125,-1034.68994140625,-400000.0625,-4636.47998046875,-400000.0625,-12755.16015625,-400000.0625
286.10214948654175,-400000.0625,-12230.25,-1068.9300537109375,-400000.0625,-4673.2001953125,-400000.0625,-12790.9697265625,-400000.0625
286.116934299469,-400000.0625,-12258.7197265625,-1097.43994140625,-400000.0625,-4699.27978515625,-400000.0625,-12817.33984375,-400000.0625
286.13175225257874,-400000.0625,-12239.650390625,-1081.4200439453125,-400000.0625,-4685.93017578125,-400000.0625,-12792.8701171875,-400000.0625
286.14422821998596,-400000.0625,-12198.58984375,-1042.56005859375,-400000.0625,-4648.97021484375,-400000.0625,-12754.3896484375,-400000.0625
286.1533029079437,-400000.0625,-12187.3896484375,-1040.3599853515625,-400000.0625,-4639.669921875,-400000.0625,-12751.009765625,-400000.0625
286.16876769065857,-400000.0625,-12228.8701171875,-1077.27001953125,-400000.0625,-4675.33984375,-400000.0625,-12787.0595703125,-400000.0625
286.1808922290802,-400000.0625,-12262.0595703125,-1104.3499755859375,-400000.0625,-4700.419921875,-400000.0625,-12815.4296875,-400000.0625
286.2109236717224,-400000.0625,-12235.740234375,-1080.699951171875,-400000.0625,-4679.2998046875,-400000.0625,-12798.3603515625,-400000.0625
286.2234983444214,-400000.0625,-12194.58984375,-1039.8399658203125,-400000.0625,-4644.10986328125,-400000.0625,-12761.6904296875,-400000.0625
286.235652923584,-400000.0625,-12187.9599609375,-1034.4000244140625,-400000.0625,-4638.2001953125,-400000.0625,-12754.9697265625,-400000.0625
286.24853348731995,-400000.0625,-12222.0498046875,-1069.260009765625,-400000.0625,-4670.10009765625,-400000.0625,-12791.1103515625,-400000.0625
286.26435446739197,-400000.0625,-12251.9501953125,-1097.77001953125,-400000.0625,-4701.3798828125,-400000.0625,-12821.009765625,-400000.0625
286.27482318878174,-400000.0625,-12232.830078125,-1082.7099609375,-400000.0625,-4686.02001953125,-400000.0625,-12797.0703125,-400000.0625
286.2911539077759,-400000.0625,-12191.33984375,-1045.3199462890625,-400000.0625,-4642.52978515625,-400000.0625,-12758.6904296875,-400000.0625
286.3164300918579,-400000.0625,-12182.0498046875,-1034.780029296875,-400000.0625,-4631.08984375,-400000.0625,-12751.91015625,-400000.0625
286.3307614326477,-400000.0625,-12220.099609375,-1067.72998046875,-400000.0625,-4668.9501953125,-400000.0625,-12789.8203125,-400000.0625
286.34687519073486,-400000.0625,-12254.0,-1096.9200439453125,-400000.0625,-4700.60986328125,-400000.0625,-12819.48046875,-400000.0625
286.36261010169983,-400000.0625,-12230.349609375,-1078.0799560546875,-400000.0625,-4683.5400390625,-400000.0625,-12800.0302734375,-400000.0625
286.374874830246,-400000.0625,-12189.490234375,-1040.030029296875,-400000.0625,-4645.16015625,-400000.0625,-12756.400390625,-400000.0625
286.3873691558838,-400000.0625,-12181.240234375,-1030.449951171875,-400000.0625,-4632.56982421875,-400000.0625,-12746.33984375,-400000.0625
286.400625705719,-400000.0625,-12212.23046875,-1062.6800537109375,-400000.0625,-4658.41015625,-400000.0625,-12783.240234375,-400000.0625
286.43775033950806,-400000.0625,-12245.8896484375,-1092.239990234375,-400000.0625,-4692.56005859375,-400000.0625,-12808.51953125,-400000.0625
286.45742440223694,-400000.0625,-12230.400390625,-1078.6500244140625,-400000.0625,-4680.919921875,-400000.0625,-12792.5400390625,-400000.0625
286.47036719322205,-400000.0625,-12188.25,-1039.8900146484375,-400000.0625,-4641.91015625,-400000.0625,-12758.6396484375,-400000.0625
286.48133397102356,-400000.0625,-12181.08984375,-1028.5899658203125,-400000.0625,-4635.759765625,-400000.0625,-12752.33984375,-400000.0625
286.4956912994385,-400000.0625,-12217.669921875,-1063.6800537109375,-400000.0625,-4673.2001953125,-400000.0625,-12787.4404296875,-400000.0625
286.59788846969604,-400000.0625,-12291.0,-1116.0899658203125,-400000.0625,-4672.85986328125,-400000.0625,-12820.8203125,-400000.0625
286.6892993450165,-400000.0625,-12195.6396484375,-1038.3599853515625,-400000.0625,-4640.06005859375,-400000.0625,-12758.1103515625,-400000.0625
286.73022532463074,-400000.0625,-12180.51953125,-1026.9599609375,-400000.0625,-4638.85986328125,-400000.0625,-12741.419921875,-400000.0625
286.79400539398193,-400000.0625,-12215.5703125,-1058.9100341796875,-400000.0625,-4666.0400390625,-400000.0625,-12782.48046875,-400000.0625
286.87105655670166,-400000.0625,-12253.099609375,-1088.5699462890625,-400000.0625,-4698.89990234375,-400000.0625,-12816.1396484375,-400000.0625
286.9628608226776,-400000.0625,-12240.169921875,-1079.75,-400000.0625,-4687.740234375,-400000.0625,-12810.330078125,-400000.0625
286.9868609905243,-400000.0625,-12202.3095703125,-1039.1700439453125,-400000.0625,-4645.39990234375,-400000.0625,-12775.23046875,-400000.0625
287.05120158195496,-400000.0625,-12192.5400390625,-1043.030029296875,-400000.0625,-4638.10009765625,-400000.0625,-12745.7197265625,-400000.0625
287.18035197257996,-400000.0625,-12256.0498046875,-1090.6700439453125,-400000.0625,-4693.93994140625,-400000.0625,-12812.330078125,-400000.0625
287.2417507171631,-400000.0625,-12237.41015625,-1076.97998046875,-400000.0625,-4685.259765625,-400000.0625,-12813.1396484375,-400000.0625
287.3766829967499,-400000.0625,-12183.759765625,-1018.9099731445312,-400000.0625,-4638.2900390625,-400000.0625,-12756.0595703125,-400000.0625
287.51427125930786,-400000.0625,-12227.6796875,-1016.8599853515625,-400000.0625,-4684.35009765625,-400000.0625,-12902.8798828125,-400000.0625
287.57422709465027,-400000.0625,-12219.2900390625,-1007.4099731445312,-400000.0625,-4679.919921875,-400000.0625,-12902.4501953125,-400000.0625
287.6327633857727,-400000.0625,-12205.5498046875,-1027.969970703125,-400000.0625,-4651.31005859375,-400000.0625,-12795.2099609375,-400000.0625
287.69783997535706,-400000.0625,-12176.6103515625,-1016.5700073242188,-400000.0625,-4641.6298828125,-400000.0625,-12759.9697265625,-400000.0625
287.76684856414795,-400000.0625,-12207.080078125,-1038.8900146484375,-400000.0625,-4666.52001953125,-400000.0625,-12784.76953125,-400000.0625
287.8228962421417,-400000.0625,-12245.7998046875,-1074.6500244140625,-400000.0625,-4690.41015625,-400000.0625,-12828.400390625,-400000.0625
287.8824908733368,-400000.0625,-12254.1904296875,-1077.3199462890625,-400000.0625,-4692.4599609375,-400000.0625,-12819.8203125,-400000.0625
287.97719287872314,-400000.0625,-12205.8896484375,-1033.4000244140625,-400000.0625,-4657.27001953125,-400000.0625,-12784.8603515625,-400000.0625
288.04152488708496,-400000.0625,-12190.6298828125,-1013.469970703125,-400000.0625,-4635.91015625,-400000.0625,-12765.3095703125,-400000.0625
288.14087891578674,-400000.0625,-12262.16015625,-1081.8499755859375,-400000.0625,-4693.22021484375,-400000.0625,-12824.6298828125,-400000.0625
288.22027564048767,-400000.0625,-12224.009765625,-1043.4200439453125,-400000.0625,-4653.7900390625,-400000.0625,-12798.41015625,-400000.0625
288.27906346321106,-400000.0625,-12217.0,-1036.97998046875,-400000.0625,-4647.97021484375,-400000.0625,-12801.1201171875,-400000.0625
288.3357720375061,-400000.0625,-12219.48046875,-1036.97998046875,-400000.0625,-4646.97021484375,-400000.0625,-12792.919921875,-400000.0625
288.41809010505676,-400000.0625,-12262.16015625,-1076.7900390625,-400000.0625,-4688.5498046875,-400000.0625,-12839.509765625,-400000.0625
288.4630129337311,-400000.0625,-12253.3798828125,-1070.31005859375,-400000.0625,-4681.97021484375,-400000.0625,-12837.0302734375,-400000.0625
288.52679443359375,-400000.0625,-12260.3896484375,-1076.97998046875,-400000.0625,-4682.58984375,-400000.0625,-12842.080078125,-400000.0625
288.54485607147217,-400000.0625,-12221.1904296875,-1044.6500244140625,-400000.0625,-4651.68994140625,-400000.0625,-12805.1796875,-400000.0625
288.5617353916168,-400000.0625,-12191.8701171875,-1017.1900024414062,-400000.0625,-4627.75,-400000.0625,-12778.0498046875,-400000.0625
288.5819709300995,-400000.0625,-12216.0400390625,-1038.1700439453125,-400000.0625,-4647.06005859375,-400000.0625,-12801.080078125,-400000.0625
288.60836720466614,-400000.0625,-12260.6298828125,-1078.27001953125,-400000.0625,-4688.68994140625,-400000.0625,-12840.650390625,-400000.0625
288.6213581562042,-400000.0625,-12261.1103515625,-1080.469970703125,-400000.0625,-4686.169921875,-400000.0625,-12845.330078125,-400000.0625
288.6375353336334,-400000.0625,-12217.3798828125,-1044.0400390625,-400000.0625,-4650.02001953125,-400000.0625,-12813.0498046875,-400000.0625
288.6486437320709,-400000.0625,-12191.1103515625,-1017.280029296875,-400000.0625,-4626.7998046875,-400000.0625,-12782.0498046875,-400000.0625
288.6617238521576,-400000.0625,-12214.3798828125,-1034.3599853515625,-400000.0625,-4647.259765625,-400000.0625,-12800.2197265625,-400000.0625
288.67390060424805,-400000.0625,-12252.9501953125,-1074.0799560546875,-400000.0625,-4689.02978515625,-400000.0625,-12841.75,-400000.0625
288.6855318546295,-400000.0625,-12257.2001953125,-1078.1300048828125,-400000.0625,-4687.740234375,-400000.0625,-12843.849609375,-400000.0625
288.7112374305725,-400000.0625,-12222.91015625,-1043.3699951171875,-400000.0625,-4648.97021484375,-400000.0625,-12805.1298828125,-400000.0625
288.72562766075134,-400000.0625,-12195.16015625,-1020.9600219726562,-400000.0625,-4627.89990234375,-400000.0625,-12775.23046875,-400000.0625
288.7388138771057,-400000.0625,-12211.5595703125,-1037.449951171875,-400000.0625,-4646.06005859375,-400000.0625,-12799.7900390625,-400000.0625
288.749525308609,-400000.0625,-12250.7099609375,-1068.68994140625,-400000.0625,-4680.10986328125,-400000.0625,-12846.08984375,-400000.0625
288.7678325176239,-400000.0625,-12259.91015625,-1074.5,-400000.0625,-4687.830078125,-400000.0625,-12848.51953125,-400000.0625
288.78267884254456,-400000.0625,-12222.8603515625,-1045.27001953125,-400000.0625,-4653.60009765625,-400000.0625,-12811.759765625,-400000.0625
288.79644775390625,-400000.0625,-12194.4404296875,-1019.6699829101562,-400000.0625,-4626.56005859375,-400000.0625,-12784.4296875,-400000.0625
288.8214101791382,-400000.0625,-12214.759765625,-1037.9300537109375,-400000.0625,-4650.77978515625,-400000.0625,-12800.41015625,-400000.0625
288.8360826969147,-400000.0625,-12256.6201171875,-1076.4100341796875,-400000.0625,-4686.830078125,-400000.0625,-12841.080078125,-400000.0625
288.85180377960205,-400000.0625,-12259.8203125,-1080.800048828125,-400000.0625,-4684.06982421875,-400000.0625,-12845.330078125,-400000.0625
288.86369585990906,-400000.0625,-12221.76953125,-1048.3699951171875,-400000.0625,-4650.2099609375,-400000.0625,-12806.7001953125,-400000.0625
288.87871861457825,-400000.0625,-12193.490234375,-1021.1900024414062,-400000.0625,-4626.7001953125,-400000.0625,-12779.08984375,-400000.0625
288.89411997795105,-400000.0625,-12216.1904296875,-1040.550048828125,-400000.0625,-4651.1201171875,-400000.0625,-12800.3603515625,-400000.0625
288.9119155406952,-400000.0625,-12262.8701171875,-1082.6099853515625,-400000.0625,-4691.60009765625,-400000.0625,-12843.849609375,-400000.0625
288.9446132183075,-400000.0625,-12263.25,-1085.3800048828125,-400000.0625,-4690.4599609375,-400000.0625,-12845.08984375,-400000.0625
288.9596092700958,-400000.0625,-12224.8203125,-1046.8499755859375,-400000.0625,-4654.4599609375,-400000.0625,-12809.75,-400000.0625
288.9711754322052,-400000.0625,-12199.740234375,-1023.0499877929688,-400000.0625,-4631.56982421875,-400000.0625,-12786.8203125,-400000.0625
288.98899722099304,-400000.0625,-12219.5703125,-1041.699951171875,-400000.0625,-4650.64013671875,-400000.0625,-12805.080078125,-400000.0625
289.00149726867676,-400000.0625,-12261.6796875,-1083.800048828125,-400000.0625,-4689.06982421875,-400000.0625,-12846.900390625,-400000.0625
289.0119504928589,-400000.0625,-12268.2099609375,-1086.6199951171875,-400000.0625,-4694.83984375,-400000.0625,-12849.9501953125,-400000.0625
289.10036754608154,-400000.0625,-12266.259765625,-1089.3299560546875,-400000.0625,-4684.02001953125,-400000.0625,-12842.3701171875,-400000.0625
289.1828260421753,-400000.0625,-12265.01953125,-1093.239990234375,-400000.0625,-4688.06982421875,-400000.0625,-12851.1396484375,-400000.0625
289.2602310180664,-400000.0625,-12228.16015625,-1061.43994140625,-400000.0625,-4661.18017578125,-400000.0625,-12821.8701171875,-400000.0625
289.30008935928345,-400000.0625,-12196.7802734375,-1038.27001953125,-400000.0625,-4625.64990234375,-400000.0625,-12792.58984375,-400000.0625
289.3808081150055,-400000.0625,-12210.6103515625,-1049.6099853515625,-400000.0625,-4641.009765625,-400000.0625,-12803.7001953125,-400000.0625
289.4191484451294,-400000.0625,-12259.3896484375,-1099.300048828125,-400000.0625,-4683.830078125,-400000.0625,-12853.0,-400000.0625
289.52817964553833,-400000.0625,-12259.580078125,-1093.719970703125,-400000.0625,-4685.16015625,-400000.0625,-12870.5498046875,-400000.0625
289.62543773651123,-400000.0625,-12254.0498046875,-1093.199951171875,-400000.0625,-4680.10986328125,-400000.0625,-12864.259765625,-400000.0625
289.69405913352966,-400000.0625,-12219.4296875,-1065.449951171875,-400000.0625,-4646.02001953125,-400000.0625,-12809.3701171875,-400000.0625
289.73939085006714,-400000.0625,-12254.5302734375,-1098.300048828125,-400000.0625,-4685.740234375,-400000.0625,-12844.1298828125,-400000.0625
289.8168158531189,-400000.0625,-12272.2197265625,-1113.510009765625,-400000.0625,-4691.64990234375,-400000.0625,-12859.25,-400000.0625
289.9229142665863,-400000.0625,-12223.7197265625,-1082.469970703125,-400000.0625,-4658.18017578125,-400000.0625,-12838.7001953125,-400000.0625
290.0136139392853,-400000.0625,-12198.0703125,-1053.6199951171875,-400000.0625,-4635.56982421875,-400000.0625,-12819.9599609375,-400000.0625
290.06934809684753,-400000.0625,-12244.75,-1094.06005859375,-400000.0625,-4683.259765625,-400000.0625,-12863.919921875,-400000.0625
290.1299817562103,-400000.0625,-12260.9599609375,-1112.4100341796875,-400000.0625,-4691.27001953125,-400000.0625,-12881.759765625,-400000.0625
290.1916615962982,-400000.0625,-12236.0703125,-1089.1400146484375,-400000.0625,-4667.08984375,-400000.0625,-12852.3798828125,-400000.0625
290.2784740924835,-400000.0625,-12201.41015625,-1061.300048828125,-400000.0625,-4631.66015625,-400000.0625,-12813.8603515625,-400000.0625
290.3155200481415,-400000.0625,-12247.0400390625,-1107.260009765625,-400000.0625,-4670.3798828125,-400000.0625,-12864.1103515625,-400000.0625
290.3903896808624,-400000.0625,-12250.1904296875,-1108.4599609375,-400000.0625,-4678.68017578125,-400000.0625,-12868.9296875,-400000.0625
290.44425916671753,-400000.0625,-12267.919921875,-1127.4300537109375,-400000.0625,-4693.3701171875,-400000.0625,-12879.330078125,-400000.0625
290.53323340415955,-400000.0625,-12230.4501953125,-1096.530029296875,-400000.0625,-4664.60986328125,-400000.0625,-12851.5703125,-400000.0625
290.63941192626953,-400000.0625,-12203.169921875,-1071.4100341796875,-400000.0625,-4633.240234375,-400000.0625,-12829.830078125,-400000.0625
290.84050393104553,-400000.0625,-12247.51953125,-1104.550048828125,-400000.0625,-4655.080078125,-400000.0625,-12869.7900390625,-400000.0625
290.8942952156067,-400000.0625,-12221.76953125,-1086.3800048828125,-400000.0625,-4634.56982421875,-400000.0625,-12832.740234375,-400000.0625
291.00062823295593,-400000.0625,-12215.849609375,-1077.5999755859375,-400000.0625,-4629.89990234375,-400000.0625,-12833.8798828125,-400000.0625
291.0364499092102,-400000.0625,-12255.7197265625,-1113.030029296875,-400000.0625,-4667.81005859375,-400000.0625,-12879.4697265625,-400000.0625
291.04942893981934,-400000.0625,-12275.509765625,-1131.3900146484375,-400000.0625,-4685.5,-400000.0625,-12897.6396484375,-400000.0625
291.06206464767456,-400000.0625,-12245.75,-1102.5,-400000.0625,-4660.75,-400000.0625,-12867.98046875,-400000.0625
291.07508087158203,-400000.0625,-12216.4697265625,-1075.550048828125,-400000.0625,-4634.85986328125,-400000.0625,-12830.8798828125,-400000.0625
291.0910701751709,-400000.0625,-12217.240234375,-1074.7900390625,-400000.0625,-4636.0,-400000.0625,-12833.169921875,-400000.0625
291.1025638580322,-400000.0625,-12255.240234375,-1111.699951171875,-400000.0625,-4669.91015625,-400000.0625,-12873.7900390625,-400000.0625
291.1295475959778,-400000.0625,-12273.599609375,-1127.8199462890625,-400000.0625,-4679.5400390625,-400000.0625,-12892.5302734375,-400000.0625
291.14622473716736,-400000.0625,-12246.66015625,-1103.5,-400000.0625,-4659.89013671875,-400000.0625,-12868.5,-400000.0625
291.16129183769226,-400000.0625,-12208.8896484375,-1066.969970703125,-400000.0625,-4629.08984375,-400000.0625,-12831.400390625,-400000.0625
291.1758682727814,-400000.0625,-12214.419921875,-1078.1800537109375,-400000.0625,-4628.93994140625,-400000.0625,-12832.830078125,-400000.0625
291.1876451969147,-400000.0625,-12254.099609375,-1117.6099853515625,-400000.0625,-4666.419921875,-400000.0625,-12877.990234375,-400000.0625
291.2027702331543,-400000.0625,-12285.08984375,-1139.969970703125,-400000.0625,-4694.83984375,-400000.0625,-12899.1103515625,-400000.0625
291.22940397262573,-400000.0625,-12254.759765625,-1114.3699951171875,-400000.0625,-4668.08984375,-400000.0625,-12870.740234375,-400000.0625
291.24471616744995,-400000.0625,-12214.330078125,-1077.3199462890625,-400000.0625,-4628.47021484375,-400000.0625,-12830.6904296875,-400000.0625
291.25536036491394,-400000.0625,-12221.48046875,-1080.469970703125,-400000.0625,-4634.669921875,-400000.0625,-12834.6904296875,-400000.0625
291.2701003551483,-400000.0625,-12262.5400390625,-1118.7099609375,-400000.0625,-4670.47998046875,-400000.0625,-12876.75,-400000.0625
291.28615975379944,-400000.0625,-12282.08984375,-1139.31005859375,-400000.0625,-4688.06982421875,-400000.0625,-12898.259765625,-400000.0625
291.29610776901245,-400000.0625,-12252.6201171875,-1112.4100341796875,-400000.0625,-4665.759765625,-400000.0625,-12870.599609375,-400000.0625
291.3069224357605,-400000.0625,-12215.1396484375,-1076.27001953125,-400000.0625,-4629.56005859375,-400000.0625,-12832.9296875,-400000.0625
291.3290390968323,-400000.0625,-12220.2900390625,-1080.1800537109375,-400000.0625,-4629.18017578125,-400000.0625,-12843.66015625,-400000.0625
291.34009647369385,-400000.0625,-12261.4404296875,-1120.52001953125,-400000.0625,-4671.2900390625,-400000.0625,-12879.5595703125,-400000.0625
291.3550865650177,-400000.0625,-12282.66015625,-1140.02001953125,-400000.0625,-4693.56005859375,-400000.0625,-12899.9697265625,-400000.0625
291.367746591568,-400000.0625,-12255.76953125,-1114.6099853515625,-400000.0625,-4664.419921875,-400000.0625,-12871.5498046875,-400000.0625
291.3802397251129,-400000.0625,-12215.7099609375,-1078.219970703125,-400000.0625,-4629.60986328125,-400000.0625,-12832.98046875,-400000.0625
291.3920428752899,-400000.0625,-12221.91015625,-1085.469970703125,-400000.0625,-4631.47021484375,-400000.0625,-12836.650390625,-400000.0625
291.402734041214,-400000.0625,-12267.349609375,-1124.719970703125,-400000.0625,-4665.66015625,-400000.0625,-12875.9404296875,-400000.0625
291.4167902469635,-400000.0625,-12285.8095703125,-1142.5,-400000.0625,-4692.169921875,-400000.0625,-12898.01953125,-400000.0625
291.4465034008026,-400000.0625,-12254.5302734375,-1115.699951171875,-400000.0625,-4669.43017578125,-400000.0625,-12868.41015625,-400000.0625
291.45940947532654,-400000.0625,-12217.330078125,-1083.6600341796875,-400000.0625,-4634.0498046875,-400000.0625,-12831.6396484375,-400000.0625
291.47562742233276,-400000.0625,-12225.25,-1087.9000244140625,-400000.0625,-4637.2900390625,-400000.0625,-12837.650390625,-400000.0625
291.4921555519104,-400000.0625,-12268.8798828125,-1123.7099609375,-400000.0625,-4675.77001953125,-400000.0625,-12878.849609375,-400000.0625
291.50557470321655,-400000.0625,-12291.0,-1144.9300537109375,-400000.0625,-4691.22021484375,-400000.0625,-12898.349609375,-400000.0625
291.53053641319275,-400000.0625,-12308.6904296875,-1145.4100341796875,-400000.0625,-4636.77001953125,-400000.0625,-12854.9599609375,-400000.0625
291.59449648857117,-400000.0625,-12247.23046875,-1108.4100341796875,-400000.0625,-4641.25,-400000.0625,-12836.0302734375,-400000.0625
291.67228984832764,-400000.0625,-12264.349609375,-1135.9200439453125,-400000.0625,-4682.72998046875,-400000.0625,-12870.4599609375,-400000.0625
291.74716997146606,-400000.0625,-12267.2998046875,-1149.0799560546875,-400000.0625,-4698.1298828125,-400000.0625,-12893.490234375,-400000.0625
291.8084888458252,-400000.0625,-12249.1904296875,-1124.6700439453125,-400000.0625,-4685.1201171875,-400000.0625,-12868.83984375,-400000.0625
291.8644857406616,-400000.0625,-12204.26953125,-1083.0899658203125,-400000.0625,-4645.490234375,-400000.0625,-12820.0498046875,-400000.0625
291.957172870636,-400000.0625,-12208.3203125,-1089.239990234375,-400000.0625,-4645.06005859375,-400000.0625,-12824.7802734375,-400000.0625
292.0944838523865,-400000.0625,-12274.599609375,-1152.800048828125,-400000.0625,-4703.47021484375,-400000.0625,-12885.759765625,-400000.0625
292.1717858314514,-400000.0625,-12209.6103515625,-1095.199951171875,-400000.0625,-4654.740234375,-400000.0625,-12831.400390625,-400000.0625
292.29921293258667,-400000.0625,-12254.099609375,-1136.4000244140625,-400000.0625,-4690.83984375,-400000.0625,-12867.740234375,-400000.0625
292.3681163787842,-400000.0625,-12284.849609375,-1165.06005859375,-400000.0625,-4713.2001953125,-400000.0625,-12894.349609375,-400000.0625
292.47306728363037,-400000.0625,-12268.400390625,-1149.4599609375,-400000.0625,-4701.66015625,-400000.0625,-12877.080078125,-400000.0625
292.5180561542511,-400000.0625,-12221.580078125,-1106.2099609375,-400000.0625,-4662.31982421875,-400000.0625,-12831.9296875,-400000.0625
292.5746922492981,-400000.0625,-12215.5703125,-1099.780029296875,-400000.0625,-4654.5498046875,-400000.0625,-12827.919921875,-400000.0625
292.6293406486511,-400000.0625,-12268.16015625,-1147.5999755859375,-400000.0625,-4693.7900390625,-400000.0625,-12857.2998046875,-400000.0625
292.6857373714447,-400000.0625,-12279.1298828125,-1162.239990234375,-400000.0625,-4705.91015625,-400000.0625,-12873.3701171875,-400000.0625
292.83564162254333,-400000.0625,-12261.4404296875,-1142.31005859375,-400000.0625,-4694.1298828125,-400000.0625,-12849.0498046875,-400000.0625
292.8770639896393,-400000.0625,-12226.919921875,-1113.030029296875,-400000.0625,-4658.02978515625,-400000.0625,-12816.33984375,-400000.0625
292.9382658004761,-400000.0625,-12248.7998046875,-1128.239990234375,-400000.0625,-4687.740234375,-400000.0625,-12861.919921875,-400000.0625
293.0132050514221,-400000.0625,-12282.66015625,-1155.280029296875,-400000.0625,-4719.4501953125,-400000.0625,-12895.490234375,-400000.0625
293.20722460746765,-400000.0625,-12200.3095703125,-1082.7099609375,-400000.0625,-4645.06005859375,-400000.0625,-12821.9599609375,-400000.0625
293.26445388793945,-400000.0625,-12237.5498046875,-1115.3699951171875,-400000.0625,-4677.68017578125,-400000.0625,-12853.48046875,-400000.0625
293.3232452869415,-400000.0625,-12270.6904296875,-1146.3199462890625,-400000.0625,-4721.2099609375,-400000.0625,-12887.4296875,-400000.0625
293.38703536987305,-400000.0625,-12266.6396484375,-1144.219970703125,-400000.0625,-4706.759765625,-400000.0625,-12877.7001953125,-400000.0625
293.4693982601166,-400000.0625,-12225.6298828125,-1101.3499755859375,-400000.0625,-4669.0498046875,-400000.0625,-12834.169921875,-400000.0625
293.54959535598755,-400000.0625,-12207.080078125,-1083.4200439453125,-400000.0625,-4650.02001953125,-400000.0625,-12821.2900390625,-400000.0625
293.56671714782715,-400000.0625,-12243.2197265625,-1115.8900146484375,-400000.0625,-4686.5498046875,-400000.0625,-12852.33984375,-400000.0625
293.5901379585266,-400000.0625,-12277.3203125,-1145.739990234375,-400000.0625,-4711.43994140625,-400000.0625,-12887.8095703125,-400000.0625
293.62631487846375,-400000.0625,-12269.1201171875,-1136.260009765625,-400000.0625,-4703.240234375,-400000.0625,-12878.75,-400000.0625
293.64277029037476,-400000.0625,-12225.009765625,-1097.6800537109375,-400000.0625,-4664.66015625,-400000.0625,-12839.1298828125,-400000.0625
293.65741896629333,-400000.0625,-12204.4599609375,-1079.6099853515625,-400000.0625,-4645.6298828125,-400000.0625,-12824.1103515625,-400000.0625
293.6754343509674,-400000.0625,-12241.75,-1116.4200439453125,-400000.0625,-4679.6298828125,-400000.0625,-12854.2001953125,-400000.0625
293.69137501716614,-400000.0625,-12281.6103515625,-1151.699951171875,-400000.0625,-4712.43994140625,-400000.0625,-12885.759765625,-400000.0625
293.723402261734,-400000.0625,-12274.080078125,-1139.9300537109375,-400000.0625,-4701.66015625,-400000.0625,-12878.9404296875,-400000.0625
293.74206137657166,-400000.0625,-12226.2998046875,-1095.6300048828125,-400000.0625,-4657.89013671875,-400000.0625,-12839.990234375,-400000.0625
293.7554361820221,-400000.0625,-12204.080078125,-1082.4200439453125,-400000.0625,-4643.25,-400000.0625,-12819.150390625,-400000.0625
293.76889514923096,-400000.0625,-12238.83984375,-1121.0,-400000.0625,-4678.97021484375,-400000.0625,-12851.91015625,-400000.0625
293.781165599823,-400000.0625,-12282.2802734375,-1158.18994140625,-400000.0625,-4715.490234375,-400000.0625,-12885.8603515625,-400000.0625
293.7939455509186,-400000.0625,-12273.599609375,-1146.56005859375,-400000.0625,-4706.2900390625,-400000.0625,-12868.3095703125,-400000.0625
293.82609152793884,-400000.0625,-12229.4404296875,-1105.9300537109375,-400000.0625,-4667.66015625,-400000.0625,-12830.0703125,-400000.0625
293.84016942977905,-400000.0625,-12206.990234375,-1088.050048828125,-400000.0625,-4647.5400390625,-400000.0625,-12815.330078125,-400000.0625
293.8532929420471,-400000.0625,-12242.75,-1118.6099853515625,-400000.0625,-4677.68017578125,-400000.0625,-12847.0400390625,-400000.0625
293.8674883842468,-400000.0625,-12282.7998046875,-1149.93994140625,-400000.0625,-4707.669921875,-400000.0625,-12887.4296875,-400000.0625
293.88177514076233,-400000.0625,-12267.830078125,-1142.449951171875,-400000.0625,-4695.18017578125,-400000.0625,-12876.23046875,-400000.0625
293.90101981163025,-400000.0625,-12225.7197265625,-1104.550048828125,-400000.0625,-4657.31982421875,-400000.0625,-12834.169921875,-400000.0625
293.93613028526306,-400000.0625,-12216.2802734375,-1091.5799560546875,-400000.0625,-4655.64990234375,-400000.0625,-12821.490234375,-400000.0625
293.9502146244049,-400000.0625,-12244.66015625,-1117.7099609375,-400000.0625,-4688.02978515625,-400000.0625,-12848.900390625,-400000.0625
293.96539211273193,-400000.0625,-12283.9501953125,-1151.8499755859375,-400000.0625,-4712.6298828125,-400000.0625,-12884.759765625,-400000.0625
293.97742199897766,-400000.0625,-12272.41015625,-1142.8800048828125,-400000.0625,-4701.81005859375,-400000.0625,-12872.5498046875,-400000.0625
293.99328541755676,-400000.0625,-12228.25,-1104.2099609375,-400000.0625,-4668.3798828125,-400000.0625,-12831.2099609375,-400000.0625
294.00718545913696,-400000.0625,-12209.849609375,-1081.93994140625,-400000.0625,-4648.919921875,-400000.0625,-12816.240234375,-400000.0625
294.0341920852661,-400000.0625,-12242.0302734375,-1115.6600341796875,-400000.0625,-4677.9599609375,-400000.0625,-12845.7998046875,-400000.0625
294.0930964946747,-400000.0625,-12254.2900390625,-1116.6099853515625,-400000.0625,-4665.3798828125,-400000.0625,-12837.26953125,-400000.0625
294.1681580543518,-400000.0625,-12215.0,-1084.4200439453125,-400000.0625,-4658.31982421875,-400000.0625,-12807.1796875,-400000.0625
294.2289500236511,-400000.0625,-12236.599609375,-1112.6500244140625,-400000.0625,-4680.06005859375,-400000.0625,-12836.0302734375,-400000.0625
294.3186013698578,-400000.0625,-12268.58984375,-1142.1700439453125,-400000.0625,-4721.5498046875,-400000.0625,-12869.1201171875,-400000.0625
294.3733460903168,-400000.0625,-12261.8701171875,-1131.9599609375,-400000.0625,-4711.33984375,-400000.0625,-12859.3896484375,-400000.0625
294.47487616539,-400000.0625,-12197.2099609375,-1077.3199462890625,-400000.0625,-4662.31982421875,-400000.0625,-12802.5498046875,-400000.0625
294.5429446697235,-400000.0625,-12221.5302734375,-1095.8199462890625,-400000.0625,-4673.0498046875,-400000.0625,-12830.259765625,-400000.0625
294.64325070381165,-400000.0625,-12256.3896484375,-1130.530029296875,-400000.0625,-4703.0498046875,-400000.0625,-12866.259765625,-400000.0625
294.68994402885437,-400000.0625,-12253.0,-1126.5799560546875,-400000.0625,-4708.240234375,-400000.0625,-12859.4404296875,-400000.0625
294.73578357696533,-400000.0625,-12219.7197265625,-1096.6800537109375,-400000.0625,-4685.35009765625,-400000.0625,-12817.9599609375,-400000.0625
294.81314039230347,-400000.0625,-12193.009765625,-1067.9200439453125,-400000.0625,-4656.080078125,-400000.0625,-12799.8798828125,-400000.0625
294.86967968940735,-400000.0625,-12223.669921875,-1086.469970703125,-400000.0625,-4675.72021484375,-400000.0625,-12824.73046875,-400000.0625
294.93204164505005,-400000.0625,-12261.009765625,-1121.239990234375,-400000.0625,-4713.81982421875,-400000.0625,-12857.919921875,-400000.0625
295.04034066200256,-400000.0625,-12261.919921875,-1124.4300537109375,-400000.0625,-4714.5400390625,-400000.0625,-12865.5400390625,-400000.0625
295.0784361362457,-400000.0625,-12221.240234375,-1084.3299560546875,-400000.0625,-4671.47998046875,-400000.0625,-12824.919921875,-400000.0625
295.139945268631,-400000.0625,-12204.599609375,-1065.1099853515625,-400000.0625,-4657.509765625,-400000.0625,-12803.75,-400000.0625
295.179390668869,-400000.0625,-12232.16015625,-1088.9100341796875,-400000.0625,-4688.02978515625,-400000.0625,-12824.9697265625,-400000.0625
295.2460415363312,-400000.0625,-12270.0703125,-1117.469970703125,-400000.0625,-4707.6201171875,-400000.0625,-12869.7900390625,-400000.0625
295.3145570755005,-400000.0625,-12267.2998046875,-1115.8900146484375,-400000.0625,-4708.0498046875,-400000.0625,-12865.1201171875,-400000.0625
295.3956027030945,-400000.0625,-12230.2998046875,-1081.9000244140625,-400000.0625,-4672.0,-400000.0625,-12827.7802734375,-400000.0625
295.4346911907196,-400000.0625,-12203.3603515625,-1052.0,-400000.0625,-4647.5400390625,-400000.0625,-12803.080078125,-400000.0625
295.6614317893982,-400000.0625,-12213.1396484375,-1056.239990234375,-400000.0625,-4647.830078125,-400000.0625,-12809.7099609375,-400000.0625
295.6951472759247,-400000.0625,-12237.7900390625,-1076.6500244140625,-400000.0625,-4680.43994140625,-400000.0625,-12834.0703125,-400000.0625
295.7871780395508,-400000.0625,-12225.009765625,-1063.6300048828125,-400000.0625,-4657.83984375,-400000.0625,-12812.4697265625,-400000.0625
295.8208348751068,-400000.0625,-12245.990234375,-1076.3199462890625,-400000.0625,-4675.2900390625,-400000.0625,-12828.6904296875,-400000.0625
295.88829803466797,-400000.0625,-12287.4296875,-1119.3299560546875,-400000.0625,-4715.16015625,-400000.0625,-12873.509765625,-400000.0625
295.96463203430176,-400000.0625,-12289.48046875,-1117.22998046875,-400000.0625,-4710.2001953125,-400000.0625,-12867.8798828125,-400000.0625
296.0264735221863,-400000.0625,-12253.9501953125,-1089.1400146484375,-400000.0625,-4684.06982421875,-400000.0625,-12837.599609375,-400000.0625
296.0873508453369,-400000.0625,-12222.76953125,-1054.6700439453125,-400000.0625,-4645.58984375,-400000.0625,-12814.5703125,-400000.0625
296.1020963191986,-400000.0625,-12244.4599609375,-1075.93994140625,-400000.0625,-4667.85009765625,-400000.0625,-12837.75,-400000.0625
296.1195738315582,-400000.0625,-12287.900390625,-1116.1300048828125,-400000.0625,-4710.47998046875,-400000.0625,-12878.9404296875,-400000.0625
296.1327567100525,-400000.0625,-12292.91015625,-1121.0400390625,-400000.0625,-4713.72998046875,-400000.0625,-12884.7099609375,-400000.0625
296.162353515625,-400000.0625,-12253.0498046875,-1084.0899658203125,-400000.0625,-4680.8701171875,-400000.0625,-12846.5703125,-400000.0625
296.17426204681396,-400000.0625,-12221.669921875,-1055.6700439453125,-400000.0625,-4652.169921875,-400000.0625,-12815.099609375,-400000.0625
296.1900236606598,-400000.0625,-12244.1796875,-1074.4100341796875,-400000.0625,-4668.330078125,-400000.0625,-12835.3603515625,-400000.0625
296.20003032684326,-400000.0625,-12286.330078125,-1113.3699951171875,-400000.0625,-4708.39013671875,-400000.0625,-12879.3701171875,-400000.0625
296.21375846862793,-400000.0625,-12288.1904296875,-1117.280029296875,-400000.0625,-4707.3798828125,-400000.0625,-12881.7099609375,-400000.0625
296.2272517681122,-400000.0625,-12252.900390625,-1081.1800537109375,-400000.0625,-4671.52978515625,-400000.0625,-12845.759765625,-400000.0625
296.2424855232239,-400000.0625,-12223.5302734375,-1054.3800048828125,-400000.0625,-4644.2001953125,-400000.0625,-12819.3896484375,-400000.0625
296.2720091342926,-400000.0625,-12244.1796875,-1074.8900146484375,-400000.0625,-4672.14990234375,-400000.0625,-12841.7998046875,-400000.0625
296.2839546203613,-400000.0625,-12288.5703125,-1117.7099609375,-400000.0625,-4712.39013671875,-400000.0625,-12882.2802734375,-400000.0625
296.29746532440186,-400000.0625,-12296.76953125,-1121.760009765625,-400000.0625,-4712.6298828125,-400000.0625,-12883.7099609375,-400000.0625
296.3115077018738,-400000.0625,-12255.91015625,-1085.0899658203125,-400000.0625,-4679.77978515625,-400000.0625,-12843.9404296875,-400000.0625
296.32956409454346,-400000.0625,-12220.099609375,-1054.0999755859375,-400000.0625,-4651.259765625,-400000.0625,-12818.1904296875,-400000.0625
296.34194111824036,-400000.0625,-12246.08984375,-1074.9300537109375,-400000.0625,-4668.3798828125,-400000.0625,-12833.5498046875,-400000.0625
296.3539979457855,-400000.0625,-12285.1396484375,-1113.800048828125,-400000.0625,-4705.81005859375,-400000.0625,-12873.509765625,-400000.0625
296.37501096725464,-400000.0625,-12286.8603515625,-1118.1800537109375,-400000.0625,-4713.39013671875,-400000.0625,-12881.5703125,-400000.0625
296.3878698348999,-400000.0625,-12255.91015625,-1084.6099853515625,-400000.0625,-4677.81982421875,-400000.0625,-12844.330078125,-400000.0625
296.4004650115967,-400000.0625,-12228.919921875,-1057.9100341796875,-400000.0625,-4651.64013671875,-400000.0625,-12816.2900390625,-400000.0625
296.41615104675293,-400000.0625,-12245.080078125,-1074.5999755859375,-400000.0625,-4667.85009765625,-400000.0625,-12834.41015625,-400000.0625
296.4324300289154,-400000.0625,-12286.6201171875,-1113.6099853515625,-400000.0625,-4701.0,-400000.0625,-12873.8896484375,-400000.0625
296.4475591182709,-400000.0625,-12290.0,-1117.0400390625,-400000.0625,-4709.009765625,-400000.0625,-12876.5595703125,-400000.0625
296.46311950683594,-400000.0625,-12251.51953125,-1081.4200439453125,-400000.0625,-4678.25,-400000.0625,-12842.1796875,-400000.0625
296.4915409088135,-400000.0625,-12225.919921875,-1056.77001953125,-400000.0625,-4654.740234375,-400000.0625,-12812.6201171875,-400000.0625
296.5041422843933,-400000.0625,-12241.1298828125,-1076.4599609375,-400000.0625,-4671.47998046875,-400000.0625,-12828.259765625,-400000.0625
296.521448135376,-400000.0625,-12283.1796875,-1114.1300048828125,-400000.0625,-4708.43017578125,-400000.0625,-12870.83984375,-400000.0625
296.5329430103302,-400000.0625,-12286.2802734375,-1112.219970703125,-400000.0625,-4707.91015625,-400000.0625,-12873.9404296875,-400000.0625
296.596168756485,-400000.0625,-12302.919921875,-1127.199951171875,-400000.0625,-4707.2900390625,-400000.0625,-12866.7802734375,-400000.0625
296.66456031799316,-400000.0625,-12256.1904296875,-1091.6199951171875,-400000.0625,-4684.02001953125,-400000.0625,-12834.9296875,-400000.0625
296.71870827674866,-400000.0625,-12222.76953125,-1063.8699951171875,-400000.0625,-4656.27001953125,-400000.0625,-12802.41015625,-400000.0625
296.7791817188263,-400000.0625,-12239.7900390625,-1079.4200439453125,-400000.0625,-4669.0498046875,-400000.0625,-12830.830078125,-400000.0625
296.88485193252563,-400000.0625,-12282.23046875,-1116.56005859375,-400000.0625,-4706.240234375,-400000.0625,-12868.6396484375,-400000.0625
296.93089151382446,-400000.0625,-12285.23046875,-1119.8499755859375,-400000.0625,-4709.10009765625,-400000.0625,-12876.5595703125,-400000.0625
296.98557591438293,-400000.0625,-12246.3203125,-1085.9000244140625,-400000.0625,-4680.2998046875,-400000.0625,-12846.2802734375,-400000.0625
297.04090547561646,-400000.0625,-12233.6904296875,-1074.1700439453125,-400000.0625,-4668.0,-400000.0625,-12832.8798828125,-400000.0625
297.116233587265,-400000.0625,-12285.1904296875,-1122.3299560546875,-400000.0625,-4711.39013671875,-400000.0625,-12876.5595703125,-400000.0625
297.1711621284485,-400000.0625,-12282.5595703125,-1118.0400390625,-400000.0625,-4710.52978515625,-400000.0625,-12873.1298828125,-400000.0625
297.2545659542084,-400000.0625,-12253.51953125,-1090.050048828125,-400000.0625,-4679.10986328125,-400000.0625,-12847.330078125,-400000.0625
297.2922444343567,-400000.0625,-12253.3798828125,-1084.3800048828125,-400000.0625,-4679.2001953125,-400000.0625,-12848.330078125,-400000.0625
297.37310767173767,-400000.0625,-12217.48046875,-1055.3800048828125,-400000.0625,-4650.5,-400000.0625,-12806.9404296875,-400000.0625
297.4298942089081,-400000.0625,-12238.6904296875,-1074.31005859375,-400000.0625,-4664.14013671875,-400000.0625,-12824.6298828125,-400000.0625
297.4898843765259,-400000.0625,-12284.9501953125,-1110.3599853515625,-400000.0625,-4696.93994140625,-400000.0625,-12871.3095703125,-400000.0625
297.5876407623291,-400000.0625,-12294.2001953125,-1123.949951171875,-400000.0625,-4713.5400390625,-400000.0625,-12874.41015625,-400000.0625
297.63957834243774,-400000.0625,-12259.009765625,-1087.3299560546875,-400000.0625,-4678.77001953125,-400000.0625,-12851.8603515625,-400000.0625
297.67864751815796,-400000.0625,-12226.009765625,-1056.18994140625,-400000.0625,-4649.35009765625,-400000.0625,-12814.330078125,-400000.0625
297.7383623123169,-400000.0625,-12249.66015625,-1074.8399658203125,-400000.0625,-4664.52001953125,-400000.0625,-12832.259765625,-400000.0625
297.8158972263336,-400000.0625,-12294.7197265625,-1120.22998046875,-400000.0625,-4703.240234375,-400000.0625,-12873.650390625,-400000.0625
297.8780446052551,-400000.0625,-12308.5498046875,-1125.47998046875,-400000.0625,-4709.72021484375,-400000.0625,-12887.099609375,-400000.0625
297.9783809185028,-400000.0625,-12270.9296875,-1099.1600341796875,-400000.0625,-4674.9599609375,-400000.0625,-12866.16015625,-400000.0625
298.06842017173767,-400000.0625,-12251.0,-1077.8399658203125,-400000.0625,-4646.64013671875,-400000.0625,-12841.1796875,-400000.0625
298.1244099140167,-400000.0625,-12296.0595703125,-1119.280029296875,-400000.0625,-4691.31982421875,-400000.0625,-12889.2001953125,-400000.0625
298.216322183609,-400000.0625,-12237.9296875,-1069.8800048828125,-400000.0625,-4642.9599609375,-400000.0625,-12830.1201171875,-400000.0625
298.2519779205322,-400000.0625,-12279.4599609375,-1108.219970703125,-400000.0625,-4668.3798828125,-400000.0625,-12866.1201171875,-400000.0625
298.35633873939514,-400000.0625,-12246.7099609375,-1076.8900146484375,-400000.0625,-4637.3798828125,-400000.0625,-12833.740234375,-400000.0625
298.38632345199585,-400000.0625,-12263.4404296875,-1090.9100341796875,-400000.0625,-4649.58984375,-400000.0625,-12842.509765625,-400000.0625
298.4425618648529,-400000.0625,-12298.6796875,-1124.760009765625,-400000.0625,-4679.97021484375,-400000.0625,-12881.8095703125,-400000.0625
298.5225601196289,-400000.0625,-12302.8798828125,-1130.199951171875,-400000.0625,-4694.31982421875,-400000.0625,-12898.6396484375,-400000.0625
298.57776522636414,-400000.0625,-12286.8095703125,-1117.4200439453125,-400000.0625,-4669.240234375,-400000.0625,-12865.01953125,-400000.0625
298.5924229621887,-400000.0625,-12248.1396484375,-1080.469970703125,-400000.0625,-4642.52978515625,-400000.0625,-12830.3095703125,-400000.0625
298.60763716697693,-400000.0625,-12258.0498046875,-1089.1400146484375,-400000.0625,-4647.64013671875,-400000.0625,-12840.650390625,-400000.0625
298.6231074333191,-400000.0625,-12303.4501953125,-1130.8699951171875,-400000.0625,-4687.41015625,-400000.0625,-12883.66015625,-400000.0625
298.6547591686249,-400000.0625,-12320.08984375,-1148.27001953125,-400000.0625,-4700.85009765625,-400000.0625,-12900.5400390625,-400000.0625
298.6705355644226,-400000.0625,-12283.900390625,-1115.800048828125,-400000.0625,-4672.43017578125,-400000.0625,-12869.0302734375,-400000.0625
298.68211364746094,-400000.0625,-12249.66015625,-1084.4200439453125,-400000.0625,-4642.33984375,-400000.0625,-12833.98046875,-400000.0625
298.6966691017151,-400000.0625,-12258.099609375,-1089.530029296875,-400000.0625,-4644.43994140625,-400000.0625,-12842.419921875,-400000.0625
298.71119379997253,-400000.0625,-12299.400390625,-1128.6300048828125,-400000.0625,-4679.009765625,-400000.0625,-12883.08984375,-400000.0625
298.72315788269043,-400000.0625,-12315.509765625,-1141.3599853515625,-400000.0625,-4696.3701171875,-400000.0625,-12896.73046875,-400000.0625
298.7489581108093,-400000.0625,-12289.3798828125,-1115.8499755859375,-400000.0625,-4673.10009765625,-400000.0625,-12866.3603515625,-400000.0625
298.7618145942688,-400000.0625,-12249.2802734375,-1081.6600341796875,-400000.0625,-4638.0498046875,-400000.0625,-12833.6396484375,-400000.0625
298.7776849269867,-400000.0625,-12256.48046875,-1086.469970703125,-400000.0625,-4640.6298828125,-400000.0625,-12843.1298828125,-400000.0625
298.7876489162445,-400000.0625,-12297.580078125,-1125.1500244140625,-400000.0625,-4687.41015625,-400000.0625,-12883.1396484375,-400000.0625
298.7979691028595,-400000.0625,-12311.75,-1142.260009765625,-400000.0625,-4700.85009765625,-400000.0625,-12895.7802734375,-400000.0625
298.8091175556183,-400000.0625,-12286.0,-1112.75,-400000.0625,-4669.9501953125,-400000.0625,-12865.830078125,-400000.0625
298.8249955177307,-400000.0625,-12248.849609375,-1078.1800537109375,-400000.0625,-4637.43017578125,-400000.0625,-12831.5,-400000.0625
298.8588078022003,-400000.0625,-12256.669921875,-1088.0899658203125,-400000.0625,-4646.830078125,-400000.0625,-12837.2197265625,-400000.0625
298.8743803501129,-400000.0625,-12299.349609375,-1126.47998046875,-400000.0625,-4684.77978515625,-400000.0625,-12878.2802734375,-400000.0625
298.89071774482727,-400000.0625,-12313.2197265625,-1139.68994140625,-400000.0625,-4696.3701171875,-400000.0625,-12894.9697265625,-400000.0625
298.9112343788147,-400000.0625,-12283.5703125,-1112.27001953125,-400000.0625,-4669.0498046875,-400000.0625,-12861.349609375,-400000.0625
298.92971205711365,-400000.0625,-12247.51953125,-1078.1800537109375,-400000.0625,-4638.14990234375,-400000.0625,-12827.830078125,-400000.0625
298.95904660224915,-400000.0625,-12258.8603515625,-1086.81005859375,-400000.0625,-4646.10986328125,-400000.0625,-12839.4599609375,-400000.0625
298.98046469688416,-400000.0625,-12302.2099609375,-1126.8599853515625,-400000.0625,-4687.60009765625,-400000.0625,-12885.6201171875,-400000.0625
298.99822640419006,-400000.0625,-12318.1796875,-1142.3599853515625,-400000.0625,-4706.43017578125,-400000.0625,-12899.9697265625,-400000.0625
299.0179922580719,-400000.0625,-12290.91015625,-1119.7099609375,-400000.0625,-4678.35009765625,-400000.0625,-12868.599609375,-400000.0625
299.0349473953247,-400000.0625,-12250.6201171875,-1081.6600341796875,-400000.0625,-4641.52978515625,-400000.0625,-12831.01953125,-400000.0625
299.1640946865082,-400000.0625,-12336.1103515625,-1159.0,-400000.0625,-4693.83984375,-400000.0625,-12909.3701171875,-400000.0625
299.2213282585144,-400000.0625,-12249.900390625,-1084.3800048828125,-400000.0625,-4628.3701171875,-400000.0625,-12828.4501953125,-400000.0625
299.2796902656555,-400000.0625,-12252.669921875,-1095.1500244140625,-400000.0625,-4639.0498046875,-400000.0625,-12830.8798828125,-400000.0625
299.3422727584839,-400000.0625,-12250.9501953125,-1093.43994140625,-400000.0625,-4637.2900390625,-400000.0625,-12836.3095703125,-400000.0625
299.4572172164917,-400000.0625,-12237.259765625,-1090.47998046875,-400000.0625,-4641.2998046875,-400000.0625,-12830.6904296875,-400000.0625
299.5353343486786,-400000.0625,-12284.7099609375,-1138.4000244140625,-400000.0625,-4683.64013671875,-400000.0625,-12862.919921875,-400000.0625
299.6135640144348,-400000.0625,-12236.3095703125,-1092.8599853515625,-400000.0625,-4642.9599609375,-400000.0625,-12823.6298828125,-400000.0625
299.6660919189453,-400000.0625,-12242.26953125,-1103.260009765625,-400000.0625,-4654.5498046875,-400000.0625,-12822.919921875,-400000.0625
299.72853422164917,-400000.0625,-12286.3798828125,-1144.0799560546875,-400000.0625,-4692.83984375,-400000.0625,-12865.0703125,-400000.0625
299.8342604637146,-400000.0625,-12307.5,-1157.52001953125,-400000.0625,-4710.52978515625,-400000.0625,-12883.51953125,-400000.0625
299.91720962524414,-400000.0625,-12235.9296875,-1090.0999755859375,-400000.0625,-4649.2099609375,-400000.0625,-12833.6396484375,-400000.0625
299.9797749519348,-400000.0625,-12238.6904296875,-1093.199951171875,-400000.0625,-4662.990234375,-400000.0625,-12837.75,-400000.0625
300.0437853336334,-400000.0625,-12278.419921875,-1131.199951171875,-400000.0625,-4685.830078125,-400000.0625,-12879.9501953125,-400000.0625
300.13122272491455,-400000.0625,-12299.0595703125,-1152.56005859375,-400000.0625,-4713.43994140625,-400000.0625,-12898.73046875,-400000.0625
300.1974413394928,-400000.0625,-12231.73046875,-1088.4300537109375,-400000.0625,-4653.83984375,-400000.0625,-12841.66015625,-400000.0625
300.30349588394165,-400000.0625,-12231.1103515625,-1096.6800537109375,-400000.0625,-4659.990234375,-400000.0625,-12838.0302734375,-400000.0625
300.36792159080505,-400000.0625,-12272.0703125,-1134.43994140625,-400000.0625,-4695.85009765625,-400000.0625,-12868.6904296875,-400000.0625
300.43477606773376,-400000.0625,-12304.740234375,-1163.3399658203125,-400000.0625,-4723.64013671875,-400000.0625,-12893.73046875,-400000.0625
300.49152517318726,-400000.0625,-12272.6904296875,-1136.1600341796875,-400000.0625,-4695.7001953125,-400000.0625,-12863.919921875,-400000.0625
300.5684072971344,-400000.0625,-12224.8701171875,-1094.199951171875,-400000.0625,-4654.60009765625,-400000.0625,-12829.01953125,-400000.0625
300.62305188179016,-400000.0625,-12262.490234375,-1126.81005859375,-400000.0625,-4698.27978515625,-400000.0625,-12868.98046875,-400000.0625
300.6823422908783,-400000.0625,-12258.25,-1121.0899658203125,-400000.0625,-4691.35986328125,-400000.0625,-12866.16015625,-400000.0625
300.8123559951782,-400000.0625,-12270.259765625,-1134.1099853515625,-400000.0625,-4696.66015625,-400000.0625,-12859.8701171875,-400000.0625
300.9185616970062,-400000.0625,-12230.1103515625,-1102.72998046875,-400000.0625,-4667.89990234375,-400000.0625,-12824.6796875,-400000.0625
301.01885867118835,-400000.0625,-12285.5703125,-1150.469970703125,-400000.0625,-4716.97021484375,-400000.0625,-12878.990234375,-400000.0625
301.0750069618225,-400000.0625,-12275.9404296875,-1141.9300537109375,-400000.0625,-4711.10009765625,-400000.0625,-12888.150390625,-400000.0625
301.08565306663513,-400000.0625,-12256.1904296875,-1122.4300537109375,-400000.0625,-4688.97998046875,-400000.0625,-12868.2197265625,-400000.0625
301.09939432144165,-400000.0625,-12223.009765625,-1088.3299560546875,-400000.0625,-4651.35986328125,-400000.0625,-12830.0703125,-400000.0625
301.1123254299164,-400000.0625,-12214.23046875,-1081.510009765625,-400000.0625,-4654.41015625,-400000.0625,-12824.73046875,-400000.0625
301.1213903427124,-400000.0625,-12253.5703125,-1119.7099609375,-400000.0625,-4695.3701171875,-400000.0625,-12863.6396484375,-400000.0625
301.1459331512451,-400000.0625,-12284.51953125,-1148.4599609375,-400000.0625,-4720.06982421875,-400000.0625,-12890.150390625,-400000.0625
301.1583993434906,-400000.0625,-12258.91015625,-1121.0400390625,-400000.0625,-4698.08984375,-400000.0625,-12863.400390625,-400000.0625
301.17179131507874,-400000.0625,-12216.8603515625,-1083.989990234375,-400000.0625,-4657.93994140625,-400000.0625,-12819.099609375,-400000.0625
301.1844081878662,-400000.0625,-12220.33984375,-1085.7099609375,-400000.0625,-4655.83984375,-400000.0625,-12818.1904296875,-400000.0625
301.19724559783936,-400000.0625,-12255.1904296875,-1120.280029296875,-400000.0625,-4693.41015625,-400000.0625,-12863.259765625,-400000.0625
301.21118998527527,-400000.0625,-12281.66015625,-1145.0799560546875,-400000.0625,-4720.02001953125,-400000.0625,-12884.9501953125,-400000.0625
301.22887539863586,-400000.0625,-12255.0498046875,-1123.6199951171875,-400000.0625,-4695.75,-400000.0625,-12857.6796875,-400000.0625
301.2642104625702,-400000.0625,-12214.9501953125,-1085.7099609375,-400000.0625,-4659.22021484375,-400000.0625,-12817.1904296875,-400000.0625
301.27741980552673,-400000.0625,-12216.759765625,-1084.1400146484375,-400000.0625,-4661.18017578125,-400000.0625,-12816.8603515625,-400000.0625
301.28974747657776,-400000.0625,-12255.7197265625,-1121.0899658203125,-400000.0625,-4699.27978515625,-400000.0625,-12860.7802734375,-400000.0625
301.3037714958191,-400000.0625,-12283.4697265625,-1147.1700439453125,-400000.0625,-4724.22021484375,-400000.0625,-12885.9501953125,-400000.0625
301.3184587955475,-400000.0625,-12259.91015625,-1123.18994140625,-400000.0625,-4699.22998046875,-400000.0625,-12863.400390625,-400000.0625
301.3290355205536,-400000.0625,-12215.0,-1085.469970703125,-400000.0625,-4661.56005859375,-400000.0625,-12822.919921875,-400000.0625
301.3595998287201,-400000.0625,-12213.900390625,-1079.699951171875,-400000.0625,-4655.7900390625,-400000.0625,-12822.009765625,-400000.0625
301.37239050865173,-400000.0625,-12257.48046875,-1115.22998046875,-400000.0625,-4692.75,-400000.0625,-12858.490234375,-400000.0625
301.3861253261566,-400000.0625,-12278.419921875,-1138.6400146484375,-400000.0625,-4713.39013671875,-400000.0625,-12883.0,-400000.0625
301.40392875671387,-400000.0625,-12257.3896484375,-1118.800048828125,-400000.0625,-4694.1298828125,-400000.0625,-12861.919921875,-400000.0625
301.4201138019562,-400000.0625,-12218.330078125,-1081.800048828125,-400000.0625,-4656.1201171875,-400000.0625,-12824.25,-400000.0625
301.43150329589844,-400000.0625,-12214.7099609375,-1078.030029296875,-400000.0625,-4659.02978515625,-400000.0625,-12817.669921875,-400000.0625
301.4606342315674,-400000.0625,-12255.0498046875,-1120.5699462890625,-400000.0625,-4705.72021484375,-400000.0625,-12859.16015625,-400000.0625
301.4710958003998,-400000.0625,-12280.5595703125,-1144.0799560546875,-400000.0625,-4727.22021484375,-400000.0625,-12885.2900390625,-400000.0625
301.4864065647125,-400000.0625,-12258.91015625,-1120.0400390625,-400000.0625,-4697.22998046875,-400000.0625,-12860.8203125,-400000.0625
301.50372886657715,-400000.0625,-12219.7197265625,-1085.81005859375,-400000.0625,-4660.93994140625,-400000.0625,-12825.8701171875,-400000.0625
301.51376724243164,-400000.0625,-12222.669921875,-1086.9000244140625,-400000.0625,-4665.22998046875,-400000.0625,-12825.6796875,-400000.0625
301.5296332836151,-400000.0625,-12263.349609375,-1126.1500244140625,-400000.0625,-4699.3701171875,-400000.0625,-12863.259765625,-400000.0625
301.541321516037,-400000.0625,-12288.2900390625,-1148.800048828125,-400000.0625,-4721.2099609375,-400000.0625,-12888.4296875,-400000.0625
301.58594131469727,-400000.0625,-12307.6904296875,-1156.3299560546875,-400000.0625,-4679.58984375,-400000.0625,-12865.9296875,-400000.0625
301.72189140319824,-400000.0625,-12283.51953125,-1155.18994140625,-400000.0625,-4720.1201171875,-400000.0625,-12865.9296875,-400000.0625
301.7779176235199,-400000.0625,-12248.7998046875,-1123.1400146484375,-400000.0625,-4696.18017578125,-400000.0625,-12837.599609375,-400000.0625
301.8367624282837,-400000.0625,-12200.7900390625,-1082.22998046875,-400000.0625,-4662.1298828125,-400000.0625,-12796.740234375,-400000.0625
301.9161927700043,-400000.0625,-12234.740234375,-1111.1300048828125,-400000.0625,-4695.93994140625,-400000.0625,-12837.1298828125,-400000.0625
301.9897668361664,-400000.0625,-12235.1201171875,-1110.8399658203125,-400000.0625,-4685.830078125,-400000.0625,-12840.1796875,-400000.0625
302.06995606422424,-400000.0625,-12264.7802734375,-1134.199951171875,-400000.0625,-4709.33984375,-400000.0625,-12862.830078125,-400000.0625
302.09517073631287,-400000.0625,-12200.5498046875,-1075.7900390625,-400000.0625,-4657.080078125,-400000.0625,-12797.8798828125,-400000.0625
302.1644518375397,-400000.0625,-12205.169921875,-1084.0400390625,-400000.0625,-4664.47021484375,-400000.0625,-12804.080078125,-400000.0625
