time,ch1,ch2,ch3,ch4,ch5
timestamp,ch7,ch2,ch3,ch5,is_pause
timestamp,ch7,ch2,ch3,ch5,is_pause
timestamp,ch7,ch2,ch3,ch5,is_pause
timestamp,ch7,ch2,ch3,ch5,is_pause
timestamp,ch7,ch2,ch3,ch5,is_pause
0.08119583129882812,-400000.0625,-12288.7099609375,-578.2100219726562,-400000.0625,-5108.830078125,-400000.0625,-12831.259765625,-400000.0625
0.08143949508666992,-400000.0625,-12303.400390625,-593.52001953125,-400000.0625,-5124.6201171875,-400000.0625,-12843.4697265625,-400000.0625
0.08147573471069336,-400000.0625,-12296.150390625,-588.7000122070312,-400000.0625,-5121.18017578125,-400000.0625,-12834.5,-400000.0625
0.08150243759155273,-400000.0625,-12275.5498046875,-569.4400024414062,-400000.0625,-5107.16015625,-400000.0625,-12822.4404296875,-400000.0625
0.08153533935546875,-400000.0625,-12267.919921875,-563.8099975585938,-400000.0625,-5097.68017578125,-400000.0625,-12805.9404296875,-400000.0625
0.0815591812133789,-400000.0625,-12283.900390625,-574.5399780273438,-400000.0625,-5110.31005859375,-400000.0625,-12828.2998046875,-400000.0625
0.08158159255981445,-400000.0625,-12302.5400390625,-595.4299926757812,-400000.0625,-5129.0,-400000.0625,-12848.8095703125,-400000.0625
0.08160281181335449,-400000.0625,-12299.1103515625,-590.9000244140625,-400000.0625,-5126.81005859375,-400000.0625,-12840.7998046875,-400000.0625
0.08162379264831543,-400000.0625,-12279.5595703125,-574.1599731445312,-400000.0625,-5110.35986328125,-400000.0625,-12819.6298828125,-400000.0625
0.08164596557617188,-400000.0625,-12271.3603515625,-570.1500244140625,-400000.0625,-5099.81982421875,-400000.0625,-12812.23046875,-400000.0625
0.08166980743408203,-400000.0625,-12287.900390625,-586.0800170898438,-400000.0625,-5114.27001953125,-400000.0625,-12831.8798828125,-400000.0625
0.08169245719909668,-400000.0625,-12302.830078125,-597.0999755859375,-400000.0625,-5131.52978515625,-400000.0625,-12852.8603515625,-400000.0625
0.08171415328979492,-400000.0625,-12292.8203125,-589.9000244140625,-400000.0625,-5124.47021484375,-400000.0625,-12836.9296875,-400000.0625
0.08173608779907227,-400000.0625,-12272.5498046875,-572.0599975585938,-400000.0625,-5106.2099609375,-400000.0625,-12817.580078125,-400000.0625
0.08175897598266602,-400000.0625,-12266.2998046875,-568.3400268554688,-400000.0625,-5100.43994140625,-400000.0625,-12810.419921875,-400000.0625
0.08178091049194336,-400000.0625,-12297.0595703125,-591.5599975585938,-400000.0625,-5120.3701171875,-400000.0625,-12835.2197265625,-400000.0625
timestamp,ch7,ch2,ch3,ch5,is_pause
timestamp,ch7,ch2,ch3,ch5,is_pause
timestamp,ch7,ch2,ch3,ch5,is_pause
timestamp,ch7,ch2,ch3,ch5,is_pause
0.14326167106628418,-400000.0625,-12337.5,-611.6400146484375,-400000.0625,-5143.740234375,-400000.0625,-12864.349609375,-400000.0625
0.14345788955688477,-400000.0625,-12334.25,-596.52001953125,-400000.0625,-5128.9599609375,-400000.0625,-12863.73046875,-400000.0625
0.1434938907623291,-400000.0625,-12306.169921875,-587.510009765625,-400000.0625,-5106.77978515625,-400000.0625,-12829.349609375,-400000.0625
0.14351940155029297,-400000.0625,-12309.599609375,-596.3300170898438,-400000.0625,-5100.5400390625,-400000.0625,-12824.009765625,-400000.0625
0.14354157447814941,-400000.0625,-12340.6396484375,-620.27001953125,-400000.0625,-5113.7900390625,-400000.0625,-12853.76953125,-400000.0625
timestamp,ch7,ch2,ch3,ch5,is_pause
0.1614677906036377,-400000.0625,-12371.490234375,-653.9299926757812,-400000.0625,-5128.18994140625,-400000.0625,-12879.419921875,-400000.0625
0.16162753105163574,-400000.0625,-12387.0400390625,-661.6599731445312,-400000.0625,-5123.56982421875,-400000.0625,-12887.7197265625,-400000.0625
0.16165471076965332,-400000.0625,-12377.98046875,-655.4600219726562,-400000.0625,-5104.02001953125,-400000.0625,-12873.509765625,-400000.0625
0.16169333457946777,-400000.0625,-12373.6396484375,-657.3699951171875,-400000.0625,-5091.330078125,-400000.0625,-12862.01953125,-400000.0625
0.16171646118164062,-400000.0625,-12408.6904296875,-685.5,-400000.0625,-5105.4501953125,-400000.0625,-12882.9501953125,-400000.0625
0.16173791885375977,-400000.0625,-12447.5498046875,-713.8699951171875,-400000.0625,-5127.0498046875,-400000.0625,-12908.98046875,-400000.0625
0.1617593765258789,-400000.0625,-12452.080078125,-715.2100219726562,-400000.0625,-5122.27978515625,-400000.0625,-12904.0302734375,-400000.0625
0.16178035736083984,-400000.0625,-12425.66015625,-704.1500244140625,-400000.0625,-5103.64013671875,-400000.0625,-12875.6103515625,-400000.0625
0.16180133819580078,-400000.0625,-12420.75,-696.22998046875,-400000.0625,-5089.3798828125,-400000.0625,-12871.1201171875,-400000.0625
0.16182184219360352,-400000.0625,-12454.7998046875,-713.3499755859375,-400000.0625,-5110.5,-400000.0625,-12892.7197265625,-400000.0625
0.1618492603302002,-400000.0625,-12481.259765625,-738.1900024414062,-400000.0625,-5130.85986328125,-400000.0625,-12907.83984375,-400000.0625
timestamp,ch7,ch2,ch3,ch5,is_pause
timestamp,ch7,ch2,ch3,ch5,is_pause
timestamp,ch7,ch2,ch3,ch5,is_pause
0.21716713905334473,-400000.0625,-12468.8603515625,-730.5599975585938,-400000.0625,-5123.81005859375,-400000.0625,-12900.400390625,-400000.0625
0.21735191345214844,-400000.0625,-12446.4501953125,-710.5399780273438,-400000.0625,-5099.490234375,-400000.0625,-12875.3203125,-400000.0625
0.21738052368164062,-400000.0625,-12444.58984375,-704.1900024414062,-400000.0625,-5093.85986328125,-400000.0625,-12864.01953125,-400000.0625
0.21740436553955078,-400000.0625,-12468.150390625,-727.7999877929688,-400000.0625,-5112.97998046875,-400000.0625,-12884.3798828125,-400000.0625
0.21742653846740723,-400000.0625,-12491.080078125,-742.010009765625,-400000.0625,-5131.0498046875,-400000.0625,-12902.6904296875,-400000.0625
0.21744847297668457,-400000.0625,-12480.6396484375,-731.4199829101562,-400000.0625,-5124.14013671875,-400000.0625,-12892.8203125,-400000.0625
0.2174692153930664,-400000.0625,-12455.509765625,-710.9199829101562,-400000.0625,-5105.4501953125,-400000.0625,-12869.7900390625,-400000.0625
0.21748876571655273,-400000.0625,-12447.83984375,-701.0900268554688,-400000.0625,-5099.6298828125,-400000.0625,-12861.2099609375,-400000.0625
0.21750974655151367,-400000.0625,-12466.8603515625,-716.969970703125,-400000.0625,-5117.56005859375,-400000.0625,-12876.4599609375,-400000.0625
0.2175295352935791,-400000.0625,-12491.900390625,-735.8099975585938,-400000.0625,-5136.39990234375,-400000.0625,-12897.1103515625,-400000.0625
0.21754956245422363,-400000.0625,-12485.8896484375,-728.1300048828125,-400000.0625,-5125.18994140625,-400000.0625,-12887.099609375,-400000.0625
0.21756935119628906,-400000.0625,-12457.5595703125,-703.8599853515625,-400000.0625,-5101.72998046875,-400000.0625,-12865.16015625,-400000.0625
0.2175891399383545,-400000.0625,-12451.4599609375,-698.4199829101562,-400000.0625,-5097.2001953125,-400000.0625,-12854.91015625,-400000.0625
0.21762371063232422,-400000.0625,-12479.400390625,-720.3099975585938,-400000.0625,-5116.56005859375,-400000.0625,-12881.23046875,-400000.0625
0.2176496982574463,-400000.0625,-12503.8603515625,-742.9600219726562,-400000.0625,-5136.43994140625,-400000.0625,-12901.740234375,-400000.0625
0.21767020225524902,-400000.0625,-12498.4296875,-734.4199829101562,-400000.0625,-5131.14990234375,-400000.0625,-12892.3896484375,-400000.0625
timestamp,ch7,ch2,ch3,ch5,is_pause
timestamp,ch7,ch2,ch3,ch5,is_pause
timestamp,ch7,ch2,ch3,ch5,is_pause
timestamp,ch7,ch2,ch3,ch5,is_pause
timestamp,ch7,ch2,ch3,ch5,is_pause
0.29668235778808594,-400000.0625,-12470.33984375,-708.4400024414062,-400000.0625,-5108.8798828125,-400000.0625,-12864.400390625,-400000.0625
0.30133748054504395,-400000.0625,-12465.48046875,-704.4299926757812,-400000.0625,-5102.68017578125,-400000.0625,-12858.73046875,-400000.0625
0.3013603687286377,-400000.0625,-12492.4697265625,-726.4600219726562,-400000.0625,-5121.14013671875,-400000.0625,-12881.6103515625,-400000.0625
0.30136919021606445,-400000.0625,-12516.0703125,-746.4400024414062,-400000.0625,-5141.97021484375,-400000.0625,-12906.8896484375,-400000.0625
0.3013777732849121,-400000.0625,-12505.91015625,-739.530029296875,-400000.0625,-5137.06005859375,-400000.0625,-12893.8701171875,-400000.0625
0.30138731002807617,-400000.0625,-12482.599609375,-718.4500122070312,-400000.0625,-5114.3701171875,-400000.0625,-12876.3701171875,-400000.0625
0.3013951778411865,-400000.0625,-12477.400390625,-715.260009765625,-400000.0625,-5105.06982421875,-400000.0625,-12861.1103515625,-400000.0625
0.3014028072357178,-400000.0625,-12500.8603515625,-737.8599853515625,-400000.0625,-5124.6201171875,-400000.0625,-12897.2099609375,-400000.0625
0.3014106750488281,-400000.0625,-12526.2802734375,-752.3499755859375,-400000.0625,-5144.5498046875,-400000.0625,-12909.83984375,-400000.0625
0.30141782760620117,-400000.0625,-12513.6396484375,-743.530029296875,-400000.0625,-5135.10986328125,-400000.0625,-12898.6396484375,-400000.0625
0.3014259338378906,-400000.0625,-12492.23046875,-722.5999755859375,-400000.0625,-5115.75,-400000.0625,-12881.23046875,-400000.0625
0.30144643783569336,-400000.0625,-12485.1201171875,-713.6300048828125,-400000.0625,-5106.5498046875,-400000.0625,-12867.5,-400000.0625
0.3014543056488037,-400000.0625,-12504.2900390625,-732.22998046875,-400000.0625,-5122.18994140625,-400000.0625,-12890.0498046875,-400000.0625
0.30146193504333496,-400000.0625,-12522.75,-747.2000122070312,-400000.0625,-5137.5400390625,-400000.0625,-12904.9296875,-400000.0625
0.3014693260192871,-400000.0625,-12517.5498046875,-738.3300170898438,-400000.0625,-5129.77001953125,-400000.0625,-12893.5400390625,-400000.0625
0.30147671699523926,-400000.0625,-12496.5703125,-722.5,-400000.0625,-5117.27001953125,-400000.0625,-12876.7998046875,-400000.0625
timestamp,ch7,ch2,ch3,ch5,is_pause
timestamp,ch7,ch2,ch3,ch5,is_pause
timestamp,ch7,ch2,ch3,ch5,is_pause
0.33603787422180176,-400000.0625,-12483.5,-712.25,-400000.0625,-5105.10986328125,-400000.0625,-12872.98046875,-400000.0625
timestamp,ch7,ch2,ch3,ch5,is_pause
0.36542820930480957,-400000.0625,-12501.669921875,-729.6099853515625,-400000.0625,-5116.7998046875,-400000.0625,-12886.48046875,-400000.0625
timestamp,ch7,ch2,ch3,ch5,is_pause
0.3812446594238281,-400000.0625,-12519.0703125,-743.8699951171875,-400000.0625,-5132.2900390625,-400000.0625,-12897.2998046875,-400000.0625
timestamp,ch7,ch2,ch3,ch5,is_pause
timestamp,ch7,ch2,ch3,ch5,is_pause
0.40618419647216797,-400000.0625,-12520.599609375,-739.4299926757812,-400000.0625,-5134.580078125,-400000.0625,-12900.259765625,-400000.0625
timestamp,ch7,ch2,ch3,ch5,is_pause
timestamp,ch7,ch2,ch3,ch5,is_pause
0.44539880752563477,-400000.0625,-12500.5703125,-722.1199951171875,-400000.0625,-5116.02978515625,-400000.0625,-12882.1904296875,-400000.0625
timestamp,ch7,ch2,ch3,ch5,is_pause
timestamp,ch7,ch2,ch3,ch5,is_pause
0.47084999084472656,-400000.0625,-12488.41015625,-710.5800170898438,-400000.0625,-5104.97021484375,-400000.0625,-12871.83984375,-400000.0625
timestamp,ch7,ch2,ch3,ch5,is_pause
0.49437642097473145,-400000.0625,-12511.490234375,-729.75,-400000.0625,-5121.3701171875,-400000.0625,-12884.8095703125,-400000.0625
timestamp,ch7,ch2,ch3,ch5,is_pause
timestamp,ch7,ch2,ch3,ch5,is_pause
0.5159797668457031,-400000.0625,-12520.26953125,-739.6699829101562,-400000.0625,-5131.81982421875,-400000.0625,-12905.4599609375,-400000.0625
timestamp,ch7,ch2,ch3,ch5,is_pause
timestamp,ch7,ch2,ch3,ch5,is_pause
timestamp,ch7,ch2,ch3,ch5,is_pause
0.565223217010498,-400000.0625,-12518.259765625,-732.9500122070312,-400000.0625,-5128.669921875,-400000.0625,-12895.6796875,-400000.0625
timestamp,ch7,ch2,ch3,ch5,is_pause
0.5799190998077393,-400000.0625,-12501.4296875,-720.6900024414062,-400000.0625,-5114.509765625,-400000.0625,-12878.66015625,-400000.0625
timestamp,ch7,ch2,ch3,ch5,is_pause
0.5980021953582764,-400000.0625,-12491.3203125,-714.3499755859375,-400000.0625,-5106.68994140625,-400000.0625,-12873.2197265625,-400000.0625
timestamp,ch7,ch2,ch3,ch5,is_pause
0.6164207458496094,-400000.0625,-12510.25,-728.8499755859375,-400000.0625,-5127.2900390625,-400000.0625,-12897.2099609375,-400000.0625
timestamp,ch7,ch2,ch3,ch5,is_pause
timestamp,ch7,ch2,ch3,ch5,is_pause
0.6489424705505371,-400000.0625,-12529.08984375,-743.8699951171875,-400000.0625,-5139.2998046875,-400000.0625,-12914.3701171875,-400000.0625
timestamp,ch7,ch2,ch3,ch5,is_pause
0.6695702075958252,-400000.0625,-12519.5498046875,-738.719970703125,-400000.0625,-5129.6201171875,-400000.0625,-12905.5498046875,-400000.0625
timestamp,ch7,ch2,ch3,ch5,is_pause
timestamp,ch7,ch2,ch3,ch5,is_pause
0.6995241641998291,-400000.0625,-12494.66015625,-717.260009765625,-400000.0625,-5106.64013671875,-400000.0625,-12874.990234375,-400000.0625
timestamp,ch7,ch2,ch3,ch5,is_pause
0.7261390686035156,-400000.0625,-12491.419921875,-710.4400024414062,-400000.0625,-5099.43994140625,-400000.0625,-12873.26953125,-400000.0625
timestamp,ch7,ch2,ch3,ch5,is_pause
timestamp,ch7,ch2,ch3,ch5,is_pause
0.7637648582458496,-400000.0625,-12513.6396484375,-721.97998046875,-400000.0625,-5114.080078125,-400000.0625,-12893.2998046875,-400000.0625
timestamp,ch7,ch2,ch3,ch5,is_pause
0.7830119132995605,-400000.0625,-12539.669921875,-741.9099731445312,-400000.0625,-5137.43994140625,-400000.0625,-12901.740234375,-400000.0625
timestamp,ch7,ch2,ch3,ch5,is_pause
0.798769474029541,-400000.0625,-12528.75,-742.8599853515625,-400000.0625,-5133.8701171875,-400000.0625,-12882.759765625,-400000.0625
timestamp,ch7,ch2,ch3,ch5,is_pause
0.8205356597900391,-400000.0625,-12503.099609375,-726.510009765625,-400000.0625,-5108.5498046875,-400000.0625,-12857.8203125,-400000.0625
timestamp,ch7,ch2,ch3,ch5,is_pause
0.8374121189117432,-400000.0625,-12501.8095703125,-726.1799926757812,-400000.0625,-5108.4501953125,-400000.0625,-12835.4599609375,-400000.0625
timestamp,ch7,ch2,ch3,ch5,is_pause
timestamp,ch7,ch2,ch3,ch5,is_pause
timestamp,ch7,ch2,ch3,ch5,is_pause
0.8825397491455078,-400000.0625,-12524.419921875,-750.72998046875,-400000.0625,-5129.43017578125,-400000.0625,-12858.3896484375,-400000.0625
timestamp,ch7,ch2,ch3,ch5,is_pause
0.9033722877502441,-400000.0625,-12549.1201171875,-778.47998046875,-400000.0625,-5149.22021484375,-400000.0625,-12870.169921875,-400000.0625
timestamp,ch7,ch2,ch3,ch5,is_pause
0.9179108142852783,-400000.0625,-12546.919921875,-778.0599975585938,-400000.0625,-5143.97998046875,-400000.0625,-12854.669921875,-400000.0625
timestamp,ch7,ch2,ch3,ch5,is_pause
0.9392964839935303,-400000.0625,-12520.650390625,-759.1699829101562,-400000.0625,-5117.93994140625,-400000.0625,-12823.150390625,-400000.0625
timestamp,ch7,ch2,ch3,ch5,is_pause
timestamp,ch7,ch2,ch3,ch5,is_pause
0.9757974147796631,-400000.0625,-12512.259765625,-753.97998046875,-400000.0625,-5108.169921875,-400000.0625,-12808.0400390625,-400000.0625
timestamp,ch7,ch2,ch3,ch5,is_pause
0.9908819198608398,-400000.0625,-12535.669921875,-772.52001953125,-400000.0625,-5126.10009765625,-400000.0625,-12828.16015625,-400000.0625
timestamp,ch7,ch2,ch3,ch5,is_pause
timestamp,ch7,ch2,ch3,ch5,is_pause
1.0127272605895996,-400000.0625,-12558.3701171875,-792.9299926757812,-400000.0625,-5148.83984375,-400000.0625,-12852.3798828125,-400000.0625
timestamp,ch7,ch2,ch3,ch5,is_pause
1.0317370891571045,-400000.0625,-12550.4501953125,-788.9299926757812,-400000.0625,-5147.7900390625,-400000.0625,-12838.2197265625,-400000.0625
timestamp,ch7,ch2,ch3,ch5,is_pause
1.0479364395141602,-400000.0625,-12523.7998046875,-765.510009765625,-400000.0625,-5119.85009765625,-400000.0625,-12813.4697265625,-400000.0625
timestamp,ch7,ch2,ch3,ch5,is_pause
timestamp,ch7,ch2,ch3,ch5,is_pause
1.0888192653656006,-400000.0625,-12509.400390625,-751.3499755859375,-400000.0625,-5105.97021484375,-400000.0625,-12803.4599609375,-400000.0625
timestamp,ch7,ch2,ch3,ch5,is_pause
1.1091740131378174,-400000.0625,-12536.240234375,-779.4400024414062,-400000.0625,-5129.0498046875,-400000.0625,-12832.400390625,-400000.0625
timestamp,ch7,ch2,ch3,ch5,is_pause
1.1246304512023926,-400000.0625,-12566.6201171875,-805.0900268554688,-400000.0625,-5153.1298828125,-400000.0625,-12852.6201171875,-400000.0625
timestamp,ch7,ch2,ch3,ch5,is_pause
timestamp,ch7,ch2,ch3,ch5,is_pause
1.1477887630462646,-400000.0625,-12556.7001953125,-792.8400268554688,-400000.0625,-5142.35986328125,-400000.0625,-12845.849609375,-400000.0625
timestamp,ch7,ch2,ch3,ch5,is_pause
1.1670200824737549,-400000.0625,-12526.7998046875,-765.1799926757812,-400000.0625,-5121.89990234375,-400000.0625,-12818.8603515625,-400000.0625
timestamp,ch7,ch2,ch3,ch5,is_pause
1.1961052417755127,-400000.0625,-12516.2099609375,-758.7000122070312,-400000.0625,-5110.1201171875,-400000.0625,-12805.75,-400000.0625
timestamp,ch7,ch2,ch3,ch5,is_pause
timestamp,ch7,ch2,ch3,ch5,is_pause
1.2210781574249268,-400000.0625,-12539.4404296875,-776.6699829101562,-400000.0625,-5128.85986328125,-400000.0625,-12825.8701171875,-400000.0625
timestamp,ch7,ch2,ch3,ch5,is_pause
1.2356388568878174,-400000.0625,-12568.240234375,-803.52001953125,-400000.0625,-5151.83984375,-400000.0625,-12849.0498046875,-400000.0625
timestamp,ch7,ch2,ch3,ch5,is_pause
1.2566142082214355,-400000.0625,-12555.8896484375,-795.3200073242188,-400000.0625,-5140.58984375,-400000.0625,-12843.66015625,-400000.0625
timestamp,ch7,ch2,ch3,ch5,is_pause
1.2756869792938232,-400000.0625,-12525.8896484375,-766.1300048828125,-400000.0625,-5120.9501953125,-400000.0625,-12812.1396484375,-400000.0625
timestamp,ch7,ch2,ch3,ch5,is_pause
timestamp,ch7,ch2,ch3,ch5,is_pause
1.308953046798706,-400000.0625,-12517.41015625,-757.97998046875,-400000.0625,-5114.83984375,-400000.0625,-12804.9404296875,-400000.0625
timestamp,ch7,ch2,ch3,ch5,is_pause
1.3275973796844482,-400000.0625,-12544.009765625,-780.2000122070312,-400000.0625,-5133.490234375,-400000.0625,-12830.400390625,-400000.0625
timestamp,ch7,ch2,ch3,ch5,is_pause
1.3445196151733398,-400000.0625,-12573.91015625,-807.239990234375,-400000.0625,-5157.9501953125,-400000.0625,-12856.76953125,-400000.0625
timestamp,ch7,ch2,ch3,ch5,is_pause
timestamp,ch7,ch2,ch3,ch5,is_pause
1.3634183406829834,-400000.0625,-12561.1796875,-796.030029296875,-400000.0625,-5146.60009765625,-400000.0625,-12849.8095703125,-400000.0625
timestamp,ch7,ch2,ch3,ch5,is_pause
1.378692865371704,-400000.0625,-12529.759765625,-768.0399780273438,-400000.0625,-5126.47998046875,-400000.0625,-12824.580078125,-400000.0625
timestamp,ch7,ch2,ch3,ch5,is_pause
1.4058103561401367,-400000.0625,-12518.0302734375,-760.510009765625,-400000.0625,-5112.89013671875,-400000.0625,-12806.509765625,-400000.0625
timestamp,ch7,ch2,ch3,ch5,is_pause
1.4219515323638916,-400000.0625,-12545.0595703125,-783.2999877929688,-400000.0625,-5130.43017578125,-400000.0625,-12830.349609375,-400000.0625
timestamp,ch7,ch2,ch3,ch5,is_pause
1.438683032989502,-400000.0625,-12575.0595703125,-810.9600219726562,-400000.0625,-5155.22998046875,-400000.0625,-12856.2900390625,-400000.0625
timestamp,ch7,ch2,ch3,ch5,is_pause
1.4527831077575684,-400000.0625,-12568.330078125,-803.5700073242188,-400000.0625,-5150.22021484375,-400000.0625,-12853.580078125,-400000.0625
timestamp,ch7,ch2,ch3,ch5,is_pause
1.4728446006774902,-400000.0625,-12533.6201171875,-775.1500244140625,-400000.0625,-5123.56982421875,-400000.0625,-12817.8095703125,-400000.0625
timestamp,ch7,ch2,ch3,ch5,is_pause
1.488882064819336,-400000.0625,-12521.599609375,-766.75,-400000.0625,-5113.93994140625,-400000.0625,-12801.9296875,-400000.0625
timestamp,ch7,ch2,ch3,ch5,is_pause
timestamp,ch7,ch2,ch3,ch5,is_pause
timestamp,ch7,ch2,ch3,ch5,is_pause
1.5307097434997559,-400000.0625,-12546.830078125,-787.780029296875,-400000.0625,-5134.68017578125,-400000.0625,-12831.740234375,-400000.0625
1.5408477783203125,-400000.0625,-12571.6201171875,-804.8499755859375,-400000.0625,-5154.89990234375,-400000.0625,-12854.150390625,-400000.0625
timestamp,ch7,ch2,ch3,ch5,is_pause
timestamp,ch7,ch2,ch3,ch5,is_pause
1.5649216175079346,-400000.0625,-12560.6103515625,-794.739990234375,-400000.0625,-5144.60009765625,-400000.0625,-12847.1904296875,-400000.0625
timestamp,ch7,ch2,ch3,ch5,is_pause
1.589672565460205,-400000.0625,-12532.08984375,-771.1400146484375,-400000.0625,-5124.0,-400000.0625,-12822.33984375,-400000.0625
timestamp,ch7,ch2,ch3,ch5,is_pause
timestamp,ch7,ch2,ch3,ch5,is_pause
1.6249885559082031,-400000.0625,-12519.1201171875,-762.510009765625,-400000.0625,-5114.75,-400000.0625,-12810.2802734375,-400000.0625
timestamp,ch7,ch2,ch3,ch5,is_pause
1.638770341873169,-400000.0625,-12551.6396484375,-790.1699829101562,-400000.0625,-5138.490234375,-400000.0625,-12835.3095703125,-400000.0625
timestamp,ch7,ch2,ch3,ch5,is_pause
1.6549856662750244,-400000.0625,-12571.150390625,-806.3800048828125,-400000.0625,-5152.18017578125,-400000.0625,-12859.25,-400000.0625
timestamp,ch7,ch2,ch3,ch5,is_pause
1.6688928604125977,-400000.0625,-12561.6103515625,-797.7999877929688,-400000.0625,-5149.080078125,-400000.0625,-12855.150390625,-400000.0625
timestamp,ch7,ch2,ch3,ch5,is_pause
1.6849501132965088,-400000.0625,-12537.580078125,-776.9600219726562,-400000.0625,-5130.9599609375,-400000.0625,-12824.8203125,-400000.0625
timestamp,ch7,ch2,ch3,ch5,is_pause
1.6999006271362305,-400000.0625,-12522.080078125,-763.8499755859375,-400000.0625,-5115.83984375,-400000.0625,-12812.900390625,-400000.0625
timestamp,ch7,ch2,ch3,ch5,is_pause
timestamp,ch7,ch2,ch3,ch5,is_pause
1.7301104068756104,-400000.0625,-12545.0595703125,-783.780029296875,-400000.0625,-5133.33984375,-400000.0625,-12831.0703125,-400000.0625
timestamp,ch7,ch2,ch3,ch5,is_pause
1.741405963897705,-400000.0625,-12569.1904296875,-806.4299926757812,-400000.0625,-5156.14013671875,-400000.0625,-12850.8095703125,-400000.0625
timestamp,ch7,ch2,ch3,ch5,is_pause
1.7565195560455322,-400000.0625,-12565.4697265625,-801.1300048828125,-400000.0625,-5152.509765625,-400000.0625,-12850.1904296875,-400000.0625
1.7677171230316162,-400000.0625,-12539.8203125,-779.2999877929688,-400000.0625,-5130.85986328125,-400000.0625,-12826.2099609375,-400000.0625
timestamp,ch7,ch2,ch3,ch5,is_pause
1.781980037689209,-400000.0625,-12534.2900390625,-773.760009765625,-400000.0625,-5125.81005859375,-400000.0625,-12817.240234375,-400000.0625
timestamp,ch7,ch2,ch3,ch5,is_pause
1.7986266613006592,-400000.0625,-12551.1201171875,-792.5499877929688,-400000.0625,-5137.35009765625,-400000.0625,-12835.3603515625,-400000.0625
timestamp,ch7,ch2,ch3,ch5,is_pause
timestamp,ch7,ch2,ch3,ch5,is_pause
1.816544771194458,-400000.0625,-12573.48046875,-811.530029296875,-400000.0625,-5155.1298828125,-400000.0625,-12858.25,-400000.0625
timestamp,ch7,ch2,ch3,ch5,is_pause
timestamp,ch7,ch2,ch3,ch5,is_pause
1.8504407405853271,-400000.0625,-12561.1796875,-802.3300170898438,-400000.0625,-5154.60986328125,-400000.0625,-12852.9599609375,-400000.0625
timestamp,ch7,ch2,ch3,ch5,is_pause
1.8698797225952148,-400000.0625,-12543.0595703125,-781.8200073242188,-400000.0625,-5135.39013671875,-400000.0625,-12830.6396484375,-400000.0625
timestamp,ch7,ch2,ch3,ch5,is_pause
1.8805510997772217,-400000.0625,-12534.91015625,-775.719970703125,-400000.0625,-5122.60986328125,-400000.0625,-12824.349609375,-400000.0625
timestamp,ch7,ch2,ch3,ch5,is_pause
1.894113540649414,-400000.0625,-12546.73046875,-786.72998046875,-400000.0625,-5134.25,-400000.0625,-12836.4599609375,-400000.0625
timestamp,ch7,ch2,ch3,ch5,is_pause
1.9147052764892578,-400000.0625,-12568.669921875,-806.52001953125,-400000.0625,-5154.93994140625,-400000.0625,-12854.91015625,-400000.0625
timestamp,ch7,ch2,ch3,ch5,is_pause
1.9350786209106445,-400000.0625,-12571.48046875,-808.530029296875,-400000.0625,-5154.18017578125,-400000.0625,-12853.240234375,-400000.0625
timestamp,ch7,ch2,ch3,ch5,is_pause
timestamp,ch7,ch2,ch3,ch5,is_pause
1.9721214771270752,-400000.0625,-12546.2099609375,-789.1199951171875,-400000.0625,-5132.77001953125,-400000.0625,-12833.3603515625,-400000.0625
timestamp,ch7,ch2,ch3,ch5,is_pause
1.9864883422851562,-400000.0625,-12536.099609375,-780.4400024414062,-400000.0625,-5123.6201171875,-400000.0625,-12821.9599609375,-400000.0625
timestamp,ch7,ch2,ch3,ch5,is_pause
2.0065207481384277,-400000.0625,-12550.400390625,-791.3599853515625,-400000.0625,-5137.06005859375,-400000.0625,-12836.650390625,-400000.0625
timestamp,ch7,ch2,ch3,ch5,is_pause
2.020508289337158,-400000.0625,-12567.330078125,-806.0499877929688,-400000.0625,-5153.22998046875,-400000.0625,-12857.9599609375,-400000.0625
timestamp,ch7,ch2,ch3,ch5,is_pause
2.036672830581665,-400000.0625,-12560.080078125,-800.3200073242188,-400000.0625,-5147.509765625,-400000.0625,-12849.3798828125,-400000.0625
timestamp,ch7,ch2,ch3,ch5,is_pause
timestamp,ch7,ch2,ch3,ch5,is_pause
2.0709383487701416,-400000.0625,-12540.5302734375,-780.9600219726562,-400000.0625,-5126.56982421875,-400000.0625,-12826.6298828125,-400000.0625
timestamp,ch7,ch2,ch3,ch5,is_pause
2.0890181064605713,-400000.0625,-12527.419921875,-771.0,-400000.0625,-5118.7998046875,-400000.0625,-12818.1904296875,-400000.0625
timestamp,ch7,ch2,ch3,ch5,is_pause
2.100022315979004,-400000.0625,-12549.9296875,-791.5499877929688,-400000.0625,-5139.72998046875,-400000.0625,-12836.83984375,-400000.0625
timestamp,ch7,ch2,ch3,ch5,is_pause
2.122445821762085,-400000.0625,-12574.2900390625,-810.8599853515625,-400000.0625,-5152.7001953125,-400000.0625,-12859.5400390625,-400000.0625
timestamp,ch7,ch2,ch3,ch5,is_pause
2.144564151763916,-400000.0625,-12563.1796875,-802.7999877929688,-400000.0625,-5147.22021484375,-400000.0625,-12853.8095703125,-400000.0625
timestamp,ch7,ch2,ch3,ch5,is_pause
timestamp,ch7,ch2,ch3,ch5,is_pause
timestamp,ch7,ch2,ch3,ch5,is_pause
2.1862871646881104,-400000.0625,-12541.8701171875,-782.8200073242188,-400000.0625,-5133.33984375,-400000.0625,-12831.7802734375,-400000.0625
timestamp,ch7,ch2,ch3,ch5,is_pause
2.206747055053711,-400000.0625,-12530.1396484375,-774.2899780273438,-400000.0625,-5121.85009765625,-400000.0625,-12819.3896484375,-400000.0625
timestamp,ch7,ch2,ch3,ch5,is_pause
2.2250735759735107,-400000.0625,-12549.400390625,-788.8300170898438,-400000.0625,-5133.2998046875,-400000.0625,-12833.6904296875,-400000.0625
timestamp,ch7,ch2,ch3,ch5,is_pause
timestamp,ch7,ch2,ch3,ch5,is_pause
2.2487781047821045,-400000.0625,-12567.9501953125,-805.9500122070312,-400000.0625,-5147.83984375,-400000.0625,-12854.580078125,-400000.0625
timestamp,ch7,ch2,ch3,ch5,is_pause
timestamp,ch7,ch2,ch3,ch5,is_pause
2.290578603744507,-400000.0625,-12559.2197265625,-799.510009765625,-400000.0625,-5140.72998046875,-400000.0625,-12851.1904296875,-400000.0625
timestamp,ch7,ch2,ch3,ch5,is_pause
timestamp,ch7,ch2,ch3,ch5,is_pause
2.3165674209594727,-400000.0625,-12542.1103515625,-783.8699951171875,-400000.0625,-5127.3798828125,-400000.0625,-12830.6396484375,-400000.0625
timestamp,ch7,ch2,ch3,ch5,is_pause
2.3299989700317383,-400000.0625,-12530.1396484375,-770.760009765625,-400000.0625,-5117.22998046875,-400000.0625,-12822.6298828125,-400000.0625
timestamp,ch7,ch2,ch3,ch5,is_pause
2.346597671508789,-400000.0625,-12548.6396484375,-789.0700073242188,-400000.0625,-5137.2099609375,-400000.0625,-12841.3701171875,-400000.0625
timestamp,ch7,ch2,ch3,ch5,is_pause
2.362244129180908,-400000.0625,-12567.900390625,-806.52001953125,-400000.0625,-5152.7001953125,-400000.0625,-12857.25,-400000.0625
timestamp,ch7,ch2,ch3,ch5,is_pause
timestamp,ch7,ch2,ch3,ch5,is_pause
timestamp,ch7,ch2,ch3,ch5,is_pause
2.405076742172241,-400000.0625,-12563.419921875,-799.3699951171875,-400000.0625,-5146.68994140625,-400000.0625,-12853.4296875,-400000.0625
timestamp,ch7,ch2,ch3,ch5,is_pause
2.4232544898986816,-400000.0625,-12550.5,-783.8300170898438,-400000.0625,-5131.0498046875,-400000.0625,-12835.6904296875,-400000.0625
timestamp,ch7,ch2,ch3,ch5,is_pause
2.4487831592559814,-400000.0625,-12547.5400390625,-778.530029296875,-400000.0625,-5128.18994140625,-400000.0625,-12815.330078125,-400000.0625
timestamp,ch7,ch2,ch3,ch5,is_pause
2.472499132156372,-400000.0625,-12563.66015625,-798.4199829101562,-400000.0625,-5139.8798828125,-400000.0625,-12821.9599609375,-400000.0625
timestamp,ch7,ch2,ch3,ch5,is_pause
timestamp,ch7,ch2,ch3,ch5,is_pause
timestamp,ch7,ch2,ch3,ch5,is_pause
2.515693187713623,-400000.0625,-12587.599609375,-819.780029296875,-400000.0625,-5153.990234375,-400000.0625,-12831.2099609375,-400000.0625
2.5274057388305664,-400000.0625,-12585.6396484375,-824.8800048828125,-400000.0625,-5157.18994140625,-400000.0625,-12816.099609375,-400000.0625
timestamp,ch7,ch2,ch3,ch5,is_pause
2.5515568256378174,-400000.0625,-12570.5703125,-819.8699951171875,-400000.0625,-5142.93017578125,-400000.0625,-12787.9599609375,-400000.0625
timestamp,ch7,ch2,ch3,ch5,is_pause
timestamp,ch7,ch2,ch3,ch5,is_pause
2.5781519412994385,-400000.0625,-12562.3701171875,-820.2999877929688,-400000.0625,-5133.580078125,-400000.0625,-12770.3701171875,-400000.0625
timestamp,ch7,ch2,ch3,ch5,is_pause
timestamp,ch7,ch2,ch3,ch5,is_pause
timestamp,ch7,ch2,ch3,ch5,is_pause
2.6337504386901855,-400000.0625,-12586.2099609375,-849.9099731445312,-400000.0625,-5153.1298828125,-400000.0625,-12776.8095703125,-400000.0625
timestamp,ch7,ch2,ch3,ch5,is_pause
2.6491971015930176,-400000.0625,-12605.4296875,-872.4199829101562,-400000.0625,-5169.77001953125,-400000.0625,-12785.7197265625,-400000.0625
timestamp,ch7,ch2,ch3,ch5,is_pause
2.670283794403076,-400000.0625,-12610.25,-877.8099975585938,-400000.0625,-5168.14990234375,-400000.0625,-12767.7001953125,-400000.0625
timestamp,ch7,ch2,ch3,ch5,is_pause
2.6950511932373047,-400000.0625,-12597.3203125,-867.75,-400000.0625,-5151.4599609375,-400000.0625,-12736.6103515625,-400000.0625
timestamp,ch7,ch2,ch3,ch5,is_pause
timestamp,ch7,ch2,ch3,ch5,is_pause
timestamp,ch7,ch2,ch3,ch5,is_pause
2.7465054988861084,-400000.0625,-12590.599609375,-861.02001953125,-400000.0625,-5140.10986328125,-400000.0625,-12714.5302734375,-400000.0625
timestamp,ch7,ch2,ch3,ch5,is_pause
2.764162063598633,-400000.0625,-12612.6298828125,-885.2000122070312,-400000.0625,-5158.08984375,-400000.0625,-12725.3095703125,-400000.0625
timestamp,ch7,ch2,ch3,ch5,is_pause
2.781497001647949,-400000.0625,-12636.849609375,-903.0800170898438,-400000.0625,-5178.97998046875,-400000.0625,-12743.2802734375,-400000.0625
timestamp,ch7,ch2,ch3,ch5,is_pause
2.8046493530273438,-400000.0625,-12633.849609375,-901.4099731445312,-400000.0625,-5176.39990234375,-400000.0625,-12744.759765625,-400000.0625
timestamp,ch7,ch2,ch3,ch5,is_pause
timestamp,ch7,ch2,ch3,ch5,is_pause
timestamp,ch7,ch2,ch3,ch5,is_pause
2.8556251525878906,-400000.0625,-12608.7197265625,-880.3400268554688,-400000.0625,-5151.83984375,-400000.0625,-12712.669921875,-400000.0625
timestamp,ch7,ch2,ch3,ch5,is_pause
timestamp,ch7,ch2,ch3,ch5,is_pause
2.8788726329803467,-400000.0625,-12591.8896484375,-868.22998046875,-400000.0625,-5138.02001953125,-400000.0625,-12700.650390625,-400000.0625
timestamp,ch7,ch2,ch3,ch5,is_pause
2.897918939590454,-400000.0625,-12616.01953125,-886.5399780273438,-400000.0625,-5164.2900390625,-400000.0625,-12721.25,-400000.0625
timestamp,ch7,ch2,ch3,ch5,is_pause
2.9170114994049072,-400000.0625,-12641.240234375,-906.0399780273438,-400000.0625,-5184.02978515625,-400000.0625,-12744.2900390625,-400000.0625
timestamp,ch7,ch2,ch3,ch5,is_pause
timestamp,ch7,ch2,ch3,ch5,is_pause
2.9446964263916016,-400000.0625,-12634.7099609375,-898.0800170898438,-400000.0625,-5173.72998046875,-400000.0625,-12744.240234375,-400000.0625
timestamp,ch7,ch2,ch3,ch5,is_pause
2.961599349975586,-400000.0625,-12608.7197265625,-875.5700073242188,-400000.0625,-5153.31982421875,-400000.0625,-12715.009765625,-400000.0625
timestamp,ch7,ch2,ch3,ch5,is_pause
2.9737181663513184,-400000.0625,-12598.7099609375,-869.7000122070312,-400000.0625,-5144.7900390625,-400000.0625,-12704.08984375,-400000.0625
timestamp,ch7,ch2,ch3,ch5,is_pause
2.9934935569763184,-400000.0625,-12621.4501953125,-891.2100219726562,-400000.0625,-5162.0,-400000.0625,-12725.1201171875,-400000.0625
timestamp,ch7,ch2,ch3,ch5,is_pause
3.0050504207611084,-400000.0625,-12649.6298828125,-913.3300170898438,-400000.0625,-5185.3701171875,-400000.0625,-12751.33984375,-400000.0625
timestamp,ch7,ch2,ch3,ch5,is_pause
3.0183186531066895,-400000.0625,-12641.0498046875,-906.1799926757812,-400000.0625,-5177.93017578125,-400000.0625,-12739.9501953125,-400000.0625
timestamp,ch7,ch2,ch3,ch5,is_pause
timestamp,ch7,ch2,ch3,ch5,is_pause
3.0528931617736816,-400000.0625,-12610.25,-879.8099975585938,-400000.0625,-5155.60986328125,-400000.0625,-12719.58984375,-400000.0625
timestamp,ch7,ch2,ch3,ch5,is_pause
3.068110704421997,-400000.0625,-12597.66015625,-868.0800170898438,-400000.0625,-5143.5498046875,-400000.0625,-12708.9501953125,-400000.0625
timestamp,ch7,ch2,ch3,ch5,is_pause
3.0833020210266113,-400000.0625,-12624.1201171875,-891.2999877929688,-400000.0625,-5162.2900390625,-400000.0625,-12729.599609375,-400000.0625
timestamp,ch7,ch2,ch3,ch5,is_pause
3.098010301589966,-400000.0625,-12651.01953125,-916.77001953125,-400000.0625,-5186.18017578125,-400000.0625,-12751.76953125,-400000.0625
timestamp,ch7,ch2,ch3,ch5,is_pause
3.1136081218719482,-400000.0625,-12643.6201171875,-911.3300170898438,-400000.0625,-5183.35986328125,-400000.0625,-12746.6201171875,-400000.0625
timestamp,ch7,ch2,ch3,ch5,is_pause
3.130488395690918,-400000.0625,-12618.6396484375,-886.489990234375,-400000.0625,-5155.419921875,-400000.0625,-12722.6396484375,-400000.0625
timestamp,ch7,ch2,ch3,ch5,is_pause
timestamp,ch7,ch2,ch3,ch5,is_pause
3.163146495819092,-400000.0625,-12603.8603515625,-869.3699951171875,-400000.0625,-5138.5400390625,-400000.0625,-12708.2802734375,-400000.0625
timestamp,ch7,ch2,ch3,ch5,is_pause
3.18949294090271,-400000.0625,-12625.0302734375,-891.1099853515625,-400000.0625,-5166.14990234375,-400000.0625,-12731.1201171875,-400000.0625
timestamp,ch7,ch2,ch3,ch5,is_pause
3.209944725036621,-400000.0625,-12650.58984375,-915.47998046875,-400000.0625,-5186.89013671875,-400000.0625,-12752.2998046875,-400000.0625
timestamp,ch7,ch2,ch3,ch5,is_pause
3.225508451461792,-400000.0625,-12643.48046875,-908.7100219726562,-400000.0625,-5179.5,-400000.0625,-12746.240234375,-400000.0625
timestamp,ch7,ch2,ch3,ch5,is_pause
3.2463791370391846,-400000.0625,-12619.9697265625,-886.1099853515625,-400000.0625,-5155.08984375,-400000.0625,-12726.8798828125,-400000.0625
timestamp,ch7,ch2,ch3,ch5,is_pause
timestamp,ch7,ch2,ch3,ch5,is_pause
timestamp,ch7,ch2,ch3,ch5,is_pause
3.283745050430298,-400000.0625,-12603.7099609375,-870.7999877929688,-400000.0625,-5139.5400390625,-400000.0625,-12707.330078125,-400000.0625
timestamp,ch7,ch2,ch3,ch5,is_pause
3.3021702766418457,-400000.0625,-12631.6103515625,-893.9299926757812,-400000.0625,-5168.06005859375,-400000.0625,-12729.83984375,-400000.0625
timestamp,ch7,ch2,ch3,ch5,is_pause
3.316371202468872,-400000.0625,-12650.73046875,-912.280029296875,-400000.0625,-5185.7998046875,-400000.0625,-12744.8603515625,-400000.0625
timestamp,ch7,ch2,ch3,ch5,is_pause
3.3329479694366455,-400000.0625,-12645.48046875,-906.8499755859375,-400000.0625,-5175.2099609375,-400000.0625,-12751.0595703125,-400000.0625
timestamp,ch7,ch2,ch3,ch5,is_pause
3.3479502201080322,-400000.0625,-12620.5498046875,-883.0999755859375,-400000.0625,-5153.47021484375,-400000.0625,-12724.5,-400000.0625
timestamp,ch7,ch2,ch3,ch5,is_pause
timestamp,ch7,ch2,ch3,ch5,is_pause
3.383047103881836,-400000.0625,-12607.9599609375,-871.52001953125,-400000.0625,-5139.830078125,-400000.0625,-12710.8603515625,-400000.0625
timestamp,ch7,ch2,ch3,ch5,is_pause
3.397333860397339,-400000.0625,-12629.1298828125,-890.2100219726562,-400000.0625,-5161.14013671875,-400000.0625,-12727.830078125,-400000.0625
timestamp,ch7,ch2,ch3,ch5,is_pause
3.4152755737304688,-400000.0625,-12648.919921875,-907.6599731445312,-400000.0625,-5178.8798828125,-400000.0625,-12750.4404296875,-400000.0625
timestamp,ch7,ch2,ch3,ch5,is_pause
3.4285213947296143,-400000.0625,-12645.5302734375,-904.75,-400000.0625,-5175.68994140625,-400000.0625,-12743.2802734375,-400000.0625
timestamp,ch7,ch2,ch3,ch5,is_pause
3.4456818103790283,-400000.0625,-12624.5,-888.489990234375,-400000.0625,-5157.0400390625,-400000.0625,-12721.4404296875,-400000.0625
timestamp,ch7,ch2,ch3,ch5,is_pause
3.4611425399780273,-400000.0625,-12610.5302734375,-875.6599731445312,-400000.0625,-5149.02978515625,-400000.0625,-12712.33984375,-400000.0625
timestamp,ch7,ch2,ch3,ch5,is_pause
3.4868407249450684,-400000.0625,-12630.990234375,-894.5,-400000.0625,-5171.16015625,-400000.0625,-12731.740234375,-400000.0625
3.5027828216552734,-400000.0625,-12652.01953125,-910.0900268554688,-400000.0625,-5182.35986328125,-400000.0625,-12750.009765625,-400000.0625
timestamp,ch7,ch2,ch3,ch5,is_pause
3.5155527591705322,-400000.0625,-12648.0595703125,-907.760009765625,-400000.0625,-5174.2099609375,-400000.0625,-12744.759765625,-400000.0625
timestamp,ch7,ch2,ch3,ch5,is_pause
3.53410267829895,-400000.0625,-12625.740234375,-887.489990234375,-400000.0625,-5158.18994140625,-400000.0625,-12719.3896484375,-400000.0625
timestamp,ch7,ch2,ch3,ch5,is_pause
3.5475189685821533,-400000.0625,-12614.2998046875,-873.52001953125,-400000.0625,-5150.990234375,-400000.0625,-12709.240234375,-400000.0625
timestamp,ch7,ch2,ch3,ch5,is_pause
3.5665507316589355,-400000.0625,-12631.990234375,-893.6900024414062,-400000.0625,-5163.81005859375,-400000.0625,-12723.8798828125,-400000.0625
timestamp,ch7,ch2,ch3,ch5,is_pause
timestamp,ch7,ch2,ch3,ch5,is_pause
3.596574306488037,-400000.0625,-12651.8701171875,-910.8099975585938,-400000.0625,-5180.64990234375,-400000.0625,-12743.8603515625,-400000.0625
timestamp,ch7,ch2,ch3,ch5,is_pause
3.6156811714172363,-400000.0625,-12647.9599609375,-906.22998046875,-400000.0625,-5178.1201171875,-400000.0625,-12736.849609375,-400000.0625
timestamp,ch7,ch2,ch3,ch5,is_pause
3.6292388439178467,-400000.0625,-12625.509765625,-887.8200073242188,-400000.0625,-5164.39013671875,-400000.0625,-12713.33984375,-400000.0625
timestamp,ch7,ch2,ch3,ch5,is_pause
3.648056745529175,-400000.0625,-12618.9697265625,-880.8099975585938,-400000.0625,-5158.7099609375,-400000.0625,-12709.1904296875,-400000.0625
timestamp,ch7,ch2,ch3,ch5,is_pause
3.6610329151153564,-400000.0625,-12638.9501953125,-897.9299926757812,-400000.0625,-5175.68994140625,-400000.0625,-12725.3095703125,-400000.0625
timestamp,ch7,ch2,ch3,ch5,is_pause
3.679377317428589,-400000.0625,-12654.5400390625,-914.2899780273438,-400000.0625,-5187.3701171875,-400000.0625,-12744.9501953125,-400000.0625
timestamp,ch7,ch2,ch3,ch5,is_pause
timestamp,ch7,ch2,ch3,ch5,is_pause
3.7136263847351074,-400000.0625,-12644.9599609375,-904.1799926757812,-400000.0625,-5175.02001953125,-400000.0625,-12739.4697265625,-400000.0625
timestamp,ch7,ch2,ch3,ch5,is_pause
3.7311103343963623,-400000.0625,-12628.1796875,-889.02001953125,-400000.0625,-5160.52001953125,-400000.0625,-12714.3896484375,-400000.0625
timestamp,ch7,ch2,ch3,ch5,is_pause
3.747645854949951,-400000.0625,-12615.16015625,-876.1900024414062,-400000.0625,-5151.89013671875,-400000.0625,-12703.6103515625,-400000.0625
timestamp,ch7,ch2,ch3,ch5,is_pause
3.7662854194641113,-400000.0625,-12628.4599609375,-889.5399780273438,-400000.0625,-5161.9501953125,-400000.0625,-12718.73046875,-400000.0625
timestamp,ch7,ch2,ch3,ch5,is_pause
3.780397415161133,-400000.0625,-12646.4404296875,-902.27001953125,-400000.0625,-5177.8798828125,-400000.0625,-12733.169921875,-400000.0625
timestamp,ch7,ch2,ch3,ch5,is_pause
timestamp,ch7,ch2,ch3,ch5,is_pause
3.821856737136841,-400000.0625,-12641.0498046875,-899.4600219726562,-400000.0625,-5174.97021484375,-400000.0625,-12728.6396484375,-400000.0625
timestamp,ch7,ch2,ch3,ch5,is_pause
3.836909055709839,-400000.0625,-12626.7001953125,-887.8699951171875,-400000.0625,-5161.9501953125,-400000.0625,-12713.150390625,-400000.0625
timestamp,ch7,ch2,ch3,ch5,is_pause
3.8480684757232666,-400000.0625,-12608.4296875,-871.9400024414062,-400000.0625,-5153.990234375,-400000.0625,-12706.7099609375,-400000.0625
timestamp,ch7,ch2,ch3,ch5,is_pause
3.8660531044006348,-400000.0625,-12626.8896484375,-884.1500244140625,-400000.0625,-5164.81005859375,-400000.0625,-12725.16015625,-400000.0625
timestamp,ch7,ch2,ch3,ch5,is_pause
3.8855392932891846,-400000.0625,-12653.73046875,-905.6099853515625,-400000.0625,-5187.0400390625,-400000.0625,-12741.1396484375,-400000.0625
timestamp,ch7,ch2,ch3,ch5,is_pause
timestamp,ch7,ch2,ch3,ch5,is_pause
3.912266731262207,-400000.0625,-12650.58984375,-902.6500244140625,-400000.0625,-5181.06982421875,-400000.0625,-12735.650390625,-400000.0625
timestamp,ch7,ch2,ch3,ch5,is_pause
3.923957347869873,-400000.0625,-12621.98046875,-881.6199951171875,-400000.0625,-5159.66015625,-400000.0625,-12711.3798828125,-400000.0625
3.934971570968628,-400000.0625,-12599.66015625,-863.3599853515625,-400000.0625,-5144.8798828125,-400000.0625,-12699.990234375,-400000.0625
timestamp,ch7,ch2,ch3,ch5,is_pause
3.9520065784454346,-400000.0625,-12617.400390625,-879.760009765625,-400000.0625,-5157.08984375,-400000.0625,-12712.4296875,-400000.0625
timestamp,ch7,ch2,ch3,ch5,is_pause
timestamp,ch7,ch2,ch3,ch5,is_pause
3.971510648727417,-400000.0625,-12643.76953125,-900.3200073242188,-400000.0625,-5177.8798828125,-400000.0625,-12738.7998046875,-400000.0625
3.9825525283813477,-400000.0625,-12642.1904296875,-899.3599853515625,-400000.0625,-5180.8798828125,-400000.0625,-12740.900390625,-400000.0625
timestamp,ch7,ch2,ch3,ch5,is_pause
4.002561330795288,-400000.0625,-12616.919921875,-878.0499877929688,-400000.0625,-5162.669921875,-400000.0625,-12717.25,-400000.0625
timestamp,ch7,ch2,ch3,ch5,is_pause
timestamp,ch7,ch2,ch3,ch5,is_pause
4.033895969390869,-400000.0625,-12598.0400390625,-862.1699829101562,-400000.0625,-5143.4501953125,-400000.0625,-12703.1298828125,-400000.0625
timestamp,ch7,ch2,ch3,ch5,is_pause
4.054694414138794,-400000.0625,-12621.259765625,-880.1900024414062,-400000.0625,-5157.85009765625,-400000.0625,-12718.4404296875,-400000.0625
timestamp,ch7,ch2,ch3,ch5,is_pause
4.067567348480225,-400000.0625,-12648.349609375,-902.1799926757812,-400000.0625,-5184.7900390625,-400000.0625,-12743.1396484375,-400000.0625
timestamp,ch7,ch2,ch3,ch5,is_pause
4.08484673500061,-400000.0625,-12642.669921875,-898.8400268554688,-400000.0625,-5183.75,-400000.0625,-12741.0400390625,-400000.0625
timestamp,ch7,ch2,ch3,ch5,is_pause
4.096972942352295,-400000.0625,-12616.9697265625,-877.0,-400000.0625,-5157.18994140625,-400000.0625,-12714.8203125,-400000.0625
4.1124372482299805,-400000.0625,-12601.08984375,-861.02001953125,-400000.0625,-5140.16015625,-400000.0625,-12703.3701171875,-400000.0625
timestamp,ch7,ch2,ch3,ch5,is_pause
timestamp,ch7,ch2,ch3,ch5,is_pause
timestamp,ch7,ch2,ch3,ch5,is_pause
4.15048623085022,-400000.0625,-12624.1201171875,-879.0,-400000.0625,-5159.43017578125,-400000.0625,-12719.9697265625,-400000.0625
timestamp,ch7,ch2,ch3,ch5,is_pause
4.165739297866821,-400000.0625,-12645.8203125,-901.030029296875,-400000.0625,-5183.75,-400000.0625,-12746.240234375,-400000.0625
timestamp,ch7,ch2,ch3,ch5,is_pause
4.179477214813232,-400000.0625,-12644.009765625,-899.030029296875,-400000.0625,-5186.3701171875,-400000.0625,-12743.759765625,-400000.0625
timestamp,ch7,ch2,ch3,ch5,is_pause
4.194629192352295,-400000.0625,-12613.349609375,-872.760009765625,-400000.0625,-5161.18994140625,-400000.0625,-12714.099609375,-400000.0625
timestamp,ch7,ch2,ch3,ch5,is_pause
4.207169771194458,-400000.0625,-12599.900390625,-859.1699829101562,-400000.0625,-5143.97998046875,-400000.0625,-12697.83984375,-400000.0625
4.217976331710815,-400000.0625,-12624.41015625,-880.1900024414062,-400000.0625,-5166.2001953125,-400000.0625,-12724.1103515625,-400000.0625
timestamp,ch7,ch2,ch3,ch5,is_pause
timestamp,ch7,ch2,ch3,ch5,is_pause
timestamp,ch7,ch2,ch3,ch5,is_pause
4.259208917617798,-400000.0625,-12647.0595703125,-902.1799926757812,-400000.0625,-5185.4599609375,-400000.0625,-12746.91015625,-400000.0625
4.268985986709595,-400000.0625,-12643.91015625,-900.7899780273438,-400000.0625,-5183.83984375,-400000.0625,-12742.4697265625,-400000.0625
timestamp,ch7,ch2,ch3,ch5,is_pause
4.285460710525513,-400000.0625,-12620.740234375,-880.2899780273438,-400000.0625,-5167.91015625,-400000.0625,-12714.8203125,-400000.0625
timestamp,ch7,ch2,ch3,ch5,is_pause
4.299755811691284,-400000.0625,-12601.849609375,-864.27001953125,-400000.0625,-5148.1298828125,-400000.0625,-12702.66015625,-400000.0625
timestamp,ch7,ch2,ch3,ch5,is_pause
4.31721568107605,-400000.0625,-12619.349609375,-878.1900024414062,-400000.0625,-5162.56982421875,-400000.0625,-12724.830078125,-400000.0625
timestamp,ch7,ch2,ch3,ch5,is_pause
4.329050540924072,-400000.0625,-12648.919921875,-903.5599975585938,-400000.0625,-5184.83984375,-400000.0625,-12751.91015625,-400000.0625
timestamp,ch7,ch2,ch3,ch5,is_pause
timestamp,ch7,ch2,ch3,ch5,is_pause
4.3563807010650635,-400000.0625,-12647.6298828125,-901.5599975585938,-400000.0625,-5179.35986328125,-400000.0625,-12745.2900390625,-400000.0625
timestamp,ch7,ch2,ch3,ch5,is_pause
4.377615928649902,-400000.0625,-12617.400390625,-877.9500122070312,-400000.0625,-5161.56982421875,-400000.0625,-12721.01953125,-400000.0625
timestamp,ch7,ch2,ch3,ch5,is_pause
4.390620946884155,-400000.0625,-12599.51953125,-862.030029296875,-400000.0625,-5147.64990234375,-400000.0625,-12702.419921875,-400000.0625
4.402049779891968,-400000.0625,-12615.73046875,-877.9000244140625,-400000.0625,-5157.08984375,-400000.0625,-12718.6796875,-400000.0625
timestamp,ch7,ch2,ch3,ch5,is_pause
4.414825677871704,-400000.0625,-12645.6298828125,-903.7999877929688,-400000.0625,-5183.509765625,-400000.0625,-12744.7099609375,-400000.0625
timestamp,ch7,ch2,ch3,ch5,is_pause
4.430852890014648,-400000.0625,-12641.3798828125,-901.8900146484375,-400000.0625,-5181.31005859375,-400000.0625,-12739.849609375,-400000.0625
timestamp,ch7,ch2,ch3,ch5,is_pause
4.453114748001099,-400000.0625,-12614.919921875,-878.0999755859375,-400000.0625,-5160.85986328125,-400000.0625,-12719.919921875,-400000.0625
timestamp,ch7,ch2,ch3,ch5,is_pause
4.467103004455566,-400000.0625,-12606.33984375,-866.9400024414062,-400000.0625,-5147.97998046875,-400000.0625,-12710.7197265625,-400000.0625
timestamp,ch7,ch2,ch3,ch5,is_pause
4.485051870346069,-400000.0625,-12623.98046875,-882.2000122070312,-400000.0625,-5164.91015625,-400000.0625,-12726.98046875,-400000.0625
timestamp,ch7,ch2,ch3,ch5,is_pause
4.495855331420898,-400000.0625,-12651.7802734375,-904.4199829101562,-400000.0625,-5189.7998046875,-400000.0625,-12744.0,-400000.0625
timestamp,ch7,ch2,ch3,ch5,is_pause
4.51226544380188,-400000.0625,-12642.580078125,-901.75,-400000.0625,-5183.02978515625,-400000.0625,-12739.6103515625,-400000.0625
timestamp,ch7,ch2,ch3,ch5,is_pause
4.522540092468262,-400000.0625,-12621.0703125,-879.0,-400000.0625,-5164.52978515625,-400000.0625,-12721.2099609375,-400000.0625
4.532965898513794,-400000.0625,-12608.150390625,-866.27001953125,-400000.0625,-5149.56005859375,-400000.0625,-12707.759765625,-400000.0625
timestamp,ch7,ch2,ch3,ch5,is_pause
timestamp,ch7,ch2,ch3,ch5,is_pause
4.5743653774261475,-400000.0625,-12626.26953125,-884.8699951171875,-400000.0625,-5162.10009765625,-400000.0625,-12725.5498046875,-400000.0625
timestamp,ch7,ch2,ch3,ch5,is_pause
4.58865761756897,-400000.0625,-12649.919921875,-906.52001953125,-400000.0625,-5180.97998046875,-400000.0625,-12744.0,-400000.0625
timestamp,ch7,ch2,ch3,ch5,is_pause
4.604876518249512,-400000.0625,-12643.8603515625,-901.030029296875,-400000.0625,-5179.5,-400000.0625,-12737.6103515625,-400000.0625
timestamp,ch7,ch2,ch3,ch5,is_pause
4.6222312450408936,-400000.0625,-12626.2197265625,-885.010009765625,-400000.0625,-5169.33984375,-400000.0625,-12720.2001953125,-400000.0625
timestamp,ch7,ch2,ch3,ch5,is_pause
4.636962413787842,-400000.0625,-12610.9599609375,-872.0399780273438,-400000.0625,-5151.22021484375,-400000.0625,-12705.3798828125,-400000.0625
timestamp,ch7,ch2,ch3,ch5,is_pause
timestamp,ch7,ch2,ch3,ch5,is_pause
4.667235374450684,-400000.0625,-12626.7900390625,-889.1599731445312,-400000.0625,-5159.81005859375,-400000.0625,-12720.7802734375,-400000.0625
timestamp,ch7,ch2,ch3,ch5,is_pause
4.683537721633911,-400000.0625,-12649.16015625,-903.27001953125,-400000.0625,-5176.97021484375,-400000.0625,-12747.9599609375,-400000.0625
timestamp,ch7,ch2,ch3,ch5,is_pause
4.698599100112915,-400000.0625,-12654.7802734375,-896.5999755859375,-400000.0625,-5175.2099609375,-400000.0625,-12750.7197265625,-400000.0625
timestamp,ch7,ch2,ch3,ch5,is_pause
4.717308044433594,-400000.0625,-12641.2900390625,-883.6699829101562,-400000.0625,-5161.81005859375,-400000.0625,-12718.25,-400000.0625
timestamp,ch7,ch2,ch3,ch5,is_pause
4.730224847793579,-400000.0625,-12624.83984375,-882.0999755859375,-400000.0625,-5156.330078125,-400000.0625,-12691.830078125,-400000.0625
timestamp,ch7,ch2,ch3,ch5,is_pause
4.749040365219116,-400000.0625,-12647.25,-908.22998046875,-400000.0625,-5173.72998046875,-400000.0625,-12705.900390625,-400000.0625
timestamp,ch7,ch2,ch3,ch5,is_pause
timestamp,ch7,ch2,ch3,ch5,is_pause
4.780004501342773,-400000.0625,-12675.0,-929.6900024414062,-400000.0625,-5190.330078125,-400000.0625,-12722.01953125,-400000.0625
timestamp,ch7,ch2,ch3,ch5,is_pause
4.799614667892456,-400000.0625,-12682.8701171875,-930.1699829101562,-400000.0625,-5188.75,-400000.0625,-12707.51953125,-400000.0625
timestamp,ch7,ch2,ch3,ch5,is_pause
4.821096897125244,-400000.0625,-12670.0400390625,-926.260009765625,-400000.0625,-5176.5,-400000.0625,-12673.8095703125,-400000.0625
timestamp,ch7,ch2,ch3,ch5,is_pause
timestamp,ch7,ch2,ch3,ch5,is_pause
4.846465826034546,-400000.0625,-12654.259765625,-924.3499755859375,-400000.0625,-5164.72021484375,-400000.0625,-12653.16015625,-400000.0625
timestamp,ch7,ch2,ch3,ch5,is_pause
4.865826368331909,-400000.0625,-12676.1904296875,-946.5700073242188,-400000.0625,-5173.77978515625,-400000.0625,-12659.0703125,-400000.0625
timestamp,ch7,ch2,ch3,ch5,is_pause
4.893108367919922,-400000.0625,-12710.4296875,-974.7000122070312,-400000.0625,-5196.0,-400000.0625,-12674.08984375,-400000.0625
timestamp,ch7,ch2,ch3,ch5,is_pause
timestamp,ch7,ch2,ch3,ch5,is_pause
4.9111106395721436,-400000.0625,-12714.099609375,-977.1799926757812,-400000.0625,-5198.10009765625,-400000.0625,-12658.5498046875,-400000.0625
timestamp,ch7,ch2,ch3,ch5,is_pause
4.924924373626709,-400000.0625,-12699.26953125,-961.6400146484375,-400000.0625,-5172.5400390625,-400000.0625,-12623.41015625,-400000.0625
4.938116073608398,-400000.0625,-12683.6298828125,-953.010009765625,-400000.0625,-5160.6201171875,-400000.0625,-12601.9501953125,-400000.0625
timestamp,ch7,ch2,ch3,ch5,is_pause
4.950523376464844,-400000.0625,-12701.8896484375,-975.0800170898438,-400000.0625,-5180.31005859375,-400000.0625,-12618.6396484375,-400000.0625
timestamp,ch7,ch2,ch3,ch5,is_pause
4.967463493347168,-400000.0625,-12732.599609375,-1000.9299926757812,-400000.0625,-5203.2001953125,-400000.0625,-12643.2001953125,-400000.0625
timestamp,ch7,ch2,ch3,ch5,is_pause
timestamp,ch7,ch2,ch3,ch5,is_pause
4.998396873474121,-400000.0625,-12731.509765625,-1000.5999755859375,-400000.0625,-5202.47998046875,-400000.0625,-12638.330078125,-400000.0625
timestamp,ch7,ch2,ch3,ch5,is_pause
5.011974573135376,-400000.0625,-12706.7099609375,-978.3699951171875,-400000.0625,-5181.83984375,-400000.0625,-12608.8203125,-400000.0625
timestamp,ch7,ch2,ch3,ch5,is_pause
5.027106523513794,-400000.0625,-12692.7900390625,-966.4500122070312,-400000.0625,-5170.5400390625,-400000.0625,-12595.4599609375,-400000.0625
timestamp,ch7,ch2,ch3,ch5,is_pause
5.0431506633758545,-400000.0625,-12709.4296875,-981.0900268554688,-400000.0625,-5184.35986328125,-400000.0625,-12615.830078125,-400000.0625
timestamp,ch7,ch2,ch3,ch5,is_pause
5.059483766555786,-400000.0625,-12734.26953125,-1001.7899780273438,-400000.0625,-5207.58984375,-400000.0625,-12641.240234375,-400000.0625
timestamp,ch7,ch2,ch3,ch5,is_pause
5.074411153793335,-400000.0625,-12727.3603515625,-994.6300048828125,-400000.0625,-5203.33984375,-400000.0625,-12632.3203125,-400000.0625
timestamp,ch7,ch2,ch3,ch5,is_pause
5.103549480438232,-400000.0625,-12698.26953125,-971.510009765625,-400000.0625,-5181.1201171875,-400000.0625,-12605.2900390625,-400000.0625
timestamp,ch7,ch2,ch3,ch5,is_pause
5.117767333984375,-400000.0625,-12681.9599609375,-957.9199829101562,-400000.0625,-5171.10986328125,-400000.0625,-12588.740234375,-400000.0625
timestamp,ch7,ch2,ch3,ch5,is_pause
5.13360333442688,-400000.0625,-12701.26953125,-971.6500244140625,-400000.0625,-5188.990234375,-400000.0625,-12610.33984375,-400000.0625
timestamp,ch7,ch2,ch3,ch5,is_pause
5.148418664932251,-400000.0625,-12730.169921875,-995.3499755859375,-400000.0625,-5209.5400390625,-400000.0625,-12635.1396484375,-400000.0625
timestamp,ch7,ch2,ch3,ch5,is_pause
5.166465759277344,-400000.0625,-12726.0703125,-994.5399780273438,-400000.0625,-5204.2001953125,-400000.0625,-12634.759765625,-400000.0625
timestamp,ch7,ch2,ch3,ch5,is_pause
5.180500268936157,-400000.0625,-12701.509765625,-974.4600219726562,-400000.0625,-5183.75,-400000.0625,-12606.0498046875,-400000.0625
timestamp,ch7,ch2,ch3,ch5,is_pause
timestamp,ch7,ch2,ch3,ch5,is_pause
5.210089683532715,-400000.0625,-12687.349609375,-956.4400024414062,-400000.0625,-5171.72998046875,-400000.0625,-12589.0302734375,-400000.0625
5.219408273696899,-400000.0625,-12706.419921875,-972.6500244140625,-400000.0625,-5190.18017578125,-400000.0625,-12607.0498046875,-400000.0625
timestamp,ch7,ch2,ch3,ch5,is_pause
5.236140489578247,-400000.0625,-12727.2099609375,-991.4400024414062,-400000.0625,-5211.5400390625,-400000.0625,-12632.509765625,-400000.0625
timestamp,ch7,ch2,ch3,ch5,is_pause
5.25054144859314,-400000.0625,-12722.830078125,-985.3400268554688,-400000.0625,-5208.02001953125,-400000.0625,-12622.5498046875,-400000.0625
timestamp,ch7,ch2,ch3,ch5,is_pause
5.270018100738525,-400000.0625,-12698.3701171875,-965.6900024414062,-400000.0625,-5186.27001953125,-400000.0625,-12600.4697265625,-400000.0625
timestamp,ch7,ch2,ch3,ch5,is_pause
5.29015040397644,-400000.0625,-12685.6298828125,-951.0,-400000.0625,-5165.2001953125,-400000.0625,-12585.01953125,-400000.0625
timestamp,ch7,ch2,ch3,ch5,is_pause
timestamp,ch7,ch2,ch3,ch5,is_pause
5.31887674331665,-400000.0625,-12707.2802734375,-969.030029296875,-400000.0625,-5183.22021484375,-400000.0625,-12605.2900390625,-400000.0625
timestamp,ch7,ch2,ch3,ch5,is_pause
timestamp,ch7,ch2,ch3,ch5,is_pause
5.3455774784088135,-400000.0625,-12726.740234375,-991.3900146484375,-400000.0625,-5204.77001953125,-400000.0625,-12629.650390625,-400000.0625
timestamp,ch7,ch2,ch3,ch5,is_pause
5.359671592712402,-400000.0625,-12724.830078125,-988.8200073242188,-400000.0625,-5206.68017578125,-400000.0625,-12627.7900390625,-400000.0625
timestamp,ch7,ch2,ch3,ch5,is_pause
5.377017498016357,-400000.0625,-12704.51953125,-968.6500244140625,-400000.0625,-5189.93994140625,-400000.0625,-12607.4296875,-400000.0625
timestamp,ch7,ch2,ch3,ch5,is_pause
5.390458822250366,-400000.0625,-12686.830078125,-956.489990234375,-400000.0625,-5177.77978515625,-400000.0625,-12590.509765625,-400000.0625
timestamp,ch7,ch2,ch3,ch5,is_pause
5.420841217041016,-400000.0625,-12703.990234375,-971.6500244140625,-400000.0625,-5190.47021484375,-400000.0625,-12610.009765625,-400000.0625
timestamp,ch7,ch2,ch3,ch5,is_pause
timestamp,ch7,ch2,ch3,ch5,is_pause
5.440790176391602,-400000.0625,-12722.8798828125,-985.0,-400000.0625,-5202.14990234375,-400000.0625,-12625.740234375,-400000.0625
timestamp,ch7,ch2,ch3,ch5,is_pause
5.458509922027588,-400000.0625,-12720.16015625,-987.9600219726562,-400000.0625,-5200.91015625,-400000.0625,-12625.2197265625,-400000.0625
5.469245672225952,-400000.0625,-12702.900390625,-974.9400024414062,-400000.0625,-5186.89013671875,-400000.0625,-12608.7197265625,-400000.0625
timestamp,ch7,ch2,ch3,ch5,is_pause
5.482552528381348,-400000.0625,-12687.2998046875,-956.010009765625,-400000.0625,-5170.16015625,-400000.0625,-12596.990234375,-400000.0625
timestamp,ch7,ch2,ch3,ch5,is_pause
5.495237588882446,-400000.0625,-12700.419921875,-967.4600219726562,-400000.0625,-5183.080078125,-400000.0625,-12612.0595703125,-400000.0625
timestamp,ch7,ch2,ch3,ch5,is_pause
timestamp,ch7,ch2,ch3,ch5,is_pause
5.526561737060547,-400000.0625,-12724.2099609375,-985.239990234375,-400000.0625,-5205.06005859375,-400000.0625,-12633.849609375,-400000.0625
timestamp,ch7,ch2,ch3,ch5,is_pause
5.5394182205200195,-400000.0625,-12722.2099609375,-984.719970703125,-400000.0625,-5204.25,-400000.0625,-12638.1396484375,-400000.0625
timestamp,ch7,ch2,ch3,ch5,is_pause
5.552459001541138,-400000.0625,-12705.1396484375,-970.27001953125,-400000.0625,-5187.93994140625,-400000.0625,-12615.58984375,-400000.0625
timestamp,ch7,ch2,ch3,ch5,is_pause
5.570623397827148,-400000.0625,-12691.5498046875,-962.260009765625,-400000.0625,-5174.490234375,-400000.0625,-12604.0498046875,-400000.0625
timestamp,ch7,ch2,ch3,ch5,is_pause
5.583131790161133,-400000.0625,-12708.9501953125,-979.4199829101562,-400000.0625,-5188.990234375,-400000.0625,-12619.4501953125,-400000.0625
timestamp,ch7,ch2,ch3,ch5,is_pause
5.6021504402160645,-400000.0625,-12733.509765625,-995.6799926757812,-400000.0625,-5208.4501953125,-400000.0625,-12642.1904296875,-400000.0625
timestamp,ch7,ch2,ch3,ch5,is_pause
5.6309733390808105,-400000.0625,-12733.3203125,-996.1599731445312,-400000.0625,-5209.10986328125,-400000.0625,-12638.1904296875,-400000.0625
timestamp,ch7,ch2,ch3,ch5,is_pause
timestamp,ch7,ch2,ch3,ch5,is_pause
5.650815725326538,-400000.0625,-12710.91015625,-975.5599975585938,-400000.0625,-5188.75,-400000.0625,-12612.1103515625,-400000.0625
5.663315773010254,-400000.0625,-12697.41015625,-963.969970703125,-400000.0625,-5172.68017578125,-400000.0625,-12603.5703125,-400000.0625
timestamp,ch7,ch2,ch3,ch5,is_pause
timestamp,ch7,ch2,ch3,ch5,is_pause
5.680235385894775,-400000.0625,-12718.150390625,-981.6599731445312,-400000.0625,-5188.31982421875,-400000.0625,-12619.58984375,-400000.0625
timestamp,ch7,ch2,ch3,ch5,is_pause
5.697208642959595,-400000.0625,-12737.0400390625,-998.6900024414062,-400000.0625,-5206.72998046875,-400000.0625,-12651.7802734375,-400000.0625
timestamp,ch7,ch2,ch3,ch5,is_pause
5.71868109703064,-400000.0625,-12736.26953125,-999.4000244140625,-400000.0625,-5208.5400390625,-400000.0625,-12644.91015625,-400000.0625
timestamp,ch7,ch2,ch3,ch5,is_pause
timestamp,ch7,ch2,ch3,ch5,is_pause
timestamp,ch7,ch2,ch3,ch5,is_pause
5.768450975418091,-400000.0625,-12714.009765625,-979.22998046875,-400000.0625,-5189.85009765625,-400000.0625,-12623.599609375,-400000.0625
timestamp,ch7,ch2,ch3,ch5,is_pause
timestamp,ch7,ch2,ch3,ch5,is_pause
5.794278144836426,-400000.0625,-12698.1298828125,-964.5,-400000.0625,-5174.5400390625,-400000.0625,-12608.240234375,-400000.0625
timestamp,ch7,ch2,ch3,ch5,is_pause
5.8104259967803955,-400000.0625,-12714.5302734375,-977.4199829101562,-400000.0625,-5185.080078125,-400000.0625,-12623.740234375,-400000.0625
timestamp,ch7,ch2,ch3,ch5,is_pause
5.831736087799072,-400000.0625,-12739.2802734375,-1001.6400146484375,-400000.0625,-5205.10986328125,-400000.0625,-12648.5400390625,-400000.0625
timestamp,ch7,ch2,ch3,ch5,is_pause
timestamp,ch7,ch2,ch3,ch5,is_pause
timestamp,ch7,ch2,ch3,ch5,is_pause
5.893974304199219,-400000.0625,-12733.990234375,-997.6400146484375,-400000.0625,-5202.009765625,-400000.0625,-12649.8203125,-400000.0625
timestamp,ch7,ch2,ch3,ch5,is_pause
5.916270017623901,-400000.0625,-12713.7197265625,-979.6099853515625,-400000.0625,-5184.22021484375,-400000.0625,-12626.650390625,-400000.0625
timestamp,ch7,ch2,ch3,ch5,is_pause
5.929876089096069,-400000.0625,-12700.419921875,-968.0700073242188,-400000.0625,-5171.16015625,-400000.0625,-12608.76953125,-400000.0625
timestamp,ch7,ch2,ch3,ch5,is_pause
5.9507691860198975,-400000.0625,-12713.5302734375,-975.0800170898438,-400000.0625,-5186.27001953125,-400000.0625,-12621.740234375,-400000.0625
timestamp,ch7,ch2,ch3,ch5,is_pause
timestamp,ch7,ch2,ch3,ch5,is_pause
5.986959457397461,-400000.0625,-12739.0400390625,-995.8300170898438,-400000.0625,-5204.490234375,-400000.0625,-12650.8701171875,-400000.0625
timestamp,ch7,ch2,ch3,ch5,is_pause
6.003091812133789,-400000.0625,-12732.1298828125,-992.2999877929688,-400000.0625,-5199.52978515625,-400000.0625,-12642.91015625,-400000.0625
timestamp,ch7,ch2,ch3,ch5,is_pause
6.019218683242798,-400000.0625,-12709.08984375,-973.989990234375,-400000.0625,-5182.41015625,-400000.0625,-12620.5498046875,-400000.0625
timestamp,ch7,ch2,ch3,ch5,is_pause
6.035149335861206,-400000.0625,-12692.4501953125,-958.1599731445312,-400000.0625,-5169.580078125,-400000.0625,-12610.25,-400000.0625
timestamp,ch7,ch2,ch3,ch5,is_pause
6.052743673324585,-400000.0625,-12715.5302734375,-977.9000244140625,-400000.0625,-5186.1298828125,-400000.0625,-12625.41015625,-400000.0625
timestamp,ch7,ch2,ch3,ch5,is_pause
timestamp,ch7,ch2,ch3,ch5,is_pause
6.089174747467041,-400000.0625,-12745.6201171875,-1004.510009765625,-400000.0625,-5206.25,-400000.0625,-12653.400390625,-400000.0625
timestamp,ch7,ch2,ch3,ch5,is_pause
timestamp,ch7,ch2,ch3,ch5,is_pause
6.115123510360718,-400000.0625,-12746.3798828125,-1000.5999755859375,-400000.0625,-5208.64013671875,-400000.0625,-12653.2099609375,-400000.0625
timestamp,ch7,ch2,ch3,ch5,is_pause
6.131545782089233,-400000.0625,-12715.669921875,-977.7100219726562,-400000.0625,-5187.3701171875,-400000.0625,-12619.8798828125,-400000.0625
timestamp,ch7,ch2,ch3,ch5,is_pause
6.150033712387085,-400000.0625,-12692.98046875,-958.2000122070312,-400000.0625,-5169.43994140625,-400000.0625,-12601.0,-400000.0625
timestamp,ch7,ch2,ch3,ch5,is_pause
6.166170120239258,-400000.0625,-12709.6201171875,-973.4600219726562,-400000.0625,-5183.22021484375,-400000.0625,-12621.01953125,-400000.0625
timestamp,ch7,ch2,ch3,ch5,is_pause
timestamp,ch7,ch2,ch3,ch5,is_pause
6.195806264877319,-400000.0625,-12739.2802734375,-996.5399780273438,-400000.0625,-5203.8701171875,-400000.0625,-12647.0595703125,-400000.0625
timestamp,ch7,ch2,ch3,ch5,is_pause
6.210759162902832,-400000.0625,-12748.33984375,-1005.1300048828125,-400000.0625,-5209.72998046875,-400000.0625,-12644.4404296875,-400000.0625
timestamp,ch7,ch2,ch3,ch5,is_pause
6.226979732513428,-400000.0625,-12723.6904296875,-986.5800170898438,-400000.0625,-5195.18994140625,-400000.0625,-12621.2099609375,-400000.0625
6.238942861557007,-400000.0625,-12697.7001953125,-965.5,-400000.0625,-5174.259765625,-400000.0625,-12605.2900390625,-400000.0625
timestamp,ch7,ch2,ch3,ch5,is_pause
6.255603075027466,-400000.0625,-12702.849609375,-972.1300048828125,-400000.0625,-5182.1201171875,-400000.0625,-12637.1904296875,-400000.0625
timestamp,ch7,ch2,ch3,ch5,is_pause
6.272916793823242,-400000.0625,-12725.9296875,-992.25,-400000.0625,-5203.2001953125,-400000.0625,-12667.3701171875,-400000.0625
timestamp,ch7,ch2,ch3,ch5,is_pause
timestamp,ch7,ch2,ch3,ch5,is_pause
6.301469326019287,-400000.0625,-12724.2099609375,-988.8200073242188,-400000.0625,-5206.39013671875,-400000.0625,-12665.7001953125,-400000.0625
timestamp,ch7,ch2,ch3,ch5,is_pause
6.3178160190582275,-400000.0625,-12696.080078125,-966.0700073242188,-400000.0625,-5183.5498046875,-400000.0625,-12644.33984375,-400000.0625
timestamp,ch7,ch2,ch3,ch5,is_pause
6.336936712265015,-400000.0625,-12671.900390625,-948.3800048828125,-400000.0625,-5162.47998046875,-400000.0625,-12627.1298828125,-400000.0625
timestamp,ch7,ch2,ch3,ch5,is_pause
6.34699010848999,-400000.0625,-12700.849609375,-969.030029296875,-400000.0625,-5180.740234375,-400000.0625,-12648.6796875,-400000.0625
timestamp,ch7,ch2,ch3,ch5,is_pause
6.364197254180908,-400000.0625,-12726.1201171875,-992.8200073242188,-400000.0625,-5208.39990234375,-400000.0625,-12679.669921875,-400000.0625
timestamp,ch7,ch2,ch3,ch5,is_pause
6.376529693603516,-400000.0625,-12721.830078125,-989.719970703125,-400000.0625,-5203.33984375,-400000.0625,-12676.099609375,-400000.0625
timestamp,ch7,ch2,ch3,ch5,is_pause
timestamp,ch7,ch2,ch3,ch5,is_pause
6.412557125091553,-400000.0625,-12695.5498046875,-961.6400146484375,-400000.0625,-5176.68994140625,-400000.0625,-12648.2001953125,-400000.0625
6.425119876861572,-400000.0625,-12676.099609375,-944.8099975585938,-400000.0625,-5161.240234375,-400000.0625,-12632.3203125,-400000.0625
timestamp,ch7,ch2,ch3,ch5,is_pause
6.440154075622559,-400000.0625,-12703.1298828125,-971.510009765625,-400000.0625,-5184.41015625,-400000.0625,-12653.919921875,-400000.0625
timestamp,ch7,ch2,ch3,ch5,is_pause
6.456426620483398,-400000.0625,-12731.98046875,-993.8200073242188,-400000.0625,-5206.06005859375,-400000.0625,-12680.6298828125,-400000.0625
timestamp,ch7,ch2,ch3,ch5,is_pause
6.4729297161102295,-400000.0625,-12728.0703125,-990.0999755859375,-400000.0625,-5199.52978515625,-400000.0625,-12679.2900390625,-400000.0625
timestamp,ch7,ch2,ch3,ch5,is_pause
6.485429763793945,-400000.0625,-12701.8896484375,-964.260009765625,-400000.0625,-5182.02978515625,-400000.0625,-12654.9697265625,-400000.0625
timestamp,ch7,ch2,ch3,ch5,is_pause
timestamp,ch7,ch2,ch3,ch5,is_pause
6.516828298568726,-400000.0625,-12680.150390625,-946.6199951171875,-400000.0625,-5165.77001953125,-400000.0625,-12634.7099609375,-400000.0625
timestamp,ch7,ch2,ch3,ch5,is_pause
6.534937381744385,-400000.0625,-12701.7998046875,-965.5499877929688,-400000.0625,-5183.75,-400000.0625,-12656.8798828125,-400000.0625
timestamp,ch7,ch2,ch3,ch5,is_pause
6.547505855560303,-400000.0625,-12731.650390625,-990.8200073242188,-400000.0625,-5207.58984375,-400000.0625,-12689.2099609375,-400000.0625
timestamp,ch7,ch2,ch3,ch5,is_pause
6.565896987915039,-400000.0625,-12724.9697265625,-989.6300048828125,-400000.0625,-5204.8701171875,-400000.0625,-12676.0,-400000.0625
timestamp,ch7,ch2,ch3,ch5,is_pause
6.586508512496948,-400000.0625,-12703.75,-972.7000122070312,-400000.0625,-5186.60986328125,-400000.0625,-12650.349609375,-400000.0625
timestamp,ch7,ch2,ch3,ch5,is_pause
timestamp,ch7,ch2,ch3,ch5,is_pause
6.620690822601318,-400000.0625,-12688.7802734375,-958.4400024414062,-400000.0625,-5172.919921875,-400000.0625,-12639.8603515625,-400000.0625
timestamp,ch7,ch2,ch3,ch5,is_pause
6.633030891418457,-400000.0625,-12704.330078125,-970.219970703125,-400000.0625,-5186.31982421875,-400000.0625,-12652.9697265625,-400000.0625
timestamp,ch7,ch2,ch3,ch5,is_pause
6.648114919662476,-400000.0625,-12728.3095703125,-990.6300048828125,-400000.0625,-5205.35009765625,-400000.0625,-12677.150390625,-400000.0625
timestamp,ch7,ch2,ch3,ch5,is_pause
6.662912368774414,-400000.0625,-12725.5,-985.9099731445312,-400000.0625,-5201.39013671875,-400000.0625,-12672.0400390625,-400000.0625
6.674510955810547,-400000.0625,-12703.900390625,-966.1199951171875,-400000.0625,-5183.41015625,-400000.0625,-12650.25,-400000.0625
timestamp,ch7,ch2,ch3,ch5,is_pause
6.6862218379974365,-400000.0625,-12691.2099609375,-954.77001953125,-400000.0625,-5172.58984375,-400000.0625,-12638.51953125,-400000.0625
timestamp,ch7,ch2,ch3,ch5,is_pause
6.701646327972412,-400000.0625,-12707.759765625,-970.4099731445312,-400000.0625,-5185.41015625,-400000.0625,-12656.0703125,-400000.0625
timestamp,ch7,ch2,ch3,ch5,is_pause
timestamp,ch7,ch2,ch3,ch5,is_pause
6.73576545715332,-400000.0625,-12729.4599609375,-993.010009765625,-400000.0625,-5204.14990234375,-400000.0625,-12679.4404296875,-400000.0625
timestamp,ch7,ch2,ch3,ch5,is_pause
timestamp,ch7,ch2,ch3,ch5,is_pause
6.7599732875823975,-400000.0625,-12726.259765625,-989.47998046875,-400000.0625,-5202.10009765625,-400000.0625,-12675.3798828125,-400000.0625
timestamp,ch7,ch2,ch3,ch5,is_pause
6.77958607673645,-400000.0625,-12707.2802734375,-970.1699829101562,-400000.0625,-5188.509765625,-400000.0625,-12653.16015625,-400000.0625
timestamp,ch7,ch2,ch3,ch5,is_pause
6.795050621032715,-400000.0625,-12687.01953125,-955.1500244140625,-400000.0625,-5172.35009765625,-400000.0625,-12635.849609375,-400000.0625
timestamp,ch7,ch2,ch3,ch5,is_pause
6.8127663135528564,-400000.0625,-12702.509765625,-967.0700073242188,-400000.0625,-5181.60009765625,-400000.0625,-12650.1103515625,-400000.0625
timestamp,ch7,ch2,ch3,ch5,is_pause
timestamp,ch7,ch2,ch3,ch5,is_pause
6.847774505615234,-400000.0625,-12732.3603515625,-992.6799926757812,-400000.0625,-5207.58984375,-400000.0625,-12677.240234375,-400000.0625
timestamp,ch7,ch2,ch3,ch5,is_pause
6.8610029220581055,-400000.0625,-12726.1201171875,-986.5800170898438,-400000.0625,-5208.02001953125,-400000.0625,-12671.5703125,-400000.0625
timestamp,ch7,ch2,ch3,ch5,is_pause
6.880070209503174,-400000.0625,-12703.3203125,-967.5499877929688,-400000.0625,-5186.75,-400000.0625,-12649.0595703125,-400000.0625
timestamp,ch7,ch2,ch3,ch5,is_pause
6.898586750030518,-400000.0625,-12683.0595703125,-949.6199951171875,-400000.0625,-5168.81982421875,-400000.0625,-12633.66015625,-400000.0625
timestamp,ch7,ch2,ch3,ch5,is_pause
6.914165258407593,-400000.0625,-12700.5595703125,-963.2100219726562,-400000.0625,-5180.22021484375,-400000.0625,-12645.76953125,-400000.0625
timestamp,ch7,ch2,ch3,ch5,is_pause
timestamp,ch7,ch2,ch3,ch5,is_pause
timestamp,ch7,ch2,ch3,ch5,is_pause
6.954992294311523,-400000.0625,-12730.5498046875,-988.2899780273438,-400000.0625,-5205.2001953125,-400000.0625,-12671.7099609375,-400000.0625
timestamp,ch7,ch2,ch3,ch5,is_pause
6.971791982650757,-400000.0625,-12729.1201171875,-986.3900146484375,-400000.0625,-5201.85986328125,-400000.0625,-12673.240234375,-400000.0625
timestamp,ch7,ch2,ch3,ch5,is_pause
6.988825559616089,-400000.0625,-12704.7998046875,-965.1199951171875,-400000.0625,-5187.22998046875,-400000.0625,-12647.2998046875,-400000.0625
timestamp,ch7,ch2,ch3,ch5,is_pause
7.0031819343566895,-400000.0625,-12685.349609375,-949.719970703125,-400000.0625,-5168.68017578125,-400000.0625,-12633.23046875,-400000.0625
timestamp,ch7,ch2,ch3,ch5,is_pause
7.021837949752808,-400000.0625,-12698.3701171875,-964.6900024414062,-400000.0625,-5179.1201171875,-400000.0625,-12647.8203125,-400000.0625
timestamp,ch7,ch2,ch3,ch5,is_pause
7.050020933151245,-400000.0625,-12728.41015625,-990.8200073242188,-400000.0625,-5206.6298828125,-400000.0625,-12672.0400390625,-400000.0625
timestamp,ch7,ch2,ch3,ch5,is_pause
timestamp,ch7,ch2,ch3,ch5,is_pause
7.074614763259888,-400000.0625,-12731.2197265625,-989.010009765625,-400000.0625,-5209.10986328125,-400000.0625,-12676.5703125,-400000.0625
timestamp,ch7,ch2,ch3,ch5,is_pause
7.090574026107788,-400000.0625,-12705.66015625,-967.219970703125,-400000.0625,-5183.83984375,-400000.0625,-12651.5400390625,-400000.0625
timestamp,ch7,ch2,ch3,ch5,is_pause
7.108401536941528,-400000.0625,-12684.9697265625,-949.8099975585938,-400000.0625,-5162.759765625,-400000.0625,-12630.26953125,-400000.0625
timestamp,ch7,ch2,ch3,ch5,is_pause
7.126774311065674,-400000.0625,-12703.4697265625,-966.4500122070312,-400000.0625,-5182.080078125,-400000.0625,-12647.6796875,-400000.0625
timestamp,ch7,ch2,ch3,ch5,is_pause
7.150037050247192,-400000.0625,-12727.830078125,-987.010009765625,-400000.0625,-5207.16015625,-400000.0625,-12673.900390625,-400000.0625
timestamp,ch7,ch2,ch3,ch5,is_pause
7.168077707290649,-400000.0625,-12729.4599609375,-983.3300170898438,-400000.0625,-5201.43994140625,-400000.0625,-12672.51953125,-400000.0625
timestamp,ch7,ch2,ch3,ch5,is_pause
7.187739610671997,-400000.0625,-12705.1796875,-963.6900024414062,-400000.0625,-5183.97998046875,-400000.0625,-12647.9599609375,-400000.0625
7.198945760726929,-400000.0625,-12683.580078125,-948.3800048828125,-400000.0625,-5166.43994140625,-400000.0625,-12628.509765625,-400000.0625
timestamp,ch7,ch2,ch3,ch5,is_pause
7.217081546783447,-400000.0625,-12703.7998046875,-966.8400268554688,-400000.0625,-5182.35986328125,-400000.0625,-12647.919921875,-400000.0625
timestamp,ch7,ch2,ch3,ch5,is_pause
7.227993726730347,-400000.0625,-12728.6904296875,-988.3900146484375,-400000.0625,-5205.490234375,-400000.0625,-12674.51953125,-400000.0625
timestamp,ch7,ch2,ch3,ch5,is_pause
timestamp,ch7,ch2,ch3,ch5,is_pause
7.266174793243408,-400000.0625,-12731.650390625,-987.8599853515625,-400000.0625,-5207.830078125,-400000.0625,-12676.33984375,-400000.0625
timestamp,ch7,ch2,ch3,ch5,is_pause
7.278923273086548,-400000.0625,-12708.0,-975.0800170898438,-400000.0625,-5193.3798828125,-400000.0625,-12654.740234375,-400000.0625
timestamp,ch7,ch2,ch3,ch5,is_pause
7.29461669921875,-400000.0625,-12701.23046875,-966.5,-400000.0625,-5183.02978515625,-400000.0625,-12639.1904296875,-400000.0625
7.304609298706055,-400000.0625,-12703.7998046875,-964.2100219726562,-400000.0625,-5185.31982421875,-400000.0625,-12667.3701171875,-400000.0625
timestamp,ch7,ch2,ch3,ch5,is_pause
7.318972587585449,-400000.0625,-12707.66015625,-971.4099731445312,-400000.0625,-5192.7099609375,-400000.0625,-12704.419921875,-400000.0625
timestamp,ch7,ch2,ch3,ch5,is_pause
7.332118034362793,-400000.0625,-12691.5,-964.5900268554688,-400000.0625,-5191.14013671875,-400000.0625,-12713.4296875,-400000.0625
timestamp,ch7,ch2,ch3,ch5,is_pause
timestamp,ch7,ch2,ch3,ch5,is_pause
7.3679351806640625,-400000.0625,-12642.33984375,-931.5999755859375,-400000.0625,-5171.68017578125,-400000.0625,-12699.5595703125,-400000.0625
timestamp,ch7,ch2,ch3,ch5,is_pause
7.382589817047119,-400000.0625,-12601.849609375,-899.97998046875,-400000.0625,-5153.85009765625,-400000.0625,-12700.650390625,-400000.0625
timestamp,ch7,ch2,ch3,ch5,is_pause
7.3957130908966064,-400000.0625,-12594.0302734375,-900.8400268554688,-400000.0625,-5164.72021484375,-400000.0625,-12732.0302734375,-400000.0625
timestamp,ch7,ch2,ch3,ch5,is_pause
7.410923719406128,-400000.0625,-12597.990234375,-917.9600219726562,-400000.0625,-5188.31982421875,-400000.0625,-12783.580078125,-400000.0625
timestamp,ch7,ch2,ch3,ch5,is_pause
7.4273340702056885,-400000.0625,-12576.9599609375,-901.9400024414062,-400000.0625,-5185.22021484375,-400000.0625,-12796.7802734375,-400000.0625
timestamp,ch7,ch2,ch3,ch5,is_pause
7.441599369049072,-400000.0625,-12534.330078125,-864.5999755859375,-400000.0625,-5159.47021484375,-400000.0625,-12793.16015625,-400000.0625
timestamp,ch7,ch2,ch3,ch5,is_pause
timestamp,ch7,ch2,ch3,ch5,is_pause
7.473485946655273,-400000.0625,-12502.76953125,-834.75,-400000.0625,-5142.97998046875,-400000.0625,-12795.01953125,-400000.0625
timestamp,ch7,ch2,ch3,ch5,is_pause
7.495726108551025,-400000.0625,-12505.4404296875,-833.4600219726562,-400000.0625,-5150.31982421875,-400000.0625,-12823.2001953125,-400000.0625
timestamp,ch7,ch2,ch3,ch5,is_pause
7.520155429840088,-400000.0625,-12515.5,-840.8499755859375,-400000.0625,-5167.33984375,-400000.0625,-12870.2197265625,-400000.0625
timestamp,ch7,ch2,ch3,ch5,is_pause
7.537434816360474,-400000.0625,-12505.4404296875,-833.0800170898438,-400000.0625,-5167.39013671875,-400000.0625,-12884.4296875,-400000.0625
timestamp,ch7,ch2,ch3,ch5,is_pause
timestamp,ch7,ch2,ch3,ch5,is_pause
7.563464641571045,-400000.0625,-12471.33984375,-800.22998046875,-400000.0625,-5147.7900390625,-400000.0625,-12877.419921875,-400000.0625
timestamp,ch7,ch2,ch3,ch5,is_pause
timestamp,ch7,ch2,ch3,ch5,is_pause
7.5938661098480225,-400000.0625,-12447.5498046875,-773.3800048828125,-400000.0625,-5126.3798828125,-400000.0625,-12863.5400390625,-400000.0625
timestamp,ch7,ch2,ch3,ch5,is_pause
7.605438232421875,-400000.0625,-12466.0,-780.3900146484375,-400000.0625,-5139.35009765625,-400000.0625,-12890.25,-400000.0625
7.619137763977051,-400000.0625,-12487.26953125,-802.8499755859375,-400000.0625,-5161.9501953125,-400000.0625,-12925.2900390625,-400000.0625
timestamp,ch7,ch2,ch3,ch5,is_pause
7.633936405181885,-400000.0625,-12489.080078125,-804.0900268554688,-400000.0625,-5162.52978515625,-400000.0625,-12930.009765625,-400000.0625
timestamp,ch7,ch2,ch3,ch5,is_pause
7.650014877319336,-400000.0625,-12460.1396484375,-777.4400024414062,-400000.0625,-5139.64013671875,-400000.0625,-12903.6396484375,-400000.0625
timestamp,ch7,ch2,ch3,ch5,is_pause
timestamp,ch7,ch2,ch3,ch5,is_pause
7.669111728668213,-400000.0625,-12439.8203125,-759.1699829101562,-400000.0625,-5122.0400390625,-400000.0625,-12882.900390625,-400000.0625
timestamp,ch7,ch2,ch3,ch5,is_pause
timestamp,ch7,ch2,ch3,ch5,is_pause
7.701704978942871,-400000.0625,-12459.08984375,-773.8099975585938,-400000.0625,-5138.919921875,-400000.0625,-12899.6904296875,-400000.0625
timestamp,ch7,ch2,ch3,ch5,is_pause
7.71933126449585,-400000.0625,-12489.650390625,-797.8900146484375,-400000.0625,-5162.759765625,-400000.0625,-12925.099609375,-400000.0625
timestamp,ch7,ch2,ch3,ch5,is_pause
7.730440139770508,-400000.0625,-12488.7998046875,-796.5999755859375,-400000.0625,-5161.2900390625,-400000.0625,-12924.7197265625,-400000.0625
timestamp,ch7,ch2,ch3,ch5,is_pause
7.747153043746948,-400000.0625,-12467.669921875,-773.3300170898438,-400000.0625,-5139.16015625,-400000.0625,-12896.8701171875,-400000.0625
timestamp,ch7,ch2,ch3,ch5,is_pause
7.762392520904541,-400000.0625,-12452.26953125,-760.0800170898438,-400000.0625,-5126.6201171875,-400000.0625,-12880.990234375,-400000.0625
timestamp,ch7,ch2,ch3,ch5,is_pause
7.780292510986328,-400000.0625,-12471.5302734375,-776.4299926757812,-400000.0625,-5142.5498046875,-400000.0625,-12901.259765625,-400000.0625
timestamp,ch7,ch2,ch3,ch5,is_pause
timestamp,ch7,ch2,ch3,ch5,is_pause
7.81616473197937,-400000.0625,-12501.1904296875,-801.75,-400000.0625,-5164.9599609375,-400000.0625,-12928.150390625,-400000.0625
timestamp,ch7,ch2,ch3,ch5,is_pause
timestamp,ch7,ch2,ch3,ch5,is_pause
7.839786529541016,-400000.0625,-12501.5302734375,-796.8900146484375,-400000.0625,-5162.81005859375,-400000.0625,-12925.8203125,-400000.0625
timestamp,ch7,ch2,ch3,ch5,is_pause
7.859066009521484,-400000.0625,-12474.16015625,-772.760009765625,-400000.0625,-5139.830078125,-400000.0625,-12903.0703125,-400000.0625
timestamp,ch7,ch2,ch3,ch5,is_pause
7.881675958633423,-400000.0625,-12454.4599609375,-755.3599853515625,-400000.0625,-5123.81005859375,-400000.0625,-12884.0,-400000.0625
timestamp,ch7,ch2,ch3,ch5,is_pause
timestamp,ch7,ch2,ch3,ch5,is_pause
timestamp,ch7,ch2,ch3,ch5,is_pause
7.929170370101929,-400000.0625,-12473.16015625,-768.469970703125,-400000.0625,-5136.25,-400000.0625,-12893.33984375,-400000.0625
timestamp,ch7,ch2,ch3,ch5,is_pause
7.9483482837677,-400000.0625,-12497.7099609375,-788.02001953125,-400000.0625,-5153.31982421875,-400000.0625,-12921.5302734375,-400000.0625
timestamp,ch7,ch2,ch3,ch5,is_pause
7.964884042739868,-400000.0625,-12498.9501953125,-789.9299926757812,-400000.0625,-5152.89013671875,-400000.0625,-12924.48046875,-400000.0625
timestamp,ch7,ch2,ch3,ch5,is_pause
7.984070777893066,-400000.0625,-12472.9599609375,-766.1300048828125,-400000.0625,-5138.10986328125,-400000.0625,-12894.73046875,-400000.0625
timestamp,ch7,ch2,ch3,ch5,is_pause
timestamp,ch7,ch2,ch3,ch5,is_pause
8.013258934020996,-400000.0625,-12456.7001953125,-750.2100219726562,-400000.0625,-5130.2900390625,-400000.0625,-12882.66015625,-400000.0625
timestamp,ch7,ch2,ch3,ch5,is_pause
8.03145456314087,-400000.0625,-12472.490234375,-761.5999755859375,-400000.0625,-5137.830078125,-400000.0625,-12893.9599609375,-400000.0625
timestamp,ch7,ch2,ch3,ch5,is_pause
8.048973083496094,-400000.0625,-12494.51953125,-779.0599975585938,-400000.0625,-5151.1298828125,-400000.0625,-12916.66015625,-400000.0625
timestamp,ch7,ch2,ch3,ch5,is_pause
8.069759607315063,-400000.0625,-12496.66015625,-777.6300048828125,-400000.0625,-5156.27978515625,-400000.0625,-12918.330078125,-400000.0625
timestamp,ch7,ch2,ch3,ch5,is_pause
8.088373899459839,-400000.0625,-12473.6796875,-756.4500122070312,-400000.0625,-5132.91015625,-400000.0625,-12898.7802734375,-400000.0625
timestamp,ch7,ch2,ch3,ch5,is_pause
timestamp,ch7,ch2,ch3,ch5,is_pause
timestamp,ch7,ch2,ch3,ch5,is_pause
8.132444381713867,-400000.0625,-12453.26953125,-741.0499877929688,-400000.0625,-5111.41015625,-400000.0625,-12874.3203125,-400000.0625
timestamp,ch7,ch2,ch3,ch5,is_pause
8.147860527038574,-400000.0625,-12471.580078125,-753.6400146484375,-400000.0625,-5126.56982421875,-400000.0625,-12892.919921875,-400000.0625
timestamp,ch7,ch2,ch3,ch5,is_pause
8.164767265319824,-400000.0625,-12500.5302734375,-779.3400268554688,-400000.0625,-5156.7998046875,-400000.0625,-12920.669921875,-400000.0625
timestamp,ch7,ch2,ch3,ch5,is_pause
8.181099653244019,-400000.0625,-12502.76953125,-780.25,-400000.0625,-5157.81005859375,-400000.0625,-12920.8095703125,-400000.0625
timestamp,ch7,ch2,ch3,ch5,is_pause
8.19987440109253,-400000.0625,-12478.9697265625,-757.8900146484375,-400000.0625,-5135.6298828125,-400000.0625,-12898.58984375,-400000.0625
timestamp,ch7,ch2,ch3,ch5,is_pause
timestamp,ch7,ch2,ch3,ch5,is_pause
8.235340356826782,-400000.0625,-12458.5595703125,-740.9600219726562,-400000.0625,-5118.47021484375,-400000.0625,-12879.849609375,-400000.0625
timestamp,ch7,ch2,ch3,ch5,is_pause
8.265766143798828,-400000.0625,-12476.7802734375,-752.780029296875,-400000.0625,-5129.52978515625,-400000.0625,-12890.76953125,-400000.0625
timestamp,ch7,ch2,ch3,ch5,is_pause
8.281521320343018,-400000.0625,-12506.0595703125,-781.3900146484375,-400000.0625,-5158.22998046875,-400000.0625,-12918.759765625,-400000.0625
timestamp,ch7,ch2,ch3,ch5,is_pause
8.301867008209229,-400000.0625,-12506.8203125,-777.8200073242188,-400000.0625,-5158.6201171875,-400000.0625,-12920.330078125,-400000.0625
timestamp,ch7,ch2,ch3,ch5,is_pause
timestamp,ch7,ch2,ch3,ch5,is_pause
8.336618185043335,-400000.0625,-12481.599609375,-755.260009765625,-400000.0625,-5135.8701171875,-400000.0625,-12897.400390625,-400000.0625
timestamp,ch7,ch2,ch3,ch5,is_pause
timestamp,ch7,ch2,ch3,ch5,is_pause
8.354614019393921,-400000.0625,-12459.1396484375,-735.6599731445312,-400000.0625,-5117.31982421875,-400000.0625,-12873.599609375,-400000.0625
8.368811845779419,-400000.0625,-12476.830078125,-750.1599731445312,-400000.0625,-5126.6201171875,-400000.0625,-12890.4404296875,-400000.0625
timestamp,ch7,ch2,ch3,ch5,is_pause
8.384260654449463,-400000.0625,-12515.8798828125,-784.1599731445312,-400000.0625,-5160.18994140625,-400000.0625,-12923.099609375,-400000.0625
timestamp,ch7,ch2,ch3,ch5,is_pause
8.397289991378784,-400000.0625,-12517.8798828125,-787.3099975585938,-400000.0625,-5164.52978515625,-400000.0625,-12924.3896484375,-400000.0625
timestamp,ch7,ch2,ch3,ch5,is_pause
8.41750192642212,-400000.0625,-12487.83984375,-762.75,-400000.0625,-5138.35009765625,-400000.0625,-12896.58984375,-400000.0625
timestamp,ch7,ch2,ch3,ch5,is_pause
timestamp,ch7,ch2,ch3,ch5,is_pause
8.449606657028198,-400000.0625,-12473.16015625,-743.4400024414062,-400000.0625,-5120.0400390625,-400000.0625,-12870.740234375,-400000.0625
timestamp,ch7,ch2,ch3,ch5,is_pause
8.461616516113281,-400000.0625,-12492.2802734375,-754.4500122070312,-400000.0625,-5137.39990234375,-400000.0625,-12885.48046875,-400000.0625
timestamp,ch7,ch2,ch3,ch5,is_pause
8.474218130111694,-400000.0625,-12503.2001953125,-772.760009765625,-400000.0625,-5157.27978515625,-400000.0625,-12921.669921875,-400000.0625
timestamp,ch7,ch2,ch3,ch5,is_pause
8.484861612319946,-400000.0625,-12489.1796875,-767.280029296875,-400000.0625,-5144.93017578125,-400000.0625,-12925.240234375,-400000.0625
timestamp,ch7,ch2,ch3,ch5,is_pause
8.502451658248901,-400000.0625,-12459.08984375,-738.9099731445312,-400000.0625,-5125.6201171875,-400000.0625,-12906.0302734375,-400000.0625
timestamp,ch7,ch2,ch3,ch5,is_pause
8.514921426773071,-400000.0625,-12437.4404296875,-720.3599853515625,-400000.0625,-5117.419921875,-400000.0625,-12888.9599609375,-400000.0625
timestamp,ch7,ch2,ch3,ch5,is_pause
8.529357671737671,-400000.0625,-12449.599609375,-731.280029296875,-400000.0625,-5127.6201171875,-400000.0625,-12912.7998046875,-400000.0625
timestamp,ch7,ch2,ch3,ch5,is_pause
timestamp,ch7,ch2,ch3,ch5,is_pause
8.564412593841553,-400000.0625,-12477.6904296875,-752.5399780273438,-400000.0625,-5148.4599609375,-400000.0625,-12947.509765625,-400000.0625
timestamp,ch7,ch2,ch3,ch5,is_pause
8.65369963645935,-400000.0625,-12498.5703125,-785.9199829101562,-400000.0625,-5085.85009765625,-400000.0625,-12803.5595703125,-400000.0625
8.746110916137695,-400000.0625,-12480.2099609375,-767.0399780273438,-400000.0625,-5074.4501953125,-400000.0625,-12829.01953125,-400000.0625
8.7889244556427,-400000.0625,-12512.2998046875,-783.8699951171875,-400000.0625,-5089.240234375,-400000.0625,-12844.900390625,-400000.0625
8.854835510253906,-400000.0625,-12553.259765625,-818.1599731445312,-400000.0625,-5130.72021484375,-400000.0625,-12891.0595703125,-400000.0625
8.972531080245972,-400000.0625,-12532.5703125,-787.9299926757812,-400000.0625,-5106.740234375,-400000.0625,-12881.3798828125,-400000.0625
9.040892601013184,-400000.0625,-12524.1298828125,-779.2000122070312,-400000.0625,-5094.240234375,-400000.0625,-12862.25,-400000.0625
9.180863857269287,-400000.0625,-12626.2197265625,-837.280029296875,-400000.0625,-5100.5400390625,-400000.0625,-12934.01953125,-400000.0625
9.303655624389648,-400000.0625,-12625.7900390625,-831.9400024414062,-400000.0625,-5093.81005859375,-400000.0625,-12921.3798828125,-400000.0625
9.375198602676392,-400000.0625,-12617.6796875,-822.969970703125,-400000.0625,-5086.27978515625,-400000.0625,-12909.8896484375,-400000.0625
9.4295334815979,-400000.0625,-12618.1103515625,-824.4500122070312,-400000.0625,-5083.1298828125,-400000.0625,-12908.080078125,-400000.0625
9.505179643630981,-400000.0625,-12631.849609375,-826.7899780273438,-400000.0625,-5081.4599609375,-400000.0625,-12922.0498046875,-400000.0625
9.57646131515503,-400000.0625,-12638.7099609375,-835.510009765625,-400000.0625,-5086.66015625,-400000.0625,-12933.2099609375,-400000.0625
9.613914489746094,-400000.0625,-12582.919921875,-809.0,-400000.0625,-5087.9501953125,-400000.0625,-12914.75,-400000.0625
9.937090158462524,-400000.0625,-12580.830078125,-805.1400146484375,-400000.0625,-5094.85986328125,-400000.0625,-12898.73046875,-400000.0625
10.13094186782837,-400000.0625,-12590.26953125,-810.5800170898438,-400000.0625,-5090.240234375,-400000.0625,-12900.400390625,-400000.0625
10.26216173171997,-400000.0625,-12592.080078125,-807.3300170898438,-400000.0625,-5089.47021484375,-400000.0625,-12902.4501953125,-400000.0625
10.34421443939209,-400000.0625,-12580.2099609375,-804.22998046875,-400000.0625,-5080.41015625,-400000.0625,-12895.7802734375,-400000.0625
10.387932062149048,-400000.0625,-12580.1103515625,-803.3300170898438,-400000.0625,-5077.31005859375,-400000.0625,-12889.580078125,-400000.0625
10.446159601211548,-400000.0625,-12588.2197265625,-806.1900024414062,-400000.0625,-5085.7099609375,-400000.0625,-12909.0302734375,-400000.0625
10.523516416549683,-400000.0625,-12599.330078125,-811.47998046875,-400000.0625,-5093.85986328125,-400000.0625,-12911.8896484375,-400000.0625
10.61103343963623,-400000.0625,-12705.51953125,-863.6500244140625,-400000.0625,-5073.830078125,-400000.0625,-12980.650390625,-400000.0625
10.638522386550903,-400000.0625,-12705.900390625,-853.0599975585938,-400000.0625,-5074.5,-400000.0625,-12969.6396484375,-400000.0625
10.704906463623047,-400000.0625,-12694.740234375,-839.8099975585938,-400000.0625,-5065.97021484375,-400000.0625,-13007.01953125,-400000.0625
10.769789218902588,-400000.0625,-12697.9404296875,-822.9299926757812,-400000.0625,-5064.39013671875,-400000.0625,-13047.4599609375,-400000.0625
10.899364471435547,-400000.0625,-12665.23046875,-801.469970703125,-400000.0625,-5058.85986328125,-400000.0625,-13019.51953125,-400000.0625
10.974772453308105,-400000.0625,-12652.7802734375,-799.22998046875,-400000.0625,-5045.22021484375,-400000.0625,-13024.8603515625,-400000.0625
11.032433271408081,-400000.0625,-12696.5498046875,-817.010009765625,-400000.0625,-5070.31005859375,-400000.0625,-13046.7001953125,-400000.0625
11.091279029846191,-400000.0625,-12697.0302734375,-807.9500122070312,-400000.0625,-5060.43017578125,-400000.0625,-13052.990234375,-400000.0625
11.166332483291626,-400000.0625,-12821.76953125,-993.4400024414062,-400000.0625,-5101.77978515625,-400000.0625,-12869.6904296875,-400000.0625
11.363693714141846,-400000.0625,-12821.490234375,-991.2999877929688,-400000.0625,-5103.10986328125,-400000.0625,-12863.259765625,-400000.0625
11.425846815109253,-400000.0625,-12962.4404296875,-1060.77001953125,-400000.0625,-5091.2900390625,-400000.0625,-12940.1201171875,-400000.0625
11.537667751312256,-400000.0625,-13016.3203125,-1057.199951171875,-400000.0625,-5082.31982421875,-400000.0625,-12968.490234375,-400000.0625
11.601278066635132,-400000.0625,-12991.099609375,-1042.75,-400000.0625,-5063.72998046875,-400000.0625,-12919.8603515625,-400000.0625
11.695205926895142,-400000.0625,-12988.330078125,-1056.9100341796875,-400000.0625,-5083.3701171875,-400000.0625,-12927.8203125,-400000.0625
11.732634544372559,-400000.0625,-13002.8701171875,-1068.969970703125,-400000.0625,-5095.52978515625,-400000.0625,-12939.5,-400000.0625
11.788907527923584,-400000.0625,-12996.3896484375,-1064.43994140625,-400000.0625,-5094.0498046875,-400000.0625,-12936.7802734375,-400000.0625
11.876725196838379,-400000.0625,-12941.41015625,-1028.72998046875,-400000.0625,-5069.02001953125,-400000.0625,-12941.3095703125,-400000.0625
11.931252717971802,-400000.0625,-12944.1796875,-1023.2000122070312,-400000.0625,-5065.97021484375,-400000.0625,-12934.7802734375,-400000.0625
11.980101346969604,-400000.0625,-12937.259765625,-1018.9500122070312,-400000.0625,-5068.4501953125,-400000.0625,-12931.6796875,-400000.0625
12.092176675796509,-400000.0625,-12966.25,-1045.1300048828125,-400000.0625,-5094.47998046875,-400000.0625,-12960.2001953125,-400000.0625
12.137390613555908,-400000.0625,-12967.2998046875,-1052.050048828125,-400000.0625,-5091.91015625,-400000.0625,-12964.150390625,-400000.0625
12.175173282623291,-400000.0625,-12956.759765625,-1035.31005859375,-400000.0625,-5080.41015625,-400000.0625,-12952.900390625,-400000.0625
12.238792896270752,-400000.0625,-12930.58984375,-1013.6099853515625,-400000.0625,-5067.02001953125,-400000.0625,-12929.4404296875,-400000.0625
12.318632125854492,-400000.0625,-12948.900390625,-1027.5799560546875,-400000.0625,-5078.5498046875,-400000.0625,-12941.2197265625,-400000.0625
12.433969020843506,-400000.0625,-12929.76953125,-1022.3400268554688,-400000.0625,-5078.02978515625,-400000.0625,-12975.0302734375,-400000.0625
12.50124192237854,-400000.0625,-12637.0,-842.0900268554688,-400000.0625,-5069.4501953125,-400000.0625,-13024.51953125,-400000.0625
12.579617738723755,-400000.0625,-12645.580078125,-833.6099853515625,-400000.0625,-5055.89990234375,-400000.0625,-13016.650390625,-400000.0625
12.636092901229858,-400000.0625,-12621.9296875,-826.4099731445312,-400000.0625,-5071.39990234375,-400000.0625,-13038.7802734375,-400000.0625
12.688982963562012,-400000.0625,-12625.8896484375,-818.1099853515625,-400000.0625,-5074.5498046875,-400000.0625,-13029.150390625,-400000.0625
12.799961805343628,-400000.0625,-12640.2900390625,-825.6900024414062,-400000.0625,-5077.64990234375,-400000.0625,-13043.830078125,-400000.0625
12.880006551742554,-400000.0625,-12628.3701171875,-809.3400268554688,-400000.0625,-5060.81982421875,-400000.0625,-13024.330078125,-400000.0625
12.940476179122925,-400000.0625,-12609.150390625,-825.3099975585938,-400000.0625,-5078.89013671875,-400000.0625,-12966.919921875,-400000.0625
13.020787715911865,-400000.0625,-12630.7998046875,-838.7100219726562,-400000.0625,-5093.6201171875,-400000.0625,-12981.1796875,-400000.0625
13.07511568069458,-400000.0625,-12654.740234375,-832.8400268554688,-400000.0625,-5091.6201171875,-400000.0625,-12981.6103515625,-400000.0625
13.184302568435669,-400000.0625,-12653.2099609375,-817.9199829101562,-400000.0625,-5069.2998046875,-400000.0625,-13035.1103515625,-400000.0625
13.275437593460083,-400000.0625,-12675.759765625,-801.3200073242188,-400000.0625,-5058.33984375,-400000.0625,-13030.099609375,-400000.0625
13.332061052322388,-400000.0625,-12953.0400390625,-1023.9600219726562,-400000.0625,-5067.68017578125,-400000.0625,-13002.9697265625,-400000.0625
13.417929649353027,-400000.0625,-12950.4697265625,-1017.8099975585938,-400000.0625,-5072.5,-400000.0625,-12989.08984375,-400000.0625
13.456040620803833,-400000.0625,-12955.759765625,-1028.780029296875,-400000.0625,-5052.66015625,-400000.0625,-12909.0302734375,-400000.0625
13.581432104110718,-400000.0625,-12965.4404296875,-1037.0699462890625,-400000.0625,-5062.2900390625,-400000.0625,-12922.33984375,-400000.0625
13.645331144332886,-400000.0625,-12950.849609375,-1044.4200439453125,-400000.0625,-5071.1201171875,-400000.0625,-12955.51953125,-400000.0625
13.784520864486694,-400000.0625,-12612.919921875,-795.7000122070312,-400000.0625,-5045.31982421875,-400000.0625,-13049.8896484375,-400000.0625
13.84907054901123,-400000.0625,-12620.5498046875,-790.2100219726562,-400000.0625,-5045.18017578125,-400000.0625,-13038.9697265625,-400000.0625
13.93053412437439,-400000.0625,-12640.330078125,-809.4299926757812,-400000.0625,-5055.0,-400000.0625,-13028.9599609375,-400000.0625
14.068944454193115,-400000.0625,-12660.740234375,-819.4000244140625,-400000.0625,-5067.35009765625,-400000.0625,-13044.6396484375,-400000.0625
14.174901723861694,-400000.0625,-12638.1396484375,-794.7000122070312,-400000.0625,-5041.169921875,-400000.0625,-13016.26953125,-400000.0625
14.264258623123169,-400000.0625,-12647.8203125,-811.5800170898438,-400000.0625,-5047.419921875,-400000.0625,-13025.2900390625,-400000.0625
14.37259840965271,-400000.0625,-12670.6103515625,-816.77001953125,-400000.0625,-5066.35009765625,-400000.0625,-13036.919921875,-400000.0625
14.433120727539062,-400000.0625,-12662.080078125,-808.4299926757812,-400000.0625,-5053.9501953125,-400000.0625,-13023.0,-400000.0625
14.494163751602173,-400000.0625,-12649.25,-797.3200073242188,-400000.0625,-5040.83984375,-400000.0625,-13005.1201171875,-400000.0625
14.558032751083374,-400000.0625,-12667.6103515625,-813.2899780273438,-400000.0625,-5054.89990234375,-400000.0625,-13017.080078125,-400000.0625
14.650257587432861,-400000.0625,-12655.830078125,-801.6599731445312,-400000.0625,-5048.7001953125,-400000.0625,-13004.259765625,-400000.0625
14.704162836074829,-400000.0625,-12671.51953125,-812.3400268554688,-400000.0625,-5058.6201171875,-400000.0625,-13017.6103515625,-400000.0625
14.736708402633667,-400000.0625,-12696.5498046875,-834.0800170898438,-400000.0625,-5074.31005859375,-400000.0625,-13036.349609375,-400000.0625
14.803504943847656,-400000.0625,-12663.0302734375,-800.0900268554688,-400000.0625,-5046.93994140625,-400000.0625,-13002.2099609375,-400000.0625
15.022138833999634,-400000.0625,-12706.23046875,-837.1400146484375,-400000.0625,-5080.3701171875,-400000.0625,-13041.9697265625,-400000.0625
15.059824705123901,-400000.0625,-12545.919921875,-620.75,-400000.0625,-5021.2900390625,-400000.0625,-13203.9599609375,-400000.0625
15.126399993896484,-400000.0625,-12538.76953125,-605.8699951171875,-400000.0625,-5012.85009765625,-400000.0625,-13185.7900390625,-400000.0625
15.179795742034912,-400000.0625,-12561.849609375,-620.5599975585938,-400000.0625,-5028.81982421875,-400000.0625,-13201.0,-400000.0625
15.24765157699585,-400000.0625,-12568.9501953125,-623.7000122070312,-400000.0625,-5022.85986328125,-400000.0625,-13199.6201171875,-400000.0625
15.345129251480103,-400000.0625,-12583.259765625,-636.0999755859375,-400000.0625,-5041.60009765625,-400000.0625,-13214.16015625,-400000.0625
15.45023798942566,-400000.0625,-12579.5400390625,-629.7100219726562,-400000.0625,-5031.8701171875,-400000.0625,-13198.08984375,-400000.0625
15.571585655212402,-400000.0625,-12570.8095703125,-628.469970703125,-400000.0625,-5024.14990234375,-400000.0625,-13187.0302734375,-400000.0625
15.728659391403198,-400000.0625,-12581.400390625,-639.0599975585938,-400000.0625,-5034.830078125,-400000.0625,-13194.3701171875,-400000.0625
15.821375846862793,-400000.0625,-12579.490234375,-622.1300048828125,-400000.0625,-5019.56982421875,-400000.0625,-13179.73046875,-400000.0625
15.889644384384155,-400000.0625,-12623.83984375,-687.8900146484375,-400000.0625,-5048.60986328125,-400000.0625,-13187.4599609375,-400000.0625
15.981303930282593,-400000.0625,-12631.849609375,-694.3200073242188,-400000.0625,-5059.81982421875,-400000.0625,-13188.7900390625,-400000.0625
16.021389961242676,-400000.0625,-12613.349609375,-682.8800048828125,-400000.0625,-5047.419921875,-400000.0625,-13172.8203125,-400000.0625
16.13320827484131,-400000.0625,-12680.0595703125,-841.239990234375,-400000.0625,-5077.31005859375,-400000.0625,-13036.6298828125,-400000.0625
16.229482412338257,-400000.0625,-12702.5595703125,-862.6500244140625,-400000.0625,-5090.81005859375,-400000.0625,-13029.240234375,-400000.0625
16.289602756500244,-400000.0625,-12714.33984375,-871.7999877929688,-400000.0625,-5098.919921875,-400000.0625,-13036.5400390625,-400000.0625
16.337783813476562,-400000.0625,-12701.5595703125,-858.5,-400000.0625,-5083.3701171875,-400000.0625,-13028.9599609375,-400000.0625
16.39872169494629,-400000.0625,-12675.1396484375,-837.9500122070312,-400000.0625,-5067.68017578125,-400000.0625,-12995.8203125,-400000.0625
16.48767066001892,-400000.0625,-12679.669921875,-843.760009765625,-400000.0625,-5067.68017578125,-400000.0625,-13003.16015625,-400000.0625
16.627774715423584,-400000.0625,-12713.5302734375,-882.0999755859375,-400000.0625,-5103.16015625,-400000.0625,-13034.2001953125,-400000.0625
timestamp,ch7,ch2,ch3,ch5,is_pause
16.813779830932617,-400000.0625,-12671.2802734375,-844.0999755859375,-400000.0625,-5065.16015625,-400000.0625,-12993.1904296875,-400000.0625
16.844992637634277,-400000.0625,-12679.8203125,-850.489990234375,-400000.0625,-5072.39990234375,-400000.0625,-12995.669921875,-400000.0625
16.865121841430664,-400000.0625,-12704.66015625,-872.3300170898438,-400000.0625,-5089.330078125,-400000.0625,-13022.0400390625,-400000.0625
16.89042329788208,-400000.0625,-12716.2900390625,-883.8699951171875,-400000.0625,-5099.81982421875,-400000.0625,-13027.8095703125,-400000.0625
16.910135746002197,-400000.0625,-12697.169921875,-867.7000122070312,-400000.0625,-5087.9501953125,-400000.0625,-13012.41015625,-400000.0625
16.935744524002075,-400000.0625,-12677.0,-850.4400024414062,-400000.0625,-5065.8701171875,-400000.0625,-12994.91015625,-400000.0625
16.97541570663452,-400000.0625,-12682.009765625,-852.6799926757812,-400000.0625,-5070.31005859375,-400000.0625,-12996.33984375,-400000.0625
16.98973035812378,-400000.0625,-12711.0,-883.1500244140625,-400000.0625,-5101.8701171875,-400000.0625,-13024.0,-400000.0625
17.010058403015137,-400000.0625,-12725.6396484375,-892.9299926757812,-400000.0625,-5111.1201171875,-400000.0625,-13032.150390625,-400000.0625
17.032633304595947,-400000.0625,-12704.7099609375,-876.6199951171875,-400000.0625,-5091.43017578125,-400000.0625,-13016.8896484375,-400000.0625
17.04852557182312,-400000.0625,-12679.76953125,-855.1599731445312,-400000.0625,-5067.2998046875,-400000.0625,-12994.2001953125,-400000.0625
17.087224006652832,-400000.0625,-12687.490234375,-855.2999877929688,-400000.0625,-5075.41015625,-400000.0625,-12992.8095703125,-400000.0625
17.10502862930298,-400000.0625,-12712.76953125,-879.1900024414062,-400000.0625,-5097.72021484375,-400000.0625,-13023.08984375,-400000.0625
17.1302330493927,-400000.0625,-12717.919921875,-886.2999877929688,-400000.0625,-5107.830078125,-400000.0625,-13033.6796875,-400000.0625
17.148874044418335,-400000.0625,-12701.3203125,-875.760009765625,-400000.0625,-5099.14990234375,-400000.0625,-13009.599609375,-400000.0625
17.18273138999939,-400000.0625,-12682.33984375,-856.1599731445312,-400000.0625,-5077.7001953125,-400000.0625,-12990.5703125,-400000.0625
17.200056552886963,-400000.0625,-12686.9697265625,-856.5399780273438,-400000.0625,-5077.4599609375,-400000.0625,-12999.349609375,-400000.0625
17.217518091201782,-400000.0625,-12713.8603515625,-880.1900024414062,-400000.0625,-5101.81982421875,-400000.0625,-13023.1396484375,-400000.0625
17.240331172943115,-400000.0625,-12723.919921875,-892.4000244140625,-400000.0625,-5104.490234375,-400000.0625,-13030.7197265625,-400000.0625
17.2577006816864,-400000.0625,-12706.419921875,-876.760009765625,-400000.0625,-5091.14013671875,-400000.0625,-13016.7998046875,-400000.0625
17.295551300048828,-400000.0625,-12681.0595703125,-855.489990234375,-400000.0625,-5078.35986328125,-400000.0625,-12992.099609375,-400000.0625
17.31271505355835,-400000.0625,-12683.6298828125,-856.6400146484375,-400000.0625,-5084.3701171875,-400000.0625,-12994.48046875,-400000.0625
17.334249019622803,-400000.0625,-12713.099609375,-879.8099975585938,-400000.0625,-5109.169921875,-400000.0625,-13020.66015625,-400000.0625
17.35187005996704,-400000.0625,-12721.830078125,-888.1099853515625,-400000.0625,-5115.4599609375,-400000.0625,-13030.91015625,-400000.0625
17.36748433113098,-400000.0625,-12706.51953125,-875.3800048828125,-400000.0625,-5096.43994140625,-400000.0625,-13014.5595703125,-400000.0625
17.403387308120728,-400000.0625,-12682.580078125,-853.010009765625,-400000.0625,-5078.31982421875,-400000.0625,-12992.8095703125,-400000.0625
17.418979167938232,-400000.0625,-12682.73046875,-851.969970703125,-400000.0625,-5075.02978515625,-400000.0625,-12991.1396484375,-400000.0625
17.434180736541748,-400000.0625,-12716.25,-880.3400268554688,-400000.0625,-5098.68017578125,-400000.0625,-13017.7001953125,-400000.0625
17.454477548599243,-400000.0625,-12726.8798828125,-890.260009765625,-400000.0625,-5113.93994140625,-400000.0625,-13031.2001953125,-400000.0625
17.47193717956543,-400000.0625,-12706.330078125,-872.6599731445312,-400000.0625,-5099.81982421875,-400000.0625,-13010.0703125,-400000.0625
17.499372243881226,-400000.0625,-12685.2099609375,-855.969970703125,-400000.0625,-5078.75,-400000.0625,-12989.2802734375,-400000.0625
17.520076513290405,-400000.0625,-12687.919921875,-858.02001953125,-400000.0625,-5078.7001953125,-400000.0625,-12994.7197265625,-400000.0625
17.536185264587402,-400000.0625,-12719.25,-879.4299926757812,-400000.0625,-5099.43994140625,-400000.0625,-13022.23046875,-400000.0625
17.55884099006653,-400000.0625,-12734.26953125,-888.1599731445312,-400000.0625,-5111.41015625,-400000.0625,-13037.16015625,-400000.0625
17.578034162521362,-400000.0625,-12721.9697265625,-876.9000244140625,-400000.0625,-5097.6298828125,-400000.0625,-13018.7998046875,-400000.0625
17.61826515197754,-400000.0625,-12692.8798828125,-859.4500122070312,-400000.0625,-5078.1298828125,-400000.0625,-12987.4697265625,-400000.0625
17.63441491127014,-400000.0625,-12689.6396484375,-866.7000122070312,-400000.0625,-5079.93994140625,-400000.0625,-12990.669921875,-400000.0625
17.661622762680054,-400000.0625,-12732.2197265625,-898.5499877929688,-400000.0625,-5110.740234375,-400000.0625,-13023.6201171875,-400000.0625
17.68033790588379,-400000.0625,-12742.08984375,-902.9400024414062,-400000.0625,-5115.41015625,-400000.0625,-13032.150390625,-400000.0625
17.712038278579712,-400000.0625,-12723.73046875,-889.8699951171875,-400000.0625,-5098.52978515625,-400000.0625,-13006.740234375,-400000.0625
17.728700876235962,-400000.0625,-12699.3203125,-868.22998046875,-400000.0625,-5075.83984375,-400000.0625,-12983.2802734375,-400000.0625
17.74464201927185,-400000.0625,-12699.0302734375,-871.9400024414062,-400000.0625,-5077.64990234375,-400000.0625,-12989.8095703125,-400000.0625
17.761836528778076,-400000.0625,-12732.599609375,-896.1199951171875,-400000.0625,-5101.43994140625,-400000.0625,-13018.5595703125,-400000.0625
17.789790153503418,-400000.0625,-12741.7099609375,-904.3699951171875,-400000.0625,-5110.1201171875,-400000.0625,-13026.4296875,-400000.0625
17.82405948638916,-400000.0625,-12724.2099609375,-890.5900268554688,-400000.0625,-5099.490234375,-400000.0625,-13008.8798828125,-400000.0625
17.838676691055298,-400000.0625,-12700.1796875,-869.1300048828125,-400000.0625,-5080.56005859375,-400000.0625,-12992.0,-400000.0625
17.865419626235962,-400000.0625,-12707.1396484375,-872.7999877929688,-400000.0625,-5079.7001953125,-400000.0625,-12990.759765625,-400000.0625
17.89357829093933,-400000.0625,-12731.650390625,-897.3599853515625,-400000.0625,-5102.43994140625,-400000.0625,-13015.3701171875,-400000.0625
17.94017243385315,-400000.0625,-12741.3798828125,-904.27001953125,-400000.0625,-5119.27978515625,-400000.0625,-13021.51953125,-400000.0625
17.962056636810303,-400000.0625,-12722.5400390625,-884.719970703125,-400000.0625,-5100.6298828125,-400000.0625,-12999.8203125,-400000.0625
17.975733995437622,-400000.0625,-12699.5595703125,-868.27001953125,-400000.0625,-5085.52001953125,-400000.0625,-12980.41015625,-400000.0625
18.005080699920654,-400000.0625,-12704.08984375,-871.6099853515625,-400000.0625,-5088.9501953125,-400000.0625,-12987.23046875,-400000.0625
18.051303386688232,-400000.0625,-12729.0302734375,-894.02001953125,-400000.0625,-5108.64013671875,-400000.0625,-13016.26953125,-400000.0625
18.068806648254395,-400000.0625,-12738.990234375,-898.4600219726562,-400000.0625,-5113.93994140625,-400000.0625,-13024.51953125,-400000.0625
18.085427045822144,-400000.0625,-12725.259765625,-883.0999755859375,-400000.0625,-5098.919921875,-400000.0625,-13006.16015625,-400000.0625
18.111093521118164,-400000.0625,-12700.9404296875,-865.7899780273438,-400000.0625,-5080.3701171875,-400000.0625,-12981.7998046875,-400000.0625
18.150161504745483,-400000.0625,-12700.3203125,-864.7899780273438,-400000.0625,-5081.990234375,-400000.0625,-12985.3701171875,-400000.0625
18.172531604766846,-400000.0625,-12726.5,-888.0599975585938,-400000.0625,-5103.68017578125,-400000.0625,-13007.6904296875,-400000.0625
18.19085693359375,-400000.0625,-12739.759765625,-896.3099975585938,-400000.0625,-5113.169921875,-400000.0625,-13017.1298828125,-400000.0625
18.215532302856445,-400000.0625,-12720.919921875,-882.3900146484375,-400000.0625,-5098.06005859375,-400000.0625,-12998.0595703125,-400000.0625
18.275572538375854,-400000.0625,-12697.98046875,-863.8400268554688,-400000.0625,-5080.89013671875,-400000.0625,-12976.5498046875,-400000.0625
18.303776502609253,-400000.0625,-12700.3701171875,-865.6500244140625,-400000.0625,-5085.27978515625,-400000.0625,-12982.23046875,-400000.0625
18.325135946273804,-400000.0625,-12726.169921875,-886.8200073242188,-400000.0625,-5105.35009765625,-400000.0625,-13007.169921875,-400000.0625
18.376838445663452,-400000.0625,-12733.8896484375,-893.8300170898438,-400000.0625,-5113.02978515625,-400000.0625,-13016.0302734375,-400000.0625
18.40411901473999,-400000.0625,-12713.150390625,-875.3800048828125,-400000.0625,-5097.490234375,-400000.0625,-12997.0595703125,-400000.0625
18.427073001861572,-400000.0625,-12695.9296875,-858.5900268554688,-400000.0625,-5078.02978515625,-400000.0625,-12977.5498046875,-400000.0625
18.46495294570923,-400000.0625,-12697.75,-862.6900024414062,-400000.0625,-5079.7001953125,-400000.0625,-12981.080078125,-400000.0625
18.489807844161987,-400000.0625,-12725.3095703125,-890.969970703125,-400000.0625,-5106.5498046875,-400000.0625,-13010.3603515625,-400000.0625
18.510212659835815,-400000.0625,-12739.08984375,-900.4600219726562,-400000.0625,-5115.02978515625,-400000.0625,-13021.5703125,-400000.0625
18.52951145172119,-400000.0625,-12721.0595703125,-885.9199829101562,-400000.0625,-5104.8798828125,-400000.0625,-13008.9296875,-400000.0625
18.57106590270996,-400000.0625,-12696.740234375,-864.8900146484375,-400000.0625,-5085.22998046875,-400000.0625,-12983.1796875,-400000.0625
18.58608102798462,-400000.0625,-12702.0400390625,-870.6099853515625,-400000.0625,-5086.08984375,-400000.0625,-12983.509765625,-400000.0625
18.602165937423706,-400000.0625,-12730.080078125,-891.260009765625,-400000.0625,-5106.740234375,-400000.0625,-13006.3095703125,-400000.0625
18.615315675735474,-400000.0625,-12736.6103515625,-898.5999755859375,-400000.0625,-5117.1298828125,-400000.0625,-13014.8896484375,-400000.0625
18.629563331604004,-400000.0625,-12715.150390625,-880.8099975585938,-400000.0625,-5099.77001953125,-400000.0625,-12996.6298828125,-400000.0625
18.675275564193726,-400000.0625,-12688.830078125,-856.5399780273438,-400000.0625,-5074.06982421875,-400000.0625,-12976.169921875,-400000.0625
timestamp,ch7,ch2,ch3,ch5,is_pause
18.701217651367188,-400000.0625,-12693.650390625,-864.510009765625,-400000.0625,-5079.990234375,-400000.0625,-12980.3701171875,-400000.0625
18.727267265319824,-400000.0625,-12729.169921875,-898.1699829101562,-400000.0625,-5111.35986328125,-400000.0625,-13009.740234375,-400000.0625
18.746192455291748,-400000.0625,-12742.0,-906.1799926757812,-400000.0625,-5120.1298828125,-400000.0625,-13016.509765625,-400000.0625
18.792049646377563,-400000.0625,-12721.9697265625,-890.72998046875,-400000.0625,-5104.39990234375,-400000.0625,-12995.3896484375,-400000.0625
18.819000959396362,-400000.0625,-12698.990234375,-871.22998046875,-400000.0625,-5086.9501953125,-400000.0625,-12971.16015625,-400000.0625
18.840348720550537,-400000.0625,-12704.9501953125,-873.1799926757812,-400000.0625,-5086.990234375,-400000.0625,-12975.1201171875,-400000.0625
18.85503315925598,-400000.0625,-12731.41015625,-896.9299926757812,-400000.0625,-5109.35986328125,-400000.0625,-13002.1103515625,-400000.0625
18.90072274208069,-400000.0625,-12740.900390625,-903.7999877929688,-400000.0625,-5117.509765625,-400000.0625,-13007.169921875,-400000.0625
18.920989990234375,-400000.0625,-12719.8203125,-888.6799926757812,-400000.0625,-5101.5400390625,-400000.0625,-12993.0,-400000.0625
18.936898946762085,-400000.0625,-12698.7001953125,-872.3300170898438,-400000.0625,-5085.47021484375,-400000.0625,-12975.6904296875,-400000.0625
18.95141839981079,-400000.0625,-12711.33984375,-872.469970703125,-400000.0625,-5087.89990234375,-400000.0625,-12979.9404296875,-400000.0625
18.97206735610962,-400000.0625,-12746.33984375,-891.6900024414062,-400000.0625,-5108.2099609375,-400000.0625,-13009.3603515625,-400000.0625
19.0105619430542,-400000.0625,-12758.4501953125,-904.4600219726562,-400000.0625,-5120.52001953125,-400000.0625,-13013.8896484375,-400000.0625
19.038047790527344,-400000.0625,-12733.26953125,-903.7999877929688,-400000.0625,-5113.02978515625,-400000.0625,-12985.51953125,-400000.0625
19.061612844467163,-400000.0625,-12716.150390625,-892.260009765625,-400000.0625,-5089.18994140625,-400000.0625,-12963.490234375,-400000.0625
19.078851222991943,-400000.0625,-12726.1201171875,-892.72998046875,-400000.0625,-5091.10009765625,-400000.0625,-12959.9599609375,-400000.0625
19.12148380279541,-400000.0625,-12761.01953125,-928.5900268554688,-400000.0625,-5115.83984375,-400000.0625,-12977.5498046875,-400000.0625
19.137497663497925,-400000.0625,-12783.8603515625,-948.1400146484375,-400000.0625,-5126.56982421875,-400000.0625,-12983.990234375,-400000.0625
19.158977270126343,-400000.0625,-12773.2802734375,-939.989990234375,-400000.0625,-5115.64990234375,-400000.0625,-12961.91015625,-400000.0625
19.186097860336304,-400000.0625,-12755.73046875,-930.1199951171875,-400000.0625,-5097.52978515625,-400000.0625,-12931.2998046875,-400000.0625
19.21750259399414,-400000.0625,-12757.1103515625,-937.219970703125,-400000.0625,-5099.2001953125,-400000.0625,-12930.16015625,-400000.0625
19.233885288238525,-400000.0625,-12783.240234375,-964.5,-400000.0625,-5118.93994140625,-400000.0625,-12956.7197265625,-400000.0625
19.250735759735107,-400000.0625,-12801.2197265625,-975.3200073242188,-400000.0625,-5129.72021484375,-400000.0625,-12963.5302734375,-400000.0625
19.271599292755127,-400000.0625,-12779.240234375,-956.72998046875,-400000.0625,-5113.27001953125,-400000.0625,-12944.5595703125,-400000.0625
19.285051822662354,-400000.0625,-12756.349609375,-937.1300048828125,-400000.0625,-5098.25,-400000.0625,-12922.150390625,-400000.0625
19.31211566925049,-400000.0625,-12755.25,-937.6500244140625,-400000.0625,-5102.2099609375,-400000.0625,-12921.8095703125,-400000.0625
19.35624408721924,-400000.0625,-12782.669921875,-960.1599731445312,-400000.0625,-5122.66015625,-400000.0625,-12946.0400390625,-400000.0625
19.375619173049927,-400000.0625,-12790.0595703125,-966.219970703125,-400000.0625,-5125.9501953125,-400000.0625,-12953.8603515625,-400000.0625
19.39884853363037,-400000.0625,-12772.990234375,-952.2899780273438,-400000.0625,-5113.89013671875,-400000.0625,-12938.169921875,-400000.0625
19.418012380599976,-400000.0625,-12753.8203125,-933.5499877929688,-400000.0625,-5092.85986328125,-400000.0625,-12913.4697265625,-400000.0625
19.462591886520386,-400000.0625,-12754.16015625,-933.97998046875,-400000.0625,-5093.6201171875,-400000.0625,-12914.5595703125,-400000.0625
19.491286516189575,-400000.0625,-12780.2900390625,-955.9199829101562,-400000.0625,-5119.66015625,-400000.0625,-12942.83984375,-400000.0625
19.507553339004517,-400000.0625,-12794.3095703125,-968.6500244140625,-400000.0625,-5130.6298828125,-400000.0625,-12956.1904296875,-400000.0625
19.5289626121521,-400000.0625,-12774.0400390625,-955.2999877929688,-400000.0625,-5115.83984375,-400000.0625,-12934.8798828125,-400000.0625
19.563101768493652,-400000.0625,-12757.73046875,-940.4199829101562,-400000.0625,-5099.10986328125,-400000.0625,-12915.759765625,-400000.0625
19.584909200668335,-400000.0625,-12757.16015625,-939.6599731445312,-400000.0625,-5102.5400390625,-400000.0625,-12916.900390625,-400000.0625
19.60393214225769,-400000.0625,-12786.7197265625,-963.780029296875,-400000.0625,-5126.0498046875,-400000.0625,-12942.26953125,-400000.0625
19.62583565711975,-400000.0625,-12803.650390625,-974.6599731445312,-400000.0625,-5134.2001953125,-400000.0625,-12955.51953125,-400000.0625
19.65250539779663,-400000.0625,-12778.7099609375,-955.8699951171875,-400000.0625,-5117.18017578125,-400000.0625,-12936.9296875,-400000.0625
19.702481031417847,-400000.0625,-12757.73046875,-934.5499877929688,-400000.0625,-5099.77001953125,-400000.0625,-12910.2197265625,-400000.0625
19.726635932922363,-400000.0625,-12761.7900390625,-938.8900146484375,-400000.0625,-5100.919921875,-400000.0625,-12915.4697265625,-400000.0625
19.749454736709595,-400000.0625,-12786.7197265625,-963.3099975585938,-400000.0625,-5119.990234375,-400000.0625,-12941.650390625,-400000.0625
19.7822265625,-400000.0625,-12799.0302734375,-975.5599975585938,-400000.0625,-5133.2998046875,-400000.0625,-12950.759765625,-400000.0625
19.838024377822876,-400000.0625,-12778.5703125,-958.0599975585938,-400000.0625,-5120.52001953125,-400000.0625,-12932.7802734375,-400000.0625
19.862398624420166,-400000.0625,-12755.2998046875,-937.0800170898438,-400000.0625,-5102.68017578125,-400000.0625,-12910.650390625,-400000.0625
19.89694571495056,-400000.0625,-12756.58984375,-937.030029296875,-400000.0625,-5100.919921875,-400000.0625,-12914.990234375,-400000.0625
19.933499336242676,-400000.0625,-12788.4404296875,-964.0700073242188,-400000.0625,-5121.66015625,-400000.0625,-12943.3603515625,-400000.0625
19.9667866230011,-400000.0625,-12802.98046875,-977.75,-400000.0625,-5132.8701171875,-400000.0625,-12955.0498046875,-400000.0625
19.981510400772095,-400000.0625,-12782.0,-965.0700073242188,-400000.0625,-5121.85009765625,-400000.0625,-12936.1201171875,-400000.0625
20.012871742248535,-400000.0625,-12754.0595703125,-936.8400268554688,-400000.0625,-5098.2998046875,-400000.0625,-12913.66015625,-400000.0625
20.058878183364868,-400000.0625,-12756.16015625,-935.97998046875,-400000.0625,-5093.6201171875,-400000.0625,-12909.1298828125,-400000.0625
20.073086738586426,-400000.0625,-12789.5400390625,-964.97998046875,-400000.0625,-5121.18017578125,-400000.0625,-12938.3095703125,-400000.0625
20.09123969078064,-400000.0625,-12798.7900390625,-974.7000122070312,-400000.0625,-5136.2998046875,-400000.0625,-12953.66015625,-400000.0625
20.10969042778015,-400000.0625,-12779.0498046875,-956.25,-400000.0625,-5119.7099609375,-400000.0625,-12936.259765625,-400000.0625
20.128571033477783,-400000.0625,-12755.9697265625,-936.27001953125,-400000.0625,-5102.58984375,-400000.0625,-12912.990234375,-400000.0625
20.187471866607666,-400000.0625,-12762.3603515625,-940.22998046875,-400000.0625,-5109.740234375,-400000.0625,-12917.51953125,-400000.0625
20.2150456905365,-400000.0625,-12789.1103515625,-963.780029296875,-400000.0625,-5130.2001953125,-400000.0625,-12944.26953125,-400000.0625
20.230873107910156,-400000.0625,-12799.5,-973.7000122070312,-400000.0625,-5138.5400390625,-400000.0625,-12957.5302734375,-400000.0625
20.29534125328064,-400000.0625,-12786.0595703125,-956.1099853515625,-400000.0625,-5116.18017578125,-400000.0625,-12942.98046875,-400000.0625
20.31444549560547,-400000.0625,-12759.01953125,-929.8300170898438,-400000.0625,-5090.81005859375,-400000.0625,-12913.849609375,-400000.0625
20.33121347427368,-400000.0625,-12759.01953125,-940.1799926757812,-400000.0625,-5093.33984375,-400000.0625,-12906.41015625,-400000.0625
20.373138904571533,-400000.0625,-12796.5,-974.3699951171875,-400000.0625,-5127.2900390625,-400000.0625,-12931.0595703125,-400000.0625
20.39038586616516,-400000.0625,-12813.9501953125,-985.3800048828125,-400000.0625,-5140.830078125,-400000.0625,-12941.4599609375,-400000.0625
20.423351764678955,-400000.0625,-12801.2197265625,-973.510009765625,-400000.0625,-5129.39013671875,-400000.0625,-12919.6201171875,-400000.0625
20.4587140083313,-400000.0625,-12776.0400390625,-956.010009765625,-400000.0625,-5108.60009765625,-400000.0625,-12893.0595703125,-400000.0625
20.498412132263184,-400000.0625,-12775.849609375,-960.25,-400000.0625,-5107.31005859375,-400000.0625,-12891.6298828125,-400000.0625
20.52021861076355,-400000.0625,-12807.23046875,-983.719970703125,-400000.0625,-5131.10009765625,-400000.0625,-12919.3798828125,-400000.0625
20.55113434791565,-400000.0625,-12820.099609375,-993.1599731445312,-400000.0625,-5139.77978515625,-400000.0625,-12935.1201171875,-400000.0625
20.570627689361572,-400000.0625,-12796.58984375,-976.4199829101562,-400000.0625,-5119.3701171875,-400000.0625,-12919.48046875,-400000.0625
20.617972135543823,-400000.0625,-12773.2802734375,-958.25,-400000.0625,-5100.2001953125,-400000.0625,-12891.009765625,-400000.0625
20.63427448272705,-400000.0625,-12770.509765625,-955.6799926757812,-400000.0625,-5100.580078125,-400000.0625,-12888.7197265625,-400000.0625
20.665990829467773,-400000.0625,-12799.0703125,-980.760009765625,-400000.0625,-5128.52978515625,-400000.0625,-12916.759765625,-400000.0625
20.69002938270569,-400000.0625,-12812.0,-989.8699951171875,-400000.0625,-5137.25,-400000.0625,-12928.76953125,-400000.0625
20.735613346099854,-400000.0625,-12794.73046875,-978.1799926757812,-400000.0625,-5128.14990234375,-400000.0625,-12916.4697265625,-400000.0625
20.77278780937195,-400000.0625,-12769.990234375,-958.010009765625,-400000.0625,-5105.259765625,-400000.0625,-12892.0595703125,-400000.0625
20.808735132217407,-400000.0625,-12770.26953125,-956.1500244140625,-400000.0625,-5106.02001953125,-400000.0625,-12888.3896484375,-400000.0625
20.85609006881714,-400000.0625,-12798.5,-979.469970703125,-400000.0625,-5126.18994140625,-400000.0625,-12916.6103515625,-400000.0625
20.873467683792114,-400000.0625,-12811.9501953125,-991.3400268554688,-400000.0625,-5139.5400390625,-400000.0625,-12927.919921875,-400000.0625
20.897526741027832,-400000.0625,-12791.400390625,-974.4199829101562,-400000.0625,-5123.330078125,-400000.0625,-12912.66015625,-400000.0625
20.923951387405396,-400000.0625,-12762.98046875,-952.0499877929688,-400000.0625,-5100.8701171875,-400000.0625,-12887.5302734375,-400000.0625
20.966904878616333,-400000.0625,-12765.26953125,-949.760009765625,-400000.0625,-5102.58984375,-400000.0625,-12888.5302734375,-400000.0625
20.988545656204224,-400000.0625,-12790.9697265625,-970.8900146484375,-400000.0625,-5131.14990234375,-400000.0625,-12914.4697265625,-400000.0625
21.00752305984497,-400000.0625,-12802.9404296875,-986.77001953125,-400000.0625,-5135.81982421875,-400000.0625,-12926.3896484375,-400000.0625
21.03122043609619,-400000.0625,-12797.7900390625,-977.280029296875,-400000.0625,-5126.0498046875,-400000.0625,-12911.6103515625,-400000.0625
21.07789897918701,-400000.0625,-12771.8896484375,-954.9600219726562,-400000.0625,-5105.31005859375,-400000.0625,-12889.669921875,-400000.0625
21.106329441070557,-400000.0625,-12767.3603515625,-954.719970703125,-400000.0625,-5102.43994140625,-400000.0625,-12889.91015625,-400000.0625
21.133597135543823,-400000.0625,-12799.650390625,-979.1400146484375,-400000.0625,-5133.10009765625,-400000.0625,-12915.23046875,-400000.0625
21.182662963867188,-400000.0625,-12811.23046875,-988.2899780273438,-400000.0625,-5146.31005859375,-400000.0625,-12930.0595703125,-400000.0625
21.20002794265747,-400000.0625,-12792.0595703125,-973.9400024414062,-400000.0625,-5126.91015625,-400000.0625,-12913.6103515625,-400000.0625
21.220953464508057,-400000.0625,-12765.4599609375,-952.2899780273438,-400000.0625,-5106.740234375,-400000.0625,-12885.759765625,-400000.0625
21.252400875091553,-400000.0625,-12765.0302734375,-950.0,-400000.0625,-5106.68994140625,-400000.0625,-12890.5302734375,-400000.0625
21.287930011749268,-400000.0625,-12795.7802734375,-978.9500122070312,-400000.0625,-5134.06005859375,-400000.0625,-12918.9501953125,-400000.0625
21.308846950531006,-400000.0625,-12807.900390625,-987.77001953125,-400000.0625,-5143.8798828125,-400000.0625,-12926.8203125,-400000.0625
