time,ch1,ch2,ch3,ch4,ch5,ch6,ch7,ch8
314.3022265434265,-400000.0625,-12162.58984375,-1067.5899658203125,-400000.0625,-4626.93994140625,-400000.0625,-12790.1103515625,-400000.0625
314.32872700691223,-400000.0625,-12189.8701171875,-1096.43994140625,-400000.0625,-4653.22021484375,-400000.0625,-12815.7197265625,-400000.0625
314.35757398605347,-400000.0625,-12232.58984375,-1132.77001953125,-400000.0625,-4687.830078125,-400000.0625,-12857.6298828125,-400000.0625
314.40848755836487,-400000.0625,-12225.490234375,-1130.8199462890625,-400000.0625,-4686.8798828125,-400000.0625,-12856.099609375,-400000.0625
314.43999886512756,-400000.0625,-12190.2001953125,-1094.77001953125,-400000.0625,-4652.1201171875,-400000.0625,-12814.240234375,-400000.0625
314.47276067733765,-400000.0625,-12168.1201171875,-1070.9300537109375,-400000.0625,-4631.22998046875,-400000.0625,-12786.6796875,-400000.0625
314.5230550765991,-400000.0625,-12187.4296875,-1091.9100341796875,-400000.0625,-4651.830078125,-400000.0625,-12806.6103515625,-400000.0625
314.5457136631012,-400000.0625,-12231.349609375,-1129.5799560546875,-400000.0625,-4683.68994140625,-400000.0625,-12850.099609375,-400000.0625
314.5696232318878,-400000.0625,-12227.73046875,-1129.9599609375,-400000.0625,-4681.68017578125,-400000.0625,-12853.8603515625,-400000.0625
314.58768343925476,-400000.0625,-12190.150390625,-1097.489990234375,-400000.0625,-4648.4501953125,-400000.0625,-12817.2900390625,-400000.0625
314.62768483161926,-400000.0625,-12165.5,-1077.219970703125,-400000.0625,-4633.56982421875,-400000.0625,-12791.1103515625,-400000.0625
314.65603709220886,-400000.0625,-12192.0595703125,-1102.300048828125,-400000.0625,-4654.8798828125,-400000.0625,-12818.3896484375,-400000.0625
314.6752052307129,-400000.0625,-12233.4501953125,-1136.4000244140625,-400000.0625,-4687.259765625,-400000.0625,-12856.0595703125,-400000.0625
314.6952438354492,-400000.0625,-12227.8203125,-1133.010009765625,-400000.0625,-4687.169921875,-400000.0625,-12856.6796875,-400000.0625
314.75496673583984,-400000.0625,-12190.919921875,-1096.6300048828125,-400000.0625,-4651.4501953125,-400000.0625,-12815.5703125,-400000.0625
314.7727153301239,-400000.0625,-12165.599609375,-1068.1600341796875,-400000.0625,-4626.31982421875,-400000.0625,-12792.4501953125,-400000.0625
314.7956328392029,-400000.0625,-12190.580078125,-1094.0999755859375,-400000.0625,-4649.2099609375,-400000.0625,-12815.330078125,-400000.0625
314.8489053249359,-400000.0625,-12233.9296875,-1134.199951171875,-400000.0625,-4688.83984375,-400000.0625,-12856.8701171875,-400000.0625
314.86733841896057,-400000.0625,-12229.5400390625,-1129.719970703125,-400000.0625,-4682.97021484375,-400000.0625,-12855.669921875,-400000.0625
314.88653206825256,-400000.0625,-12190.490234375,-1091.9599609375,-400000.0625,-4648.02001953125,-400000.0625,-12815.2900390625,-400000.0625
314.9025168418884,-400000.0625,-12168.599609375,-1072.449951171875,-400000.0625,-4634.240234375,-400000.0625,-12790.73046875,-400000.0625
314.9473168849945,-400000.0625,-12190.2001953125,-1092.8599853515625,-400000.0625,-4654.02978515625,-400000.0625,-12816.5302734375,-400000.0625
314.969801902771,-400000.0625,-12227.6796875,-1127.050048828125,-400000.0625,-4688.740234375,-400000.0625,-12854.7197265625,-400000.0625
314.98861050605774,-400000.0625,-12227.490234375,-1130.06005859375,-400000.0625,-4692.60009765625,-400000.0625,-12852.91015625,-400000.0625
315.01126432418823,-400000.0625,-12193.8701171875,-1101.1099853515625,-400000.0625,-4660.02978515625,-400000.0625,-12815.099609375,-400000.0625
315.0586984157562,-400000.0625,-12168.0302734375,-1073.9300537109375,-400000.0625,-4633.7099609375,-400000.0625,-12791.7802734375,-400000.0625
315.08099269866943,-400000.0625,-12191.3896484375,-1091.530029296875,-400000.0625,-4651.5498046875,-400000.0625,-12818.150390625,-400000.0625
315.1028652191162,-400000.0625,-12231.2099609375,-1131.010009765625,-400000.0625,-4682.39990234375,-400000.0625,-12852.240234375,-400000.0625
315.1228356361389,-400000.0625,-12229.16015625,-1134.5400390625,-400000.0625,-4673.85986328125,-400000.0625,-12850.7197265625,-400000.0625
315.1567723751068,-400000.0625,-12196.349609375,-1098.8199462890625,-400000.0625,-4650.77978515625,-400000.0625,-12812.7099609375,-400000.0625
315.1790964603424,-400000.0625,-12168.5,-1073.4599609375,-400000.0625,-4638.52978515625,-400000.0625,-12788.3896484375,-400000.0625
315.19881415367126,-400000.0625,-12194.58984375,-1097.969970703125,-400000.0625,-4658.1298828125,-400000.0625,-12812.5703125,-400000.0625
315.2207808494568,-400000.0625,-12239.509765625,-1138.02001953125,-400000.0625,-4691.60009765625,-400000.0625,-12853.099609375,-400000.0625
315.2375650405884,-400000.0625,-12231.919921875,-1132.489990234375,-400000.0625,-4690.60009765625,-400000.0625,-12853.099609375,-400000.0625
315.284592628479,-400000.0625,-12193.9697265625,-1095.300048828125,-400000.0625,-4650.2099609375,-400000.0625,-12815.8603515625,-400000.0625
315.30313515663147,-400000.0625,-12171.509765625,-1074.1199951171875,-400000.0625,-4627.27978515625,-400000.0625,-12790.009765625,-400000.0625
315.3188564777374,-400000.0625,-12194.0595703125,-1098.300048828125,-400000.0625,-4652.7900390625,-400000.0625,-12811.7099609375,-400000.0625
315.3399541378021,-400000.0625,-12230.7802734375,-1133.1600341796875,-400000.0625,-4686.02001953125,-400000.0625,-12853.91015625,-400000.0625
315.391086101532,-400000.0625,-12231.6904296875,-1134.72998046875,-400000.0625,-4688.740234375,-400000.0625,-12852.9599609375,-400000.0625
315.4104788303375,-400000.0625,-12193.400390625,-1099.300048828125,-400000.0625,-4657.27001953125,-400000.0625,-12815.8603515625,-400000.0625
315.42606568336487,-400000.0625,-12168.9296875,-1076.8900146484375,-400000.0625,-4629.9501953125,-400000.0625,-12794.58984375,-400000.0625
315.44372177124023,-400000.0625,-12193.5400390625,-1100.969970703125,-400000.0625,-4650.64013671875,-400000.0625,-12817.150390625,-400000.0625
315.47721576690674,-400000.0625,-12232.4501953125,-1141.02001953125,-400000.0625,-4688.1201171875,-400000.0625,-12857.6796875,-400000.0625
315.5010447502136,-400000.0625,-12229.58984375,-1141.8800048828125,-400000.0625,-4690.22021484375,-400000.0625,-12858.8701171875,-400000.0625
315.5164074897766,-400000.0625,-12189.4404296875,-1104.2099609375,-400000.0625,-4657.22021484375,-400000.0625,-12821.150390625,-400000.0625
315.534868478775,-400000.0625,-12156.919921875,-1073.9300537109375,-400000.0625,-4631.27978515625,-400000.0625,-12794.349609375,-400000.0625
315.5556390285492,-400000.0625,-12189.91015625,-1096.5799560546875,-400000.0625,-4648.64013671875,-400000.0625,-12816.7197265625,-400000.0625
315.58964371681213,-400000.0625,-12227.9697265625,-1129.5799560546875,-400000.0625,-4685.97021484375,-400000.0625,-12858.33984375,-400000.0625
315.6074779033661,-400000.0625,-12218.2900390625,-1128.2900390625,-400000.0625,-4685.1201171875,-400000.0625,-12853.8095703125,-400000.0625
315.622891664505,-400000.0625,-12176.23046875,-1091.530029296875,-400000.0625,-4650.4501953125,-400000.0625,-12813.8603515625,-400000.0625
315.64200091362,-400000.0625,-12149.8603515625,-1070.5899658203125,-400000.0625,-4635.6201171875,-400000.0625,-12790.25,-400000.0625
315.67444372177124,-400000.0625,-12169.650390625,-1088.239990234375,-400000.0625,-4660.93994140625,-400000.0625,-12816.3798828125,-400000.0625
315.71972465515137,-400000.0625,-12211.7998046875,-1129.010009765625,-400000.0625,-4692.080078125,-400000.0625,-12852.5703125,-400000.0625
315.75311255455017,-400000.0625,-12209.66015625,-1126.4300537109375,-400000.0625,-4688.06982421875,-400000.0625,-12849.6201171875,-400000.0625
315.77791142463684,-400000.0625,-12166.599609375,-1089.719970703125,-400000.0625,-4648.64013671875,-400000.0625,-12813.51953125,-400000.0625
315.8362925052643,-400000.0625,-12142.1396484375,-1068.5,-400000.0625,-4626.080078125,-400000.0625,-12785.150390625,-400000.0625
315.878027677536,-400000.0625,-12168.1201171875,-1089.6700439453125,-400000.0625,-4653.169921875,-400000.0625,-12807.849609375,-400000.0625
315.9239249229431,-400000.0625,-12211.7998046875,-1129.9100341796875,-400000.0625,-4695.31982421875,-400000.0625,-12853.669921875,-400000.0625
315.94718647003174,-400000.0625,-12207.3203125,-1126.9599609375,-400000.0625,-4694.7998046875,-400000.0625,-12851.48046875,-400000.0625
315.97974848747253,-400000.0625,-12173.2197265625,-1091.8599853515625,-400000.0625,-4659.080078125,-400000.0625,-12815.5703125,-400000.0625
316.0338613986969,-400000.0625,-12147.0,-1066.02001953125,-400000.0625,-4632.27978515625,-400000.0625,-12793.9697265625,-400000.0625
316.06089448928833,-400000.0625,-12171.9404296875,-1089.239990234375,-400000.0625,-4652.93017578125,-400000.0625,-12817.240234375,-400000.0625
316.08980655670166,-400000.0625,-12214.9501953125,-1131.5799560546875,-400000.0625,-4689.97998046875,-400000.0625,-12859.2001953125,-400000.0625
316.13980507850647,-400000.0625,-12214.6103515625,-1132.199951171875,-400000.0625,-4688.02978515625,-400000.0625,-12856.2001953125,-400000.0625
316.16829562187195,-400000.0625,-12175.3701171875,-1096.77001953125,-400000.0625,-4655.080078125,-400000.0625,-12820.580078125,-400000.0625
316.19072222709656,-400000.0625,-12151.91015625,-1071.9300537109375,-400000.0625,-4637.669921875,-400000.0625,-12794.7802734375,-400000.0625
316.2449960708618,-400000.0625,-12176.7099609375,-1092.239990234375,-400000.0625,-4658.31982421875,-400000.0625,-12818.0498046875,-400000.0625
316.26672410964966,-400000.0625,-12214.0400390625,-1127.719970703125,-400000.0625,-4695.509765625,-400000.0625,-12858.490234375,-400000.0625
316.2899730205536,-400000.0625,-12220.6201171875,-1133.6300048828125,-400000.0625,-4695.509765625,-400000.0625,-12860.2001953125,-400000.0625
316.30762362480164,-400000.0625,-12178.4697265625,-1099.4000244140625,-400000.0625,-4660.18017578125,-400000.0625,-12825.400390625,-400000.0625
316.3439848423004,-400000.0625,-12149.099609375,-1068.31005859375,-400000.0625,-4631.52001953125,-400000.0625,-12801.1201171875,-400000.0625
316.35750365257263,-400000.0625,-12173.26953125,-1088.9100341796875,-400000.0625,-4649.68994140625,-400000.0625,-12821.3896484375,-400000.0625
316.39225220680237,-400000.0625,-12222.7197265625,-1136.02001953125,-400000.0625,-4694.83984375,-400000.0625,-12861.16015625,-400000.0625
316.41448044776917,-400000.0625,-12223.009765625,-1137.68994140625,-400000.0625,-4701.0,-400000.0625,-12859.0595703125,-400000.0625
316.46227073669434,-400000.0625,-12175.419921875,-1096.5799560546875,-400000.0625,-4660.22998046875,-400000.0625,-12818.91015625,-400000.0625
316.4803111553192,-400000.0625,-12147.1396484375,-1068.0699462890625,-400000.0625,-4629.89990234375,-400000.0625,-12790.400390625,-400000.0625
316.5106143951416,-400000.0625,-12171.9404296875,-1087.280029296875,-400000.0625,-4648.77978515625,-400000.0625,-12814.48046875,-400000.0625
316.5285928249359,-400000.0625,-12212.23046875,-1125.239990234375,-400000.0625,-4687.02001953125,-400000.0625,-12854.580078125,-400000.0625
316.57979345321655,-400000.0625,-12218.8095703125,-1128.719970703125,-400000.0625,-4690.93017578125,-400000.0625,-12860.1103515625,-400000.0625
316.6037714481354,-400000.0625,-12176.5595703125,-1092.2900390625,-400000.0625,-4660.4599609375,-400000.0625,-12822.6796875,-400000.0625
316.6283917427063,-400000.0625,-12150.4296875,-1066.06005859375,-400000.0625,-4633.85986328125,-400000.0625,-12795.6396484375,-400000.0625
316.6435673236847,-400000.0625,-12181.3798828125,-1090.5699462890625,-400000.0625,-4652.35986328125,-400000.0625,-12816.4296875,-400000.0625
316.6894962787628,-400000.0625,-12233.349609375,-1125.050048828125,-400000.0625,-4690.1201171875,-400000.0625,-12861.0595703125,-400000.0625
316.7062361240387,-400000.0625,-12232.16015625,-1123.9100341796875,-400000.0625,-4695.1298828125,-400000.0625,-12857.2001953125,-400000.0625
316.7296528816223,-400000.0625,-12183.099609375,-1099.6800537109375,-400000.0625,-4663.31982421875,-400000.0625,-12807.5595703125,-400000.0625
316.7547228336334,-400000.0625,-12159.25,-1086.3800048828125,-400000.0625,-4633.81005859375,-400000.0625,-12777.8095703125,-400000.0625
316.7965669631958,-400000.0625,-12201.41015625,-1115.1300048828125,-400000.0625,-4653.06982421875,-400000.0625,-12804.4599609375,-400000.0625
316.8216860294342,-400000.0625,-12253.1396484375,-1155.1400146484375,-400000.0625,-4692.41015625,-400000.0625,-12847.23046875,-400000.0625
316.84242272377014,-400000.0625,-12259.2001953125,-1165.9599609375,-400000.0625,-4694.4599609375,-400000.0625,-12837.5498046875,-400000.0625
316.87120962142944,-400000.0625,-12217.3798828125,-1129.0999755859375,-400000.0625,-4655.64990234375,-400000.0625,-12798.4501953125,-400000.0625
316.9210433959961,-400000.0625,-12194.25,-1104.969970703125,-400000.0625,-4635.43017578125,-400000.0625,-12771.66015625,-400000.0625
316.9417862892151,-400000.0625,-12223.25,-1127.0999755859375,-400000.0625,-4657.56005859375,-400000.0625,-12789.0595703125,-400000.0625
316.97551345825195,-400000.0625,-12258.2001953125,-1161.18994140625,-400000.0625,-4689.64990234375,-400000.0625,-12831.6904296875,-400000.0625
317.02261114120483,-400000.0625,-12258.580078125,-1164.43994140625,-400000.0625,-4695.509765625,-400000.0625,-12837.41015625,-400000.0625
317.0487139225006,-400000.0625,-12224.91015625,-1133.1600341796875,-400000.0625,-4661.60986328125,-400000.0625,-12794.830078125,-400000.0625
317.07099509239197,-400000.0625,-12198.400390625,-1108.97998046875,-400000.0625,-4640.06005859375,-400000.0625,-12766.8896484375,-400000.0625
317.09018778800964,-400000.0625,-12217.5703125,-1125.9100341796875,-400000.0625,-4651.97998046875,-400000.0625,-12797.98046875,-400000.0625
317.13187885284424,-400000.0625,-12261.490234375,-1165.0999755859375,-400000.0625,-4692.7900390625,-400000.0625,-12835.740234375,-400000.0625
317.166433095932,-400000.0625,-12264.2998046875,-1168.6300048828125,-400000.0625,-4697.89990234375,-400000.0625,-12830.0703125,-400000.0625
317.19423961639404,-400000.0625,-12222.099609375,-1131.489990234375,-400000.0625,-4659.509765625,-400000.0625,-12794.349609375,-400000.0625
317.23233008384705,-400000.0625,-12197.6904296875,-1109.219970703125,-400000.0625,-4633.3798828125,-400000.0625,-12769.26953125,-400000.0625
317.2526409626007,-400000.0625,-12215.2802734375,-1127.530029296875,-400000.0625,-4648.10986328125,-400000.0625,-12790.2998046875,-400000.0625
317.2901005744934,-400000.0625,-12263.9697265625,-1171.4000244140625,-400000.0625,-4695.75,-400000.0625,-12829.0703125,-400000.0625
317.3138585090637,-400000.0625,-12269.58984375,-1177.219970703125,-400000.0625,-4694.41015625,-400000.0625,-12826.9697265625,-400000.0625
317.34307765960693,-400000.0625,-12224.8203125,-1135.6400146484375,-400000.0625,-4659.89013671875,-400000.0625,-12793.6396484375,-400000.0625
317.3611669540405,-400000.0625,-12199.2099609375,-1108.68994140625,-400000.0625,-4643.5400390625,-400000.0625,-12768.1298828125,-400000.0625
317.385635137558,-400000.0625,-12226.8701171875,-1130.9599609375,-400000.0625,-4664.0400390625,-400000.0625,-12792.8701171875,-400000.0625
317.40432715415955,-400000.0625,-12262.0595703125,-1167.6800537109375,-400000.0625,-4694.02978515625,-400000.0625,-12835.6904296875,-400000.0625
317.42529940605164,-400000.0625,-12262.2001953125,-1168.780029296875,-400000.0625,-4693.60009765625,-400000.0625,-12839.4599609375,-400000.0625
317.45834279060364,-400000.0625,-12226.5400390625,-1131.010009765625,-400000.0625,-4658.7900390625,-400000.0625,-12798.8798828125,-400000.0625
317.4775333404541,-400000.0625,-12196.0703125,-1105.260009765625,-400000.0625,-4632.89990234375,-400000.0625,-12767.0302734375,-400000.0625
317.5008227825165,-400000.0625,-12218.759765625,-1126.9100341796875,-400000.0625,-4653.41015625,-400000.0625,-12791.349609375,-400000.0625
317.517315864563,-400000.0625,-12264.2099609375,-1164.47998046875,-400000.0625,-4687.60009765625,-400000.0625,-12829.1103515625,-400000.0625
317.5376353263855,-400000.0625,-12260.0595703125,-1165.0999755859375,-400000.0625,-4686.7900390625,-400000.0625,-12832.2099609375,-400000.0625
317.5688707828522,-400000.0625,-12220.8095703125,-1129.199951171875,-400000.0625,-4663.18017578125,-400000.0625,-12794.7802734375,-400000.0625
317.5882294178009,-400000.0625,-12199.7802734375,-1104.0699462890625,-400000.0625,-4641.72021484375,-400000.0625,-12767.0302734375,-400000.0625
317.6111297607422,-400000.0625,-12218.669921875,-1122.4300537109375,-400000.0625,-4654.7900390625,-400000.0625,-12789.9697265625,-400000.0625
317.62719917297363,-400000.0625,-12261.25,-1160.6700439453125,-400000.0625,-4690.64990234375,-400000.0625,-12831.3095703125,-400000.0625
317.64671635627747,-400000.0625,-12261.4404296875,-1161.6199951171875,-400000.0625,-4691.5498046875,-400000.0625,-12833.6396484375,-400000.0625
317.6910755634308,-400000.0625,-12223.580078125,-1127.6700439453125,-400000.0625,-4657.97998046875,-400000.0625,-12796.5,-400000.0625
317.71305418014526,-400000.0625,-12199.01953125,-1106.2099609375,-400000.0625,-4635.56982421875,-400000.0625,-12772.1796875,-400000.0625
317.7398359775543,-400000.0625,-12219.1396484375,-1130.06005859375,-400000.0625,-4653.740234375,-400000.0625,-12797.5498046875,-400000.0625
317.75851702690125,-400000.0625,-12261.009765625,-1166.199951171875,-400000.0625,-4690.1201171875,-400000.0625,-12836.080078125,-400000.0625
317.80288338661194,-400000.0625,-12262.16015625,-1169.25,-400000.0625,-4684.93017578125,-400000.0625,-12831.830078125,-400000.0625
317.8348979949951,-400000.0625,-12219.7197265625,-1127.77001953125,-400000.0625,-4652.169921875,-400000.0625,-12797.5498046875,-400000.0625
317.85831809043884,-400000.0625,-12194.9697265625,-1104.6400146484375,-400000.0625,-4636.33984375,-400000.0625,-12770.509765625,-400000.0625
317.88378715515137,-400000.0625,-12215.23046875,-1124.760009765625,-400000.0625,-4655.89013671875,-400000.0625,-12792.16015625,-400000.0625
317.9239499568939,-400000.0625,-12259.9599609375,-1163.010009765625,-400000.0625,-4689.06982421875,-400000.0625,-12834.1201171875,-400000.0625
317.9436511993408,-400000.0625,-12263.490234375,-1166.199951171875,-400000.0625,-4691.5498046875,-400000.0625,-12838.3203125,-400000.0625
317.9621660709381,-400000.0625,-12225.2001953125,-1131.77001953125,-400000.0625,-4656.83984375,-400000.0625,-12798.259765625,-400000.0625
317.98592138290405,-400000.0625,-12194.400390625,-1106.0699462890625,-400000.0625,-4628.7998046875,-400000.0625,-12773.849609375,-400000.0625
318.02206897735596,-400000.0625,-12216.3798828125,-1124.6700439453125,-400000.0625,-4646.25,-400000.0625,-12793.73046875,-400000.0625
318.04191303253174,-400000.0625,-12261.009765625,-1166.43994140625,-400000.0625,-4693.509765625,-400000.0625,-12832.4501953125,-400000.0625
318.0566873550415,-400000.0625,-12263.73046875,-1169.6800537109375,-400000.0625,-4694.89013671875,-400000.0625,-12831.6396484375,-400000.0625
318.0758521556854,-400000.0625,-12224.2900390625,-1131.6300048828125,-400000.0625,-4656.080078125,-400000.0625,-12796.2099609375,-400000.0625
318.1035838127136,-400000.0625,-12196.6396484375,-1106.6400146484375,-400000.0625,-4628.22998046875,-400000.0625,-12770.23046875,-400000.0625
318.1439552307129,-400000.0625,-12220.5302734375,-1130.489990234375,-400000.0625,-4650.58984375,-400000.0625,-12788.76953125,-400000.0625
318.1650183200836,-400000.0625,-12266.1103515625,-1172.2099609375,-400000.0625,-4693.93994140625,-400000.0625,-12835.1201171875,-400000.0625
318.1765739917755,-400000.0625,-12271.0703125,-1173.449951171875,-400000.0625,-4698.3701171875,-400000.0625,-12840.4599609375,-400000.0625
318.2004585266113,-400000.0625,-12230.919921875,-1136.260009765625,-400000.0625,-4659.83984375,-400000.0625,-12800.5,-400000.0625
318.2173755168915,-400000.0625,-12206.990234375,-1115.1800537109375,-400000.0625,-4631.7099609375,-400000.0625,-12777.1396484375,-400000.0625
318.2513403892517,-400000.0625,-12230.0595703125,-1135.9200439453125,-400000.0625,-4654.22021484375,-400000.0625,-12799.3095703125,-400000.0625
318.26965594291687,-400000.0625,-12274.7900390625,-1176.260009765625,-400000.0625,-4693.60009765625,-400000.0625,-12837.7001953125,-400000.0625
318.29505944252014,-400000.0625,-12272.2197265625,-1173.72998046875,-400000.0625,-4690.64990234375,-400000.0625,-12842.0400390625,-400000.0625
318.31625628471375,-400000.0625,-12229.009765625,-1136.6400146484375,-400000.0625,-4656.27001953125,-400000.0625,-12805.509765625,-400000.0625
318.33606338500977,-400000.0625,-12204.7001953125,-1114.0799560546875,-400000.0625,-4637.10009765625,-400000.0625,-12778.08984375,-400000.0625
318.37158012390137,-400000.0625,-12237.9296875,-1136.1600341796875,-400000.0625,-4664.89990234375,-400000.0625,-12802.5498046875,-400000.0625
318.3939654827118,-400000.0625,-12274.9296875,-1169.780029296875,-400000.0625,-4699.18017578125,-400000.0625,-12842.509765625,-400000.0625
318.40830540657043,-400000.0625,-12253.48046875,-1157.5699462890625,-400000.0625,-4683.97021484375,-400000.0625,-12849.759765625,-400000.0625
318.42508816719055,-400000.0625,-12210.419921875,-1123.3800048828125,-400000.0625,-4647.06005859375,-400000.0625,-12815.51953125,-400000.0625
318.442503452301,-400000.0625,-12175.9404296875,-1095.719970703125,-400000.0625,-4621.509765625,-400000.0625,-12794.9296875,-400000.0625
318.47618532180786,-400000.0625,-12196.830078125,-1112.27001953125,-400000.0625,-4645.35009765625,-400000.0625,-12817.240234375,-400000.0625
318.4919464588165,-400000.0625,-12243.83984375,-1150.1800537109375,-400000.0625,-4691.509765625,-400000.0625,-12868.5,-400000.0625
318.5169184207916,-400000.0625,-12242.1298828125,-1144.5,-400000.0625,-4691.169921875,-400000.0625,-12879.330078125,-400000.0625
318.53930592536926,-400000.0625,-12197.4501953125,-1104.6400146484375,-400000.0625,-4653.740234375,-400000.0625,-12839.990234375,-400000.0625
318.5665771961212,-400000.0625,-12172.0302734375,-1080.8499755859375,-400000.0625,-4628.990234375,-400000.0625,-12813.900390625,-400000.0625
318.6214737892151,-400000.0625,-12189.2900390625,-1098.1099853515625,-400000.0625,-4645.2099609375,-400000.0625,-12832.5498046875,-400000.0625
318.6424524784088,-400000.0625,-12232.400390625,-1139.969970703125,-400000.0625,-4680.2001953125,-400000.0625,-12873.080078125,-400000.0625
318.67246866226196,-400000.0625,-12235.5498046875,-1143.739990234375,-400000.0625,-4684.64013671875,-400000.0625,-12878.849609375,-400000.0625
318.73234963417053,-400000.0625,-12195.2099609375,-1110.93994140625,-400000.0625,-4656.740234375,-400000.0625,-12839.3701171875,-400000.0625
318.7582256793976,-400000.0625,-12166.4501953125,-1082.4200439453125,-400000.0625,-4634.81005859375,-400000.0625,-12814.1396484375,-400000.0625
318.7831757068634,-400000.0625,-12194.25,-1104.5,-400000.0625,-4654.35986328125,-400000.0625,-12839.1796875,-400000.0625
318.8363506793976,-400000.0625,-12237.0703125,-1142.449951171875,-400000.0625,-4683.2099609375,-400000.0625,-12876.7001953125,-400000.0625
318.8528697490692,-400000.0625,-12237.9296875,-1143.550048828125,-400000.0625,-4680.72998046875,-400000.0625,-12875.1298828125,-400000.0625
318.87026476860046,-400000.0625,-12197.349609375,-1106.7900390625,-400000.0625,-4655.93017578125,-400000.0625,-12837.83984375,-400000.0625
318.89019560813904,-400000.0625,-12169.26953125,-1079.6099853515625,-400000.0625,-4630.3798828125,-400000.0625,-12806.23046875,-400000.0625
318.92957949638367,-400000.0625,-12192.7802734375,-1100.2099609375,-400000.0625,-4647.4501953125,-400000.0625,-12827.2998046875,-400000.0625
318.9539473056793,-400000.0625,-12239.740234375,-1142.8800048828125,-400000.0625,-4685.31005859375,-400000.0625,-12871.26953125,-400000.0625
318.9749484062195,-400000.0625,-12236.740234375,-1141.1700439453125,-400000.0625,-4690.7900390625,-400000.0625,-12874.080078125,-400000.0625
318.99780535697937,-400000.0625,-12198.16015625,-1108.4100341796875,-400000.0625,-4657.89013671875,-400000.0625,-12833.8798828125,-400000.0625
319.0348074436188,-400000.0625,-12177.51953125,-1084.1400146484375,-400000.0625,-4635.3798828125,-400000.0625,-12809.7998046875,-400000.0625
319.05851793289185,-400000.0625,-12198.830078125,-1102.300048828125,-400000.0625,-4649.2099609375,-400000.0625,-12834.1201171875,-400000.0625
319.08527660369873,-400000.0625,-12237.83984375,-1142.9300537109375,-400000.0625,-4681.2998046875,-400000.0625,-12872.7001953125,-400000.0625
319.1059341430664,-400000.0625,-12245.4697265625,-1150.3199462890625,-400000.0625,-4696.27001953125,-400000.0625,-12875.1298828125,-400000.0625
319.1516444683075,-400000.0625,-12202.9296875,-1109.8399658203125,-400000.0625,-4662.08984375,-400000.0625,-12835.7900390625,-400000.0625
319.16590905189514,-400000.0625,-12176.1298828125,-1082.93994140625,-400000.0625,-4633.6201171875,-400000.0625,-12811.23046875,-400000.0625
319.1851489543915,-400000.0625,-12194.2099609375,-1098.6800537109375,-400000.0625,-4648.72998046875,-400000.0625,-12833.6904296875,-400000.0625
319.20390009880066,-400000.0625,-12238.26953125,-1142.219970703125,-400000.0625,-4684.5400390625,-400000.0625,-12873.0302734375,-400000.0625
319.22181820869446,-400000.0625,-12246.4697265625,-1148.1800537109375,-400000.0625,-4692.7001953125,-400000.0625,-12872.169921875,-400000.0625
319.2559747695923,-400000.0625,-12204.0302734375,-1103.5400390625,-400000.0625,-4653.169921875,-400000.0625,-12836.650390625,-400000.0625
319.2760989665985,-400000.0625,-12177.3701171875,-1078.1800537109375,-400000.0625,-4626.22998046875,-400000.0625,-12815.240234375,-400000.0625
319.33127331733704,-400000.0625,-12199.7802734375,-1102.300048828125,-400000.0625,-4655.60009765625,-400000.0625,-12836.26953125,-400000.0625
319.4364266395569,-400000.0625,-12242.599609375,-1141.5999755859375,-400000.0625,-4690.93017578125,-400000.0625,-12875.1298828125,-400000.0625
319.5152497291565,-400000.0625,-12246.66015625,-1142.9300537109375,-400000.0625,-4696.93994140625,-400000.0625,-12879.330078125,-400000.0625
319.5416970252991,-400000.0625,-12204.8896484375,-1104.780029296875,-400000.0625,-4660.64990234375,-400000.0625,-12840.3701171875,-400000.0625
319.59164214134216,-400000.0625,-12177.0400390625,-1078.6500244140625,-400000.0625,-4628.990234375,-400000.0625,-12812.330078125,-400000.0625
319.64956855773926,-400000.0625,-12203.169921875,-1102.72998046875,-400000.0625,-4650.93017578125,-400000.0625,-12832.599609375,-400000.0625
319.72012519836426,-400000.0625,-12240.080078125,-1137.72998046875,-400000.0625,-4685.4501953125,-400000.0625,-12876.23046875,-400000.0625
319.75754976272583,-400000.0625,-12241.080078125,-1137.8299560546875,-400000.0625,-4684.64013671875,-400000.0625,-12878.7099609375,-400000.0625
319.84541392326355,-400000.0625,-12200.169921875,-1103.969970703125,-400000.0625,-4657.7001953125,-400000.0625,-12840.3203125,-400000.0625
319.8739743232727,-400000.0625,-12170.7900390625,-1077.3699951171875,-400000.0625,-4633.56982421875,-400000.0625,-12814.8095703125,-400000.0625
319.9331386089325,-400000.0625,-12199.5498046875,-1098.25,-400000.0625,-4651.830078125,-400000.0625,-12832.4501953125,-400000.0625
319.95952248573303,-400000.0625,-12242.75,-1138.2099609375,-400000.0625,-4687.97998046875,-400000.0625,-12871.5498046875,-400000.0625
320.0257637500763,-400000.0625,-12245.849609375,-1143.8399658203125,-400000.0625,-4694.02978515625,-400000.0625,-12876.7998046875,-400000.0625
320.07589626312256,-400000.0625,-12214.8095703125,-1110.219970703125,-400000.0625,-4660.56005859375,-400000.0625,-12840.509765625,-400000.0625
320.14649653434753,-400000.0625,-12202.83984375,-1091.9100341796875,-400000.0625,-4644.919921875,-400000.0625,-12815.48046875,-400000.0625
320.2087752819061,-400000.0625,-12212.6103515625,-1103.5899658203125,-400000.0625,-4657.97998046875,-400000.0625,-12836.080078125,-400000.0625
320.23205375671387,-400000.0625,-12231.73046875,-1136.1600341796875,-400000.0625,-4678.580078125,-400000.0625,-12879.08984375,-400000.0625
320.2956054210663,-400000.0625,-12223.5302734375,-1133.06005859375,-400000.0625,-4682.4501953125,-400000.0625,-12891.6298828125,-400000.0625
320.3705711364746,-400000.0625,-12186.8603515625,-1097.489990234375,-400000.0625,-4657.7900390625,-400000.0625,-12860.7802734375,-400000.0625
320.4330711364746,-400000.0625,-12165.259765625,-1066.72998046875,-400000.0625,-4628.0400390625,-400000.0625,-12837.7001953125,-400000.0625
320.4777386188507,-400000.0625,-12181.2802734375,-1076.1700439453125,-400000.0625,-4643.72998046875,-400000.0625,-12864.6396484375,-400000.0625
320.5086693763733,-400000.0625,-12219.6201171875,-1116.7099609375,-400000.0625,-4681.77978515625,-400000.0625,-12915.51953125,-400000.0625
320.53887963294983,-400000.0625,-12218.2900390625,-1113.219970703125,-400000.0625,-4685.2099609375,-400000.0625,-12926.25,-400000.0625
320.5978021621704,-400000.0625,-12177.2802734375,-1074.27001953125,-400000.0625,-4650.77978515625,-400000.0625,-12888.7197265625,-400000.0625
320.64624643325806,-400000.0625,-12151.7197265625,-1049.6099853515625,-400000.0625,-4622.56005859375,-400000.0625,-12863.7802734375,-400000.0625
320.713711977005,-400000.0625,-12172.75,-1064.5899658203125,-400000.0625,-4637.91015625,-400000.0625,-12889.2001953125,-400000.0625
320.73978328704834,-400000.0625,-12212.6103515625,-1100.1600341796875,-400000.0625,-4673.2900390625,-400000.0625,-12930.009765625,-400000.0625
320.7593491077423,-400000.0625,-12214.23046875,-1102.4000244140625,-400000.0625,-4671.669921875,-400000.0625,-12927.150390625,-400000.0625
320.79490423202515,-400000.0625,-12180.3798828125,-1071.8800048828125,-400000.0625,-4646.77978515625,-400000.0625,-12890.25,-400000.0625
320.8171901702881,-400000.0625,-12153.150390625,-1047.989990234375,-400000.0625,-4626.3701171875,-400000.0625,-12865.349609375,-400000.0625
320.83180022239685,-400000.0625,-12179.330078125,-1065.5400390625,-400000.0625,-4644.72998046875,-400000.0625,-12889.240234375,-400000.0625
320.8467071056366,-400000.0625,-12215.66015625,-1098.3499755859375,-400000.0625,-4681.06005859375,-400000.0625,-12932.25,-400000.0625
320.8630006313324,-400000.0625,-12218.2900390625,-1102.0699462890625,-400000.0625,-4685.2099609375,-400000.0625,-12931.009765625,-400000.0625
320.8910336494446,-400000.0625,-12183.9501953125,-1068.1199951171875,-400000.0625,-4646.72998046875,-400000.0625,-12895.25,-400000.0625
320.90533924102783,-400000.0625,-12156.1103515625,-1044.22998046875,-400000.0625,-4622.02978515625,-400000.0625,-12867.5498046875,-400000.0625
320.92531967163086,-400000.0625,-12176.7099609375,-1057.9100341796875,-400000.0625,-4644.97021484375,-400000.0625,-12891.580078125,-400000.0625
320.9480767250061,-400000.0625,-12219.759765625,-1098.1099853515625,-400000.0625,-4679.6298828125,-400000.0625,-12928.6796875,-400000.0625
320.9600384235382,-400000.0625,-12223.3896484375,-1102.780029296875,-400000.0625,-4682.02001953125,-400000.0625,-12930.3896484375,-400000.0625
320.98163652420044,-400000.0625,-12187.099609375,-1068.2099609375,-400000.0625,-4656.080078125,-400000.0625,-12898.259765625,-400000.0625
321.01160407066345,-400000.0625,-12156.580078125,-1042.3199462890625,-400000.0625,-4626.66015625,-400000.0625,-12866.8798828125,-400000.0625
321.02434515953064,-400000.0625,-12175.990234375,-1060.06005859375,-400000.0625,-4640.72021484375,-400000.0625,-12887.33984375,-400000.0625
321.04611587524414,-400000.0625,-12219.48046875,-1100.02001953125,-400000.0625,-4682.02001953125,-400000.0625,-12930.009765625,-400000.0625
321.0685074329376,-400000.0625,-12224.0595703125,-1100.5899658203125,-400000.0625,-4684.77978515625,-400000.0625,-12930.8203125,-400000.0625
321.0875825881958,-400000.0625,-12188.150390625,-1065.6800537109375,-400000.0625,-4646.02001953125,-400000.0625,-12892.2001953125,-400000.0625
321.12795877456665,-400000.0625,-12155.490234375,-1039.1199951171875,-400000.0625,-4620.89013671875,-400000.0625,-12865.6396484375,-400000.0625
321.14700961112976,-400000.0625,-12176.75,-1056.050048828125,-400000.0625,-4640.77001953125,-400000.0625,-12887.669921875,-400000.0625
321.1589629650116,-400000.0625,-12220.1904296875,-1096.8199462890625,-400000.0625,-4678.580078125,-400000.0625,-12930.0595703125,-400000.0625
321.17800879478455,-400000.0625,-12222.7197265625,-1099.8699951171875,-400000.0625,-4676.9599609375,-400000.0625,-12932.16015625,-400000.0625
321.2033700942993,-400000.0625,-12184.8095703125,-1063.780029296875,-400000.0625,-4641.9599609375,-400000.0625,-12891.6796875,-400000.0625
321.23426151275635,-400000.0625,-12153.91015625,-1038.9300537109375,-400000.0625,-4614.02001953125,-400000.0625,-12862.4501953125,-400000.0625
321.2536551952362,-400000.0625,-12179.4697265625,-1060.06005859375,-400000.0625,-4638.580078125,-400000.0625,-12887.9599609375,-400000.0625
321.2706575393677,-400000.0625,-12225.2001953125,-1100.1099853515625,-400000.0625,-4684.31005859375,-400000.0625,-12933.6796875,-400000.0625
321.2888731956482,-400000.0625,-12226.009765625,-1103.02001953125,-400000.0625,-4678.81982421875,-400000.0625,-12932.5400390625,-400000.0625
321.3057026863098,-400000.0625,-12189.2001953125,-1066.969970703125,-400000.0625,-4649.97021484375,-400000.0625,-12894.4404296875,-400000.0625
321.33776569366455,-400000.0625,-12165.3603515625,-1044.3699951171875,-400000.0625,-4627.75,-400000.0625,-12868.3603515625,-400000.0625
321.3535234928131,-400000.0625,-12184.7197265625,-1062.8199462890625,-400000.0625,-4640.14990234375,-400000.0625,-12890.669921875,-400000.0625
321.36720180511475,-400000.0625,-12224.76953125,-1097.1099853515625,-400000.0625,-4674.2001953125,-400000.0625,-12934.6396484375,-400000.0625
321.38722109794617,-400000.0625,-12224.48046875,-1097.8199462890625,-400000.0625,-4678.77001953125,-400000.0625,-12936.5498046875,-400000.0625
321.4035198688507,-400000.0625,-12188.0498046875,-1063.300048828125,-400000.0625,-4644.25,-400000.0625,-12899.01953125,-400000.0625
321.42147397994995,-400000.0625,-12164.400390625,-1035.5,-400000.0625,-4617.64013671875,-400000.0625,-12880.419921875,-400000.0625
321.4582750797272,-400000.0625,-12188.580078125,-1054.0,-400000.0625,-4641.39013671875,-400000.0625,-12898.259765625,-400000.0625
321.47574949264526,-400000.0625,-12233.5,-1104.780029296875,-400000.0625,-4686.68994140625,-400000.0625,-12927.150390625,-400000.0625
321.49096512794495,-400000.0625,-12238.9296875,-1116.0899658203125,-400000.0625,-4685.06982421875,-400000.0625,-12916.1904296875,-400000.0625
321.53057527542114,-400000.0625,-12205.7001953125,-1088.0,-400000.0625,-4650.64013671875,-400000.0625,-12871.1201171875,-400000.0625
321.58522057533264,-400000.0625,-12183.8603515625,-1069.8299560546875,-400000.0625,-4629.27978515625,-400000.0625,-12837.7001953125,-400000.0625
321.6181106567383,-400000.0625,-12205.080078125,-1096.6800537109375,-400000.0625,-4649.5,-400000.0625,-12850.5703125,-400000.0625
321.6451790332794,-400000.0625,-12249.8095703125,-1143.4599609375,-400000.0625,-4690.7001953125,-400000.0625,-12885.1904296875,-400000.0625
321.6954505443573,-400000.0625,-12258.0498046875,-1150.8499755859375,-400000.0625,-4696.66015625,-400000.0625,-12884.8095703125,-400000.0625
321.7502501010895,-400000.0625,-12218.330078125,-1117.0899658203125,-400000.0625,-4656.27001953125,-400000.0625,-12841.990234375,-400000.0625
321.7985692024231,-400000.0625,-12195.400390625,-1096.3900146484375,-400000.0625,-4632.56982421875,-400000.0625,-12809.6103515625,-400000.0625
321.8223373889923,-400000.0625,-12212.3701171875,-1115.469970703125,-400000.0625,-4650.02001953125,-400000.0625,-12829.58984375,-400000.0625
321.84813046455383,-400000.0625,-12249.759765625,-1150.56005859375,-400000.0625,-4684.8798828125,-400000.0625,-12866.16015625,-400000.0625
321.88392090797424,-400000.0625,-12248.9501953125,-1150.989990234375,-400000.0625,-4695.75,-400000.0625,-12867.3603515625,-400000.0625
321.9495105743408,-400000.0625,-12207.3701171875,-1115.22998046875,-400000.0625,-4664.27978515625,-400000.0625,-12832.4501953125,-400000.0625
321.98394203186035,-400000.0625,-12182.5703125,-1090.77001953125,-400000.0625,-4634.9501953125,-400000.0625,-12803.599609375,-400000.0625
322.04478454589844,-400000.0625,-12207.7001953125,-1114.6500244140625,-400000.0625,-4652.4501953125,-400000.0625,-12822.33984375,-400000.0625
322.0808594226837,-400000.0625,-12247.4697265625,-1153.760009765625,-400000.0625,-4687.259765625,-400000.0625,-12867.3095703125,-400000.0625
322.1098515987396,-400000.0625,-12250.08984375,-1155.9000244140625,-400000.0625,-4689.259765625,-400000.0625,-12870.5498046875,-400000.0625
322.1583762168884,-400000.0625,-12210.990234375,-1117.56005859375,-400000.0625,-4656.1201171875,-400000.0625,-12831.16015625,-400000.0625
322.1954848766327,-400000.0625,-12179.08984375,-1087.469970703125,-400000.0625,-4627.0400390625,-400000.0625,-12802.080078125,-400000.0625
322.2234525680542,-400000.0625,-12203.740234375,-1109.219970703125,-400000.0625,-4649.06982421875,-400000.0625,-12821.8701171875,-400000.0625
322.2497375011444,-400000.0625,-12245.419921875,-1150.22998046875,-400000.0625,-4691.169921875,-400000.0625,-12862.9697265625,-400000.0625
322.26878547668457,-400000.0625,-12249.330078125,-1153.3699951171875,-400000.0625,-4695.60986328125,-400000.0625,-12868.5,-400000.0625
322.28898072242737,-400000.0625,-12211.7099609375,-1117.1300048828125,-400000.0625,-4661.990234375,-400000.0625,-12831.16015625,-400000.0625
322.3069851398468,-400000.0625,-12184.669921875,-1090.6199951171875,-400000.0625,-4633.08984375,-400000.0625,-12801.0302734375,-400000.0625
322.32114601135254,-400000.0625,-12206.83984375,-1109.8399658203125,-400000.0625,-4651.97998046875,-400000.0625,-12824.9697265625,-400000.0625
322.3332099914551,-400000.0625,-12253.8095703125,-1151.9000244140625,-400000.0625,-4692.509765625,-400000.0625,-12865.58984375,-400000.0625
322.36359667778015,-400000.0625,-12252.51953125,-1153.1800537109375,-400000.0625,-4694.990234375,-400000.0625,-12871.5498046875,-400000.0625
322.3795688152313,-400000.0625,-12210.7998046875,-1118.0400390625,-400000.0625,-4658.75,-400000.0625,-12834.3603515625,-400000.0625
322.39743161201477,-400000.0625,-12185.8603515625,-1092.0999755859375,-400000.0625,-4631.81005859375,-400000.0625,-12803.41015625,-400000.0625
322.4180963039398,-400000.0625,-12204.83984375,-1106.739990234375,-400000.0625,-4648.2998046875,-400000.0625,-12823.2998046875,-400000.0625
322.43451166152954,-400000.0625,-12245.849609375,-1145.27001953125,-400000.0625,-4696.7998046875,-400000.0625,-12866.98046875,-400000.0625
322.4586000442505,-400000.0625,-12251.66015625,-1153.0899658203125,-400000.0625,-4698.47021484375,-400000.0625,-12870.5,-400000.0625
322.4696135520935,-400000.0625,-12217.0498046875,-1117.4200439453125,-400000.0625,-4661.47021484375,-400000.0625,-12830.400390625,-400000.0625
322.483674287796,-400000.0625,-12184.9599609375,-1088.9100341796875,-400000.0625,-4635.52978515625,-400000.0625,-12800.3095703125,-400000.0625
322.49753880500793,-400000.0625,-12205.650390625,-1109.030029296875,-400000.0625,-4648.64013671875,-400000.0625,-12827.58984375,-400000.0625
322.5115032196045,-400000.0625,-12249.900390625,-1146.030029296875,-400000.0625,-4688.97998046875,-400000.0625,-12869.169921875,-400000.0625
322.5237114429474,-400000.0625,-12251.1904296875,-1146.8900146484375,-400000.0625,-4687.830078125,-400000.0625,-12869.599609375,-400000.0625
322.54220032691956,-400000.0625,-12213.2802734375,-1115.989990234375,-400000.0625,-4656.31982421875,-400000.0625,-12831.98046875,-400000.0625
322.56694865226746,-400000.0625,-12184.099609375,-1091.239990234375,-400000.0625,-4641.33984375,-400000.0625,-12804.9404296875,-400000.0625
322.5810134410858,-400000.0625,-12203.98046875,-1107.0699462890625,-400000.0625,-4656.35986328125,-400000.0625,-12824.16015625,-400000.0625
322.59378957748413,-400000.0625,-12249.1904296875,-1147.699951171875,-400000.0625,-4695.080078125,-400000.0625,-12863.73046875,-400000.0625
322.60727763175964,-400000.0625,-12253.7197265625,-1150.27001953125,-400000.0625,-4694.89013671875,-400000.0625,-12868.5,-400000.0625
322.62100315093994,-400000.0625,-12209.849609375,-1112.800048828125,-400000.0625,-4658.18017578125,-400000.0625,-12829.58984375,-400000.0625
322.6356952190399,-400000.0625,-12180.6201171875,-1084.0400390625,-400000.0625,-4628.330078125,-400000.0625,-12800.080078125,-400000.0625
322.6492178440094,-400000.0625,-12203.599609375,-1105.68994140625,-400000.0625,-4648.830078125,-400000.0625,-12822.2001953125,-400000.0625
322.6786241531372,-400000.0625,-12248.419921875,-1146.0799560546875,-400000.0625,-4691.169921875,-400000.0625,-12866.259765625,-400000.0625
322.69077038764954,-400000.0625,-12247.3701171875,-1149.8499755859375,-400000.0625,-4691.83984375,-400000.0625,-12867.400390625,-400000.0625
322.7022087574005,-400000.0625,-12209.509765625,-1112.510009765625,-400000.0625,-4654.4599609375,-400000.0625,-12832.599609375,-400000.0625
322.716637134552,-400000.0625,-12188.0498046875,-1088.7099609375,-400000.0625,-4638.240234375,-400000.0625,-12806.75,-400000.0625
322.74387550354004,-400000.0625,-12205.41015625,-1106.1199951171875,-400000.0625,-4654.83984375,-400000.0625,-12828.6396484375,-400000.0625
322.77207016944885,-400000.0625,-12250.3798828125,-1147.219970703125,-400000.0625,-4693.7001953125,-400000.0625,-12872.0302734375,-400000.0625
322.8211476802826,-400000.0625,-12253.330078125,-1148.3199462890625,-400000.0625,-4693.89013671875,-400000.0625,-12873.5595703125,-400000.0625
322.84833812713623,-400000.0625,-12218.0498046875,-1112.1800537109375,-400000.0625,-4660.85009765625,-400000.0625,-12834.41015625,-400000.0625
322.875200510025,-400000.0625,-12185.5302734375,-1085.81005859375,-400000.0625,-4633.759765625,-400000.0625,-12802.8896484375,-400000.0625
322.9142873287201,-400000.0625,-12206.599609375,-1106.550048828125,-400000.0625,-4651.169921875,-400000.0625,-12822.6298828125,-400000.0625
322.9326801300049,-400000.0625,-12247.3701171875,-1141.1199951171875,-400000.0625,-4687.1201171875,-400000.0625,-12865.1201171875,-400000.0625
322.95259857177734,-400000.0625,-12251.240234375,-1143.9300537109375,-400000.0625,-4691.89013671875,-400000.0625,-12872.8896484375,-400000.0625
322.98229479789734,-400000.0625,-12215.66015625,-1112.3199462890625,-400000.0625,-4665.9501953125,-400000.0625,-12835.740234375,-400000.0625
323.03081488609314,-400000.0625,-12191.580078125,-1085.949951171875,-400000.0625,-4638.39013671875,-400000.0625,-12806.9404296875,-400000.0625
323.053031206131,-400000.0625,-12222.240234375,-1106.8299560546875,-400000.0625,-4655.93017578125,-400000.0625,-12832.4501953125,-400000.0625
323.08235216140747,-400000.0625,-12263.6796875,-1142.0699462890625,-400000.0625,-4687.830078125,-400000.0625,-12875.080078125,-400000.0625
323.1243531703949,-400000.0625,-12257.150390625,-1151.6600341796875,-400000.0625,-4691.31982421875,-400000.0625,-12869.6904296875,-400000.0625
323.147513628006,-400000.0625,-12215.3798828125,-1122.6700439453125,-400000.0625,-4656.83984375,-400000.0625,-12834.3603515625,-400000.0625
323.1702880859375,-400000.0625,-12199.58984375,-1101.969970703125,-400000.0625,-4638.85986328125,-400000.0625,-12809.0400390625,-400000.0625
323.1860899925232,-400000.0625,-12229.7802734375,-1120.3800048828125,-400000.0625,-4662.18017578125,-400000.0625,-12826.25,-400000.0625
323.22866916656494,-400000.0625,-12270.740234375,-1157.239990234375,-400000.0625,-4700.18017578125,-400000.0625,-12866.7802734375,-400000.0625
323.24956822395325,-400000.0625,-12279.3701171875,-1165.199951171875,-400000.0625,-4692.169921875,-400000.0625,-12870.26953125,-400000.0625
323.27104592323303,-400000.0625,-12238.5,-1127.6199951171875,-400000.0625,-4659.3701171875,-400000.0625,-12831.5498046875,-400000.0625
323.2894766330719,-400000.0625,-12218.5703125,-1105.5,-400000.0625,-4642.919921875,-400000.0625,-12806.4599609375,-400000.0625
323.3317360877991,-400000.0625,-12240.5498046875,-1125.760009765625,-400000.0625,-4662.56005859375,-400000.0625,-12828.8798828125,-400000.0625
323.361359834671,-400000.0625,-12279.080078125,-1163.47998046875,-400000.0625,-4697.3701171875,-400000.0625,-12868.83984375,-400000.0625
323.38146448135376,-400000.0625,-12282.849609375,-1167.25,-400000.0625,-4697.18017578125,-400000.0625,-12873.83984375,-400000.0625
323.4020264148712,-400000.0625,-12241.509765625,-1127.6700439453125,-400000.0625,-4662.419921875,-400000.0625,-12834.650390625,-400000.0625
323.43141531944275,-400000.0625,-12206.3701171875,-1096.6300048828125,-400000.0625,-4632.66015625,-400000.0625,-12801.4599609375,-400000.0625
323.44733119010925,-400000.0625,-12223.8203125,-1109.7900390625,-400000.0625,-4648.39990234375,-400000.0625,-12824.9697265625,-400000.0625
323.4581208229065,-400000.0625,-12273.7900390625,-1158.5699462890625,-400000.0625,-4691.080078125,-400000.0625,-12865.0703125,-400000.0625
323.4744408130646,-400000.0625,-12277.7001953125,-1163.8199462890625,-400000.0625,-4704.47998046875,-400000.0625,-12864.6904296875,-400000.0625
323.49777150154114,-400000.0625,-12241.41015625,-1126.81005859375,-400000.0625,-4673.39013671875,-400000.0625,-12832.599609375,-400000.0625
323.50940704345703,-400000.0625,-12215.66015625,-1103.9300537109375,-400000.0625,-4642.81982421875,-400000.0625,-12804.83984375,-400000.0625
323.54880452156067,-400000.0625,-12233.5400390625,-1125.2900390625,-400000.0625,-4658.18017578125,-400000.0625,-12822.8203125,-400000.0625
323.56996417045593,-400000.0625,-12276.169921875,-1159.530029296875,-400000.0625,-4694.83984375,-400000.0625,-12867.169921875,-400000.0625
323.59273624420166,-400000.0625,-12275.5498046875,-1162.8199462890625,-400000.0625,-4696.080078125,-400000.0625,-12872.7900390625,-400000.0625
323.61040234565735,-400000.0625,-12237.6904296875,-1125.81005859375,-400000.0625,-4662.7099609375,-400000.0625,-12831.5498046875,-400000.0625
323.66255497932434,-400000.0625,-12214.4697265625,-1097.5400390625,-400000.0625,-4636.33984375,-400000.0625,-12797.3095703125,-400000.0625
323.67831778526306,-400000.0625,-12233.2099609375,-1116.3699951171875,-400000.0625,-4648.39990234375,-400000.0625,-12817.7197265625,-400000.0625
323.7127785682678,-400000.0625,-12276.41015625,-1158.81005859375,-400000.0625,-4693.080078125,-400000.0625,-12863.01953125,-400000.0625
323.75156259536743,-400000.0625,-12283.7998046875,-1162.8199462890625,-400000.0625,-4705.85986328125,-400000.0625,-12863.259765625,-400000.0625
323.77923941612244,-400000.0625,-12239.83984375,-1127.0999755859375,-400000.0625,-4672.33984375,-400000.0625,-12829.5,-400000.0625
323.818306684494,-400000.0625,-12210.9404296875,-1100.780029296875,-400000.0625,-4641.25,-400000.0625,-12798.6396484375,-400000.0625
323.8684380054474,-400000.0625,-12232.349609375,-1118.1400146484375,-400000.0625,-4652.830078125,-400000.0625,-12820.009765625,-400000.0625
323.88869524002075,-400000.0625,-12268.349609375,-1152.3199462890625,-400000.0625,-4687.93017578125,-400000.0625,-12861.2998046875,-400000.0625
323.91020226478577,-400000.0625,-12276.7900390625,-1162.0999755859375,-400000.0625,-4699.18017578125,-400000.0625,-12860.349609375,-400000.0625
323.9364094734192,-400000.0625,-12245.2802734375,-1132.5400390625,-400000.0625,-4663.75,-400000.0625,-12825.58984375,-400000.0625
323.97571778297424,-400000.0625,-12215.900390625,-1103.8299560546875,-400000.0625,-4634.91015625,-400000.0625,-12798.9296875,-400000.0625
323.9954686164856,-400000.0625,-12236.9296875,-1119.280029296875,-400000.0625,-4660.509765625,-400000.0625,-12822.919921875,-400000.0625
324.02108907699585,-400000.0625,-12278.0302734375,-1159.8599853515625,-400000.0625,-4699.759765625,-400000.0625,-12865.5,-400000.0625
324.0375142097473,-400000.0625,-12283.1396484375,-1163.2900390625,-400000.0625,-4701.0,-400000.0625,-12863.830078125,-400000.0625
324.074166059494,-400000.0625,-12243.75,-1128.3900146484375,-400000.0625,-4660.75,-400000.0625,-12828.830078125,-400000.0625
324.0948462486267,-400000.0625,-12211.2802734375,-1098.8699951171875,-400000.0625,-4634.56982421875,-400000.0625,-12801.1201171875,-400000.0625
324.13154101371765,-400000.0625,-12230.490234375,-1115.510009765625,-400000.0625,-4652.02001953125,-400000.0625,-12819.3896484375,-400000.0625
324.1446096897125,-400000.0625,-12277.7001953125,-1152.4200439453125,-400000.0625,-4688.41015625,-400000.0625,-12860.490234375,-400000.0625
324.1937427520752,-400000.0625,-12283.66015625,-1162.6700439453125,-400000.0625,-4699.66015625,-400000.0625,-12869.169921875,-400000.0625
324.21590781211853,-400000.0625,-12241.83984375,-1124.47998046875,-400000.0625,-4661.0400390625,-400000.0625,-12833.2197265625,-400000.0625
324.23149394989014,-400000.0625,-12207.9404296875,-1094.1500244140625,-400000.0625,-4630.66015625,-400000.0625,-12799.4599609375,-400000.0625
324.245539188385,-400000.0625,-12230.1103515625,-1110.550048828125,-400000.0625,-4658.3701171875,-400000.0625,-12820.76953125,-400000.0625
324.2879436016083,-400000.0625,-12273.3603515625,-1153.989990234375,-400000.0625,-4690.60009765625,-400000.0625,-12864.8798828125,-400000.0625
324.3069634437561,-400000.0625,-12277.7998046875,-1158.81005859375,-400000.0625,-4693.93994140625,-400000.0625,-12868.1201171875,-400000.0625
324.3226592540741,-400000.0625,-12239.740234375,-1119.4200439453125,-400000.0625,-4659.56005859375,-400000.0625,-12832.599609375,-400000.0625
324.3383333683014,-400000.0625,-12204.509765625,-1088.47998046875,-400000.0625,-4633.6201171875,-400000.0625,-12806.26953125,-400000.0625
324.357791185379,-400000.0625,-12228.2001953125,-1109.31005859375,-400000.0625,-4653.259765625,-400000.0625,-12825.7802734375,-400000.0625
324.3939776420593,-400000.0625,-12273.650390625,-1151.989990234375,-400000.0625,-4692.27001953125,-400000.0625,-12866.4501953125,-400000.0625
324.41463446617126,-400000.0625,-12278.990234375,-1155.760009765625,-400000.0625,-4694.18017578125,-400000.0625,-12869.41015625,-400000.0625
324.4371576309204,-400000.0625,-12238.599609375,-1119.6099853515625,-400000.0625,-4652.02001953125,-400000.0625,-12834.8798828125,-400000.0625
324.45475244522095,-400000.0625,-12206.7001953125,-1089.6700439453125,-400000.0625,-4627.66015625,-400000.0625,-12807.080078125,-400000.0625
324.47258472442627,-400000.0625,-12231.16015625,-1112.5999755859375,-400000.0625,-4659.93994140625,-400000.0625,-12827.58984375,-400000.0625
324.51170468330383,-400000.0625,-12276.98046875,-1153.989990234375,-400000.0625,-4695.75,-400000.0625,-12869.169921875,-400000.0625
324.53136253356934,-400000.0625,-12280.7998046875,-1156.760009765625,-400000.0625,-4692.89013671875,-400000.0625,-12878.0400390625,-400000.0625
324.5509731769562,-400000.0625,-12246.75,-1129.719970703125,-400000.0625,-4660.419921875,-400000.0625,-12842.75,-400000.0625
324.5701208114624,-400000.0625,-12211.6103515625,-1094.010009765625,-400000.0625,-4632.330078125,-400000.0625,-12806.75,-400000.0625
324.59498929977417,-400000.0625,-12227.8701171875,-1111.75,-400000.0625,-4649.39990234375,-400000.0625,-12826.73046875,-400000.0625
324.6341414451599,-400000.0625,-12271.6396484375,-1151.8499755859375,-400000.0625,-4690.60009765625,-400000.0625,-12868.259765625,-400000.0625
324.65614104270935,-400000.0625,-12274.080078125,-1156.949951171875,-400000.0625,-4695.75,-400000.0625,-12872.8896484375,-400000.0625
324.67746138572693,-400000.0625,-12238.83984375,-1117.800048828125,-400000.0625,-4660.02978515625,-400000.0625,-12835.4599609375,-400000.0625
324.6930594444275,-400000.0625,-12213.23046875,-1092.3900146484375,-400000.0625,-4633.14013671875,-400000.0625,-12808.849609375,-400000.0625
324.7169017791748,-400000.0625,-12228.58984375,-1111.219970703125,-400000.0625,-4658.080078125,-400000.0625,-12827.9697265625,-400000.0625
324.75006008148193,-400000.0625,-12273.26953125,-1150.75,-400000.0625,-4693.7900390625,-400000.0625,-12873.7001953125,-400000.0625
324.7718231678009,-400000.0625,-12282.7998046875,-1155.5699462890625,-400000.0625,-4694.60986328125,-400000.0625,-12879.66015625,-400000.0625
324.7966902256012,-400000.0625,-12246.849609375,-1116.510009765625,-400000.0625,-4656.93994140625,-400000.0625,-12840.080078125,-400000.0625
324.81390285491943,-400000.0625,-12218.8095703125,-1092.2900390625,-400000.0625,-4630.85009765625,-400000.0625,-12806.3701171875,-400000.0625
324.8279297351837,-400000.0625,-12234.1201171875,-1118.52001953125,-400000.0625,-4648.64013671875,-400000.0625,-12819.5302734375,-400000.0625
324.86162400245667,-400000.0625,-12279.7998046875,-1165.43994140625,-400000.0625,-4691.89013671875,-400000.0625,-12868.4501953125,-400000.0625
324.8786518573761,-400000.0625,-12292.9599609375,-1168.5799560546875,-400000.0625,-4693.27001953125,-400000.0625,-12873.9404296875,-400000.0625
324.8996686935425,-400000.0625,-12255.5302734375,-1132.6300048828125,-400000.0625,-4657.31982421875,-400000.0625,-12833.2197265625,-400000.0625
324.9105942249298,-400000.0625,-12221.8603515625,-1107.5999755859375,-400000.0625,-4640.06005859375,-400000.0625,-12801.2197265625,-400000.0625
324.9354407787323,-400000.0625,-12243.5595703125,-1129.6800537109375,-400000.0625,-4657.1298828125,-400000.0625,-12820.8203125,-400000.0625
324.9648654460907,-400000.0625,-12287.5703125,-1166.43994140625,-400000.0625,-4688.7900390625,-400000.0625,-12861.4404296875,-400000.0625
324.9945499897003,-400000.0625,-12290.5703125,-1166.9599609375,-400000.0625,-4689.740234375,-400000.0625,-12866.400390625,-400000.0625
325.01521611213684,-400000.0625,-12254.0498046875,-1134.3499755859375,-400000.0625,-4658.080078125,-400000.0625,-12829.5400390625,-400000.0625
325.03636407852173,-400000.0625,-12227.349609375,-1108.219970703125,-400000.0625,-4630.7998046875,-400000.0625,-12799.6904296875,-400000.0625
325.0717921257019,-400000.0625,-12242.4599609375,-1122.9000244140625,-400000.0625,-4646.64013671875,-400000.0625,-12817.8095703125,-400000.0625
325.09016847610474,-400000.0625,-12283.51953125,-1159.47998046875,-400000.0625,-4688.22021484375,-400000.0625,-12861.6298828125,-400000.0625
325.11216950416565,-400000.0625,-12294.8203125,-1167.6800537109375,-400000.0625,-4694.18017578125,-400000.0625,-12867.0703125,-400000.0625
325.12544322013855,-400000.0625,-12261.1103515625,-1132.5400390625,-400000.0625,-4664.22998046875,-400000.0625,-12832.5,-400000.0625
325.1437797546387,-400000.0625,-12226.4404296875,-1104.6400146484375,-400000.0625,-4641.490234375,-400000.0625,-12805.9404296875,-400000.0625
325.1845486164093,-400000.0625,-12247.1298828125,-1126.0,-400000.0625,-4656.4599609375,-400000.0625,-12823.33984375,-400000.0625
325.20793652534485,-400000.0625,-12291.5302734375,-1166.530029296875,-400000.0625,-4688.93017578125,-400000.0625,-12863.1103515625,-400000.0625
325.22782802581787,-400000.0625,-12300.7802734375,-1173.2099609375,-400000.0625,-4696.31982421875,-400000.0625,-12872.75,-400000.0625
325.24343824386597,-400000.0625,-12258.580078125,-1133.3499755859375,-400000.0625,-4662.93994140625,-400000.0625,-12835.8896484375,-400000.0625
325.2612273693085,-400000.0625,-12228.490234375,-1103.969970703125,-400000.0625,-4633.240234375,-400000.0625,-12805.7998046875,-400000.0625
325.30209040641785,-400000.0625,-12247.0400390625,-1122.0899658203125,-400000.0625,-4650.31005859375,-400000.0625,-12824.7802734375,-400000.0625
325.3190932273865,-400000.0625,-12291.5302734375,-1163.9100341796875,-400000.0625,-4690.02978515625,-400000.0625,-12863.16015625,-400000.0625
325.33880734443665,-400000.0625,-12295.7197265625,-1170.25,-400000.0625,-4688.41015625,-400000.0625,-12870.2197265625,-400000.0625
325.35406470298767,-400000.0625,-12257.2001953125,-1133.9200439453125,-400000.0625,-4657.83984375,-400000.0625,-12830.830078125,-400000.0625
325.3743770122528,-400000.0625,-12230.25,-1106.449951171875,-400000.0625,-4639.669921875,-400000.0625,-12801.3095703125,-400000.0625
325.407692193985,-400000.0625,-12248.08984375,-1121.9000244140625,-400000.0625,-4655.27001953125,-400000.0625,-12821.150390625,-400000.0625
325.4300227165222,-400000.0625,-12292.7197265625,-1164.0999755859375,-400000.0625,-4696.7001953125,-400000.0625,-12856.580078125,-400000.0625
325.44538831710815,-400000.0625,-12294.7197265625,-1170.780029296875,-400000.0625,-4697.990234375,-400000.0625,-12862.16015625,-400000.0625
325.4707553386688,-400000.0625,-12257.8203125,-1131.43994140625,-400000.0625,-4659.509765625,-400000.0625,-12829.6396484375,-400000.0625
325.4923965930939,-400000.0625,-12228.0595703125,-1105.97998046875,-400000.0625,-4628.0400390625,-400000.0625,-12795.6396484375,-400000.0625
325.5260705947876,-400000.0625,-12249.5703125,-1124.81005859375,-400000.0625,-4644.43994140625,-400000.0625,-12818.580078125,-400000.0625
325.547931432724,-400000.0625,-12294.33984375,-1161.530029296875,-400000.0625,-4690.97998046875,-400000.0625,-12858.8701171875,-400000.0625
325.5597519874573,-400000.0625,-12294.91015625,-1164.6300048828125,-400000.0625,-4698.08984375,-400000.0625,-12861.830078125,-400000.0625
325.5816402435303,-400000.0625,-12252.5703125,-1126.8599853515625,-400000.0625,-4659.27001953125,-400000.0625,-12824.2998046875,-400000.0625
325.59556674957275,-400000.0625,-12222.7197265625,-1101.9200439453125,-400000.0625,-4634.240234375,-400000.0625,-12794.9697265625,-400000.0625
325.63263297080994,-400000.0625,-12244.849609375,-1119.3299560546875,-400000.0625,-4650.5498046875,-400000.0625,-12817.91015625,-400000.0625
325.6531195640564,-400000.0625,-12288.0498046875,-1157.0,-400000.0625,-4685.8798828125,-400000.0625,-12860.25,-400000.0625
325.6683135032654,-400000.0625,-12293.5302734375,-1164.719970703125,-400000.0625,-4691.080078125,-400000.0625,-12862.9697265625,-400000.0625
325.68301939964294,-400000.0625,-12256.240234375,-1130.06005859375,-400000.0625,-4659.509765625,-400000.0625,-12824.8203125,-400000.0625
325.7041611671448,-400000.0625,-12224.4404296875,-1105.1199951171875,-400000.0625,-4630.89990234375,-400000.0625,-12796.6904296875,-400000.0625
325.74755358695984,-400000.0625,-12240.75,-1115.699951171875,-400000.0625,-4647.35009765625,-400000.0625,-12815.4296875,-400000.0625
325.7674345970154,-400000.0625,-12286.0,-1160.0,-400000.0625,-4689.83984375,-400000.0625,-12859.16015625,-400000.0625
325.7848150730133,-400000.0625,-12292.099609375,-1166.06005859375,-400000.0625,-4690.97998046875,-400000.0625,-12867.9296875,-400000.0625
325.8014307022095,-400000.0625,-12255.240234375,-1132.5400390625,-400000.0625,-4661.89013671875,-400000.0625,-12825.5400390625,-400000.0625
325.8218832015991,-400000.0625,-12221.1904296875,-1104.3499755859375,-400000.0625,-4635.85986328125,-400000.0625,-12797.5498046875,-400000.0625
325.8523099422455,-400000.0625,-12246.5595703125,-1121.4300537109375,-400000.0625,-4653.02978515625,-400000.0625,-12820.25,-400000.0625
325.8765025138855,-400000.0625,-12289.6201171875,-1160.81005859375,-400000.0625,-4688.83984375,-400000.0625,-12859.25,-400000.0625
325.9011495113373,-400000.0625,-12294.48046875,-1165.010009765625,-400000.0625,-4689.97998046875,-400000.0625,-12864.4501953125,-400000.0625
325.92281460762024,-400000.0625,-12247.900390625,-1123.949951171875,-400000.0625,-4652.97998046875,-400000.0625,-12825.400390625,-400000.0625
325.9578092098236,-400000.0625,-12217.759765625,-1098.8699951171875,-400000.0625,-4632.89990234375,-400000.0625,-12799.169921875,-400000.0625
325.9734356403351,-400000.0625,-12242.509765625,-1116.7099609375,-400000.0625,-4652.60009765625,-400000.0625,-12815.51953125,-400000.0625
325.9913549423218,-400000.0625,-12287.0,-1160.530029296875,-400000.0625,-4688.06982421875,-400000.0625,-12859.6298828125,-400000.0625
326.0103724002838,-400000.0625,-12293.150390625,-1165.0999755859375,-400000.0625,-4692.080078125,-400000.0625,-12866.1201171875,-400000.0625
326.02883195877075,-400000.0625,-12257.2001953125,-1129.1500244140625,-400000.0625,-4653.68994140625,-400000.0625,-12827.9697265625,-400000.0625
326.06598472595215,-400000.0625,-12227.73046875,-1104.9300537109375,-400000.0625,-4633.14013671875,-400000.0625,-12798.41015625,-400000.0625
326.0839514732361,-400000.0625,-12246.7998046875,-1122.050048828125,-400000.0625,-4652.35986328125,-400000.0625,-12817.669921875,-400000.0625
326.1011788845062,-400000.0625,-12288.9501953125,-1160.0,-400000.0625,-4682.490234375,-400000.0625,-12860.400390625,-400000.0625
326.11298060417175,-400000.0625,-12297.8701171875,-1167.25,-400000.0625,-4695.1298828125,-400000.0625,-12869.3095703125,-400000.0625
326.1309051513672,-400000.0625,-12267.58984375,-1137.3499755859375,-400000.0625,-4674.009765625,-400000.0625,-12834.1201171875,-400000.0625
326.1677985191345,-400000.0625,-12227.1103515625,-1104.68994140625,-400000.0625,-4643.39013671875,-400000.0625,-12802.080078125,-400000.0625
326.1796078681946,-400000.0625,-12235.9296875,-1115.27001953125,-400000.0625,-4646.68017578125,-400000.0625,-12822.9599609375,-400000.0625
326.2015824317932,-400000.0625,-12278.7998046875,-1152.800048828125,-400000.0625,-4685.93017578125,-400000.0625,-12871.3095703125,-400000.0625
326.21835589408875,-400000.0625,-12283.1396484375,-1159.81005859375,-400000.0625,-4689.259765625,-400000.0625,-12881.23046875,-400000.0625
326.2306077480316,-400000.0625,-12238.7900390625,-1120.8499755859375,-400000.0625,-4650.93017578125,-400000.0625,-12851.8603515625,-400000.0625
326.2591142654419,-400000.0625,-12203.0703125,-1089.4300537109375,-400000.0625,-4627.31982421875,-400000.0625,-12827.4501953125,-400000.0625
326.28497648239136,-400000.0625,-12222.33984375,-1103.5899658203125,-400000.0625,-4649.8798828125,-400000.0625,-12850.5703125,-400000.0625
326.30519366264343,-400000.0625,-12263.1103515625,-1139.1199951171875,-400000.0625,-4687.02001953125,-400000.0625,-12894.580078125,-400000.0625
326.3225984573364,-400000.0625,-12261.33984375,-1136.8800048828125,-400000.0625,-4681.97021484375,-400000.0625,-12903.8798828125,-400000.0625
326.33809185028076,-400000.0625,-12220.91015625,-1102.1099853515625,-400000.0625,-4653.259765625,-400000.0625,-12870.740234375,-400000.0625
326.3562853336334,-400000.0625,-12193.0595703125,-1074.7900390625,-400000.0625,-4630.66015625,-400000.0625,-12843.23046875,-400000.0625
326.3725335597992,-400000.0625,-12207.3701171875,-1088.5699462890625,-400000.0625,-4645.97021484375,-400000.0625,-12867.740234375,-400000.0625
326.40931510925293,-400000.0625,-12253.330078125,-1128.3399658203125,-400000.0625,-4684.5,-400000.0625,-12908.0302734375,-400000.0625
326.42770314216614,-400000.0625,-12263.6298828125,-1133.72998046875,-400000.0625,-4690.7900390625,-400000.0625,-12910.9404296875,-400000.0625
326.44263648986816,-400000.0625,-12218.9501953125,-1095.0999755859375,-400000.0625,-4655.89013671875,-400000.0625,-12874.650390625,-400000.0625
326.45983719825745,-400000.0625,-12193.8701171875,-1066.6400146484375,-400000.0625,-4625.27001953125,-400000.0625,-12845.08984375,-400000.0625
326.4768617153168,-400000.0625,-12213.759765625,-1085.5699462890625,-400000.0625,-4637.0498046875,-400000.0625,-12861.6298828125,-400000.0625
326.51293563842773,-400000.0625,-12254.0,-1125.2900390625,-400000.0625,-4670.47998046875,-400000.0625,-12904.1201171875,-400000.0625
326.52659273147583,-400000.0625,-12264.919921875,-1133.06005859375,-400000.0625,-4686.06982421875,-400000.0625,-12909.41015625,-400000.0625
326.5433204174042,-400000.0625,-12226.2998046875,-1095.25,-400000.0625,-4665.85009765625,-400000.0625,-12872.169921875,-400000.0625
326.56232166290283,-400000.0625,-12195.490234375,-1064.9200439453125,-400000.0625,-4634.0498046875,-400000.0625,-12843.9404296875,-400000.0625
326.5809574127197,-400000.0625,-12212.4697265625,-1082.3299560546875,-400000.0625,-4640.6298828125,-400000.0625,-12859.6796875,-400000.0625
326.60860085487366,-400000.0625,-12248.7998046875,-1117.6600341796875,-400000.0625,-4674.669921875,-400000.0625,-12895.6796875,-400000.0625
326.6263036727905,-400000.0625,-12260.6298828125,-1124.47998046875,-400000.0625,-4682.919921875,-400000.0625,-12897.4501953125,-400000.0625
326.6465654373169,-400000.0625,-12221.669921875,-1086.5699462890625,-400000.0625,-4648.97021484375,-400000.0625,-12865.349609375,-400000.0625
326.66706371307373,-400000.0625,-12190.2001953125,-1059.3900146484375,-400000.0625,-4619.41015625,-400000.0625,-12839.650390625,-400000.0625
326.686044216156,-400000.0625,-12211.4697265625,-1076.75,-400000.0625,-4638.77001953125,-400000.0625,-12857.0595703125,-400000.0625
326.7263147830963,-400000.0625,-12255.150390625,-1114.4200439453125,-400000.0625,-4681.919921875,-400000.0625,-12898.259765625,-400000.0625
326.7477676868439,-400000.0625,-12256.4296875,-1118.280029296875,-400000.0625,-4686.7900390625,-400000.0625,-12902.3603515625,-400000.0625
326.7623791694641,-400000.0625,-12217.8603515625,-1086.6600341796875,-400000.0625,-4653.740234375,-400000.0625,-12864.5400390625,-400000.0625
326.78660225868225,-400000.0625,-12188.6298828125,-1055.6199951171875,-400000.0625,-4621.31982421875,-400000.0625,-12833.169921875,-400000.0625
326.8235242366791,-400000.0625,-12208.83984375,-1076.93994140625,-400000.0625,-4639.580078125,-400000.0625,-12853.4296875,-400000.0625
326.8406505584717,-400000.0625,-12258.33984375,-1119.469970703125,-400000.0625,-4682.64013671875,-400000.0625,-12895.9697265625,-400000.0625
326.8587327003479,-400000.0625,-12262.6298828125,-1122.280029296875,-400000.0625,-4686.58984375,-400000.0625,-12906.509765625,-400000.0625
326.8796293735504,-400000.0625,-12225.76953125,-1087.4300537109375,-400000.0625,-4653.5,-400000.0625,-12867.1201171875,-400000.0625
326.89417719841003,-400000.0625,-12196.4501953125,-1061.010009765625,-400000.0625,-4632.7099609375,-400000.0625,-12835.4599609375,-400000.0625
326.94026470184326,-400000.0625,-12213.3701171875,-1075.97998046875,-400000.0625,-4643.97021484375,-400000.0625,-12854.5302734375,-400000.0625
326.9575161933899,-400000.0625,-12255.5703125,-1113.219970703125,-400000.0625,-4677.6298828125,-400000.0625,-12894.4404296875,-400000.0625
326.974942445755,-400000.0625,-12265.8701171875,-1123.1400146484375,-400000.0625,-4685.35009765625,-400000.0625,-12904.2197265625,-400000.0625
326.99743819236755,-400000.0625,-12234.7802734375,-1095.5799560546875,-400000.0625,-4660.3701171875,-400000.0625,-12873.599609375,-400000.0625
327.0319724082947,-400000.0625,-12201.6396484375,-1063.3900146484375,-400000.0625,-4632.47021484375,-400000.0625,-12843.9404296875,-400000.0625
327.0469377040863,-400000.0625,-12220.76953125,-1078.6500244140625,-400000.0625,-4645.8701171875,-400000.0625,-12857.009765625,-400000.0625
327.06407499313354,-400000.0625,-12261.33984375,-1120.5699462890625,-400000.0625,-4686.39990234375,-400000.0625,-12897.830078125,-400000.0625
327.0846836566925,-400000.0625,-12267.2998046875,-1125.47998046875,-400000.0625,-4688.7900390625,-400000.0625,-12903.3095703125,-400000.0625
327.10402250289917,-400000.0625,-12229.16015625,-1090.719970703125,-400000.0625,-4647.4501953125,-400000.0625,-12868.0703125,-400000.0625
327.1421592235565,-400000.0625,-12199.1201171875,-1060.6800537109375,-400000.0625,-4626.85009765625,-400000.0625,-12838.5595703125,-400000.0625
327.1569230556488,-400000.0625,-12219.48046875,-1076.6500244140625,-400000.0625,-4645.6298828125,-400000.0625,-12859.0595703125,-400000.0625
327.1760632991791,-400000.0625,-12257.8203125,-1114.6500244140625,-400000.0625,-4682.02001953125,-400000.0625,-12898.2998046875,-400000.0625
327.19478058815,-400000.0625,-12265.0595703125,-1121.280029296875,-400000.0625,-4693.89013671875,-400000.0625,-12902.9296875,-400000.0625
327.21991658210754,-400000.0625,-12225.9599609375,-1087.9000244140625,-400000.0625,-4660.60986328125,-400000.0625,-12865.7802734375,-400000.0625
327.259446144104,-400000.0625,-12199.01953125,-1062.8199462890625,-400000.0625,-4630.0400390625,-400000.0625,-12836.509765625,-400000.0625
327.280070066452,-400000.0625,-12220.5703125,-1076.4100341796875,-400000.0625,-4643.39013671875,-400000.0625,-12854.3896484375,-400000.0625
327.2980260848999,-400000.0625,-12257.2900390625,-1112.8900146484375,-400000.0625,-4679.35009765625,-400000.0625,-12899.01953125,-400000.0625
327.32128262519836,-400000.0625,-12264.5400390625,-1122.9000244140625,-400000.0625,-4688.5498046875,-400000.0625,-12902.2099609375,-400000.0625
327.35755944252014,-400000.0625,-12226.3896484375,-1084.6099853515625,-400000.0625,-4654.83984375,-400000.0625,-12863.5400390625,-400000.0625
327.38099122047424,-400000.0625,-12199.740234375,-1057.6700439453125,-400000.0625,-4632.9501953125,-400000.0625,-12835.5498046875,-400000.0625
327.40606141090393,-400000.0625,-12231.2998046875,-1079.3699951171875,-400000.0625,-4654.68994140625,-400000.0625,-12855.0498046875,-400000.0625
327.4238018989563,-400000.0625,-12255.0,-1105.260009765625,-400000.0625,-4680.58984375,-400000.0625,-12902.5,-400000.0625
327.45868611335754,-400000.0625,-12247.2802734375,-1105.3599853515625,-400000.0625,-4680.25,-400000.0625,-12914.51953125,-400000.0625
327.47586846351624,-400000.0625,-12203.26953125,-1065.780029296875,-400000.0625,-4645.43994140625,-400000.0625,-12882.759765625,-400000.0625
327.492388010025,-400000.0625,-12162.6396484375,-1031.1600341796875,-400000.0625,-4617.97998046875,-400000.0625,-12857.919921875,-400000.0625
327.51040959358215,-400000.0625,-12174.990234375,-1042.8900146484375,-400000.0625,-4631.52001953125,-400000.0625,-12882.51953125,-400000.0625
327.5306627750397,-400000.0625,-12215.66015625,-1078.510009765625,-400000.0625,-4670.52978515625,-400000.0625,-12933.01953125,-400000.0625
327.56417298316956,-400000.0625,-12219.0498046875,-1077.699951171875,-400000.0625,-4670.43017578125,-400000.0625,-12949.5595703125,-400000.0625
327.5847361087799,-400000.0625,-12188.25,-1038.8399658203125,-400000.0625,-4635.18994140625,-400000.0625,-12919.4296875,-400000.0625
327.6020579338074,-400000.0625,-12152.0498046875,-1005.4600219726562,-400000.0625,-4614.8798828125,-400000.0625,-12893.5400390625,-400000.0625
327.62143063545227,-400000.0625,-12164.3095703125,-1018.9500122070312,-400000.0625,-4630.3798828125,-400000.0625,-12912.509765625,-400000.0625
327.6368029117584,-400000.0625,-12204.599609375,-1057.0999755859375,-400000.0625,-4666.52001953125,-400000.0625,-12961.5302734375,-400000.0625
327.67144107818604,-400000.0625,-12215.66015625,-1065.06005859375,-400000.0625,-4673.81982421875,-400000.0625,-12963.8203125,-400000.0625
327.688285112381,-400000.0625,-12173.509765625,-1025.300048828125,-400000.0625,-4639.10009765625,-400000.0625,-12926.150390625,-400000.0625
327.70742654800415,-400000.0625,-12144.51953125,-998.5900268554688,-400000.0625,-4612.06005859375,-400000.0625,-12898.2998046875,-400000.0625
327.7258241176605,-400000.0625,-12164.5498046875,-1012.22998046875,-400000.0625,-4627.18017578125,-400000.0625,-12916.849609375,-400000.0625
327.7677037715912,-400000.0625,-12211.849609375,-1053.760009765625,-400000.0625,-4665.27978515625,-400000.0625,-12958.76953125,-400000.0625
327.883074760437,-400000.0625,-12219.4296875,-1062.9200439453125,-400000.0625,-4674.85986328125,-400000.0625,-12966.9697265625,-400000.0625
327.9601149559021,-400000.0625,-12177.3701171875,-1024.2900390625,-400000.0625,-4644.919921875,-400000.0625,-12931.1103515625,-400000.0625
327.9830791950226,-400000.0625,-12150.3798828125,-998.780029296875,-400000.0625,-4615.5,-400000.0625,-12900.2099609375,-400000.0625
328.0064857006073,-400000.0625,-12174.419921875,-1018.3800048828125,-400000.0625,-4628.3701171875,-400000.0625,-12917.1904296875,-400000.0625
328.07639718055725,-400000.0625,-12218.8603515625,-1055.77001953125,-400000.0625,-4672.52978515625,-400000.0625,-12960.8603515625,-400000.0625
328.1188848018646,-400000.0625,-12222.099609375,-1062.8699951171875,-400000.0625,-4679.490234375,-400000.0625,-12967.4501953125,-400000.0625
328.16945004463196,-400000.0625,-12187.009765625,-1030.300048828125,-400000.0625,-4647.68017578125,-400000.0625,-12933.58984375,-400000.0625
328.19714069366455,-400000.0625,-12155.1103515625,-997.1099853515625,-400000.0625,-4617.740234375,-400000.0625,-12900.9296875,-400000.0625
328.25011563301086,-400000.0625,-12173.2197265625,-1014.5700073242188,-400000.0625,-4627.60986328125,-400000.0625,-12914.9501953125,-400000.0625
328.294429063797,-400000.0625,-12212.08984375,-1053.239990234375,-400000.0625,-4661.509765625,-400000.0625,-12957.33984375,-400000.0625
328.33885765075684,-400000.0625,-12219.48046875,-1057.6700439453125,-400000.0625,-4674.10009765625,-400000.0625,-12970.16015625,-400000.0625
328.38645219802856,-400000.0625,-12189.490234375,-1028.8199462890625,-400000.0625,-4651.58984375,-400000.0625,-12932.2099609375,-400000.0625
328.45258712768555,-400000.0625,-12156.76953125,-999.8300170898438,-400000.0625,-4619.89013671875,-400000.0625,-12901.6904296875,-400000.0625
328.47769951820374,-400000.0625,-12174.66015625,-1014.3800048828125,-400000.0625,-4629.990234375,-400000.0625,-12918.330078125,-400000.0625
328.5006568431854,-400000.0625,-12220.33984375,-1056.1500244140625,-400000.0625,-4666.14013671875,-400000.0625,-12960.6298828125,-400000.0625
328.59373331069946,-400000.0625,-12225.919921875,-1060.6800537109375,-400000.0625,-4673.240234375,-400000.0625,-12965.919921875,-400000.0625
328.63749980926514,-400000.0625,-12186.580078125,-1025.0999755859375,-400000.0625,-4641.81982421875,-400000.0625,-12933.2099609375,-400000.0625
328.68134784698486,-400000.0625,-12154.76953125,-996.8800048828125,-400000.0625,-4614.5400390625,-400000.0625,-12903.169921875,-400000.0625
328.7077624797821,-400000.0625,-12171.599609375,-1008.510009765625,-400000.0625,-4632.240234375,-400000.0625,-12920.51953125,-400000.0625
328.73960757255554,-400000.0625,-12217.4296875,-1048.469970703125,-400000.0625,-4669.0,-400000.0625,-12962.2998046875,-400000.0625
328.8074152469635,-400000.0625,-12223.33984375,-1055.2900390625,-400000.0625,-4676.72021484375,-400000.0625,-12969.2099609375,-400000.0625
328.85006499290466,-400000.0625,-12179.6103515625,-1015.7100219726562,-400000.0625,-4636.669921875,-400000.0625,-12932.400390625,-400000.0625
328.9141438007355,-400000.0625,-12151.33984375,-992.969970703125,-400000.0625,-4610.06005859375,-400000.0625,-12898.7802734375,-400000.0625
328.9400372505188,-400000.0625,-12167.9296875,-1008.219970703125,-400000.0625,-4623.27001953125,-400000.0625,-12917.08984375,-400000.0625
328.969557762146,-400000.0625,-12213.2802734375,-1046.75,-400000.0625,-4664.27978515625,-400000.0625,-12955.759765625,-400000.0625
329.00203013420105,-400000.0625,-12217.900390625,-1053.6199951171875,-400000.0625,-4675.91015625,-400000.0625,-12960.240234375,-400000.0625
329.02318239212036,-400000.0625,-12183.7197265625,-1021.530029296875,-400000.0625,-4639.47998046875,-400000.0625,-12925.48046875,-400000.0625
329.0416696071625,-400000.0625,-12154.8701171875,-993.8200073242188,-400000.0625,-4616.58984375,-400000.0625,-12894.580078125,-400000.0625
329.05534386634827,-400000.0625,-12167.83984375,-1002.9299926757812,-400000.0625,-4629.85009765625,-400000.0625,-12910.2197265625,-400000.0625
329.0712308883667,-400000.0625,-12209.990234375,-1042.1800537109375,-400000.0625,-4664.7099609375,-400000.0625,-12952.51953125,-400000.0625
329.11953115463257,-400000.0625,-12213.5703125,-1048.52001953125,-400000.0625,-4669.52001953125,-400000.0625,-12963.73046875,-400000.0625
329.14269518852234,-400000.0625,-12175.66015625,-1014.6599731445312,-400000.0625,-4639.10009765625,-400000.0625,-12924.0498046875,-400000.0625
329.155962228775,-400000.0625,-12149.759765625,-984.1900024414062,-400000.0625,-4608.81982421875,-400000.0625,-12891.099609375,-400000.0625
329.1750192642212,-400000.0625,-12163.740234375,-999.1199951171875,-400000.0625,-4623.4599609375,-400000.0625,-12911.0400390625,-400000.0625
329.2019374370575,-400000.0625,-12208.080078125,-1038.7900390625,-400000.0625,-4662.31982421875,-400000.0625,-12957.2900390625,-400000.0625
329.2171266078949,-400000.0625,-12220.7197265625,-1048.989990234375,-400000.0625,-4669.85986328125,-400000.0625,-12966.830078125,-400000.0625
329.2296040058136,-400000.0625,-12185.6201171875,-1015.469970703125,-400000.0625,-4643.580078125,-400000.0625,-12926.3896484375,-400000.0625
329.2426424026489,-400000.0625,-12151.5302734375,-984.9099731445312,-400000.0625,-4610.6298828125,-400000.0625,-12890.8603515625,-400000.0625
329.2609648704529,-400000.0625,-12164.169921875,-1000.9299926757812,-400000.0625,-4626.7998046875,-400000.0625,-12907.1298828125,-400000.0625
329.28201365470886,-400000.0625,-12211.900390625,-1042.93994140625,-400000.0625,-4669.3798828125,-400000.0625,-12948.3701171875,-400000.0625
329.31325006484985,-400000.0625,-12220.91015625,-1051.8599853515625,-400000.0625,-4676.91015625,-400000.0625,-12952.08984375,-400000.0625
329.32733607292175,-400000.0625,-12186.669921875,-1021.0499877929688,-400000.0625,-4645.16015625,-400000.0625,-12917.3798828125,-400000.0625
329.3481636047363,-400000.0625,-12151.6201171875,-989.8699951171875,-400000.0625,-4614.4501953125,-400000.0625,-12886.669921875,-400000.0625
329.3724036216736,-400000.0625,-12171.5595703125,-1003.3099975585938,-400000.0625,-4625.31982421875,-400000.0625,-12905.4599609375,-400000.0625
329.3958740234375,-400000.0625,-12215.9501953125,-1042.510009765625,-400000.0625,-4660.64990234375,-400000.0625,-12947.7001953125,-400000.0625
329.4349834918976,-400000.0625,-12216.2802734375,-1048.0400390625,-400000.0625,-4673.81982421875,-400000.0625,-12954.900390625,-400000.0625
329.4539580345154,-400000.0625,-12183.4296875,-1013.9500122070312,-400000.0625,-4646.39990234375,-400000.0625,-12917.08984375,-400000.0625
329.4769468307495,-400000.0625,-12150.76953125,-983.4299926757812,-400000.0625,-4615.58984375,-400000.0625,-12891.8203125,-400000.0625
329.49443221092224,-400000.0625,-12165.01953125,-1000.6900024414062,-400000.0625,-4627.89990234375,-400000.0625,-12903.8798828125,-400000.0625
329.5120565891266,-400000.0625,-12212.5595703125,-1038.8399658203125,-400000.0625,-4666.18994140625,-400000.0625,-12950.1796875,-400000.0625
329.5451180934906,-400000.0625,-12226.8701171875,-1045.56005859375,-400000.0625,-4666.89990234375,-400000.0625,-12963.919921875,-400000.0625
329.5641973018646,-400000.0625,-12194.73046875,-1011.989990234375,-400000.0625,-4639.91015625,-400000.0625,-12931.830078125,-400000.0625
329.5803964138031,-400000.0625,-12164.169921875,-993.9199829101562,-400000.0625,-4615.2099609375,-400000.0625,-12882.5703125,-400000.0625
329.59192728996277,-400000.0625,-12180.0400390625,-1019.1400146484375,-400000.0625,-4622.27001953125,-400000.0625,-12887.0498046875,-400000.0625
329.6127746105194,-400000.0625,-12228.0595703125,-1068.969970703125,-400000.0625,-4661.419921875,-400000.0625,-12924.6298828125,-400000.0625
329.634925365448,-400000.0625,-12243.1796875,-1085.5699462890625,-400000.0625,-4674.33984375,-400000.0625,-12925.48046875,-400000.0625
329.6512155532837,-400000.0625,-12216.1904296875,-1056.9599609375,-400000.0625,-4649.5,-400000.0625,-12877.4697265625,-400000.0625
329.66374349594116,-400000.0625,-12184.0,-1036.1199951171875,-400000.0625,-4622.4599609375,-400000.0625,-12837.599609375,-400000.0625
329.69095730781555,-400000.0625,-12205.9404296875,-1066.8299560546875,-400000.0625,-4637.2900390625,-400000.0625,-12843.4697265625,-400000.0625
329.72811555862427,-400000.0625,-12250.51953125,-1110.6500244140625,-400000.0625,-4671.18994140625,-400000.0625,-12879.4697265625,-400000.0625
329.7692801952362,-400000.0625,-12256.9599609375,-1118.3699951171875,-400000.0625,-4676.06005859375,-400000.0625,-12876.7998046875,-400000.0625
329.8112828731537,-400000.0625,-12224.6298828125,-1090.1500244140625,-400000.0625,-4645.16015625,-400000.0625,-12838.8896484375,-400000.0625
329.87723898887634,-400000.0625,-12198.9697265625,-1064.5899658203125,-400000.0625,-4618.97998046875,-400000.0625,-12810.0400390625,-400000.0625
329.9437346458435,-400000.0625,-12210.4697265625,-1081.989990234375,-400000.0625,-4631.18994140625,-400000.0625,-12830.830078125,-400000.0625
329.9709451198578,-400000.0625,-12249.8095703125,-1117.0400390625,-400000.0625,-4669.6201171875,-400000.0625,-12871.7900390625,-400000.0625
330.01548433303833,-400000.0625,-12259.25,-1126.6199951171875,-400000.0625,-4675.669921875,-400000.0625,-12876.3203125,-400000.0625
330.08259749412537,-400000.0625,-12220.5703125,-1089.6700439453125,-400000.0625,-4643.14990234375,-400000.0625,-12840.83984375,-400000.0625
330.1214904785156,-400000.0625,-12189.6796875,-1064.1099853515625,-400000.0625,-4622.75,-400000.0625,-12813.4296875,-400000.0625
330.1894838809967,-400000.0625,-12204.080078125,-1077.3199462890625,-400000.0625,-4640.2001953125,-400000.0625,-12825.7802734375,-400000.0625
330.22672414779663,-400000.0625,-12247.75,-1116.1300048828125,-400000.0625,-4676.2900390625,-400000.0625,-12863.400390625,-400000.0625
330.2854895591736,-400000.0625,-12257.2900390625,-1121.1400146484375,-400000.0625,-4681.02001953125,-400000.0625,-12868.9296875,-400000.0625
330.3177592754364,-400000.0625,-12226.1103515625,-1092.9599609375,-400000.0625,-4652.31005859375,-400000.0625,-12833.9296875,-400000.0625
330.346657037735,-400000.0625,-12193.16015625,-1066.3499755859375,-400000.0625,-4626.56005859375,-400000.0625,-12806.509765625,-400000.0625
330.42389392852783,-400000.0625,-12207.7001953125,-1080.6099853515625,-400000.0625,-4643.2001953125,-400000.0625,-12824.7802734375,-400000.0625
330.45754408836365,-400000.0625,-12252.0498046875,-1120.18994140625,-400000.0625,-4677.2998046875,-400000.0625,-12866.01953125,-400000.0625
330.4996290206909,-400000.0625,-12258.7197265625,-1127.199951171875,-400000.0625,-4686.93017578125,-400000.0625,-12876.1298828125,-400000.0625
330.52166962623596,-400000.0625,-12224.76953125,-1098.9200439453125,-400000.0625,-4655.02978515625,-400000.0625,-12844.66015625,-400000.0625
330.54445004463196,-400000.0625,-12192.580078125,-1066.969970703125,-400000.0625,-4624.509765625,-400000.0625,-12811.51953125,-400000.0625
330.5668361186981,-400000.0625,-12209.75,-1079.75,-400000.0625,-4643.580078125,-400000.0625,-12820.9599609375,-400000.0625
330.6041433811188,-400000.0625,-12256.150390625,-1122.280029296875,-400000.0625,-4685.97021484375,-400000.0625,-12865.5400390625,-400000.0625
330.62179827690125,-400000.0625,-12263.9697265625,-1131.6300048828125,-400000.0625,-4690.60009765625,-400000.0625,-12870.5498046875,-400000.0625
330.63919258117676,-400000.0625,-12225.3896484375,-1099.2099609375,-400000.0625,-4656.7900390625,-400000.0625,-12837.1298828125,-400000.0625
330.6557414531708,-400000.0625,-12189.490234375,-1064.010009765625,-400000.0625,-4622.41015625,-400000.0625,-12808.4697265625,-400000.0625
330.6757183074951,-400000.0625,-12212.849609375,-1084.0400390625,-400000.0625,-4640.2001953125,-400000.0625,-12822.4404296875,-400000.0625
330.7031171321869,-400000.0625,-12257.5302734375,-1123.3299560546875,-400000.0625,-4691.169921875,-400000.0625,-12866.5,-400000.0625
330.7211084365845,-400000.0625,-12263.1103515625,-1130.199951171875,-400000.0625,-4697.60986328125,-400000.0625,-12873.0302734375,-400000.0625
330.73911809921265,-400000.0625,-12228.2001953125,-1100.6400146484375,-400000.0625,-4659.7998046875,-400000.0625,-12838.990234375,-400000.0625
330.75344252586365,-400000.0625,-12195.8701171875,-1067.969970703125,-400000.0625,-4626.85009765625,-400000.0625,-12805.3203125,-400000.0625
330.77082872390747,-400000.0625,-12209.1298828125,-1080.1300048828125,-400000.0625,-4638.9599609375,-400000.0625,-12816.9599609375,-400000.0625
330.7932183742523,-400000.0625,-12249.900390625,-1118.1800537109375,-400000.0625,-4676.6298828125,-400000.0625,-12859.2998046875,-400000.0625
330.8357334136963,-400000.0625,-12257.099609375,-1123.3299560546875,-400000.0625,-4689.5,-400000.0625,-12868.4501953125,-400000.0625
330.86196851730347,-400000.0625,-12225.099609375,-1093.2900390625,-400000.0625,-4663.08984375,-400000.0625,-12832.740234375,-400000.0625
330.8845126628876,-400000.0625,-12193.6796875,-1065.5400390625,-400000.0625,-4634.91015625,-400000.0625,-12804.4599609375,-400000.0625
330.9024980068207,-400000.0625,-12212.7099609375,-1083.0899658203125,-400000.0625,-4649.58984375,-400000.0625,-12820.5302734375,-400000.0625
330.935019493103,-400000.0625,-12255.48046875,-1121.3800048828125,-400000.0625,-4685.68994140625,-400000.0625,-12861.0595703125,-400000.0625
330.9524025917053,-400000.0625,-12265.400390625,-1130.3900146484375,-400000.0625,-4691.31982421875,-400000.0625,-12870.5,-400000.0625
330.99564480781555,-400000.0625,-12224.0595703125,-1094.6300048828125,-400000.0625,-4656.41015625,-400000.0625,-12834.650390625,-400000.0625
331.0207016468048,-400000.0625,-12193.58984375,-1065.449951171875,-400000.0625,-4626.85009765625,-400000.0625,-12805.9404296875,-400000.0625
331.06777906417847,-400000.0625,-12208.080078125,-1079.27001953125,-400000.0625,-4637.91015625,-400000.0625,-12821.0595703125,-400000.0625
331.0884838104248,-400000.0625,-12252.9501953125,-1120.0400390625,-400000.0625,-4679.009765625,-400000.0625,-12856.33984375,-400000.0625
331.10674595832825,-400000.0625,-12261.8701171875,-1130.1500244140625,-400000.0625,-4696.22998046875,-400000.0625,-12866.98046875,-400000.0625
331.1229450702667,-400000.0625,-12227.8203125,-1099.8699951171875,-400000.0625,-4665.0400390625,-400000.0625,-12835.4599609375,-400000.0625
331.16151666641235,-400000.0625,-12194.01953125,-1068.8800048828125,-400000.0625,-4633.3798828125,-400000.0625,-12806.0400390625,-400000.0625
331.1864902973175,-400000.0625,-12207.7998046875,-1082.469970703125,-400000.0625,-4642.2001953125,-400000.0625,-12818.0498046875,-400000.0625
331.20693707466125,-400000.0625,-12251.4697265625,-1118.989990234375,-400000.0625,-4679.72998046875,-400000.0625,-12863.490234375,-400000.0625
331.22763657569885,-400000.0625,-12260.2998046875,-1128.77001953125,-400000.0625,-4688.7900390625,-400000.0625,-12875.509765625,-400000.0625
331.2644696235657,-400000.0625,-12223.5302734375,-1096.199951171875,-400000.0625,-4656.64990234375,-400000.0625,-12838.9404296875,-400000.0625
331.282240152359,-400000.0625,-12194.2099609375,-1066.8299560546875,-400000.0625,-4628.60986328125,-400000.0625,-12808.9404296875,-400000.0625
331.29988646507263,-400000.0625,-12208.1796875,-1077.989990234375,-400000.0625,-4640.9599609375,-400000.0625,-12821.25,-400000.0625
331.3292782306671,-400000.0625,-12252.8095703125,-1119.0899658203125,-400000.0625,-4677.8701171875,-400000.0625,-12865.9697265625,-400000.0625
331.3995404243469,-400000.0625,-12265.16015625,-1130.3900146484375,-400000.0625,-4691.89013671875,-400000.0625,-12872.3203125,-400000.0625
331.4291367530823,-400000.0625,-12221.7197265625,-1093.239990234375,-400000.0625,-4656.41015625,-400000.0625,-12834.169921875,-400000.0625
331.44562458992004,-400000.0625,-12187.8203125,-1062.199951171875,-400000.0625,-4629.7099609375,-400000.0625,-12807.4697265625,-400000.0625
331.4846272468567,-400000.0625,-12206.599609375,-1077.3199462890625,-400000.0625,-4644.919921875,-400000.0625,-12823.150390625,-400000.0625
331.50443863868713,-400000.0625,-12253.48046875,-1119.800048828125,-400000.0625,-4681.64013671875,-400000.0625,-12863.490234375,-400000.0625
331.52382493019104,-400000.0625,-12262.3896484375,-1127.77001953125,-400000.0625,-4688.740234375,-400000.0625,-12873.98046875,-400000.0625
331.54051303863525,-400000.0625,-12224.33984375,-1093.47998046875,-400000.0625,-4657.169921875,-400000.0625,-12838.080078125,-400000.0625
331.5652792453766,-400000.0625,-12194.16015625,-1061.6300048828125,-400000.0625,-4624.31982421875,-400000.0625,-12805.26953125,-400000.0625
331.60553002357483,-400000.0625,-12206.26953125,-1073.550048828125,-400000.0625,-4639.85986328125,-400000.0625,-12824.16015625,-400000.0625
331.6267714500427,-400000.0625,-12251.330078125,-1114.1300048828125,-400000.0625,-4683.06982421875,-400000.0625,-12867.169921875,-400000.0625
331.65110754966736,-400000.0625,-12263.2998046875,-1119.3800048828125,-400000.0625,-4690.4599609375,-400000.0625,-12876.23046875,-400000.0625
331.6703288555145,-400000.0625,-12221.5302734375,-1085.8499755859375,-400000.0625,-4660.4599609375,-400000.0625,-12839.8896484375,-400000.0625
331.7046298980713,-400000.0625,-12182.51953125,-1059.43994140625,-400000.0625,-4629.27978515625,-400000.0625,-12803.650390625,-400000.0625
331.7243721485138,-400000.0625,-12202.599609375,-1078.4599609375,-400000.0625,-4635.759765625,-400000.0625,-12819.7197265625,-400000.0625
331.74938011169434,-400000.0625,-12251.900390625,-1114.699951171875,-400000.0625,-4673.81982421875,-400000.0625,-12859.1103515625,-400000.0625
331.76092195510864,-400000.0625,-12265.7802734375,-1131.1099853515625,-400000.0625,-4683.259765625,-400000.0625,-12865.740234375,-400000.0625
331.7816059589386,-400000.0625,-12231.830078125,-1100.6400146484375,-400000.0625,-4655.27001953125,-400000.0625,-12835.0302734375,-400000.0625
331.81706619262695,-400000.0625,-12199.01953125,-1071.97998046875,-400000.0625,-4625.990234375,-400000.0625,-12800.5,-400000.0625
331.83719515800476,-400000.0625,-12216.1396484375,-1084.0899658203125,-400000.0625,-4641.6298828125,-400000.0625,-12809.849609375,-400000.0625
331.8545346260071,-400000.0625,-12258.3896484375,-1122.469970703125,-400000.0625,-4681.5400390625,-400000.0625,-12851.759765625,-400000.0625
331.8764979839325,-400000.0625,-12264.919921875,-1129.719970703125,-400000.0625,-4688.1201171875,-400000.0625,-12862.73046875,-400000.0625
331.8966238498688,-400000.0625,-12227.2001953125,-1096.6800537109375,-400000.0625,-4653.83984375,-400000.0625,-12826.01953125,-400000.0625
331.9291911125183,-400000.0625,-12191.8203125,-1067.1099853515625,-400000.0625,-4623.60009765625,-400000.0625,-12795.16015625,-400000.0625
331.94575023651123,-400000.0625,-12208.990234375,-1078.219970703125,-400000.0625,-4644.97021484375,-400000.0625,-12811.849609375,-400000.0625
331.9707381725311,-400000.0625,-12258.2900390625,-1123.6700439453125,-400000.0625,-4685.77978515625,-400000.0625,-12855.6298828125,-400000.0625
331.9882528781891,-400000.0625,-12267.6904296875,-1135.8699951171875,-400000.0625,-4690.22021484375,-400000.0625,-12863.4501953125,-400000.0625
332.01781821250916,-400000.0625,-12226.6298828125,-1098.43994140625,-400000.0625,-4653.02978515625,-400000.0625,-12825.8203125,-400000.0625
332.0536205768585,-400000.0625,-12195.01953125,-1067.9200439453125,-400000.0625,-4619.740234375,-400000.0625,-12796.2099609375,-400000.0625
332.0916781425476,-400000.0625,-12214.51953125,-1088.1400146484375,-400000.0625,-4644.2001953125,-400000.0625,-12816.7197265625,-400000.0625
332.1235702037811,-400000.0625,-12260.0595703125,-1128.239990234375,-400000.0625,-4688.740234375,-400000.0625,-12854.8603515625,-400000.0625
332.17027735710144,-400000.0625,-12267.2998046875,-1135.300048828125,-400000.0625,-4698.18017578125,-400000.0625,-12856.2900390625,-400000.0625
332.18868374824524,-400000.0625,-12230.1103515625,-1100.489990234375,-400000.0625,-4665.3798828125,-400000.0625,-12824.009765625,-400000.0625
332.2136342525482,-400000.0625,-12194.490234375,-1064.6800537109375,-400000.0625,-4632.43017578125,-400000.0625,-12793.01953125,-400000.0625
332.23477053642273,-400000.0625,-12206.990234375,-1079.510009765625,-400000.0625,-4642.10986328125,-400000.0625,-12806.4599609375,-400000.0625
332.2676615715027,-400000.0625,-12256.7197265625,-1124.5699462890625,-400000.0625,-4680.009765625,-400000.0625,-12846.66015625,-400000.0625
332.2872407436371,-400000.0625,-12268.400390625,-1135.1600341796875,-400000.0625,-4693.31982421875,-400000.0625,-12857.009765625,-400000.0625
332.309207201004,-400000.0625,-12229.490234375,-1105.260009765625,-400000.0625,-4660.56005859375,-400000.0625,-12822.1103515625,-400000.0625
332.331574678421,-400000.0625,-12198.6396484375,-1075.1700439453125,-400000.0625,-4631.0,-400000.0625,-12793.9697265625,-400000.0625
332.3475766181946,-400000.0625,-12217.8095703125,-1086.280029296875,-400000.0625,-4652.97998046875,-400000.0625,-12808.6103515625,-400000.0625
332.3917863368988,-400000.0625,-12256.0,-1121.3800048828125,-400000.0625,-4688.60009765625,-400000.0625,-12849.900390625,-400000.0625
332.42031502723694,-400000.0625,-12265.6396484375,-1134.1099853515625,-400000.0625,-4693.93994140625,-400000.0625,-12857.3896484375,-400000.0625
332.4383692741394,-400000.0625,-12226.1103515625,-1097.969970703125,-400000.0625,-4656.83984375,-400000.0625,-12820.580078125,-400000.0625
332.45642471313477,-400000.0625,-12197.5400390625,-1068.9300537109375,-400000.0625,-4625.080078125,-400000.0625,-12789.6796875,-400000.0625
332.48818707466125,-400000.0625,-12217.48046875,-1082.0899658203125,-400000.0625,-4639.10009765625,-400000.0625,-12806.9404296875,-400000.0625
332.506817817688,-400000.0625,-12260.7197265625,-1126.0999755859375,-400000.0625,-4678.580078125,-400000.0625,-12848.8095703125,-400000.0625
332.52266573905945,-400000.0625,-12273.98046875,-1139.1600341796875,-400000.0625,-4690.41015625,-400000.0625,-12859.9697265625,-400000.0625
332.5404317378998,-400000.0625,-12236.5498046875,-1107.4100341796875,-400000.0625,-4663.31982421875,-400000.0625,-12825.7802734375,-400000.0625
332.5570778846741,-400000.0625,-12200.6396484375,-1072.030029296875,-400000.0625,-4632.66015625,-400000.0625,-12791.58984375,-400000.0625
332.59029603004456,-400000.0625,-12216.8603515625,-1086.6199951171875,-400000.0625,-4646.39990234375,-400000.0625,-12808.0400390625,-400000.0625
332.60395979881287,-400000.0625,-12261.2001953125,-1126.0999755859375,-400000.0625,-4685.77978515625,-400000.0625,-12850.4296875,-400000.0625
332.62243580818176,-400000.0625,-12277.990234375,-1141.5999755859375,-400000.0625,-4699.27978515625,-400000.0625,-12860.25,-400000.0625
332.644811630249,-400000.0625,-12243.6103515625,-1107.4100341796875,-400000.0625,-4664.08984375,-400000.0625,-12830.2099609375,-400000.0625
332.66461062431335,-400000.0625,-12209.3203125,-1075.030029296875,-400000.0625,-4634.0,-400000.0625,-12800.7001953125,-400000.0625
332.6937212944031,-400000.0625,-12222.009765625,-1092.5799560546875,-400000.0625,-4650.2099609375,-400000.0625,-12814.900390625,-400000.0625
332.71468448638916,-400000.0625,-12266.2099609375,-1134.1600341796875,-400000.0625,-4683.77978515625,-400000.0625,-12855.25,-400000.0625
332.7295455932617,-400000.0625,-12280.509765625,-1144.030029296875,-400000.0625,-4695.080078125,-400000.0625,-12865.349609375,-400000.0625
332.746111869812,-400000.0625,-12237.5,-1106.260009765625,-400000.0625,-4663.18017578125,-400000.0625,-12831.740234375,-400000.0625
332.77026534080505,-400000.0625,-12204.1201171875,-1072.219970703125,-400000.0625,-4630.3798828125,-400000.0625,-12798.2197265625,-400000.0625
332.80509328842163,-400000.0625,-12224.0595703125,-1090.3399658203125,-400000.0625,-4649.2099609375,-400000.0625,-12813.0498046875,-400000.0625
332.8302137851715,-400000.0625,-12272.6904296875,-1133.969970703125,-400000.0625,-4693.56005859375,-400000.0625,-12856.91015625,-400000.0625
332.84612917900085,-400000.0625,-12278.3701171875,-1138.5,-400000.0625,-4695.4599609375,-400000.0625,-12870.4599609375,-400000.0625
332.8717050552368,-400000.0625,-12243.83984375,-1103.2099609375,-400000.0625,-4661.60986328125,-400000.0625,-12834.169921875,-400000.0625
332.9100205898285,-400000.0625,-12213.419921875,-1071.6400146484375,-400000.0625,-4630.66015625,-400000.0625,-12799.83984375,-400000.0625
332.9313223361969,-400000.0625,-12223.5302734375,-1085.949951171875,-400000.0625,-4642.43994140625,-400000.0625,-12813.4296875,-400000.0625
332.95628333091736,-400000.0625,-12263.1103515625,-1130.77001953125,-400000.0625,-4687.35986328125,-400000.0625,-12854.580078125,-400000.0625
332.97183871269226,-400000.0625,-12281.7099609375,-1142.8399658203125,-400000.0625,-4698.18017578125,-400000.0625,-12862.400390625,-400000.0625
333.0055618286133,-400000.0625,-12248.7099609375,-1111.3599853515625,-400000.0625,-4668.52001953125,-400000.0625,-12825.490234375,-400000.0625
333.026896238327,-400000.0625,-12215.9501953125,-1080.4200439453125,-400000.0625,-4631.56982421875,-400000.0625,-12792.2099609375,-400000.0625
333.0402419567108,-400000.0625,-12234.7802734375,-1096.8699951171875,-400000.0625,-4645.8701171875,-400000.0625,-12803.0302734375,-400000.0625
333.057409286499,-400000.0625,-12279.75,-1140.02001953125,-400000.0625,-4688.68994140625,-400000.0625,-12846.5703125,-400000.0625
333.08180975914,-400000.0625,-12293.669921875,-1148.4100341796875,-400000.0625,-4694.22021484375,-400000.0625,-12858.919921875,-400000.0625
333.12038397789,-400000.0625,-12255.7197265625,-1111.27001953125,-400000.0625,-4662.60986328125,-400000.0625,-12822.4404296875,-400000.0625
333.1345601081848,-400000.0625,-12223.2001953125,-1080.699951171875,-400000.0625,-4629.52001953125,-400000.0625,-12786.490234375,-400000.0625
333.1550872325897,-400000.0625,-12237.1201171875,-1098.199951171875,-400000.0625,-4649.77978515625,-400000.0625,-12802.650390625,-400000.0625
333.1738076210022,-400000.0625,-12273.83984375,-1137.02001953125,-400000.0625,-4690.1201171875,-400000.0625,-12847.0,-400000.0625
333.1928536891937,-400000.0625,-12286.51953125,-1146.510009765625,-400000.0625,-4698.27978515625,-400000.0625,-12854.76953125,-400000.0625
333.23288774490356,-400000.0625,-12248.330078125,-1110.8399658203125,-400000.0625,-4661.85009765625,-400000.0625,-12816.48046875,-400000.0625
333.24697375297546,-400000.0625,-12214.6103515625,-1080.3699951171875,-400000.0625,-4628.47021484375,-400000.0625,-12782.150390625,-400000.0625
333.27201986312866,-400000.0625,-12234.400390625,-1093.719970703125,-400000.0625,-4642.77001953125,-400000.0625,-12794.2099609375,-400000.0625
333.2886233329773,-400000.0625,-12275.9404296875,-1132.5799560546875,-400000.0625,-4681.25,-400000.0625,-12842.0400390625,-400000.0625
333.31110548973083,-400000.0625,-12285.4697265625,-1143.5999755859375,-400000.0625,-4700.0400390625,-400000.0625,-12853.7197265625,-400000.0625
333.3484332561493,-400000.0625,-12252.51953125,-1110.8399658203125,-400000.0625,-4668.18994140625,-400000.0625,-12816.2900390625,-400000.0625
333.37000608444214,-400000.0625,-12216.759765625,-1078.699951171875,-400000.0625,-4635.72021484375,-400000.0625,-12786.009765625,-400000.0625
333.39171600341797,-400000.0625,-12230.349609375,-1092.47998046875,-400000.0625,-4653.7900390625,-400000.0625,-12800.41015625,-400000.0625
333.40880584716797,-400000.0625,-12278.0302734375,-1131.72998046875,-400000.0625,-4690.27001953125,-400000.0625,-12839.83984375,-400000.0625
333.4265966415405,-400000.0625,-12286.4697265625,-1140.31005859375,-400000.0625,-4693.7900390625,-400000.0625,-12849.0498046875,-400000.0625
333.468549489975,-400000.0625,-12246.900390625,-1104.8299560546875,-400000.0625,-4661.85009765625,-400000.0625,-12814.0498046875,-400000.0625
333.4895749092102,-400000.0625,-12211.1796875,-1073.550048828125,-400000.0625,-4638.0498046875,-400000.0625,-12782.4296875,-400000.0625
333.50999999046326,-400000.0625,-12230.2998046875,-1089.4300537109375,-400000.0625,-4652.4501953125,-400000.0625,-12799.599609375,-400000.0625
333.5351197719574,-400000.0625,-12272.5498046875,-1125.2900390625,-400000.0625,-4684.77978515625,-400000.0625,-12842.9404296875,-400000.0625
333.57056736946106,-400000.0625,-12284.4697265625,-1140.02001953125,-400000.0625,-4693.75,-400000.0625,-12845.7998046875,-400000.0625
333.5930263996124,-400000.0625,-12249.1396484375,-1109.7900390625,-400000.0625,-4667.6201171875,-400000.0625,-12811.51953125,-400000.0625
333.6076967716217,-400000.0625,-12212.66015625,-1076.56005859375,-400000.0625,-4638.77001953125,-400000.0625,-12780.0,-400000.0625
333.6265091896057,-400000.0625,-12229.16015625,-1090.4300537109375,-400000.0625,-4650.35009765625,-400000.0625,-12794.4501953125,-400000.0625
333.6429977416992,-400000.0625,-12270.5,-1128.010009765625,-400000.0625,-4684.8798828125,-400000.0625,-12836.740234375,-400000.0625
333.6766529083252,-400000.0625,-12283.66015625,-1140.4000244140625,-400000.0625,-4696.56005859375,-400000.0625,-12844.6103515625,-400000.0625
333.6964771747589,-400000.0625,-12251.5703125,-1110.3199462890625,-400000.0625,-4670.240234375,-400000.0625,-12811.23046875,-400000.0625
333.71542954444885,-400000.0625,-12215.5703125,-1080.0799560546875,-400000.0625,-4640.33984375,-400000.0625,-12778.1396484375,-400000.0625
333.7299795150757,-400000.0625,-12223.6298828125,-1088.81005859375,-400000.0625,-4650.93017578125,-400000.0625,-12794.3095703125,-400000.0625
333.7497327327728,-400000.0625,-12272.41015625,-1126.0999755859375,-400000.0625,-4686.8798828125,-400000.0625,-12837.83984375,-400000.0625
333.7896556854248,-400000.0625,-12279.1298828125,-1134.6300048828125,-400000.0625,-4690.7900390625,-400000.0625,-12843.419921875,-400000.0625
333.81507396698,-400000.0625,-12243.2197265625,-1104.5,-400000.0625,-4664.22998046875,-400000.0625,-12812.900390625,-400000.0625
333.8326373100281,-400000.0625,-12215.0,-1072.9300537109375,-400000.0625,-4635.18994140625,-400000.0625,-12784.0498046875,-400000.0625
333.8556070327759,-400000.0625,-12229.4404296875,-1083.6600341796875,-400000.0625,-4645.8701171875,-400000.0625,-12795.9697265625,-400000.0625
333.8912389278412,-400000.0625,-12269.3603515625,-1123.52001953125,-400000.0625,-4688.740234375,-400000.0625,-12835.9296875,-400000.0625
333.9078297615051,-400000.0625,-12279.4599609375,-1131.5799560546875,-400000.0625,-4698.60986328125,-400000.0625,-12845.1396484375,-400000.0625
333.92652773857117,-400000.0625,-12245.75,-1101.489990234375,-400000.0625,-4667.56982421875,-400000.0625,-12812.51953125,-400000.0625
333.9499852657318,-400000.0625,-12211.849609375,-1070.8299560546875,-400000.0625,-4636.9599609375,-400000.0625,-12778.669921875,-400000.0625
333.9657027721405,-400000.0625,-12224.48046875,-1082.0899658203125,-400000.0625,-4647.10986328125,-400000.0625,-12796.3095703125,-400000.0625
334.0022933483124,-400000.0625,-12270.0703125,-1123.52001953125,-400000.0625,-4684.06982421875,-400000.0625,-12836.0302734375,-400000.0625
334.0263648033142,-400000.0625,-12279.26953125,-1131.1500244140625,-400000.0625,-4697.27978515625,-400000.0625,-12840.2197265625,-400000.0625
334.04613637924194,-400000.0625,-12246.66015625,-1098.5899658203125,-400000.0625,-4672.18994140625,-400000.0625,-12808.66015625,-400000.0625
334.0715205669403,-400000.0625,-12215.0400390625,-1073.27001953125,-400000.0625,-4640.91015625,-400000.0625,-12777.2802734375,-400000.0625
334.11332964897156,-400000.0625,-12222.099609375,-1084.0400390625,-400000.0625,-4649.31005859375,-400000.0625,-12791.4404296875,-400000.0625
334.13485050201416,-400000.0625,-12264.5400390625,-1119.469970703125,-400000.0625,-4683.77978515625,-400000.0625,-12833.83984375,-400000.0625
334.1507785320282,-400000.0625,-12276.1298828125,-1130.0999755859375,-400000.0625,-4692.080078125,-400000.0625,-12842.75,-400000.0625
334.1641619205475,-400000.0625,-12237.169921875,-1098.8199462890625,-400000.0625,-4666.27978515625,-400000.0625,-12812.08984375,-400000.0625
334.1867256164551,-400000.0625,-12203.8896484375,-1069.1600341796875,-400000.0625,-4642.81982421875,-400000.0625,-12779.0,-400000.0625
334.21607756614685,-400000.0625,-12218.8095703125,-1079.6500244140625,-400000.0625,-4646.77978515625,-400000.0625,-12788.6298828125,-400000.0625
334.23655676841736,-400000.0625,-12265.400390625,-1117.8499755859375,-400000.0625,-4681.2998046875,-400000.0625,-12831.3095703125,-400000.0625
334.2548015117645,-400000.0625,-12276.4599609375,-1127.0999755859375,-400000.0625,-4698.1298828125,-400000.0625,-12841.3203125,-400000.0625
334.27414059638977,-400000.0625,-12242.1298828125,-1099.300048828125,-400000.0625,-4670.14013671875,-400000.0625,-12812.1904296875,-400000.0625
334.29356384277344,-400000.0625,-12209.4599609375,-1067.5400390625,-400000.0625,-4637.91015625,-400000.0625,-12782.48046875,-400000.0625
334.32581210136414,-400000.0625,-12224.6298828125,-1078.699951171875,-400000.0625,-4647.259765625,-400000.0625,-12797.9296875,-400000.0625
334.34421825408936,-400000.0625,-12267.1103515625,-1124.0999755859375,-400000.0625,-4689.5,-400000.0625,-12835.98046875,-400000.0625
334.36343932151794,-400000.0625,-12278.419921875,-1129.199951171875,-400000.0625,-4695.22998046875,-400000.0625,-12847.2802734375,-400000.0625
334.38881635665894,-400000.0625,-12247.900390625,-1099.4000244140625,-400000.0625,-4660.419921875,-400000.0625,-12812.1904296875,-400000.0625
334.4061050415039,-400000.0625,-12212.9501953125,-1070.8299560546875,-400000.0625,-4627.27978515625,-400000.0625,-12785.76953125,-400000.0625
334.44081926345825,-400000.0625,-12228.6796875,-1079.6500244140625,-400000.0625,-4648.06982421875,-400000.0625,-12801.3603515625,-400000.0625
334.4585280418396,-400000.0625,-12274.5498046875,-1126.9599609375,-400000.0625,-4692.89013671875,-400000.0625,-12831.5,-400000.0625
334.47528648376465,-400000.0625,-12285.4697265625,-1142.5999755859375,-400000.0625,-4701.66015625,-400000.0625,-12837.1298828125,-400000.0625
334.499329328537,-400000.0625,-12254.2900390625,-1113.030029296875,-400000.0625,-4669.759765625,-400000.0625,-12804.2197265625,-400000.0625
334.514990568161,-400000.0625,-12228.2001953125,-1088.6199951171875,-400000.0625,-4638.14990234375,-400000.0625,-12767.8896484375,-400000.0625
334.5550127029419,-400000.0625,-12246.419921875,-1102.2099609375,-400000.0625,-4652.35986328125,-400000.0625,-12774.990234375,-400000.0625
334.5719954967499,-400000.0625,-12284.1796875,-1143.7900390625,-400000.0625,-4691.27001953125,-400000.0625,-12809.66015625,-400000.0625
334.5949032306671,-400000.0625,-12288.5703125,-1154.0899658203125,-400000.0625,-4699.990234375,-400000.0625,-12815.1396484375,-400000.0625
334.62070083618164,-400000.0625,-12258.8203125,-1123.949951171875,-400000.0625,-4669.85986328125,-400000.0625,-12779.0498046875,-400000.0625
334.652560710907,-400000.0625,-12226.919921875,-1094.010009765625,-400000.0625,-4640.06005859375,-400000.0625,-12749.5302734375,-400000.0625
334.67284774780273,-400000.0625,-12241.650390625,-1107.31005859375,-400000.0625,-4650.4501953125,-400000.0625,-12761.9296875,-400000.0625
334.68877053260803,-400000.0625,-12275.5498046875,-1143.739990234375,-400000.0625,-4683.35009765625,-400000.0625,-12800.5,-400000.0625
334.7085483074188,-400000.0625,-12294.2001953125,-1160.18994140625,-400000.0625,-4700.14013671875,-400000.0625,-12810.08984375,-400000.0625
334.72420716285706,-400000.0625,-12263.009765625,-1133.489990234375,-400000.0625,-4679.72998046875,-400000.0625,-12777.6201171875,-400000.0625
334.75902104377747,-400000.0625,-12225.5302734375,-1101.4000244140625,-400000.0625,-4651.68994140625,-400000.0625,-12743.4697265625,-400000.0625
334.78254222869873,-400000.0625,-12235.8798828125,-1109.9300537109375,-400000.0625,-4657.7900390625,-400000.0625,-12752.1103515625,-400000.0625
334.7975564002991,-400000.0625,-12279.849609375,-1150.4200439453125,-400000.0625,-4691.7001953125,-400000.0625,-12797.599609375,-400000.0625
334.8195400238037,-400000.0625,-12290.1904296875,-1157.0899658203125,-400000.0625,-4700.66015625,-400000.0625,-12808.990234375,-400000.0625
334.83308935165405,-400000.0625,-12256.7197265625,-1125.719970703125,-400000.0625,-4673.43017578125,-400000.0625,-12772.0400390625,-400000.0625
334.8699150085449,-400000.0625,-12224.3896484375,-1094.3900146484375,-400000.0625,-4646.39990234375,-400000.0625,-12737.7001953125,-400000.0625
334.885066986084,-400000.0625,-12236.3603515625,-1106.550048828125,-400000.0625,-4652.41015625,-400000.0625,-12754.8203125,-400000.0625
334.90107226371765,-400000.0625,-12282.2802734375,-1146.97998046875,-400000.0625,-4684.16015625,-400000.0625,-12798.3603515625,-400000.0625
334.9128670692444,-400000.0625,-12290.669921875,-1158.52001953125,-400000.0625,-4703.6201171875,-400000.0625,-12811.2802734375,-400000.0625
334.9340817928314,-400000.0625,-12254.240234375,-1125.5699462890625,-400000.0625,-4675.81982421875,-400000.0625,-12772.75,-400000.0625
334.9707555770874,-400000.0625,-12219.9501953125,-1095.719970703125,-400000.0625,-4644.06005859375,-400000.0625,-12741.900390625,-400000.0625
334.98758363723755,-400000.0625,-12239.7001953125,-1110.1700439453125,-400000.0625,-4655.5498046875,-400000.0625,-12753.3896484375,-400000.0625
335.00752782821655,-400000.0625,-12280.26953125,-1145.550048828125,-400000.0625,-4694.64990234375,-400000.0625,-12794.6904296875,-400000.0625
335.0304226875305,-400000.0625,-12288.1904296875,-1153.7099609375,-400000.0625,-4704.669921875,-400000.0625,-12806.9404296875,-400000.0625
335.0486550331116,-400000.0625,-12253.330078125,-1121.7099609375,-400000.0625,-4672.6201171875,-400000.0625,-12773.3701171875,-400000.0625
335.0858726501465,-400000.0625,-12216.7099609375,-1085.3299560546875,-400000.0625,-4637.77001953125,-400000.0625,-12740.1796875,-400000.0625
335.10411190986633,-400000.0625,-12233.4501953125,-1100.780029296875,-400000.0625,-4643.14990234375,-400000.0625,-12750.099609375,-400000.0625
335.11905002593994,-400000.0625,-12273.26953125,-1140.0699462890625,-400000.0625,-4677.919921875,-400000.0625,-12791.2998046875,-400000.0625
335.13917446136475,-400000.0625,-12286.4296875,-1153.52001953125,-400000.0625,-4698.93994140625,-400000.0625,-12805.419921875,-400000.0625
335.1605339050293,-400000.0625,-12254.8603515625,-1125.9599609375,-400000.0625,-4676.14990234375,-400000.0625,-12772.7001953125,-400000.0625
335.19986391067505,-400000.0625,-12222.9599609375,-1095.8199462890625,-400000.0625,-4646.2099609375,-400000.0625,-12742.6201171875,-400000.0625
335.2186622619629,-400000.0625,-12233.0703125,-1099.5899658203125,-400000.0625,-4654.97998046875,-400000.0625,-12750.150390625,-400000.0625
335.237158536911,-400000.0625,-12272.41015625,-1139.68994140625,-400000.0625,-4692.83984375,-400000.0625,-12791.01953125,-400000.0625
335.25429940223694,-400000.0625,-12285.5703125,-1152.469970703125,-400000.0625,-4698.85009765625,-400000.0625,-12802.169921875,-400000.0625
335.272438287735,-400000.0625,-12254.5703125,-1119.4200439453125,-400000.0625,-4662.31982421875,-400000.0625,-12769.0302734375,-400000.0625
335.3052439689636,-400000.0625,-12222.33984375,-1090.530029296875,-400000.0625,-4636.6201171875,-400000.0625,-12734.9404296875,-400000.0625
335.32404947280884,-400000.0625,-12234.5,-1099.3499755859375,-400000.0625,-4647.5400390625,-400000.0625,-12744.4296875,-400000.0625
335.3434679508209,-400000.0625,-12276.75,-1140.02001953125,-400000.0625,-4694.56005859375,-400000.0625,-12788.8701171875,-400000.0625
335.360497713089,-400000.0625,-12289.6201171875,-1158.18994140625,-400000.0625,-4710.6298828125,-400000.0625,-12802.5498046875,-400000.0625
335.3821499347687,-400000.0625,-12253.330078125,-1121.0899658203125,-400000.0625,-4672.3798828125,-400000.0625,-12771.3203125,-400000.0625
335.4251217842102,-400000.0625,-12218.240234375,-1087.4300537109375,-400000.0625,-4640.33984375,-400000.0625,-12737.4697265625,-400000.0625
335.447035074234,-400000.0625,-12236.4501953125,-1103.5,-400000.0625,-4653.41015625,-400000.0625,-12751.6796875,-400000.0625
335.4606990814209,-400000.0625,-12280.1796875,-1145.0799560546875,-400000.0625,-4693.7001953125,-400000.0625,-12793.1103515625,-400000.0625
335.48323154449463,-400000.0625,-12285.08984375,-1150.8499755859375,-400000.0625,-4705.759765625,-400000.0625,-12806.1298828125,-400000.0625
335.50549936294556,-400000.0625,-12254.5703125,-1123.47998046875,-400000.0625,-4676.52978515625,-400000.0625,-12769.3701171875,-400000.0625
335.52631759643555,-400000.0625,-12219.48046875,-1090.47998046875,-400000.0625,-4643.14990234375,-400000.0625,-12731.1201171875,-400000.0625
335.5423321723938,-400000.0625,-12230.0595703125,-1102.02001953125,-400000.0625,-4652.1201171875,-400000.0625,-12746.0498046875,-400000.0625
335.5626938343048,-400000.0625,-12274.83984375,-1141.550048828125,-400000.0625,-4687.93017578125,-400000.0625,-12788.8701171875,-400000.0625
335.58754563331604,-400000.0625,-12287.900390625,-1149.8900146484375,-400000.0625,-4702.3798828125,-400000.0625,-12804.7001953125,-400000.0625
335.6207137107849,-400000.0625,-12259.91015625,-1125.81005859375,-400000.0625,-4682.2998046875,-400000.0625,-12773.51953125,-400000.0625
335.64293813705444,-400000.0625,-12223.5302734375,-1094.77001953125,-400000.0625,-4651.1201171875,-400000.0625,-12737.1298828125,-400000.0625
335.66663217544556,-400000.0625,-12231.6904296875,-1101.5899658203125,-400000.0625,-4658.509765625,-400000.0625,-12748.669921875,-400000.0625
335.6815803050995,-400000.0625,-12276.3603515625,-1142.739990234375,-400000.0625,-4695.56005859375,-400000.0625,-12790.16015625,-400000.0625
335.70250821113586,-400000.0625,-12284.849609375,-1150.6600341796875,-400000.0625,-4701.0400390625,-400000.0625,-12801.4599609375,-400000.0625
335.73358058929443,-400000.0625,-12251.759765625,-1121.469970703125,-400000.0625,-4675.009765625,-400000.0625,-12770.3701171875,-400000.0625
335.75061082839966,-400000.0625,-12217.6201171875,-1090.719970703125,-400000.0625,-4645.8701171875,-400000.0625,-12738.7998046875,-400000.0625
335.76883482933044,-400000.0625,-12230.830078125,-1100.6400146484375,-400000.0625,-4655.5,-400000.0625,-12745.669921875,-400000.0625
335.7869551181793,-400000.0625,-12274.3095703125,-1139.6400146484375,-400000.0625,-4694.64990234375,-400000.0625,-12786.76953125,-400000.0625
335.82059049606323,-400000.0625,-12287.9501953125,-1148.800048828125,-400000.0625,-4701.08984375,-400000.0625,-12799.0703125,-400000.0625
335.85025668144226,-400000.0625,-12249.66015625,-1115.93994140625,-400000.0625,-4674.14990234375,-400000.0625,-12766.7001953125,-400000.0625
335.87496972084045,-400000.0625,-12218.759765625,-1086.280029296875,-400000.0625,-4644.68017578125,-400000.0625,-12735.3701171875,-400000.0625
335.89677453041077,-400000.0625,-12231.349609375,-1098.8699951171875,-400000.0625,-4653.35986328125,-400000.0625,-12751.490234375,-400000.0625
335.9105906486511,-400000.0625,-12274.509765625,-1136.5899658203125,-400000.0625,-4692.080078125,-400000.0625,-12792.2099609375,-400000.0625
335.9266879558563,-400000.0625,-12286.759765625,-1148.6500244140625,-400000.0625,-4701.419921875,-400000.0625,-12801.1201171875,-400000.0625
335.95608925819397,-400000.0625,-12249.900390625,-1115.56005859375,-400000.0625,-4673.2001953125,-400000.0625,-12769.2197265625,-400000.0625
335.98591232299805,-400000.0625,-12214.08984375,-1078.8399658203125,-400000.0625,-4639.39013671875,-400000.0625,-12735.26953125,-400000.0625
336.0727195739746,-400000.0625,-12229.349609375,-1095.9599609375,-400000.0625,-4650.97021484375,-400000.0625,-12753.349609375,-400000.0625
336.14396047592163,-400000.0625,-12272.3095703125,-1134.6800537109375,-400000.0625,-4690.35986328125,-400000.0625,-12792.4501953125,-400000.0625
336.17679715156555,-400000.0625,-12280.1298828125,-1146.27001953125,-400000.0625,-4696.990234375,-400000.0625,-12802.5498046875,-400000.0625
336.2316675186157,-400000.0625,-12250.7099609375,-1115.699951171875,-400000.0625,-4670.47998046875,-400000.0625,-12773.3203125,-400000.0625
336.2785551548004,-400000.0625,-12221.91015625,-1088.18994140625,-400000.0625,-4649.64013671875,-400000.0625,-12743.5703125,-400000.0625
336.3449287414551,-400000.0625,-12230.6796875,-1097.8699951171875,-400000.0625,-4657.83984375,-400000.0625,-12753.919921875,-400000.0625
336.3719530105591,-400000.0625,-12269.830078125,-1134.6800537109375,-400000.0625,-4691.169921875,-400000.0625,-12795.400390625,-400000.0625
336.4037775993347,-400000.0625,-12284.7998046875,-1145.97998046875,-400000.0625,-4705.0,-400000.0625,-12805.7998046875,-400000.0625
336.4857485294342,-400000.0625,-12250.1396484375,-1114.4599609375,-400000.0625,-4677.9599609375,-400000.0625,-12773.3701171875,-400000.0625
336.5150508880615,-400000.0625,-12219.7197265625,-1079.6099853515625,-400000.0625,-4645.2998046875,-400000.0625,-12738.900390625,-400000.0625
336.5884838104248,-400000.0625,-12230.73046875,-1092.2900390625,-400000.0625,-4651.169921875,-400000.0625,-12754.0595703125,-400000.0625
336.6136131286621,-400000.0625,-12276.75,-1133.300048828125,-400000.0625,-4696.18017578125,-400000.0625,-12797.3095703125,-400000.0625
336.6675081253052,-400000.0625,-12288.6201171875,-1143.5,-400000.0625,-4712.43994140625,-400000.0625,-12810.990234375,-400000.0625
336.71416664123535,-400000.0625,-12247.849609375,-1108.27001953125,-400000.0625,-4675.43994140625,-400000.0625,-12777.4296875,-400000.0625
336.7613615989685,-400000.0625,-12210.7001953125,-1076.219970703125,-400000.0625,-4640.72021484375,-400000.0625,-12742.9501953125,-400000.0625
336.8062720298767,-400000.0625,-12225.0595703125,-1082.3299560546875,-400000.0625,-4647.2099609375,-400000.0625,-12754.7802734375,-400000.0625
336.8727707862854,-400000.0625,-12272.0302734375,-1126.9599609375,-400000.0625,-4686.4501953125,-400000.0625,-12787.33984375,-400000.0625
336.90116024017334,-400000.0625,-12281.2802734375,-1142.550048828125,-400000.0625,-4701.9501953125,-400000.0625,-12802.75,-400000.0625
336.9227979183197,-400000.0625,-12249.4697265625,-1109.4100341796875,-400000.0625,-4676.81982421875,-400000.0625,-12774.08984375,-400000.0625
336.9794042110443,-400000.0625,-12216.2802734375,-1077.4599609375,-400000.0625,-4646.25,-400000.0625,-12737.7998046875,-400000.0625
337.0143668651581,-400000.0625,-12227.25,-1089.0,-400000.0625,-4652.68994140625,-400000.0625,-12749.91015625,-400000.0625
337.0640151500702,-400000.0625,-12267.6904296875,-1126.6700439453125,-400000.0625,-4692.31982421875,-400000.0625,-12788.5400390625,-400000.0625
337.14314365386963,-400000.0625,-12279.1298828125,-1138.4000244140625,-400000.0625,-4705.0,-400000.0625,-12801.98046875,-400000.0625
337.16864824295044,-400000.0625,-12243.5595703125,-1106.1199951171875,-400000.0625,-4670.330078125,-400000.0625,-12767.75,-400000.0625
337.2027916908264,-400000.0625,-12211.0400390625,-1076.27001953125,-400000.0625,-4638.9599609375,-400000.0625,-12732.98046875,-400000.0625
337.2163038253784,-400000.0625,-12227.5400390625,-1088.0899658203125,-400000.0625,-4650.16015625,-400000.0625,-12746.5302734375,-400000.0625
337.2313847541809,-400000.0625,-12270.830078125,-1124.760009765625,-400000.0625,-4688.4501953125,-400000.0625,-12786.6796875,-400000.0625
337.251713514328,-400000.0625,-12279.7998046875,-1134.1600341796875,-400000.0625,-4699.60986328125,-400000.0625,-12796.9296875,-400000.0625
337.2696430683136,-400000.0625,-12245.419921875,-1103.2099609375,-400000.0625,-4665.52001953125,-400000.0625,-12763.8798828125,-400000.0625
337.29422426223755,-400000.0625,-12210.23046875,-1071.2099609375,-400000.0625,-4634.3798828125,-400000.0625,-12734.509765625,-400000.0625
337.30668330192566,-400000.0625,-12223.8203125,-1084.1800537109375,-400000.0625,-4642.43994140625,-400000.0625,-12746.0498046875,-400000.0625
337.3236825466156,-400000.0625,-12270.7900390625,-1126.9599609375,-400000.0625,-4691.4599609375,-400000.0625,-12791.01953125,-400000.0625
337.33589005470276,-400000.0625,-12282.419921875,-1138.260009765625,-400000.0625,-4709.81982421875,-400000.0625,-12801.7001953125,-400000.0625
337.3542833328247,-400000.0625,-12248.7099609375,-1106.550048828125,-400000.0625,-4674.52978515625,-400000.0625,-12772.3701171875,-400000.0625
337.3718538284302,-400000.0625,-12213.5703125,-1071.7900390625,-400000.0625,-4637.81005859375,-400000.0625,-12739.3701171875,-400000.0625
337.4122622013092,-400000.0625,-12228.5400390625,-1087.1400146484375,-400000.0625,-4649.68994140625,-400000.0625,-12744.9501953125,-400000.0625
337.43261647224426,-400000.0625,-12272.83984375,-1126.9599609375,-400000.0625,-4690.7900390625,-400000.0625,-12789.349609375,-400000.0625
337.45116662979126,-400000.0625,-12285.8095703125,-1139.3499755859375,-400000.0625,-4700.27978515625,-400000.0625,-12804.5595703125,-400000.0625
337.46968173980713,-400000.0625,-12250.7099609375,-1107.9300537109375,-400000.0625,-4668.81005859375,-400000.0625,-12774.08984375,-400000.0625
337.48730635643005,-400000.0625,-12216.900390625,-1073.68994140625,-400000.0625,-4632.81005859375,-400000.0625,-12739.0400390625,-400000.0625
337.5203638076782,-400000.0625,-12229.009765625,-1083.0899658203125,-400000.0625,-4646.72998046875,-400000.0625,-12750.9599609375,-400000.0625
337.5501198768616,-400000.0625,-12272.2197265625,-1124.5699462890625,-400000.0625,-4685.02001953125,-400000.0625,-12795.5498046875,-400000.0625
337.58310985565186,-400000.0625,-12283.900390625,-1137.300048828125,-400000.0625,-4698.7998046875,-400000.0625,-12803.5595703125,-400000.0625
337.60447430610657,-400000.0625,-12247.2802734375,-1104.5899658203125,-400000.0625,-4667.22998046875,-400000.0625,-12769.2197265625,-400000.0625
337.6512839794159,-400000.0625,-12216.08984375,-1071.31005859375,-400000.0625,-4638.81982421875,-400000.0625,-12744.7099609375,-400000.0625
337.6803958415985,-400000.0625,-12228.58984375,-1086.3800048828125,-400000.0625,-4652.7900390625,-400000.0625,-12750.9599609375,-400000.0625
337.698068857193,-400000.0625,-12269.58984375,-1127.1500244140625,-400000.0625,-4687.93017578125,-400000.0625,-12791.25,-400000.0625
