time,ch1,ch2,ch3,ch4,ch5,ch6,ch7,ch8
59.24468803405762,-400000.0625,-44798.76171875,-400000.0625,-400000.0625,-400000.0625,-400000.0625,-400000.0625,-400000.0625
59.25238251686096,-400000.0625,-45142.078125,-400000.0625,-400000.0625,-400000.0625,-400000.0625,-400000.0625,-400000.0625
59.258546352386475,-400000.0625,-44565.16015625,-400000.0625,-400000.0625,-400000.0625,-400000.0625,-400000.0625,-400000.0625
59.265296459198,-400000.0625,-43163.921875,-400000.0625,-400000.0625,-400000.0625,-400000.0625,-400000.0625,-400000.0625
59.27100396156311,-400000.0625,-42032.53125,-400000.0625,-400000.0625,-400000.0625,-400000.0625,-400000.0625,-400000.0625
59.27621507644653,-400000.0625,-42173.1015625,-400000.0625,-400000.0625,-400000.0625,-400000.0625,-400000.0625,-400000.0625
59.284465074539185,-400000.0625,-42673.2109375,-400000.0625,-400000.0625,-400000.0625,-400000.0625,-400000.0625,-400000.0625
59.297796964645386,-400000.0625,-42403.1796875,-400000.0625,-400000.0625,-400000.0625,-400000.0625,-400000.0625,-400000.0625
59.304781675338745,-400000.0625,-41365.9609375,-400000.0625,-400000.0625,-400000.0625,-400000.0625,-400000.0625,-400000.0625
59.31010866165161,-400000.0625,-40512.0390625,-400000.0625,-400000.0625,-400000.0625,-400000.0625,-400000.0625,-400000.0625
59.319788694381714,-400000.0625,-40831.19140625,-400000.0625,-400000.0625,-400000.0625,-400000.0625,-400000.0625,-400000.0625
59.325554847717285,-400000.0625,-41380.12109375,-400000.0625,-400000.0625,-400000.0625,-400000.0625,-400000.0625,-400000.0625
59.33455491065979,-400000.0625,-41158.16015625,-400000.0625,-400000.0625,-400000.0625,-400000.0625,-400000.0625,-400000.0625
59.34044885635376,-400000.0625,-40163.7109375,-400000.0625,-400000.0625,-400000.0625,-400000.0625,-400000.0625,-400000.0625
59.3515944480896,-400000.0625,-39526.421875,-400000.0625,-400000.0625,-400000.0625,-400000.0625,-400000.0625,-400000.0625
59.357948780059814,-400000.0625,-39840.3203125,-400000.0625,-400000.0625,-400000.0625,-400000.0625,-400000.0625,-400000.0625
59.367225646972656,-400000.0625,-40444.8984375,-400000.0625,-400000.0625,-400000.0625,-400000.0625,-400000.0625,-400000.0625
59.374213457107544,-400000.0625,-40483.80859375,-400000.0625,-400000.0625,-400000.0625,-400000.0625,-400000.0625,-400000.0625
59.38318967819214,-400000.0625,-39547.26171875,-400000.0625,-400000.0625,-400000.0625,-400000.0625,-400000.0625,-400000.0625
59.391096115112305,-400000.0625,-38760.23828125,-400000.0625,-400000.0625,-400000.0625,-400000.0625,-400000.0625,-400000.0625
59.40335178375244,-400000.0625,-38791.76171875,-400000.0625,-400000.0625,-400000.0625,-400000.0625,-400000.0625,-400000.0625
59.4094672203064,-400000.0625,-39347.75,-400000.0625,-400000.0625,-400000.0625,-400000.0625,-400000.0625,-400000.0625
59.41551446914673,-400000.0625,-39068.890625,-400000.0625,-400000.0625,-400000.0625,-400000.0625,-400000.0625,-400000.0625
59.42487978935242,-400000.0625,-38236.19140625,-400000.0625,-400000.0625,-400000.0625,-400000.0625,-400000.0625,-400000.0625
59.43262696266174,-400000.0625,-37913.37109375,-400000.0625,-400000.0625,-400000.0625,-400000.0625,-400000.0625,-400000.0625
59.43869113922119,-400000.0625,-39843.421875,-400000.0625,-400000.0625,-400000.0625,-400000.0625,-400000.0625,-400000.0625
59.44751763343811,-400000.0625,-44572.12109375,-400000.0625,-400000.0625,-400000.0625,-400000.0625,-400000.0625,-400000.0625
59.45552635192871,-400000.0625,-44972.94921875,-400000.0625,-400000.0625,-400000.0625,-400000.0625,-400000.0625,-400000.0625
59.46343803405762,-400000.0625,-33968.30859375,-400000.0625,-400000.0625,-400000.0625,-400000.0625,-400000.0625,-400000.0625
59.47178268432617,-400000.0625,-28999.7109375,-400000.0625,-400000.0625,-400000.0625,-400000.0625,-400000.0625,-400000.0625
59.47929072380066,-400000.0625,-40784.6484375,-400000.0625,-400000.0625,-400000.0625,-400000.0625,-400000.0625,-400000.0625
59.48485016822815,-400000.0625,-56926.30078125,-400000.0625,-400000.0625,-400000.0625,-400000.0625,-400000.0625,-400000.0625
59.491129875183105,-400000.0625,-59079.1796875,-400000.0625,-400000.0625,-400000.0625,-400000.0625,-400000.0625,-400000.0625
59.50439262390137,-400000.0625,-47673.140625,-400000.0625,-400000.0625,-400000.0625,-400000.0625,-400000.0625,-400000.0625
59.509687662124634,-400000.0625,-42628.1484375,-400000.0625,-400000.0625,-400000.0625,-400000.0625,-400000.0625,-400000.0625
59.51604413986206,-400000.0625,-54421.859375,-400000.0625,-400000.0625,-400000.0625,-400000.0625,-400000.0625,-400000.0625
59.52135968208313,-400000.0625,-70472.109375,-400000.0625,-400000.0625,-400000.0625,-400000.0625,-400000.0625,-400000.0625
59.52652168273926,-400000.0625,-72108.7109375,-400000.0625,-400000.0625,-400000.0625,-400000.0625,-400000.0625,-400000.0625
59.53491234779358,-400000.0625,-60615.87890625,-400000.0625,-400000.0625,-400000.0625,-400000.0625,-400000.0625,-400000.0625
59.540382385253906,-400000.0625,-55495.12890625,-400000.0625,-400000.0625,-400000.0625,-400000.0625,-400000.0625,-400000.0625
59.546406984329224,-400000.0625,-67256.3203125,-400000.0625,-400000.0625,-400000.0625,-400000.0625,-400000.0625,-400000.0625
59.55252504348755,-400000.0625,-83056.40625,-400000.0625,-400000.0625,-400000.0625,-400000.0625,-400000.0625,-400000.0625
59.557883977890015,-400000.0625,-84397.8984375,-400000.0625,-400000.0625,-400000.0625,-400000.0625,-400000.0625,-400000.0625
59.56588816642761,-400000.0625,-72916.5625,-400000.0625,-400000.0625,-400000.0625,-400000.0625,-400000.0625,-400000.0625
59.57193422317505,-400000.0625,-67774.453125,-400000.0625,-400000.0625,-400000.0625,-400000.0625,-400000.0625,-400000.0625
59.57710647583008,-400000.0625,-79558.7578125,-400000.0625,-400000.0625,-400000.0625,-400000.0625,-400000.0625,-400000.0625
59.58513331413269,-400000.0625,-91922.6796875,-400000.0625,-400000.0625,-400000.0625,-400000.0625,-400000.0625,-400000.0625
59.59079623222351,-400000.0625,-66080.1484375,-400000.0625,-400000.0625,-400000.0625,-400000.0625,-400000.0625,-400000.0625
59.59761142730713,-400000.0625,-43706.1796875,-400000.0625,-400000.0625,-400000.0625,-400000.0625,-400000.0625,-400000.0625
59.60881209373474,-400000.0625,-40446.19140625,-400000.0625,-400000.0625,-400000.0625,-400000.0625,-400000.0625,-400000.0625
59.61486530303955,-400000.0625,-39768.078125,-400000.0625,-400000.0625,-400000.0625,-400000.0625,-400000.0625,-400000.0625
59.62227749824524,-400000.0625,-39789.6796875,-400000.0625,-400000.0625,-400000.0625,-400000.0625,-400000.0625,-400000.0625
59.627795457839966,-400000.0625,-39263.16015625,-400000.0625,-400000.0625,-400000.0625,-400000.0625,-400000.0625,-400000.0625
59.634292125701904,-400000.0625,-38077.30859375,-400000.0625,-400000.0625,-400000.0625,-400000.0625,-400000.0625,-400000.0625
59.639310359954834,-400000.0625,-37192.828125,-400000.0625,-400000.0625,-400000.0625,-400000.0625,-400000.0625,-400000.0625
59.64430809020996,-400000.0625,-37232.44921875,-400000.0625,-400000.0625,-400000.0625,-400000.0625,-400000.0625,-400000.0625
59.64431858062744,-400000.0625,-37753.8203125,-400000.0625,-400000.0625,-400000.0625,-400000.0625,-400000.0625,-400000.0625
59.6492121219635,-400000.0625,-37567.23828125,-400000.0625,-400000.0625,-400000.0625,-400000.0625,-400000.0625,-400000.0625
59.6492223739624,-400000.0625,-36618.28125,-400000.0625,-400000.0625,-400000.0625,-400000.0625,-400000.0625,-400000.0625
59.649226665496826,-400000.0625,-35907.94140625,-400000.0625,-400000.0625,-400000.0625,-400000.0625,-400000.0625,-400000.0625
59.64923071861267,-400000.0625,-36204.1015625,-400000.0625,-400000.0625,-400000.0625,-400000.0625,-400000.0625,-400000.0625
59.649234771728516,-400000.0625,-36792.4296875,-400000.0625,-400000.0625,-400000.0625,-400000.0625,-400000.0625,-400000.0625
59.64923882484436,-400000.0625,-36550.9609375,-400000.0625,-400000.0625,-400000.0625,-400000.0625,-400000.0625,-400000.0625
59.649242639541626,-400000.0625,-35582.3984375,-400000.0625,-400000.0625,-400000.0625,-400000.0625,-400000.0625,-400000.0625
59.64924645423889,-400000.0625,-34985.5,-400000.0625,-400000.0625,-400000.0625,-400000.0625,-400000.0625,-400000.0625
59.649250984191895,-400000.0625,-35438.01953125,-400000.0625,-400000.0625,-400000.0625,-400000.0625,-400000.0625,-400000.0625
59.64925503730774,-400000.0625,-35980.55859375,-400000.0625,-400000.0625,-400000.0625,-400000.0625,-400000.0625,-400000.0625
59.649258852005005,-400000.0625,-35865.83984375,-400000.0625,-400000.0625,-400000.0625,-400000.0625,-400000.0625,-400000.0625
59.64926242828369,-400000.0625,-35080.9609375,-400000.0625,-400000.0625,-400000.0625,-400000.0625,-400000.0625,-400000.0625
59.64926600456238,-400000.0625,-34496.171875,-400000.0625,-400000.0625,-400000.0625,-400000.0625,-400000.0625,-400000.0625
59.649269580841064,-400000.0625,-34923.83984375,-400000.0625,-400000.0625,-400000.0625,-400000.0625,-400000.0625,-400000.0625
59.64927339553833,-400000.0625,-35547.12109375,-400000.0625,-400000.0625,-400000.0625,-400000.0625,-400000.0625,-400000.0625
59.649277210235596,-400000.0625,-35389.7109375,-400000.0625,-400000.0625,-400000.0625,-400000.0625,-400000.0625,-400000.0625
59.64928150177002,-400000.0625,-34613.46875,-400000.0625,-400000.0625,-400000.0625,-400000.0625,-400000.0625,-400000.0625
59.649285554885864,-400000.0625,-33969.01953125,-400000.0625,-400000.0625,-400000.0625,-400000.0625,-400000.0625,-400000.0625
59.64929008483887,-400000.0625,-34295.12890625,-400000.0625,-400000.0625,-400000.0625,-400000.0625,-400000.0625,-400000.0625
59.64929413795471,-400000.0625,-34980.73046875,-400000.0625,-400000.0625,-400000.0625,-400000.0625,-400000.0625,-400000.0625
59.64929938316345,-400000.0625,-35002.0,-400000.0625,-400000.0625,-400000.0625,-400000.0625,-400000.0625,-400000.0625
59.649303913116455,-400000.0625,-34519.53125,-400000.0625,-400000.0625,-400000.0625,-400000.0625,-400000.0625,-400000.0625
59.6493079662323,-400000.0625,-34260.94140625,-400000.0625,-400000.0625,-400000.0625,-400000.0625,-400000.0625,-400000.0625
59.649312257766724,-400000.0625,-35310.21875,-400000.0625,-400000.0625,-400000.0625,-400000.0625,-400000.0625,-400000.0625
59.64931797981262,-400000.0625,-36815.5,-400000.0625,-400000.0625,-400000.0625,-400000.0625,-400000.0625,-400000.0625
59.649322271347046,-400000.0625,-33698.1796875,-400000.0625,-400000.0625,-400000.0625,-400000.0625,-400000.0625,-400000.0625
59.6543869972229,-400000.0625,-22641.279296875,-400000.0625,-400000.0625,-400000.0625,-400000.0625,-400000.0625,-400000.0625
59.65942120552063,-400000.0625,-18110.23046875,-400000.0625,-400000.0625,-400000.0625,-400000.0625,-400000.0625,-400000.0625
59.66555571556091,-400000.0625,-30320.69921875,-400000.0625,-400000.0625,-400000.0625,-400000.0625,-400000.0625,-400000.0625
59.6725640296936,-400000.0625,-46044.26171875,-400000.0625,-400000.0625,-400000.0625,-400000.0625,-400000.0625,-400000.0625
59.67844772338867,-400000.0625,-47825.19921875,-400000.0625,-400000.0625,-400000.0625,-400000.0625,-400000.0625,-400000.0625
59.684914112091064,-400000.0625,-36494.87890625,-400000.0625,-400000.0625,-400000.0625,-400000.0625,-400000.0625,-400000.0625
59.69044375419617,-400000.0625,-31812.48046875,-400000.0625,-400000.0625,-400000.0625,-400000.0625,-400000.0625,-400000.0625
59.695794105529785,-400000.0625,-43908.41015625,-400000.0625,-400000.0625,-400000.0625,-400000.0625,-400000.0625,-400000.0625
59.70176815986633,-400000.0625,-59593.96875,-400000.0625,-400000.0625,-400000.0625,-400000.0625,-400000.0625,-400000.0625
59.71168661117554,-400000.0625,-61049.08984375,-400000.0625,-400000.0625,-400000.0625,-400000.0625,-400000.0625,-400000.0625
59.71941018104553,-400000.0625,-49385.26953125,-400000.0625,-400000.0625,-400000.0625,-400000.0625,-400000.0625,-400000.0625
59.72512769699097,-400000.0625,-44711.44921875,-400000.0625,-400000.0625,-400000.0625,-400000.0625,-400000.0625,-400000.0625
59.73157334327698,-400000.0625,-56741.2890625,-400000.0625,-400000.0625,-400000.0625,-400000.0625,-400000.0625,-400000.0625
59.73700833320618,-400000.0625,-72335.15625,-400000.0625,-400000.0625,-400000.0625,-400000.0625,-400000.0625,-400000.0625
59.743348121643066,-400000.0625,-73359.9765625,-400000.0625,-400000.0625,-400000.0625,-400000.0625,-400000.0625,-400000.0625
59.75278282165527,-400000.0625,-61675.26953125,-400000.0625,-400000.0625,-400000.0625,-400000.0625,-400000.0625,-400000.0625
59.75790071487427,-400000.0625,-57009.3203125,-400000.0625,-400000.0625,-400000.0625,-400000.0625,-400000.0625,-400000.0625
59.76442289352417,-400000.0625,-68996.53125,-400000.0625,-400000.0625,-400000.0625,-400000.0625,-400000.0625,-400000.0625
59.76996660232544,-400000.0625,-84425.6015625,-400000.0625,-400000.0625,-400000.0625,-400000.0625,-400000.0625,-400000.0625
59.77522277832031,-400000.0625,-85090.6015625,-400000.0625,-400000.0625,-400000.0625,-400000.0625,-400000.0625,-400000.0625
59.781819343566895,-400000.0625,-73403.03125,-400000.0625,-400000.0625,-400000.0625,-400000.0625,-400000.0625,-400000.0625
59.78872585296631,-400000.0625,-68690.1171875,-400000.0625,-400000.0625,-400000.0625,-400000.0625,-400000.0625,-400000.0625
59.79400968551636,-400000.0625,-80754.6171875,-400000.0625,-400000.0625,-400000.0625,-400000.0625,-400000.0625,-400000.0625
59.80237126350403,-400000.0625,-95874.1328125,-400000.0625,-400000.0625,-400000.0625,-400000.0625,-400000.0625,-400000.0625
59.813551902770996,-400000.0625,-96335.2265625,-400000.0625,-400000.0625,-400000.0625,-400000.0625,-400000.0625,-400000.0625
59.820006370544434,-400000.0625,-84626.78125,-400000.0625,-400000.0625,-400000.0625,-400000.0625,-400000.0625,-400000.0625
59.82536506652832,-400000.0625,-79936.5625,-400000.0625,-400000.0625,-400000.0625,-400000.0625,-400000.0625,-400000.0625
59.83266043663025,-400000.0625,-92035.8828125,-400000.0625,-400000.0625,-400000.0625,-400000.0625,-400000.0625,-400000.0625
59.83789587020874,-400000.0625,-106798.09375,-400000.0625,-400000.0625,-400000.0625,-400000.0625,-400000.0625,-400000.0625
59.844648599624634,-400000.0625,-107193.1015625,-400000.0625,-400000.0625,-400000.0625,-400000.0625,-400000.0625,-400000.0625
59.85015797615051,-400000.0625,-95436.4375,-400000.0625,-400000.0625,-400000.0625,-400000.0625,-400000.0625,-400000.0625
59.85629391670227,-400000.0625,-90788.65625,-400000.0625,-400000.0625,-400000.0625,-400000.0625,-400000.0625,-400000.0625
59.86380958557129,-400000.0625,-102734.4296875,-400000.0625,-400000.0625,-400000.0625,-400000.0625,-400000.0625,-400000.0625
59.86921453475952,-400000.0625,-117180.2734375,-400000.0625,-400000.0625,-400000.0625,-400000.0625,-400000.0625,-400000.0625
59.87475323677063,-400000.0625,-117580.0,-400000.0625,-400000.0625,-400000.0625,-400000.0625,-400000.0625,-400000.0625
59.88300824165344,-400000.0625,-105816.2265625,-400000.0625,-400000.0625,-400000.0625,-400000.0625,-400000.0625,-400000.0625
59.88976240158081,-400000.0625,-101278.9765625,-400000.0625,-400000.0625,-400000.0625,-400000.0625,-400000.0625,-400000.0625
59.897491693496704,-400000.0625,-112939.1328125,-400000.0625,-400000.0625,-400000.0625,-400000.0625,-400000.0625,-400000.0625
59.90414571762085,-400000.0625,-127265.2265625,-400000.0625,-400000.0625,-400000.0625,-400000.0625,-400000.0625,-400000.0625
59.91643261909485,-400000.0625,-127596.15625,-400000.0625,-400000.0625,-400000.0625,-400000.0625,-400000.0625,-400000.0625
59.922316551208496,-400000.0625,-115818.75,-400000.0625,-400000.0625,-400000.0625,-400000.0625,-400000.0625,-400000.0625
59.92974877357483,-400000.0625,-111298.90625,-400000.0625,-400000.0625,-400000.0625,-400000.0625,-400000.0625,-400000.0625
59.9374315738678,-400000.0625,-122641.71875,-400000.0625,-400000.0625,-400000.0625,-400000.0625,-400000.0625,-400000.0625
59.94561147689819,-400000.0625,-136931.015625,-400000.0625,-400000.0625,-400000.0625,-400000.0625,-400000.0625,-400000.0625
59.951231479644775,-400000.0625,-137191.453125,-400000.0625,-400000.0625,-400000.0625,-400000.0625,-400000.0625,-400000.0625
59.95720362663269,-400000.0625,-125482.671875,-400000.0625,-400000.0625,-400000.0625,-400000.0625,-400000.0625,-400000.0625
59.964439153671265,-400000.0625,-120819.6328125,-400000.0625,-400000.0625,-400000.0625,-400000.0625,-400000.0625,-400000.0625
59.97208905220032,-400000.0625,-132015.859375,-400000.0625,-400000.0625,-400000.0625,-400000.0625,-400000.0625,-400000.0625
59.978458881378174,-400000.0625,-146312.96875,-400000.0625,-400000.0625,-400000.0625,-400000.0625,-400000.0625,-400000.0625
59.98616147041321,-400000.0625,-146471.796875,-400000.0625,-400000.0625,-400000.0625,-400000.0625,-400000.0625,-400000.0625
59.99257302284241,-400000.0625,-134806.984375,-400000.0625,-400000.0625,-400000.0625,-400000.0625,-400000.0625,-400000.0625
60.000731468200684,-400000.0625,-129940.953125,-400000.0625,-400000.0625,-400000.0625,-400000.0625,-400000.0625,-400000.0625
60.00775384902954,-400000.0625,-141126.078125,-400000.0625,-400000.0625,-400000.0625,-400000.0625,-400000.0625,-400000.0625
60.02472543716431,-400000.0625,-155326.953125,-400000.0625,-400000.0625,-400000.0625,-400000.0625,-400000.0625,-400000.0625
60.032355546951294,-400000.0625,-155423.984375,-400000.0625,-400000.0625,-400000.0625,-400000.0625,-400000.0625,-400000.0625
60.0394012928009,-400000.0625,-143716.640625,-400000.0625,-400000.0625,-400000.0625,-400000.0625,-400000.0625,-400000.0625
60.047614336013794,-400000.0625,-138641.953125,-400000.0625,-400000.0625,-400000.0625,-400000.0625,-400000.0625,-400000.0625
60.05400061607361,-400000.0625,-149926.15625,-400000.0625,-400000.0625,-400000.0625,-400000.0625,-400000.0625,-400000.0625
60.06117653846741,-400000.0625,-164041.25,-400000.0625,-400000.0625,-400000.0625,-400000.0625,-400000.0625,-400000.0625
60.069430351257324,-400000.0625,-164141.15625,-400000.0625,-400000.0625,-400000.0625,-400000.0625,-400000.0625,-400000.0625
60.07554507255554,-400000.0625,-152203.390625,-400000.0625,-400000.0625,-400000.0625,-400000.0625,-400000.0625,-400000.0625
60.08339333534241,-400000.0625,-147051.6875,-400000.0625,-400000.0625,-400000.0625,-400000.0625,-400000.0625,-400000.0625
60.089207887649536,-400000.0625,-158381.578125,-400000.0625,-400000.0625,-400000.0625,-400000.0625,-400000.0625,-400000.0625
60.096797704696655,-400000.0625,-172436.453125,-400000.0625,-400000.0625,-400000.0625,-400000.0625,-400000.0625,-400000.0625
60.10298442840576,-400000.0625,-172522.765625,-400000.0625,-400000.0625,-400000.0625,-400000.0625,-400000.0625,-400000.0625
60.10915565490723,-400000.0625,-160266.609375,-400000.0625,-400000.0625,-400000.0625,-400000.0625,-400000.0625,-400000.0625
60.1223247051239,-400000.0625,-155194.109375,-400000.0625,-400000.0625,-400000.0625,-400000.0625,-400000.0625,-400000.0625
60.13152194023132,-400000.0625,-166571.484375,-400000.0625,-400000.0625,-400000.0625,-400000.0625,-400000.0625,-400000.0625
60.13807201385498,-400000.0625,-180684.40625,-400000.0625,-400000.0625,-400000.0625,-400000.0625,-400000.0625,-400000.0625
60.14453673362732,-400000.0625,-180589.984375,-400000.0625,-400000.0625,-400000.0625,-400000.0625,-400000.0625,-400000.0625
60.15296292304993,-400000.0625,-168117.015625,-400000.0625,-400000.0625,-400000.0625,-400000.0625,-400000.0625,-400000.0625
60.159682273864746,-400000.0625,-163168.59375,-400000.0625,-400000.0625,-400000.0625,-400000.0625,-400000.0625,-400000.0625
60.167359352111816,-400000.0625,-174542.546875,-400000.0625,-400000.0625,-400000.0625,-400000.0625,-400000.0625,-400000.0625
60.1754674911499,-400000.0625,-188683.875,-400000.0625,-400000.0625,-400000.0625,-400000.0625,-400000.0625,-400000.0625
60.18380379676819,-400000.0625,-188299.875,-400000.0625,-400000.0625,-400000.0625,-400000.0625,-400000.0625,-400000.0625
60.18999910354614,-400000.0625,-175749.609375,-400000.0625,-400000.0625,-400000.0625,-400000.0625,-400000.0625,-400000.0625
60.200406312942505,-400000.0625,-170881.234375,-400000.0625,-400000.0625,-400000.0625,-400000.0625,-400000.0625,-400000.0625
60.20748734474182,-400000.0625,-182301.734375,-400000.0625,-400000.0625,-400000.0625,-400000.0625,-400000.0625,-400000.0625
60.21516489982605,-400000.0625,-196420.3125,-400000.0625,-400000.0625,-400000.0625,-400000.0625,-400000.0625,-400000.0625
60.22577118873596,-400000.0625,-195693.234375,-400000.0625,-400000.0625,-400000.0625,-400000.0625,-400000.0625,-400000.0625
60.23550224304199,-400000.0625,-183201.5625,-400000.0625,-400000.0625,-400000.0625,-400000.0625,-400000.0625,-400000.0625
60.24229836463928,-400000.0625,-178371.15625,-400000.0625,-400000.0625,-400000.0625,-400000.0625,-400000.0625,-400000.0625
60.24851441383362,-400000.0625,-189898.125,-400000.0625,-400000.0625,-400000.0625,-400000.0625,-400000.0625,-400000.0625
60.25398802757263,-400000.0625,-203817.921875,-400000.0625,-400000.0625,-400000.0625,-400000.0625,-400000.0625,-400000.0625
60.259286642074585,-400000.0625,-202886.65625,-400000.0625,-400000.0625,-400000.0625,-400000.0625,-400000.0625,-400000.0625
60.26752257347107,-400000.0625,-190504.625,-400000.0625,-400000.0625,-400000.0625,-400000.0625,-400000.0625,-400000.0625
60.274691343307495,-400000.0625,-185726.765625,-400000.0625,-400000.0625,-400000.0625,-400000.0625,-400000.0625,-400000.0625
60.28252291679382,-400000.0625,-197337.03125,-400000.0625,-400000.0625,-400000.0625,-400000.0625,-400000.0625,-400000.0625
60.288082122802734,-400000.0625,-210961.890625,-400000.0625,-400000.0625,-400000.0625,-400000.0625,-400000.0625,-400000.0625
60.29568910598755,-400000.0625,-209968.828125,-400000.0625,-400000.0625,-400000.0625,-400000.0625,-400000.0625,-400000.0625
60.304874658584595,-400000.0625,-197603.015625,-400000.0625,-400000.0625,-400000.0625,-400000.0625,-400000.0625,-400000.0625
60.31307005882263,-400000.0625,-192892.671875,-400000.0625,-400000.0625,-400000.0625,-400000.0625,-400000.0625,-400000.0625
60.319117069244385,-400000.0625,-204498.59375,-400000.0625,-400000.0625,-400000.0625,-400000.0625,-400000.0625,-400000.0625
60.33045744895935,-400000.0625,-217856.953125,-400000.0625,-400000.0625,-400000.0625,-400000.0625,-400000.0625,-400000.0625
60.33659052848816,-400000.0625,-216924.6875,-400000.0625,-400000.0625,-400000.0625,-400000.0625,-400000.0625,-400000.0625
60.34248471260071,-400000.0625,-204531.796875,-400000.0625,-400000.0625,-400000.0625,-400000.0625,-400000.0625,-400000.0625
60.35320687294006,-400000.0625,-199935.75,-400000.0625,-400000.0625,-400000.0625,-400000.0625,-400000.0625,-400000.0625
60.35962677001953,-400000.0625,-211404.59375,-400000.0625,-400000.0625,-400000.0625,-400000.0625,-400000.0625,-400000.0625
60.36898970603943,-400000.0625,-224636.390625,-400000.0625,-400000.0625,-400000.0625,-400000.0625,-400000.0625,-400000.0625
60.37739300727844,-400000.0625,-223743.984375,-400000.0625,-400000.0625,-400000.0625,-400000.0625,-400000.0625,-400000.0625
60.38417148590088,-400000.0625,-211349.125,-400000.0625,-400000.0625,-400000.0625,-400000.0625,-400000.0625,-400000.0625
60.3900351524353,-400000.0625,-206862.09375,-400000.0625,-400000.0625,-400000.0625,-400000.0625,-400000.0625,-400000.0625
60.397730112075806,-400000.0625,-218115.203125,-400000.0625,-400000.0625,-400000.0625,-400000.0625,-400000.0625,-400000.0625
60.4039511680603,-400000.0625,-231438.46875,-400000.0625,-400000.0625,-400000.0625,-400000.0625,-400000.0625,-400000.0625
60.41310095787048,-400000.0625,-230500.6875,-400000.0625,-400000.0625,-400000.0625,-400000.0625,-400000.0625,-400000.0625
60.419044733047485,-400000.0625,-218090.9375,-400000.0625,-400000.0625,-400000.0625,-400000.0625,-400000.0625,-400000.0625
60.42549419403076,-400000.0625,-213540.625,-400000.0625,-400000.0625,-400000.0625,-400000.0625,-400000.0625,-400000.0625
60.439990520477295,-400000.0625,-224559.8125,-400000.0625,-400000.0625,-400000.0625,-400000.0625,-400000.0625,-400000.0625
60.44823169708252,-400000.0625,-237871.71875,-400000.0625,-400000.0625,-400000.0625,-400000.0625,-400000.0625,-400000.0625
60.455331563949585,-400000.0625,-236860.296875,-400000.0625,-400000.0625,-400000.0625,-400000.0625,-400000.0625,-400000.0625
60.46319127082825,-400000.0625,-224549.453125,-400000.0625,-400000.0625,-400000.0625,-400000.0625,-400000.0625,-400000.0625
60.47190761566162,-400000.0625,-219811.65625,-400000.0625,-400000.0625,-400000.0625,-400000.0625,-400000.0625,-400000.0625
60.478590965270996,-400000.0625,-230803.609375,-400000.0625,-400000.0625,-400000.0625,-400000.0625,-400000.0625,-400000.0625
60.485493421554565,-400000.0625,-244150.046875,-400000.0625,-400000.0625,-400000.0625,-400000.0625,-400000.0625,-400000.0625
60.49141454696655,-400000.0625,-243140.109375,-400000.0625,-400000.0625,-400000.0625,-400000.0625,-400000.0625,-400000.0625
60.498457193374634,-400000.0625,-230881.34375,-400000.0625,-400000.0625,-400000.0625,-400000.0625,-400000.0625,-400000.0625
60.506041526794434,-400000.0625,-225966.09375,-400000.0625,-400000.0625,-400000.0625,-400000.0625,-400000.0625,-400000.0625
60.5130136013031,-400000.0625,-237074.3125,-400000.0625,-400000.0625,-400000.0625,-400000.0625,-400000.0625,-400000.0625
60.52089500427246,-400000.0625,-250373.734375,-400000.0625,-400000.0625,-400000.0625,-400000.0625,-400000.0625,-400000.0625
60.5272331237793,-400000.0625,-249342.28125,-400000.0625,-400000.0625,-400000.0625,-400000.0625,-400000.0625,-400000.0625
60.53984332084656,-400000.0625,-236978.265625,-400000.0625,-400000.0625,-400000.0625,-400000.0625,-400000.0625,-400000.0625
60.54924416542053,-400000.0625,-231950.546875,-400000.0625,-400000.0625,-400000.0625,-400000.0625,-400000.0625,-400000.0625
60.555601358413696,-400000.0625,-243207.765625,-400000.0625,-400000.0625,-400000.0625,-400000.0625,-400000.0625,-400000.0625
60.56172013282776,-400000.0625,-256524.640625,-400000.0625,-400000.0625,-400000.0625,-400000.0625,-400000.0625,-400000.0625
60.56841850280762,-400000.0625,-255582.40625,-400000.0625,-400000.0625,-400000.0625,-400000.0625,-400000.0625,-400000.0625
60.57549738883972,-400000.0625,-242969.15625,-400000.0625,-400000.0625,-400000.0625,-400000.0625,-400000.0625,-400000.0625
60.58392906188965,-400000.0625,-238081.53125,-400000.0625,-400000.0625,-400000.0625,-400000.0625,-400000.0625,-400000.0625
60.59035325050354,-400000.0625,-249635.0625,-400000.0625,-400000.0625,-400000.0625,-400000.0625,-400000.0625,-400000.0625
60.59599232673645,-400000.0625,-263032.3125,-400000.0625,-400000.0625,-400000.0625,-400000.0625,-400000.0625,-400000.0625
60.60133981704712,-400000.0625,-261823.828125,-400000.0625,-400000.0625,-400000.0625,-400000.0625,-400000.0625,-400000.0625
60.60670757293701,-400000.0625,-248882.421875,-400000.0625,-400000.0625,-400000.0625,-400000.0625,-400000.0625,-400000.0625
60.615867376327515,-400000.0625,-244157.6875,-400000.0625,-400000.0625,-400000.0625,-400000.0625,-400000.0625,-400000.0625
60.62336826324463,-400000.0625,-255732.328125,-400000.0625,-400000.0625,-400000.0625,-400000.0625,-400000.0625,-400000.0625
60.63007879257202,-400000.0625,-269242.5,-400000.0625,-400000.0625,-400000.0625,-400000.0625,-400000.0625,-400000.0625
60.64174675941467,-400000.0625,-267927.15625,-400000.0625,-400000.0625,-400000.0625,-400000.0625,-400000.0625,-400000.0625
60.64914512634277,-400000.0625,-254828.34375,-400000.0625,-400000.0625,-400000.0625,-400000.0625,-400000.0625,-400000.0625
60.65583872795105,-400000.0625,-250233.15625,-400000.0625,-400000.0625,-400000.0625,-400000.0625,-400000.0625,-400000.0625
60.66467547416687,-400000.0625,-261787.015625,-400000.0625,-400000.0625,-400000.0625,-400000.0625,-400000.0625,-400000.0625
60.67177963256836,-400000.0625,-275136.46875,-400000.0625,-400000.0625,-400000.0625,-400000.0625,-400000.0625,-400000.0625
60.677796602249146,-400000.0625,-273325.65625,-400000.0625,-400000.0625,-400000.0625,-400000.0625,-400000.0625,-400000.0625
60.68544316291809,-400000.0625,-260366.234375,-400000.0625,-400000.0625,-400000.0625,-400000.0625,-400000.0625,-400000.0625
60.69216275215149,-400000.0625,-256062.40625,-400000.0625,-400000.0625,-400000.0625,-400000.0625,-400000.0625,-400000.0625
60.70043468475342,-400000.0625,-267635.0,-400000.0625,-400000.0625,-400000.0625,-400000.0625,-400000.0625,-400000.0625
60.70626521110535,-400000.0625,-280737.375,-400000.0625,-400000.0625,-400000.0625,-400000.0625,-400000.0625,-400000.0625
60.712422370910645,-400000.0625,-278709.15625,-400000.0625,-400000.0625,-400000.0625,-400000.0625,-400000.0625,-400000.0625
60.719664335250854,-400000.0625,-265889.09375,-400000.0625,-400000.0625,-400000.0625,-400000.0625,-400000.0625,-400000.0625
60.72522449493408,-400000.0625,-261554.125,-400000.0625,-400000.0625,-400000.0625,-400000.0625,-400000.0625,-400000.0625
60.73125433921814,-400000.0625,-273291.25,-400000.0625,-400000.0625,-400000.0625,-400000.0625,-400000.0625,-400000.0625
60.74472498893738,-400000.0625,-286248.375,-400000.0625,-400000.0625,-400000.0625,-400000.0625,-400000.0625,-400000.0625
60.75071406364441,-400000.0625,-284143.375,-400000.0625,-400000.0625,-400000.0625,-400000.0625,-400000.0625,-400000.0625
60.756513357162476,-400000.0625,-271213.90625,-400000.0625,-400000.0625,-400000.0625,-400000.0625,-400000.0625,-400000.0625
60.76341795921326,-400000.0625,-266772.84375,-400000.0625,-400000.0625,-400000.0625,-400000.0625,-400000.0625,-400000.0625
60.76994228363037,-400000.0625,-278691.40625,-400000.0625,-400000.0625,-400000.0625,-400000.0625,-400000.0625,-400000.0625
60.776071071624756,-400000.0625,-291501.375,-400000.0625,-400000.0625,-400000.0625,-400000.0625,-400000.0625,-400000.0625
60.7821307182312,-400000.0625,-289376.8125,-400000.0625,-400000.0625,-400000.0625,-400000.0625,-400000.0625,-400000.0625
60.7872953414917,-400000.0625,-276505.21875,-400000.0625,-400000.0625,-400000.0625,-400000.0625,-400000.0625,-400000.0625
60.79282569885254,-400000.0625,-272292.375,-400000.0625,-400000.0625,-400000.0625,-400000.0625,-400000.0625,-400000.0625
60.801661252975464,-400000.0625,-284050.9375,-400000.0625,-400000.0625,-400000.0625,-400000.0625,-400000.0625,-400000.0625
60.80762839317322,-400000.0625,-296545.21875,-400000.0625,-400000.0625,-400000.0625,-400000.0625,-400000.0625,-400000.0625
60.81479501724243,-400000.0625,-294529.09375,-400000.0625,-400000.0625,-400000.0625,-400000.0625,-400000.0625,-400000.0625
60.8214955329895,-400000.0625,-281746.28125,-400000.0625,-400000.0625,-400000.0625,-400000.0625,-400000.0625,-400000.0625
60.82735586166382,-400000.0625,-277621.25,-400000.0625,-400000.0625,-400000.0625,-400000.0625,-400000.0625,-400000.0625
60.83543348312378,-400000.0625,-289141.25,-400000.0625,-400000.0625,-400000.0625,-400000.0625,-400000.0625,-400000.0625
60.84634470939636,-400000.0625,-301608.25,-400000.0625,-400000.0625,-400000.0625,-400000.0625,-400000.0625,-400000.0625
60.85328912734985,-400000.0625,-299597.875,-400000.0625,-400000.0625,-400000.0625,-400000.0625,-400000.0625,-400000.0625
60.85896372795105,-400000.0625,-286810.78125,-400000.0625,-400000.0625,-400000.0625,-400000.0625,-400000.0625,-400000.0625
60.864914655685425,-400000.0625,-282713.53125,-400000.0625,-400000.0625,-400000.0625,-400000.0625,-400000.0625,-400000.0625
60.87272930145264,-400000.0625,-294046.625,-400000.0625,-400000.0625,-400000.0625,-400000.0625,-400000.0625,-400000.0625
60.87826633453369,-400000.0625,-306554.78125,-400000.0625,-400000.0625,-400000.0625,-400000.0625,-400000.0625,-400000.0625
60.884236335754395,-400000.0625,-304497.375,-400000.0625,-400000.0625,-400000.0625,-400000.0625,-400000.0625,-400000.0625
60.88977289199829,-400000.0625,-291620.71875,-400000.0625,-400000.0625,-400000.0625,-400000.0625,-400000.0625,-400000.0625
60.895007848739624,-400000.0625,-287388.5625,-400000.0625,-400000.0625,-400000.0625,-400000.0625,-400000.0625,-400000.0625
60.90024733543396,-400000.0625,-298556.9375,-400000.0625,-400000.0625,-400000.0625,-400000.0625,-400000.0625,-400000.0625
60.90705466270447,-400000.0625,-311149.34375,-400000.0625,-400000.0625,-400000.0625,-400000.0625,-400000.0625,-400000.0625
60.91394257545471,-400000.0625,-309092.1875,-400000.0625,-400000.0625,-400000.0625,-400000.0625,-400000.0625,-400000.0625
60.919705629348755,-400000.0625,-296284.8125,-400000.0625,-400000.0625,-400000.0625,-400000.0625,-400000.0625,-400000.0625
60.92546725273132,-400000.0625,-291909.53125,-400000.0625,-400000.0625,-400000.0625,-400000.0625,-400000.0625,-400000.0625
60.93193030357361,-400000.0625,-303010.625,-400000.0625,-400000.0625,-400000.0625,-400000.0625,-400000.0625,-400000.0625
60.93791317939758,-400000.0625,-315600.25,-400000.0625,-400000.0625,-400000.0625,-400000.0625,-400000.0625,-400000.0625
60.95134902000427,-400000.0625,-313462.28125,-400000.0625,-400000.0625,-400000.0625,-400000.0625,-400000.0625,-400000.0625
60.95763897895813,-400000.0625,-300646.625,-400000.0625,-400000.0625,-400000.0625,-400000.0625,-400000.0625,-400000.0625
60.96378564834595,-400000.0625,-296108.46875,-400000.0625,-400000.0625,-400000.0625,-400000.0625,-400000.0625,-400000.0625
60.971107006073,-400000.0625,-307235.46875,-400000.0625,-400000.0625,-400000.0625,-400000.0625,-400000.0625,-400000.0625
60.97618126869202,-400000.0625,-319870.625,-400000.0625,-400000.0625,-400000.0625,-400000.0625,-400000.0625,-400000.0625
60.9831280708313,-400000.0625,-317768.375,-400000.0625,-400000.0625,-400000.0625,-400000.0625,-400000.0625,-400000.0625
60.99027490615845,-400000.0625,-304976.78125,-400000.0625,-400000.0625,-400000.0625,-400000.0625,-400000.0625,-400000.0625
60.995606422424316,-400000.0625,-300238.6875,-400000.0625,-400000.0625,-400000.0625,-400000.0625,-400000.0625,-400000.0625
61.001407861709595,-400000.0625,-311461.4375,-400000.0625,-400000.0625,-400000.0625,-400000.0625,-400000.0625,-400000.0625
61.00667071342468,-400000.0625,-324014.3125,-400000.0625,-400000.0625,-400000.0625,-400000.0625,-400000.0625,-400000.0625
61.01423263549805,-400000.0625,-321878.84375,-400000.0625,-400000.0625,-400000.0625,-400000.0625,-400000.0625,-400000.0625
61.02049398422241,-400000.0625,-309037.28125,-400000.0625,-400000.0625,-400000.0625,-400000.0625,-400000.0625,-400000.0625
61.02548909187317,-400000.0625,-304309.5,-400000.0625,-400000.0625,-400000.0625,-400000.0625,-400000.0625,-400000.0625
61.02549934387207,-400000.0625,-315548.46875,-400000.0625,-400000.0625,-400000.0625,-400000.0625,-400000.0625,-400000.0625
61.032289028167725,-400000.0625,-327957.8125,-400000.0625,-400000.0625,-400000.0625,-400000.0625,-400000.0625,-400000.0625
61.038997650146484,-400000.0625,-325753.625,-400000.0625,-400000.0625,-400000.0625,-400000.0625,-400000.0625,-400000.0625
61.05039119720459,-400000.0625,-312849.40625,-400000.0625,-400000.0625,-400000.0625,-400000.0625,-400000.0625,-400000.0625
61.055853843688965,-400000.0625,-308216.6875,-400000.0625,-400000.0625,-400000.0625,-400000.0625,-400000.0625,-400000.0625
61.06191158294678,-400000.0625,-319577.40625,-400000.0625,-400000.0625,-400000.0625,-400000.0625,-400000.0625,-400000.0625
61.06912136077881,-400000.0625,-331949.46875,-400000.0625,-400000.0625,-400000.0625,-400000.0625,-400000.0625,-400000.0625
61.074660301208496,-400000.0625,-329796.53125,-400000.0625,-400000.0625,-400000.0625,-400000.0625,-400000.0625,-400000.0625
61.079890727996826,-400000.0625,-316669.5625,-400000.0625,-400000.0625,-400000.0625,-400000.0625,-400000.0625,-400000.0625
61.085981607437134,-400000.0625,-312176.9375,-400000.0625,-400000.0625,-400000.0625,-400000.0625,-400000.0625,-400000.0625
61.09133815765381,-400000.0625,-323639.875,-400000.0625,-400000.0625,-400000.0625,-400000.0625,-400000.0625,-400000.0625
61.09654092788696,-400000.0625,-336064.1875,-400000.0625,-400000.0625,-400000.0625,-400000.0625,-400000.0625,-400000.0625
61.102248668670654,-400000.0625,-333753.96875,-400000.0625,-400000.0625,-400000.0625,-400000.0625,-400000.0625,-400000.0625
61.10884666442871,-400000.0625,-320379.96875,-400000.0625,-400000.0625,-400000.0625,-400000.0625,-400000.0625,-400000.0625
61.11621856689453,-400000.0625,-316066.125,-400000.0625,-400000.0625,-400000.0625,-400000.0625,-400000.0625,-400000.0625
61.12192893028259,-400000.0625,-327663.78125,-400000.0625,-400000.0625,-400000.0625,-400000.0625,-400000.0625,-400000.0625
61.127264738082886,-400000.0625,-340278.34375,-400000.0625,-400000.0625,-400000.0625,-400000.0625,-400000.0625,-400000.0625
61.13532567024231,-400000.0625,-337690.90625,-400000.0625,-400000.0625,-400000.0625,-400000.0625,-400000.0625,-400000.0625
61.14237117767334,-400000.0625,-324176.40625,-400000.0625,-400000.0625,-400000.0625,-400000.0625,-400000.0625,-400000.0625
61.15460705757141,-400000.0625,-319883.46875,-400000.0625,-400000.0625,-400000.0625,-400000.0625,-400000.0625,-400000.0625
61.16036915779114,-400000.0625,-331602.84375,-400000.0625,-400000.0625,-400000.0625,-400000.0625,-400000.0625,-400000.0625
61.168431997299194,-400000.0625,-344366.125,-400000.0625,-400000.0625,-400000.0625,-400000.0625,-400000.0625,-400000.0625
61.17528009414673,-400000.0625,-341543.46875,-400000.0625,-400000.0625,-400000.0625,-400000.0625,-400000.0625,-400000.0625
61.18161487579346,-400000.0625,-327998.25,-400000.0625,-400000.0625,-400000.0625,-400000.0625,-400000.0625,-400000.0625
61.187597036361694,-400000.0625,-323633.09375,-400000.0625,-400000.0625,-400000.0625,-400000.0625,-400000.0625,-400000.0625
61.19260549545288,-400000.0625,-335437.4375,-400000.0625,-400000.0625,-400000.0625,-400000.0625,-400000.0625,-400000.0625
61.199477195739746,-400000.0625,-348084.84375,-400000.0625,-400000.0625,-400000.0625,-400000.0625,-400000.0625,-400000.0625
61.20496416091919,-400000.0625,-345103.96875,-400000.0625,-400000.0625,-400000.0625,-400000.0625,-400000.0625,-400000.0625
61.21019268035889,-400000.0625,-331653.71875,-400000.0625,-400000.0625,-400000.0625,-400000.0625,-400000.0625,-400000.0625
61.21636438369751,-400000.0625,-327291.65625,-400000.0625,-400000.0625,-400000.0625,-400000.0625,-400000.0625,-400000.0625
61.22257399559021,-400000.0625,-339212.78125,-400000.0625,-400000.0625,-400000.0625,-400000.0625,-400000.0625,-400000.0625
61.23048543930054,-400000.0625,-351632.78125,-400000.0625,-400000.0625,-400000.0625,-400000.0625,-400000.0625,-400000.0625
61.23625326156616,-400000.0625,-348677.15625,-400000.0625,-400000.0625,-400000.0625,-400000.0625,-400000.0625,-400000.0625
61.242053270339966,-400000.0625,-335254.40625,-400000.0625,-400000.0625,-400000.0625,-400000.0625,-400000.0625,-400000.0625
61.24830770492554,-400000.0625,-330971.125,-400000.0625,-400000.0625,-400000.0625,-400000.0625,-400000.0625,-400000.0625
61.25971865653992,-400000.0625,-342908.03125,-400000.0625,-400000.0625,-400000.0625,-400000.0625,-400000.0625,-400000.0625
61.26566982269287,-400000.0625,-355103.59375,-400000.0625,-400000.0625,-400000.0625,-400000.0625,-400000.0625,-400000.0625
61.271448850631714,-400000.0625,-352233.0625,-400000.0625,-400000.0625,-400000.0625,-400000.0625,-400000.0625,-400000.0625
61.2772490978241,-400000.0625,-338807.65625,-400000.0625,-400000.0625,-400000.0625,-400000.0625,-400000.0625,-400000.0625
61.285157442092896,-400000.0625,-334621.84375,-400000.0625,-400000.0625,-400000.0625,-400000.0625,-400000.0625,-400000.0625
61.29195833206177,-400000.0625,-346423.34375,-400000.0625,-400000.0625,-400000.0625,-400000.0625,-400000.0625,-400000.0625
61.29938101768494,-400000.0625,-358546.90625,-400000.0625,-400000.0625,-400000.0625,-400000.0625,-400000.0625,-400000.0625
61.30532360076904,-400000.0625,-355687.375,-400000.0625,-400000.0625,-400000.0625,-400000.0625,-400000.0625,-400000.0625
61.311490058898926,-400000.0625,-342262.6875,-400000.0625,-400000.0625,-400000.0625,-400000.0625,-400000.0625,-400000.0625
61.3180615901947,-400000.0625,-338184.21875,-400000.0625,-400000.0625,-400000.0625,-400000.0625,-400000.0625,-400000.0625
61.324132442474365,-400000.0625,-349717.75,-400000.0625,-400000.0625,-400000.0625,-400000.0625,-400000.0625,-400000.0625
61.33009195327759,-400000.0625,-361837.28125,-400000.0625,-400000.0625,-400000.0625,-400000.0625,-400000.0625,-400000.0625
61.33629012107849,-400000.0625,-359009.15625,-400000.0625,-400000.0625,-400000.0625,-400000.0625,-400000.0625,-400000.0625
61.34143590927124,-400000.0625,-345662.625,-400000.0625,-400000.0625,-400000.0625,-400000.0625,-400000.0625,-400000.0625
61.347355365753174,-400000.0625,-341569.125,-400000.0625,-400000.0625,-400000.0625,-400000.0625,-400000.0625,-400000.0625
61.35620594024658,-400000.0625,-353014.46875,-400000.0625,-400000.0625,-400000.0625,-400000.0625,-400000.0625,-400000.0625
61.368701219558716,-400000.0625,-365249.15625,-400000.0625,-400000.0625,-400000.0625,-400000.0625,-400000.0625,-400000.0625
61.37504172325134,-400000.0625,-362322.46875,-400000.0625,-400000.0625,-400000.0625,-400000.0625,-400000.0625,-400000.0625
61.38151979446411,-400000.0625,-349102.0625,-400000.0625,-400000.0625,-400000.0625,-400000.0625,-400000.0625,-400000.0625
61.3896267414093,-400000.0625,-344839.21875,-400000.0625,-400000.0625,-400000.0625,-400000.0625,-400000.0625,-400000.0625
61.397210359573364,-400000.0625,-356207.6875,-400000.0625,-400000.0625,-400000.0625,-400000.0625,-400000.0625,-400000.0625
61.40290570259094,-400000.0625,-368465.03125,-400000.0625,-400000.0625,-400000.0625,-400000.0625,-400000.0625,-400000.0625
61.407883167266846,-400000.0625,-365644.6875,-400000.0625,-400000.0625,-400000.0625,-400000.0625,-400000.0625,-400000.0625
61.407893657684326,-400000.0625,-352526.40625,-400000.0625,-400000.0625,-400000.0625,-400000.0625,-400000.0625,-400000.0625
61.40789842605591,-400000.0625,-348070.34375,-400000.0625,-400000.0625,-400000.0625,-400000.0625,-400000.0625,-400000.0625
61.40790247917175,-400000.0625,-359554.125,-400000.0625,-400000.0625,-400000.0625,-400000.0625,-400000.0625,-400000.0625
61.40790629386902,-400000.0625,-371847.25,-400000.0625,-400000.0625,-400000.0625,-400000.0625,-400000.0625,-400000.0625
61.40791058540344,-400000.0625,-369174.5625,-400000.0625,-400000.0625,-400000.0625,-400000.0625,-400000.0625,-400000.0625
61.40791440010071,-400000.0625,-356019.6875,-400000.0625,-400000.0625,-400000.0625,-400000.0625,-400000.0625,-400000.0625
61.413960456848145,-400000.0625,-351560.0625,-400000.0625,-400000.0625,-400000.0625,-400000.0625,-400000.0625,-400000.0625
61.42188811302185,-400000.0625,-363232.5625,-400000.0625,-400000.0625,-400000.0625,-400000.0625,-400000.0625,-400000.0625
61.42725944519043,-400000.0625,-375519.5,-400000.0625,-400000.0625,-400000.0625,-400000.0625,-400000.0625,-400000.0625
61.43335175514221,-400000.0625,-372894.46875,-400000.0625,-400000.0625,-400000.0625,-400000.0625,-400000.0625,-400000.0625
61.43884491920471,-400000.0625,-359524.8125,-400000.0625,-400000.0625,-400000.0625,-400000.0625,-400000.0625,-400000.0625
61.44455122947693,-400000.0625,-355134.09375,-400000.0625,-400000.0625,-400000.0625,-400000.0625,-400000.0625,-400000.0625
61.45289635658264,-400000.0625,-366853.46875,-400000.0625,-400000.0625,-400000.0625,-400000.0625,-400000.0625,-400000.0625
61.45812010765076,-400000.0625,-379119.4375,-400000.0625,-400000.0625,-400000.0625,-400000.0625,-400000.0625,-400000.0625
61.46951746940613,-400000.0625,-376408.96875,-400000.0625,-400000.0625,-400000.0625,-400000.0625,-400000.0625,-400000.0625
61.475372314453125,-400000.0625,-362831.6875,-400000.0625,-400000.0625,-400000.0625,-400000.0625,-400000.0625,-400000.0625
61.48211193084717,-400000.0625,-358600.09375,-400000.0625,-400000.0625,-400000.0625,-400000.0625,-400000.0625,-400000.0625
61.488746643066406,-400000.0625,-370328.03125,-400000.0625,-400000.0625,-400000.0625,-400000.0625,-400000.0625,-400000.0625
61.49525570869446,-400000.0625,-382686.03125,-400000.0625,-400000.0625,-400000.0625,-400000.0625,-400000.0625,-400000.0625
61.501121282577515,-400000.0625,-379807.375,-400000.0625,-400000.0625,-400000.0625,-400000.0625,-400000.0625,-400000.0625
61.50644016265869,-400000.0625,-366198.1875,-400000.0625,-400000.0625,-400000.0625,-400000.0625,-400000.0625,-400000.0625
61.5140483379364,-400000.0625,-362092.875,-400000.0625,-400000.0625,-400000.0625,-400000.0625,-400000.0625,-400000.0625
61.52076768875122,-400000.0625,-373818.96875,-400000.0625,-400000.0625,-400000.0625,-400000.0625,-400000.0625,-400000.0625
61.52611970901489,-400000.0625,-386177.875,-400000.0625,-400000.0625,-400000.0625,-400000.0625,-400000.0625,-400000.0625
61.53315043449402,-400000.0625,-383011.875,-400000.0625,-400000.0625,-400000.0625,-400000.0625,-400000.0625,-400000.0625
61.539095401763916,-400000.0625,-369506.5,-400000.0625,-400000.0625,-400000.0625,-400000.0625,-400000.0625,-400000.0625
61.54605793952942,-400000.0625,-365493.1875,-400000.0625,-400000.0625,-400000.0625,-400000.0625,-400000.0625,-400000.0625
61.55240273475647,-400000.0625,-377321.78125,-400000.0625,-400000.0625,-400000.0625,-400000.0625,-400000.0625,-400000.0625
61.55845069885254,-400000.0625,-389594.65625,-400000.0625,-400000.0625,-400000.0625,-400000.0625,-400000.0625,-400000.0625
61.56973838806152,-400000.0625,-386269.9375,-400000.0625,-400000.0625,-400000.0625,-400000.0625,-400000.0625,-400000.0625
61.5748496055603,-400000.0625,-373010.96875,-400000.0625,-400000.0625,-400000.0625,-400000.0625,-400000.0625,-400000.0625
61.58094573020935,-400000.0625,-369160.75,-400000.0625,-400000.0625,-400000.0625,-400000.0625,-400000.0625,-400000.0625
61.586949825286865,-400000.0625,-381207.5,-400000.0625,-400000.0625,-400000.0625,-400000.0625,-400000.0625,-400000.0625
61.59449338912964,-400000.0625,-393378.125,-400000.0625,-400000.0625,-400000.0625,-400000.0625,-400000.0625,-400000.0625
61.60097861289978,-400000.0625,-390137.96875,-400000.0625,-400000.0625,-400000.0625,-400000.0625,-400000.0625,-400000.0625
61.60656690597534,-400000.0625,-377020.75,-400000.0625,-400000.0625,-400000.0625,-400000.0625,-400000.0625,-400000.0625
61.61285400390625,-400000.0625,-373237.0,-400000.0625,-400000.0625,-400000.0625,-400000.0625,-400000.0625,-400000.0625
61.62003207206726,-400000.0625,-385453.6875,-400000.0625,-400000.0625,-400000.0625,-400000.0625,-400000.0625,-400000.0625
61.62539625167847,-400000.0625,-397912.5,-400000.0625,-400000.0625,-400000.0625,-400000.0625,-400000.0625,-400000.0625
61.63179612159729,-400000.0625,-395936.5,-400000.0625,-400000.0625,-400000.0625,-400000.0625,-400000.0625,-400000.0625
61.638901472091675,-400000.0625,-382381.90625,-400000.0625,-400000.0625,-400000.0625,-400000.0625,-400000.0625,-400000.0625
61.64474081993103,-400000.0625,-374983.15625,-400000.0625,-400000.0625,-400000.0625,-400000.0625,-400000.0625,-400000.0625
61.650564432144165,-400000.0625,-386311.625,-400000.0625,-400000.0625,-400000.0625,-400000.0625,-400000.0625,-400000.0625
61.655922174453735,-400000.0625,-400000.0625,-400000.0625,-400000.0625,-400000.0625,-400000.0625,-400000.0625,-400000.0625
61.66286563873291,-400000.0625,-400000.0625,-400000.0625,-400000.0625,-400000.0625,-400000.0625,-400000.0625,-400000.0625
61.67523384094238,-400000.0625,-387412.5,-400000.0625,-400000.0625,-400000.0625,-400000.0625,-400000.0625,-400000.0625
61.68130326271057,-400000.0625,-376502.5625,-400000.0625,-400000.0625,-400000.0625,-400000.0625,-400000.0625,-400000.0625
61.68834447860718,-400000.0625,-389990.75,-400000.0625,-400000.0625,-400000.0625,-400000.0625,-400000.0625,-400000.0625
61.69431209564209,-400000.0625,-400000.0625,-400000.0625,-400000.0625,-400000.0625,-400000.0625,-400000.0625,-400000.0625
61.70043134689331,-400000.0625,-400000.0625,-400000.0625,-400000.0625,-400000.0625,-400000.0625,-400000.0625,-400000.0625
61.705737590789795,-400000.0625,-391849.125,-400000.0625,-400000.0625,-400000.0625,-400000.0625,-400000.0625,-400000.0625
61.71105194091797,-400000.0625,-380970.71875,-400000.0625,-400000.0625,-400000.0625,-400000.0625,-400000.0625,-400000.0625
61.7178795337677,-400000.0625,-394545.96875,-400000.0625,-400000.0625,-400000.0625,-400000.0625,-400000.0625,-400000.0625
61.7233567237854,-400000.0625,-400000.0625,-400000.0625,-400000.0625,-400000.0625,-400000.0625,-400000.0625,-400000.0625
61.72837972640991,-400000.0625,-400000.0625,-400000.0625,-400000.0625,-400000.0625,-400000.0625,-400000.0625,-400000.0625
61.73419237136841,-400000.0625,-396427.71875,-400000.0625,-400000.0625,-400000.0625,-400000.0625,-400000.0625,-400000.0625
61.73936080932617,-400000.0625,-385540.4375,-400000.0625,-400000.0625,-400000.0625,-400000.0625,-400000.0625,-400000.0625
61.74470329284668,-400000.0625,-399157.25,-400000.0625,-400000.0625,-400000.0625,-400000.0625,-400000.0625,-400000.0625
61.75286531448364,-400000.0625,-400000.0625,-400000.0625,-400000.0625,-400000.0625,-400000.0625,-400000.0625,-400000.0625
61.75851821899414,-400000.0625,-400000.0625,-400000.0625,-400000.0625,-400000.0625,-400000.0625,-400000.0625,-400000.0625
61.76553773880005,-400000.0625,-400000.0625,-400000.0625,-400000.0625,-400000.0625,-400000.0625,-400000.0625,-400000.0625
61.77550792694092,-400000.0625,-390093.40625,-400000.0625,-400000.0625,-400000.0625,-400000.0625,-400000.0625,-400000.0625
61.78166604042053,-400000.0625,-400000.0625,-400000.0625,-400000.0625,-400000.0625,-400000.0625,-400000.0625,-400000.0625
61.78765630722046,-400000.0625,-400000.0625,-400000.0625,-400000.0625,-400000.0625,-400000.0625,-400000.0625,-400000.0625
61.79411005973816,-400000.0625,-400000.0625,-400000.0625,-400000.0625,-400000.0625,-400000.0625,-400000.0625,-400000.0625
61.80127668380737,-400000.0625,-400000.0625,-400000.0625,-400000.0625,-400000.0625,-400000.0625,-400000.0625,-400000.0625
61.80669283866882,-400000.0625,-394535.4375,-400000.0625,-400000.0625,-400000.0625,-400000.0625,-400000.0625,-400000.0625
61.8128604888916,-400000.0625,-400000.0625,-400000.0625,-400000.0625,-400000.0625,-400000.0625,-400000.0625,-400000.0625
61.819132566452026,-400000.0625,-400000.0625,-400000.0625,-400000.0625,-400000.0625,-400000.0625,-400000.0625,-400000.0625
61.826194286346436,-400000.0625,-400000.0625,-400000.0625,-400000.0625,-400000.0625,-400000.0625,-400000.0625,-400000.0625
61.832314014434814,-400000.0625,-400000.0625,-400000.0625,-400000.0625,-400000.0625,-400000.0625,-400000.0625,-400000.0625
61.837698459625244,-400000.0625,-398702.8125,-400000.0625,-400000.0625,-400000.0625,-400000.0625,-400000.0625,-400000.0625
61.843082427978516,-400000.0625,-400000.0625,-400000.0625,-400000.0625,-400000.0625,-400000.0625,-400000.0625,-400000.0625
61.8490788936615,-400000.0625,-400000.0625,-400000.0625,-400000.0625,-400000.0625,-400000.0625,-400000.0625,-400000.0625
61.855989933013916,-400000.0625,-400000.0625,-400000.0625,-400000.0625,-400000.0625,-400000.0625,-400000.0625,-400000.0625
61.86126518249512,-400000.0625,-400000.0625,-400000.0625,-400000.0625,-400000.0625,-400000.0625,-400000.0625,-400000.0625
61.868749141693115,-400000.0625,-400000.0625,-400000.0625,-400000.0625,-400000.0625,-400000.0625,-400000.0625,-400000.0625
61.88037633895874,-400000.0625,-400000.0625,-400000.0625,-400000.0625,-400000.0625,-400000.0625,-400000.0625,-400000.0625
61.88594961166382,-400000.0625,-400000.0625,-400000.0625,-400000.0625,-400000.0625,-400000.0625,-400000.0625,-400000.0625
61.89224576950073,-400000.0625,-400000.0625,-400000.0625,-400000.0625,-400000.0625,-400000.0625,-400000.0625,-400000.0625
61.89840865135193,-400000.0625,-400000.0625,-400000.0625,-400000.0625,-400000.0625,-400000.0625,-400000.0625,-400000.0625
61.90452480316162,-400000.0625,-400000.0625,-400000.0625,-400000.0625,-400000.0625,-400000.0625,-400000.0625,-400000.0625
61.90973424911499,-400000.0625,-400000.0625,-400000.0625,-400000.0625,-400000.0625,-400000.0625,-400000.0625,-400000.0625
61.91768503189087,-400000.0625,-400000.0625,-400000.0625,-400000.0625,-400000.0625,-400000.0625,-400000.0625,-400000.0625
61.92313480377197,-400000.0625,-400000.0625,-400000.0625,-400000.0625,-400000.0625,-400000.0625,-400000.0625,-400000.0625
61.928468227386475,-400000.0625,-400000.0625,-400000.0625,-400000.0625,-400000.0625,-400000.0625,-400000.0625,-400000.0625
61.93605828285217,-400000.0625,-400000.0625,-400000.0625,-400000.0625,-400000.0625,-400000.0625,-400000.0625,-400000.0625
61.94225525856018,-400000.0625,-400000.0625,-400000.0625,-400000.0625,-400000.0625,-400000.0625,-400000.0625,-400000.0625
61.94898962974548,-400000.0625,-400000.0625,-400000.0625,-400000.0625,-400000.0625,-400000.0625,-400000.0625,-400000.0625
61.95488095283508,-400000.0625,-400000.0625,-400000.0625,-400000.0625,-400000.0625,-400000.0625,-400000.0625,-400000.0625
61.96093273162842,-400000.0625,-400000.0625,-400000.0625,-400000.0625,-400000.0625,-400000.0625,-400000.0625,-400000.0625
61.96904420852661,-400000.0625,-400000.0625,-400000.0625,-400000.0625,-400000.0625,-400000.0625,-400000.0625,-400000.0625
61.98129987716675,-400000.0625,-400000.0625,-400000.0625,-400000.0625,-400000.0625,-400000.0625,-400000.0625,-400000.0625
61.98651075363159,-400000.0625,-400000.0625,-400000.0625,-400000.0625,-400000.0625,-400000.0625,-400000.0625,-400000.0625
61.99238300323486,-400000.0625,-400000.0625,-400000.0625,-400000.0625,-400000.0625,-400000.0625,-400000.0625,-400000.0625
62.00072145462036,-400000.0625,-400000.0625,-400000.0625,-400000.0625,-400000.0625,-400000.0625,-400000.0625,-400000.0625
62.00725841522217,-400000.0625,-400000.0625,-400000.0625,-400000.0625,-400000.0625,-400000.0625,-400000.0625,-400000.0625
62.01523017883301,-400000.0625,-400000.0625,-400000.0625,-400000.0625,-400000.0625,-400000.0625,-400000.0625,-400000.0625
62.02183175086975,-400000.0625,-400000.0625,-400000.0625,-400000.0625,-400000.0625,-400000.0625,-400000.0625,-400000.0625
62.02706718444824,-400000.0625,-400000.0625,-400000.0625,-400000.0625,-400000.0625,-400000.0625,-400000.0625,-400000.0625
62.03534960746765,-400000.0625,-400000.0625,-400000.0625,-400000.0625,-400000.0625,-400000.0625,-400000.0625,-400000.0625
62.04158973693848,-400000.0625,-400000.0625,-400000.0625,-400000.0625,-400000.0625,-400000.0625,-400000.0625,-400000.0625
62.04773831367493,-400000.0625,-400000.0625,-400000.0625,-400000.0625,-400000.0625,-400000.0625,-400000.0625,-400000.0625
62.05346655845642,-400000.0625,-400000.0625,-400000.0625,-400000.0625,-400000.0625,-400000.0625,-400000.0625,-400000.0625
62.058788776397705,-400000.0625,-400000.0625,-400000.0625,-400000.0625,-400000.0625,-400000.0625,-400000.0625,-400000.0625
62.06522083282471,-400000.0625,-400000.0625,-400000.0625,-400000.0625,-400000.0625,-400000.0625,-400000.0625,-400000.0625
62.0713586807251,-400000.0625,-400000.0625,-400000.0625,-400000.0625,-400000.0625,-400000.0625,-400000.0625,-400000.0625
62.08266806602478,-400000.0625,-400000.0625,-400000.0625,-400000.0625,-400000.0625,-400000.0625,-400000.0625,-400000.0625
62.08859300613403,-400000.0625,-400000.0625,-400000.0625,-400000.0625,-400000.0625,-400000.0625,-400000.0625,-400000.0625
62.09401559829712,-400000.0625,-400000.0625,-400000.0625,-400000.0625,-400000.0625,-400000.0625,-400000.0625,-400000.0625
62.10164952278137,-400000.0625,-400000.0625,-400000.0625,-400000.0625,-400000.0625,-400000.0625,-400000.0625,-400000.0625
62.107550382614136,-400000.0625,-400000.0625,-400000.0625,-400000.0625,-400000.0625,-400000.0625,-400000.0625,-400000.0625
62.114272356033325,-400000.0625,-400000.0625,-400000.0625,-400000.0625,-400000.0625,-400000.0625,-400000.0625,-400000.0625
62.1202757358551,-400000.0625,-400000.0625,-400000.0625,-400000.0625,-400000.0625,-400000.0625,-400000.0625,-400000.0625
62.125564098358154,-400000.0625,-400000.0625,-400000.0625,-400000.0625,-400000.0625,-400000.0625,-400000.0625,-400000.0625
62.132291316986084,-400000.0625,-400000.0625,-400000.0625,-400000.0625,-400000.0625,-400000.0625,-400000.0625,-400000.0625
62.139169216156006,-400000.0625,-400000.0625,-400000.0625,-400000.0625,-400000.0625,-400000.0625,-400000.0625,-400000.0625
62.14467477798462,-400000.0625,-400000.0625,-400000.0625,-400000.0625,-400000.0625,-400000.0625,-400000.0625,-400000.0625
62.14980959892273,-400000.0625,-400000.0625,-400000.0625,-400000.0625,-400000.0625,-400000.0625,-400000.0625,-400000.0625
62.15490961074829,-400000.0625,-400000.0625,-400000.0625,-400000.0625,-400000.0625,-400000.0625,-400000.0625,-400000.0625
62.160022497177124,-400000.0625,-400000.0625,-400000.0625,-400000.0625,-400000.0625,-400000.0625,-400000.0625,-400000.0625
62.1667697429657,-400000.0625,-400000.0625,-400000.0625,-400000.0625,-400000.0625,-400000.0625,-400000.0625,-400000.0625
62.172685623168945,-400000.0625,-400000.0625,-400000.0625,-400000.0625,-400000.0625,-400000.0625,-400000.0625,-400000.0625
62.182355880737305,-400000.0625,-400000.0625,-400000.0625,-400000.0625,-400000.0625,-400000.0625,-400000.0625,-400000.0625
62.18750834465027,-400000.0625,-400000.0625,-400000.0625,-400000.0625,-400000.0625,-400000.0625,-400000.0625,-400000.0625
62.192739486694336,-400000.0625,-400000.0625,-400000.0625,-400000.0625,-400000.0625,-400000.0625,-400000.0625,-400000.0625
62.201035261154175,-400000.0625,-400000.0625,-400000.0625,-400000.0625,-400000.0625,-400000.0625,-400000.0625,-400000.0625
62.20689392089844,-400000.0625,-400000.0625,-400000.0625,-400000.0625,-400000.0625,-400000.0625,-400000.0625,-400000.0625
62.21412515640259,-400000.0625,-400000.0625,-400000.0625,-400000.0625,-400000.0625,-400000.0625,-400000.0625,-400000.0625
62.21989154815674,-400000.0625,-400000.0625,-400000.0625,-400000.0625,-400000.0625,-400000.0625,-400000.0625,-400000.0625
62.225661277770996,-400000.0625,-400000.0625,-400000.0625,-400000.0625,-400000.0625,-400000.0625,-400000.0625,-400000.0625
62.23246479034424,-400000.0625,-400000.0625,-400000.0625,-400000.0625,-400000.0625,-400000.0625,-400000.0625,-400000.0625
62.240081787109375,-400000.0625,-400000.0625,-400000.0625,-400000.0625,-400000.0625,-400000.0625,-400000.0625,-400000.0625
62.24553632736206,-400000.0625,-400000.0625,-400000.0625,-400000.0625,-400000.0625,-400000.0625,-400000.0625,-400000.0625
62.251230239868164,-400000.0625,-400000.0625,-400000.0625,-400000.0625,-400000.0625,-400000.0625,-400000.0625,-400000.0625
62.256362199783325,-400000.0625,-400000.0625,-400000.0625,-400000.0625,-400000.0625,-400000.0625,-400000.0625,-400000.0625
62.26290464401245,-400000.0625,-400000.0625,-400000.0625,-400000.0625,-400000.0625,-400000.0625,-400000.0625,-400000.0625
62.2704017162323,-400000.0625,-400000.0625,-400000.0625,-400000.0625,-400000.0625,-400000.0625,-400000.0625,-400000.0625
62.2760443687439,-400000.0625,-400000.0625,-400000.0625,-400000.0625,-400000.0625,-400000.0625,-400000.0625,-400000.0625
62.28772759437561,-400000.0625,-400000.0625,-400000.0625,-400000.0625,-400000.0625,-400000.0625,-400000.0625,-400000.0625
62.293590784072876,-400000.0625,-400000.0625,-400000.0625,-400000.0625,-400000.0625,-400000.0625,-400000.0625,-400000.0625
62.299859285354614,-400000.0625,-400000.0625,-400000.0625,-400000.0625,-400000.0625,-400000.0625,-400000.0625,-400000.0625
62.30663824081421,-400000.0625,-400000.0625,-400000.0625,-400000.0625,-400000.0625,-400000.0625,-400000.0625,-400000.0625
62.31284523010254,-400000.0625,-400000.0625,-400000.0625,-400000.0625,-400000.0625,-400000.0625,-400000.0625,-400000.0625
62.3195161819458,-400000.0625,-400000.0625,-400000.0625,-400000.0625,-400000.0625,-400000.0625,-400000.0625,-400000.0625
62.325172662734985,-400000.0625,-400000.0625,-400000.0625,-400000.0625,-400000.0625,-400000.0625,-400000.0625,-400000.0625
62.33241868019104,-400000.0625,-400000.0625,-400000.0625,-400000.0625,-400000.0625,-400000.0625,-400000.0625,-400000.0625
62.338939905166626,-400000.0625,-400000.0625,-400000.0625,-400000.0625,-400000.0625,-400000.0625,-400000.0625,-400000.0625
62.34424662590027,-400000.0625,-400000.0625,-400000.0625,-400000.0625,-400000.0625,-400000.0625,-400000.0625,-400000.0625
62.35109996795654,-400000.0625,-400000.0625,-400000.0625,-400000.0625,-400000.0625,-400000.0625,-400000.0625,-400000.0625
62.356809854507446,-400000.0625,-400000.0625,-400000.0625,-400000.0625,-400000.0625,-400000.0625,-400000.0625,-400000.0625
62.36178469657898,-400000.0625,-400000.0625,-400000.0625,-400000.0625,-400000.0625,-400000.0625,-400000.0625,-400000.0625
62.3617959022522,-400000.0625,-400000.0625,-400000.0625,-400000.0625,-400000.0625,-400000.0625,-400000.0625,-400000.0625
62.36180090904236,-400000.0625,-400000.0625,-400000.0625,-400000.0625,-400000.0625,-400000.0625,-400000.0625,-400000.0625
62.36180591583252,-400000.0625,-400000.0625,-400000.0625,-400000.0625,-400000.0625,-400000.0625,-400000.0625,-400000.0625
62.362313985824585,-400000.0625,-400000.0625,-400000.0625,-400000.0625,-400000.0625,-400000.0625,-400000.0625,-400000.0625
62.36836266517639,-400000.0625,-400000.0625,-400000.0625,-400000.0625,-400000.0625,-400000.0625,-400000.0625,-400000.0625
62.37400197982788,-400000.0625,-400000.0625,-400000.0625,-400000.0625,-400000.0625,-400000.0625,-400000.0625,-400000.0625
62.380709409713745,-400000.0625,-400000.0625,-400000.0625,-400000.0625,-400000.0625,-400000.0625,-400000.0625,-400000.0625
62.39765119552612,-400000.0625,-400000.0625,-400000.0625,-400000.0625,-400000.0625,-400000.0625,-400000.0625,-400000.0625
62.40405321121216,-400000.0625,-400000.0625,-400000.0625,-400000.0625,-400000.0625,-400000.0625,-400000.0625,-400000.0625
62.40976309776306,-400000.0625,-400000.0625,-400000.0625,-400000.0625,-400000.0625,-400000.0625,-400000.0625,-400000.0625
62.417203187942505,-400000.0625,-400000.0625,-400000.0625,-400000.0625,-400000.0625,-400000.0625,-400000.0625,-400000.0625
62.423258781433105,-400000.0625,-400000.0625,-400000.0625,-400000.0625,-400000.0625,-400000.0625,-400000.0625,-400000.0625
62.42916560173035,-400000.0625,-400000.0625,-400000.0625,-400000.0625,-400000.0625,-400000.0625,-400000.0625,-400000.0625
62.434669971466064,-400000.0625,-400000.0625,-400000.0625,-400000.0625,-400000.0625,-400000.0625,-400000.0625,-400000.0625
62.43988752365112,-400000.0625,-400000.0625,-400000.0625,-400000.0625,-400000.0625,-400000.0625,-400000.0625,-400000.0625
62.444961071014404,-400000.0625,-400000.0625,-400000.0625,-400000.0625,-400000.0625,-400000.0625,-400000.0625,-400000.0625
62.45002770423889,-400000.0625,-400000.0625,-400000.0625,-400000.0625,-400000.0625,-400000.0625,-400000.0625,-400000.0625
62.45512270927429,-400000.0625,-400000.0625,-400000.0625,-400000.0625,-400000.0625,-400000.0625,-400000.0625,-400000.0625
62.460245847702026,-400000.0625,-400000.0625,-400000.0625,-400000.0625,-400000.0625,-400000.0625,-400000.0625,-400000.0625
62.46822905540466,-400000.0625,-400000.0625,-400000.0625,-400000.0625,-400000.0625,-400000.0625,-400000.0625,-400000.0625
62.474552631378174,-400000.0625,-400000.0625,-400000.0625,-400000.0625,-400000.0625,-400000.0625,-400000.0625,-400000.0625
62.48013663291931,-400000.0625,-400000.0625,-400000.0625,-400000.0625,-400000.0625,-400000.0625,-400000.0625,-400000.0625
62.48559069633484,-400000.0625,-400000.0625,-400000.0625,-400000.0625,-400000.0625,-400000.0625,-400000.0625,-400000.0625
62.49757528305054,-400000.0625,-400000.0625,-400000.0625,-400000.0625,-400000.0625,-400000.0625,-400000.0625,-400000.0625
62.504395723342896,-400000.0625,-400000.0625,-400000.0625,-400000.0625,-400000.0625,-400000.0625,-400000.0625,-400000.0625
62.5105504989624,-400000.0625,-400000.0625,-400000.0625,-400000.0625,-400000.0625,-400000.0625,-400000.0625,-400000.0625
62.519086599349976,-400000.0625,-400000.0625,-400000.0625,-400000.0625,-400000.0625,-400000.0625,-400000.0625,-400000.0625
62.52519512176514,-400000.0625,-400000.0625,-400000.0625,-400000.0625,-400000.0625,-400000.0625,-400000.0625,-400000.0625
62.531187772750854,-400000.0625,-400000.0625,-400000.0625,-400000.0625,-400000.0625,-400000.0625,-400000.0625,-400000.0625
62.53642296791077,-400000.0625,-400000.0625,-400000.0625,-400000.0625,-400000.0625,-400000.0625,-400000.0625,-400000.0625
62.541609048843384,-400000.0625,-400000.0625,-400000.0625,-400000.0625,-400000.0625,-400000.0625,-400000.0625,-400000.0625
62.54786038398743,-400000.0625,-400000.0625,-400000.0625,-400000.0625,-400000.0625,-400000.0625,-400000.0625,-400000.0625
62.55361533164978,-400000.0625,-400000.0625,-400000.0625,-400000.0625,-400000.0625,-400000.0625,-400000.0625,-400000.0625
62.5588436126709,-400000.0625,-400000.0625,-400000.0625,-400000.0625,-400000.0625,-400000.0625,-400000.0625,-400000.0625
62.56551456451416,-400000.0625,-400000.0625,-400000.0625,-400000.0625,-400000.0625,-400000.0625,-400000.0625,-400000.0625
62.572229623794556,-400000.0625,-400000.0625,-400000.0625,-400000.0625,-400000.0625,-400000.0625,-400000.0625,-400000.0625
62.578545331954956,-400000.0625,-400000.0625,-400000.0625,-400000.0625,-400000.0625,-400000.0625,-400000.0625,-400000.0625
62.58561706542969,-400000.0625,-400000.0625,-400000.0625,-400000.0625,-400000.0625,-400000.0625,-400000.0625,-400000.0625
62.5956027507782,-400000.0625,-400000.0625,-400000.0625,-400000.0625,-400000.0625,-400000.0625,-400000.0625,-400000.0625
62.602922439575195,-400000.0625,-400000.0625,-400000.0625,-400000.0625,-400000.0625,-400000.0625,-400000.0625,-400000.0625
62.60853934288025,-400000.0625,-400000.0625,-400000.0625,-400000.0625,-400000.0625,-400000.0625,-400000.0625,-400000.0625
62.615503549575806,-400000.0625,-400000.0625,-400000.0625,-400000.0625,-400000.0625,-400000.0625,-400000.0625,-400000.0625
62.6209032535553,-400000.0625,-400000.0625,-400000.0625,-400000.0625,-400000.0625,-400000.0625,-400000.0625,-400000.0625
62.626299142837524,-400000.0625,-400000.0625,-400000.0625,-400000.0625,-400000.0625,-400000.0625,-400000.0625,-400000.0625
62.6327588558197,-400000.0625,-400000.0625,-400000.0625,-400000.0625,-400000.0625,-400000.0625,-400000.0625,-400000.0625
62.63896346092224,-400000.0625,-400000.0625,-400000.0625,-400000.0625,-400000.0625,-400000.0625,-400000.0625,-400000.0625
62.64428210258484,-400000.0625,-400000.0625,-400000.0625,-400000.0625,-400000.0625,-400000.0625,-400000.0625,-400000.0625
62.64938282966614,-400000.0625,-400000.0625,-400000.0625,-400000.0625,-400000.0625,-400000.0625,-400000.0625,-400000.0625
62.65476155281067,-400000.0625,-400000.0625,-400000.0625,-400000.0625,-400000.0625,-400000.0625,-400000.0625,-400000.0625
62.6599862575531,-400000.0625,-400000.0625,-400000.0625,-400000.0625,-400000.0625,-400000.0625,-400000.0625,-400000.0625
62.66715741157532,-400000.0625,-400000.0625,-400000.0625,-400000.0625,-400000.0625,-400000.0625,-400000.0625,-400000.0625
62.673192739486694,-400000.0625,-400000.0625,-400000.0625,-400000.0625,-400000.0625,-400000.0625,-400000.0625,-400000.0625
62.67901420593262,-400000.0625,-400000.0625,-400000.0625,-400000.0625,-400000.0625,-400000.0625,-400000.0625,-400000.0625
62.68693494796753,-400000.0625,-400000.0625,-400000.0625,-400000.0625,-400000.0625,-400000.0625,-400000.0625,-400000.0625
62.70024561882019,-400000.0625,-400000.0625,-400000.0625,-400000.0625,-400000.0625,-400000.0625,-400000.0625,-400000.0625
62.70662069320679,-400000.0625,-400000.0625,-400000.0625,-400000.0625,-400000.0625,-400000.0625,-400000.0625,-400000.0625
62.71375751495361,-400000.0625,-400000.0625,-400000.0625,-400000.0625,-400000.0625,-400000.0625,-400000.0625,-400000.0625
62.71995973587036,-400000.0625,-400000.0625,-400000.0625,-400000.0625,-400000.0625,-400000.0625,-400000.0625,-400000.0625
62.725425481796265,-400000.0625,-400000.0625,-400000.0625,-400000.0625,-400000.0625,-400000.0625,-400000.0625,-400000.0625
62.73303413391113,-400000.0625,-400000.0625,-400000.0625,-400000.0625,-400000.0625,-400000.0625,-400000.0625,-400000.0625
62.74023485183716,-400000.0625,-400000.0625,-400000.0625,-400000.0625,-400000.0625,-400000.0625,-400000.0625,-400000.0625
62.74667191505432,-400000.0625,-400000.0625,-400000.0625,-400000.0625,-400000.0625,-400000.0625,-400000.0625,-400000.0625
62.75235915184021,-400000.0625,-400000.0625,-400000.0625,-400000.0625,-400000.0625,-400000.0625,-400000.0625,-400000.0625
62.75758457183838,-400000.0625,-400000.0625,-400000.0625,-400000.0625,-400000.0625,-400000.0625,-400000.0625,-400000.0625
62.76303720474243,-400000.0625,-400000.0625,-400000.0625,-400000.0625,-400000.0625,-400000.0625,-400000.0625,-400000.0625
62.772167921066284,-400000.0625,-400000.0625,-400000.0625,-400000.0625,-400000.0625,-400000.0625,-400000.0625,-400000.0625
62.77760338783264,-400000.0625,-400000.0625,-400000.0625,-400000.0625,-400000.0625,-400000.0625,-400000.0625,-400000.0625
62.785534381866455,-400000.0625,-400000.0625,-400000.0625,-400000.0625,-400000.0625,-400000.0625,-400000.0625,-400000.0625
62.791444540023804,-400000.0625,-400000.0625,-400000.0625,-400000.0625,-400000.0625,-400000.0625,-400000.0625,-400000.0625
62.80436968803406,-400000.0625,-400000.0625,-400000.0625,-400000.0625,-400000.0625,-400000.0625,-400000.0625,-400000.0625
62.80995535850525,-400000.0625,-400000.0625,-400000.0625,-400000.0625,-400000.0625,-400000.0625,-400000.0625,-400000.0625
62.81587743759155,-400000.0625,-400000.0625,-400000.0625,-400000.0625,-400000.0625,-400000.0625,-400000.0625,-400000.0625
62.82173037528992,-400000.0625,-400000.0625,-400000.0625,-400000.0625,-400000.0625,-400000.0625,-400000.0625,-400000.0625
62.82704830169678,-400000.0625,-400000.0625,-400000.0625,-400000.0625,-400000.0625,-400000.0625,-400000.0625,-400000.0625
62.83561420440674,-400000.0625,-400000.0625,-400000.0625,-400000.0625,-400000.0625,-400000.0625,-400000.0625,-400000.0625
62.841569900512695,-400000.0625,-400000.0625,-400000.0625,-400000.0625,-400000.0625,-400000.0625,-400000.0625,-400000.0625
62.8467071056366,-400000.0625,-400000.0625,-400000.0625,-400000.0625,-400000.0625,-400000.0625,-400000.0625,-400000.0625
62.85269284248352,-400000.0625,-400000.0625,-400000.0625,-400000.0625,-400000.0625,-400000.0625,-400000.0625,-400000.0625
62.85794687271118,-400000.0625,-400000.0625,-400000.0625,-400000.0625,-400000.0625,-400000.0625,-400000.0625,-400000.0625
62.86494541168213,-400000.0625,-400000.0625,-400000.0625,-400000.0625,-400000.0625,-400000.0625,-400000.0625,-400000.0625
62.87247943878174,-400000.0625,-400000.0625,-400000.0625,-400000.0625,-400000.0625,-400000.0625,-400000.0625,-400000.0625
62.87858486175537,-400000.0625,-400000.0625,-400000.0625,-400000.0625,-400000.0625,-400000.0625,-400000.0625,-400000.0625
62.885931968688965,-400000.0625,-400000.0625,-400000.0625,-400000.0625,-400000.0625,-400000.0625,-400000.0625,-400000.0625
62.89131307601929,-400000.0625,-400000.0625,-400000.0625,-400000.0625,-400000.0625,-400000.0625,-400000.0625,-400000.0625
62.89646339416504,-400000.0625,-400000.0625,-400000.0625,-400000.0625,-400000.0625,-400000.0625,-400000.0625,-400000.0625
62.9059944152832,-400000.0625,-400000.0625,-400000.0625,-400000.0625,-400000.0625,-400000.0625,-400000.0625,-400000.0625
62.9120306968689,-400000.0625,-400000.0625,-400000.0625,-400000.0625,-400000.0625,-400000.0625,-400000.0625,-400000.0625
62.91927433013916,-400000.0625,-400000.0625,-400000.0625,-400000.0625,-400000.0625,-400000.0625,-400000.0625,-400000.0625
62.9248902797699,-400000.0625,-400000.0625,-400000.0625,-400000.0625,-400000.0625,-400000.0625,-400000.0625,-400000.0625
62.931007862091064,-400000.0625,-400000.0625,-400000.0625,-400000.0625,-400000.0625,-400000.0625,-400000.0625,-400000.0625
62.93634867668152,-400000.0625,-400000.0625,-400000.0625,-400000.0625,-400000.0625,-400000.0625,-400000.0625,-400000.0625
62.94186806678772,-400000.0625,-400000.0625,-400000.0625,-400000.0625,-400000.0625,-400000.0625,-400000.0625,-400000.0625
62.94866633415222,-400000.0625,-400000.0625,-400000.0625,-400000.0625,-400000.0625,-400000.0625,-400000.0625,-400000.0625
62.95584011077881,-400000.0625,-400000.0625,-400000.0625,-400000.0625,-400000.0625,-400000.0625,-400000.0625,-400000.0625
62.9620840549469,-400000.0625,-400000.0625,-400000.0625,-400000.0625,-400000.0625,-400000.0625,-400000.0625,-400000.0625
62.97004413604736,-400000.0625,-400000.0625,-400000.0625,-400000.0625,-400000.0625,-400000.0625,-400000.0625,-400000.0625
62.97553777694702,-400000.0625,-400000.0625,-400000.0625,-400000.0625,-400000.0625,-400000.0625,-400000.0625,-400000.0625
62.982417583465576,-400000.0625,-400000.0625,-400000.0625,-400000.0625,-400000.0625,-400000.0625,-400000.0625,-400000.0625
62.99042320251465,-400000.0625,-400000.0625,-400000.0625,-400000.0625,-400000.0625,-400000.0625,-400000.0625,-400000.0625
62.99571490287781,-400000.0625,-400000.0625,-400000.0625,-400000.0625,-400000.0625,-400000.0625,-400000.0625,-400000.0625
63.00147080421448,-400000.0625,-400000.0625,-400000.0625,-400000.0625,-400000.0625,-400000.0625,-400000.0625,-400000.0625
63.012941122055054,-400000.0625,-400000.0625,-400000.0625,-400000.0625,-400000.0625,-400000.0625,-400000.0625,-400000.0625
63.01932692527771,-400000.0625,-400000.0625,-400000.0625,-400000.0625,-400000.0625,-400000.0625,-400000.0625,-400000.0625
63.026496171951294,-400000.0625,-400000.0625,-400000.0625,-400000.0625,-400000.0625,-400000.0625,-400000.0625,-400000.0625
63.03322076797485,-400000.0625,-400000.0625,-400000.0625,-400000.0625,-400000.0625,-400000.0625,-400000.0625,-400000.0625
63.0383939743042,-400000.0625,-400000.0625,-400000.0625,-400000.0625,-400000.0625,-400000.0625,-400000.0625,-400000.0625
63.04394268989563,-400000.0625,-400000.0625,-400000.0625,-400000.0625,-400000.0625,-400000.0625,-400000.0625,-400000.0625
63.050413608551025,-400000.0625,-400000.0625,-400000.0625,-400000.0625,-400000.0625,-400000.0625,-400000.0625,-400000.0625
63.05682563781738,-400000.0625,-400000.0625,-400000.0625,-400000.0625,-400000.0625,-400000.0625,-400000.0625,-400000.0625
63.063220500946045,-400000.0625,-400000.0625,-400000.0625,-400000.0625,-400000.0625,-400000.0625,-400000.0625,-400000.0625
63.06927132606506,-400000.0625,-400000.0625,-400000.0625,-400000.0625,-400000.0625,-400000.0625,-400000.0625,-400000.0625
63.07524299621582,-400000.0625,-400000.0625,-400000.0625,-400000.0625,-400000.0625,-400000.0625,-400000.0625,-400000.0625
63.08246302604675,-400000.0625,-400000.0625,-400000.0625,-400000.0625,-400000.0625,-400000.0625,-400000.0625,-400000.0625
63.08899927139282,-400000.0625,-400000.0625,-400000.0625,-400000.0625,-400000.0625,-400000.0625,-400000.0625,-400000.0625
63.09467005729675,-400000.0625,-400000.0625,-400000.0625,-400000.0625,-400000.0625,-400000.0625,-400000.0625,-400000.0625
63.102158308029175,-400000.0625,-400000.0625,-400000.0625,-400000.0625,-400000.0625,-400000.0625,-400000.0625,-400000.0625
63.113431453704834,-400000.0625,-400000.0625,-400000.0625,-400000.0625,-400000.0625,-400000.0625,-400000.0625,-400000.0625
63.11908316612244,-400000.0625,-400000.0625,-400000.0625,-400000.0625,-400000.0625,-400000.0625,-400000.0625,-400000.0625
63.126036405563354,-400000.0625,-400000.0625,-400000.0625,-400000.0625,-400000.0625,-400000.0625,-400000.0625,-400000.0625
63.13199210166931,-400000.0625,-400000.0625,-400000.0625,-400000.0625,-400000.0625,-400000.0625,-400000.0625,-400000.0625
63.13722467422485,-400000.0625,-400000.0625,-400000.0625,-400000.0625,-400000.0625,-400000.0625,-400000.0625,-400000.0625
63.142951011657715,-400000.0625,-400000.0625,-400000.0625,-400000.0625,-400000.0625,-400000.0625,-400000.0625,-400000.0625
63.148898124694824,-400000.0625,-400000.0625,-400000.0625,-400000.0625,-400000.0625,-400000.0625,-400000.0625,-400000.0625
63.155855894088745,-400000.0625,-400000.0625,-400000.0625,-400000.0625,-400000.0625,-400000.0625,-400000.0625,-400000.0625
63.161824464797974,-400000.0625,-400000.0625,-400000.0625,-400000.0625,-400000.0625,-400000.0625,-400000.0625,-400000.0625
63.16733932495117,-400000.0625,-400000.0625,-400000.0625,-400000.0625,-400000.0625,-400000.0625,-400000.0625,-400000.0625
63.173914432525635,-400000.0625,-400000.0625,-400000.0625,-400000.0625,-400000.0625,-400000.0625,-400000.0625,-400000.0625
63.18001580238342,-400000.0625,-400000.0625,-400000.0625,-400000.0625,-400000.0625,-400000.0625,-400000.0625,-400000.0625
63.18669891357422,-400000.0625,-400000.0625,-400000.0625,-400000.0625,-400000.0625,-400000.0625,-400000.0625,-400000.0625
63.19213128089905,-400000.0625,-400000.0625,-400000.0625,-400000.0625,-400000.0625,-400000.0625,-400000.0625,-400000.0625
63.19928288459778,-400000.0625,-400000.0625,-400000.0625,-400000.0625,-400000.0625,-400000.0625,-400000.0625,-400000.0625
63.205729961395264,-400000.0625,-400000.0625,-400000.0625,-400000.0625,-400000.0625,-400000.0625,-400000.0625,-400000.0625
63.2196044921875,-400000.0625,-400000.0625,-400000.0625,-400000.0625,-400000.0625,-400000.0625,-400000.0625,-400000.0625
63.224801778793335,-400000.0625,-400000.0625,-400000.0625,-400000.0625,-400000.0625,-400000.0625,-400000.0625,-400000.0625
63.229732513427734,-400000.0625,-400000.0625,-400000.0625,-400000.0625,-400000.0625,-400000.0625,-400000.0625,-400000.0625
63.2297420501709,-400000.0625,-400000.0625,-400000.0625,-400000.0625,-400000.0625,-400000.0625,-400000.0625,-400000.0625
63.22974634170532,-400000.0625,-400000.0625,-400000.0625,-400000.0625,-400000.0625,-400000.0625,-400000.0625,-400000.0625
63.22974991798401,-400000.0625,-400000.0625,-400000.0625,-400000.0625,-400000.0625,-400000.0625,-400000.0625,-400000.0625
63.22975397109985,-400000.0625,-400000.0625,-400000.0625,-400000.0625,-400000.0625,-400000.0625,-400000.0625,-400000.0625
63.22975754737854,-400000.0625,-400000.0625,-400000.0625,-400000.0625,-400000.0625,-400000.0625,-400000.0625,-400000.0625
63.22976112365723,-400000.0625,-400000.0625,-400000.0625,-400000.0625,-400000.0625,-400000.0625,-400000.0625,-400000.0625
63.229764461517334,-400000.0625,-400000.0625,-400000.0625,-400000.0625,-400000.0625,-400000.0625,-400000.0625,-400000.0625
63.22976803779602,-400000.0625,-400000.0625,-400000.0625,-400000.0625,-400000.0625,-400000.0625,-400000.0625,-400000.0625
63.22977137565613,-400000.0625,-400000.0625,-400000.0625,-400000.0625,-400000.0625,-400000.0625,-400000.0625,-400000.0625
63.229774951934814,-400000.0625,-400000.0625,-400000.0625,-400000.0625,-400000.0625,-400000.0625,-400000.0625,-400000.0625
63.2297785282135,-400000.0625,-400000.0625,-400000.0625,-400000.0625,-400000.0625,-400000.0625,-400000.0625,-400000.0625
63.22978186607361,-400000.0625,-400000.0625,-400000.0625,-400000.0625,-400000.0625,-400000.0625,-400000.0625,-400000.0625
63.229785680770874,-400000.0625,-400000.0625,-400000.0625,-400000.0625,-400000.0625,-400000.0625,-400000.0625,-400000.0625
63.22978925704956,-400000.0625,-400000.0625,-400000.0625,-400000.0625,-400000.0625,-400000.0625,-400000.0625,-400000.0625
63.22979259490967,-400000.0625,-400000.0625,-400000.0625,-400000.0625,-400000.0625,-400000.0625,-400000.0625,-400000.0625
63.229796409606934,-400000.0625,-400000.0625,-400000.0625,-400000.0625,-400000.0625,-400000.0625,-400000.0625,-400000.0625
63.2298002243042,-400000.0625,-400000.0625,-400000.0625,-400000.0625,-400000.0625,-400000.0625,-400000.0625,-400000.0625
63.229803800582886,-400000.0625,-400000.0625,-400000.0625,-400000.0625,-400000.0625,-400000.0625,-400000.0625,-400000.0625
63.22980737686157,-400000.0625,-400000.0625,-400000.0625,-400000.0625,-400000.0625,-400000.0625,-400000.0625,-400000.0625
63.234885931015015,-400000.0625,-400000.0625,-400000.0625,-400000.0625,-400000.0625,-400000.0625,-400000.0625,-400000.0625
63.23988604545593,-400000.0625,-400000.0625,-400000.0625,-400000.0625,-400000.0625,-400000.0625,-400000.0625,-400000.0625
63.24528646469116,-400000.0625,-400000.0625,-400000.0625,-400000.0625,-400000.0625,-400000.0625,-400000.0625,-400000.0625
63.25269103050232,-400000.0625,-400000.0625,-400000.0625,-400000.0625,-400000.0625,-400000.0625,-400000.0625,-400000.0625
63.25826287269592,-400000.0625,-400000.0625,-400000.0625,-400000.0625,-400000.0625,-400000.0625,-400000.0625,-400000.0625
63.26492166519165,-400000.0625,-400000.0625,-400000.0625,-400000.0625,-400000.0625,-400000.0625,-400000.0625,-400000.0625
63.27198791503906,-400000.0625,-400000.0625,-400000.0625,-400000.0625,-400000.0625,-400000.0625,-400000.0625,-400000.0625
63.27770209312439,-400000.0625,-400000.0625,-400000.0625,-400000.0625,-400000.0625,-400000.0625,-400000.0625,-400000.0625
63.28415775299072,-400000.0625,-400000.0625,-400000.0625,-400000.0625,-400000.0625,-400000.0625,-400000.0625,-400000.0625
63.28948378562927,-400000.0625,-400000.0625,-400000.0625,-400000.0625,-400000.0625,-400000.0625,-400000.0625,-400000.0625
63.29580092430115,-400000.0625,-400000.0625,-400000.0625,-400000.0625,-400000.0625,-400000.0625,-400000.0625,-400000.0625
63.303332567214966,-400000.0625,-400000.0625,-400000.0625,-400000.0625,-400000.0625,-400000.0625,-400000.0625,-400000.0625
63.30872368812561,-400000.0625,-400000.0625,-400000.0625,-400000.0625,-400000.0625,-400000.0625,-400000.0625,-400000.0625
63.320322036743164,-400000.0625,-400000.0625,-400000.0625,-400000.0625,-400000.0625,-400000.0625,-400000.0625,-400000.0625
63.32564735412598,-400000.0625,-400000.0625,-400000.0625,-400000.0625,-400000.0625,-400000.0625,-400000.0625,-400000.0625
63.333553314208984,-400000.0625,-400000.0625,-400000.0625,-400000.0625,-400000.0625,-400000.0625,-400000.0625,-400000.0625
63.33958148956299,-400000.0625,-400000.0625,-400000.0625,-400000.0625,-400000.0625,-400000.0625,-400000.0625,-400000.0625
63.34795427322388,-400000.0625,-400000.0625,-400000.0625,-400000.0625,-400000.0625,-400000.0625,-400000.0625,-400000.0625
63.35650300979614,-400000.0625,-400000.0625,-400000.0625,-400000.0625,-400000.0625,-400000.0625,-400000.0625,-400000.0625
63.36202263832092,-400000.0625,-400000.0625,-400000.0625,-400000.0625,-400000.0625,-400000.0625,-400000.0625,-400000.0625
63.369574546813965,-400000.0625,-400000.0625,-400000.0625,-400000.0625,-400000.0625,-400000.0625,-400000.0625,-400000.0625
63.375998973846436,-400000.0625,-400000.0625,-400000.0625,-400000.0625,-400000.0625,-400000.0625,-400000.0625,-400000.0625
63.38247323036194,-400000.0625,-400000.0625,-400000.0625,-400000.0625,-400000.0625,-400000.0625,-400000.0625,-400000.0625
63.38826322555542,-400000.0625,-400000.0625,-400000.0625,-400000.0625,-400000.0625,-400000.0625,-400000.0625,-400000.0625
63.39398503303528,-400000.0625,-400000.0625,-400000.0625,-400000.0625,-400000.0625,-400000.0625,-400000.0625,-400000.0625
63.40199875831604,-400000.0625,-400000.0625,-400000.0625,-400000.0625,-400000.0625,-400000.0625,-400000.0625,-400000.0625
63.407490253448486,-400000.0625,-400000.0625,-400000.0625,-400000.0625,-400000.0625,-400000.0625,-400000.0625,-400000.0625
63.41412138938904,-400000.0625,-400000.0625,-400000.0625,-400000.0625,-400000.0625,-400000.0625,-400000.0625,-400000.0625
63.42900562286377,-400000.0625,-400000.0625,-400000.0625,-400000.0625,-400000.0625,-400000.0625,-400000.0625,-400000.0625
63.43487334251404,-400000.0625,-400000.0625,-400000.0625,-400000.0625,-400000.0625,-400000.0625,-400000.0625,-400000.0625
63.44110941886902,-400000.0625,-400000.0625,-400000.0625,-400000.0625,-400000.0625,-400000.0625,-400000.0625,-400000.0625
63.446995973587036,-400000.0625,-400000.0625,-400000.0625,-400000.0625,-400000.0625,-400000.0625,-400000.0625,-400000.0625
63.45519781112671,-400000.0625,-400000.0625,-400000.0625,-400000.0625,-400000.0625,-400000.0625,-400000.0625,-400000.0625
63.46052074432373,-400000.0625,-400000.0625,-400000.0625,-400000.0625,-400000.0625,-400000.0625,-400000.0625,-400000.0625
63.466148138046265,-400000.0625,-400000.0625,-400000.0625,-400000.0625,-400000.0625,-400000.0625,-400000.0625,-400000.0625
63.471399545669556,-400000.0625,-400000.0625,-400000.0625,-400000.0625,-400000.0625,-400000.0625,-400000.0625,-400000.0625
63.476492404937744,-400000.0625,-400000.0625,-400000.0625,-400000.0625,-400000.0625,-400000.0625,-400000.0625,-400000.0625
63.48467564582825,-400000.0625,-400000.0625,-400000.0625,-400000.0625,-400000.0625,-400000.0625,-400000.0625,-400000.0625
63.490811824798584,-400000.0625,-400000.0625,-400000.0625,-400000.0625,-400000.0625,-400000.0625,-400000.0625,-400000.0625
63.49798011779785,-400000.0625,-400000.0625,-400000.0625,-400000.0625,-400000.0625,-400000.0625,-400000.0625,-400000.0625
63.50373435020447,-400000.0625,-400000.0625,-400000.0625,-400000.0625,-400000.0625,-400000.0625,-400000.0625,-400000.0625
63.50888800621033,-400000.0625,-400000.0625,-400000.0625,-400000.0625,-400000.0625,-400000.0625,-400000.0625,-400000.0625
63.51476335525513,-400000.0625,-400000.0625,-400000.0625,-400000.0625,-400000.0625,-400000.0625,-400000.0625,-400000.0625
63.526078939437866,-400000.0625,-400000.0625,-400000.0625,-400000.0625,-400000.0625,-400000.0625,-400000.0625,-400000.0625
63.53131365776062,-400000.0625,-400000.0625,-400000.0625,-400000.0625,-400000.0625,-400000.0625,-400000.0625,-400000.0625
63.536478996276855,-400000.0625,-400000.0625,-400000.0625,-400000.0625,-400000.0625,-400000.0625,-400000.0625,-400000.0625
63.54278254508972,-400000.0625,-400000.0625,-400000.0625,-400000.0625,-400000.0625,-400000.0625,-400000.0625,-400000.0625
63.55070185661316,-400000.0625,-400000.0625,-400000.0625,-400000.0625,-400000.0625,-400000.0625,-400000.0625,-400000.0625
63.55732727050781,-400000.0625,-400000.0625,-400000.0625,-400000.0625,-400000.0625,-400000.0625,-400000.0625,-400000.0625
63.56393790245056,-400000.0625,-400000.0625,-400000.0625,-400000.0625,-400000.0625,-400000.0625,-400000.0625,-400000.0625
63.57106423377991,-400000.0625,-400000.0625,-400000.0625,-400000.0625,-400000.0625,-400000.0625,-400000.0625,-400000.0625
63.578102588653564,-400000.0625,-400000.0625,-400000.0625,-400000.0625,-400000.0625,-400000.0625,-400000.0625,-400000.0625
63.583590269088745,-400000.0625,-400000.0625,-400000.0625,-400000.0625,-400000.0625,-400000.0625,-400000.0625,-400000.0625
63.58898591995239,-400000.0625,-400000.0625,-400000.0625,-400000.0625,-400000.0625,-400000.0625,-400000.0625,-400000.0625
63.59412097930908,-400000.0625,-400000.0625,-400000.0625,-400000.0625,-400000.0625,-400000.0625,-400000.0625,-400000.0625
63.60129451751709,-400000.0625,-400000.0625,-400000.0625,-400000.0625,-400000.0625,-400000.0625,-400000.0625,-400000.0625
63.60755801200867,-400000.0625,-400000.0625,-400000.0625,-400000.0625,-400000.0625,-400000.0625,-400000.0625,-400000.0625
63.61572194099426,-400000.0625,-400000.0625,-400000.0625,-400000.0625,-400000.0625,-400000.0625,-400000.0625,-400000.0625
63.62678027153015,-400000.0625,-400000.0625,-400000.0625,-400000.0625,-400000.0625,-400000.0625,-400000.0625,-400000.0625
63.63416886329651,-400000.0625,-400000.0625,-400000.0625,-400000.0625,-400000.0625,-400000.0625,-400000.0625,-400000.0625
63.640071392059326,-400000.0625,-400000.0625,-400000.0625,-400000.0625,-400000.0625,-400000.0625,-400000.0625,-400000.0625
63.64585781097412,-400000.0625,-400000.0625,-400000.0625,-400000.0625,-400000.0625,-400000.0625,-400000.0625,-400000.0625
63.65127682685852,-400000.0625,-400000.0625,-400000.0625,-400000.0625,-400000.0625,-400000.0625,-400000.0625,-400000.0625
63.656660079956055,-400000.0625,-400000.0625,-400000.0625,-400000.0625,-400000.0625,-400000.0625,-400000.0625,-400000.0625
63.663450479507446,-400000.0625,-400000.0625,-400000.0625,-400000.0625,-400000.0625,-400000.0625,-400000.0625,-400000.0625
63.671544551849365,-400000.0625,-400000.0625,-400000.0625,-400000.0625,-400000.0625,-400000.0625,-400000.0625,-400000.0625
63.67700481414795,-400000.0625,-400000.0625,-400000.0625,-400000.0625,-400000.0625,-400000.0625,-400000.0625,-400000.0625
63.68475294113159,-400000.0625,-400000.0625,-400000.0625,-400000.0625,-400000.0625,-400000.0625,-400000.0625,-400000.0625
63.690112829208374,-400000.0625,-400000.0625,-400000.0625,-400000.0625,-400000.0625,-400000.0625,-400000.0625,-400000.0625
63.69527626037598,-400000.0625,-400000.0625,-400000.0625,-400000.0625,-400000.0625,-400000.0625,-400000.0625,-400000.0625
63.70036554336548,-400000.0625,-400000.0625,-400000.0625,-400000.0625,-400000.0625,-400000.0625,-400000.0625,-400000.0625
63.705482959747314,-400000.0625,-400000.0625,-400000.0625,-400000.0625,-400000.0625,-400000.0625,-400000.0625,-400000.0625
63.71068716049194,-400000.0625,-400000.0625,-400000.0625,-400000.0625,-400000.0625,-400000.0625,-400000.0625,-400000.0625
63.71757912635803,-400000.0625,-400000.0625,-400000.0625,-400000.0625,-400000.0625,-400000.0625,-400000.0625,-400000.0625
63.72808289527893,-400000.0625,-400000.0625,-400000.0625,-400000.0625,-400000.0625,-400000.0625,-400000.0625,-400000.0625
63.73454213142395,-400000.0625,-400000.0625,-400000.0625,-400000.0625,-400000.0625,-400000.0625,-400000.0625,-400000.0625
63.740365982055664,-400000.0625,-400000.0625,-400000.0625,-400000.0625,-400000.0625,-400000.0625,-400000.0625,-400000.0625
63.74640607833862,-400000.0625,-400000.0625,-400000.0625,-400000.0625,-400000.0625,-400000.0625,-400000.0625,-400000.0625
63.75367259979248,-400000.0625,-400000.0625,-400000.0625,-400000.0625,-400000.0625,-400000.0625,-400000.0625,-400000.0625
63.75897717475891,-400000.0625,-400000.0625,-400000.0625,-400000.0625,-400000.0625,-400000.0625,-400000.0625,-400000.0625
63.765291690826416,-400000.0625,-400000.0625,-400000.0625,-400000.0625,-400000.0625,-400000.0625,-400000.0625,-400000.0625
63.77227520942688,-400000.0625,-400000.0625,-400000.0625,-400000.0625,-400000.0625,-400000.0625,-400000.0625,-400000.0625
63.77749490737915,-400000.0625,-400000.0625,-400000.0625,-400000.0625,-400000.0625,-400000.0625,-400000.0625,-400000.0625
63.7831244468689,-400000.0625,-400000.0625,-400000.0625,-400000.0625,-400000.0625,-400000.0625,-400000.0625,-400000.0625
63.78834533691406,-400000.0625,-400000.0625,-400000.0625,-400000.0625,-400000.0625,-400000.0625,-400000.0625,-400000.0625
63.79388380050659,-400000.0625,-400000.0625,-400000.0625,-400000.0625,-400000.0625,-400000.0625,-400000.0625,-400000.0625
63.801581382751465,-400000.0625,-400000.0625,-400000.0625,-400000.0625,-400000.0625,-400000.0625,-400000.0625,-400000.0625
63.80816888809204,-400000.0625,-400000.0625,-400000.0625,-400000.0625,-400000.0625,-400000.0625,-400000.0625,-400000.0625
63.814936876297,-400000.0625,-400000.0625,-400000.0625,-400000.0625,-400000.0625,-400000.0625,-400000.0625,-400000.0625
63.82132315635681,-400000.0625,-400000.0625,-400000.0625,-400000.0625,-400000.0625,-400000.0625,-400000.0625,-400000.0625
63.832727909088135,-400000.0625,-400000.0625,-400000.0625,-400000.0625,-400000.0625,-400000.0625,-400000.0625,-400000.0625
63.83894991874695,-400000.0625,-400000.0625,-400000.0625,-400000.0625,-400000.0625,-400000.0625,-400000.0625,-400000.0625
63.844945669174194,-400000.0625,-400000.0625,-400000.0625,-400000.0625,-400000.0625,-400000.0625,-400000.0625,-400000.0625
63.852611780166626,-400000.0625,-400000.0625,-400000.0625,-400000.0625,-400000.0625,-400000.0625,-400000.0625,-400000.0625
63.858532667160034,-400000.0625,-400000.0625,-400000.0625,-400000.0625,-400000.0625,-400000.0625,-400000.0625,-400000.0625
63.86650800704956,-400000.0625,-400000.0625,-400000.0625,-400000.0625,-400000.0625,-400000.0625,-400000.0625,-400000.0625
63.87315893173218,-400000.0625,-400000.0625,-400000.0625,-400000.0625,-400000.0625,-400000.0625,-400000.0625,-400000.0625
63.87890839576721,-400000.0625,-400000.0625,-400000.0625,-400000.0625,-400000.0625,-400000.0625,-400000.0625,-400000.0625
63.88629174232483,-400000.0625,-400000.0625,-400000.0625,-400000.0625,-400000.0625,-400000.0625,-400000.0625,-400000.0625
63.89178943634033,-400000.0625,-400000.0625,-400000.0625,-400000.0625,-400000.0625,-400000.0625,-400000.0625,-400000.0625
63.89696145057678,-400000.0625,-400000.0625,-400000.0625,-400000.0625,-400000.0625,-400000.0625,-400000.0625,-400000.0625
63.902050495147705,-400000.0625,-400000.0625,-400000.0625,-400000.0625,-400000.0625,-400000.0625,-400000.0625,-400000.0625
63.90758466720581,-400000.0625,-400000.0625,-400000.0625,-400000.0625,-400000.0625,-400000.0625,-400000.0625,-400000.0625
63.912949323654175,-400000.0625,-400000.0625,-400000.0625,-400000.0625,-400000.0625,-400000.0625,-400000.0625,-400000.0625
63.919320821762085,-400000.0625,-400000.0625,-400000.0625,-400000.0625,-400000.0625,-400000.0625,-400000.0625,-400000.0625
63.92480754852295,-400000.0625,-400000.0625,-400000.0625,-400000.0625,-400000.0625,-400000.0625,-400000.0625,-400000.0625
63.93633484840393,-400000.0625,-400000.0625,-400000.0625,-400000.0625,-400000.0625,-400000.0625,-400000.0625,-400000.0625
63.94240951538086,-400000.0625,-400000.0625,-400000.0625,-400000.0625,-400000.0625,-400000.0625,-400000.0625,-400000.0625
63.947179317474365,-400000.0625,-400000.0625,-400000.0625,-400000.0625,-400000.0625,-400000.0625,-400000.0625,-400000.0625
63.947190284729004,-400000.0625,-400000.0625,-400000.0625,-400000.0625,-400000.0625,-400000.0625,-400000.0625,-400000.0625
63.947195291519165,-400000.0625,-400000.0625,-400000.0625,-400000.0625,-400000.0625,-400000.0625,-400000.0625,-400000.0625
63.94719982147217,-400000.0625,-400000.0625,-400000.0625,-400000.0625,-400000.0625,-400000.0625,-400000.0625,-400000.0625
63.94720411300659,-400000.0625,-400000.0625,-400000.0625,-400000.0625,-400000.0625,-400000.0625,-400000.0625,-400000.0625
63.94763970375061,-400000.0625,-400000.0625,-400000.0625,-400000.0625,-400000.0625,-400000.0625,-400000.0625,-400000.0625
63.953360080718994,-400000.0625,-400000.0625,-400000.0625,-400000.0625,-400000.0625,-400000.0625,-400000.0625,-400000.0625
63.95855784416199,-400000.0625,-400000.0625,-400000.0625,-400000.0625,-400000.0625,-400000.0625,-400000.0625,-400000.0625
63.965479135513306,-400000.0625,-400000.0625,-400000.0625,-400000.0625,-400000.0625,-400000.0625,-400000.0625,-400000.0625
63.97200965881348,-400000.0625,-400000.0625,-400000.0625,-400000.0625,-400000.0625,-400000.0625,-400000.0625,-400000.0625
63.977277994155884,-400000.0625,-400000.0625,-400000.0625,-400000.0625,-400000.0625,-400000.0625,-400000.0625,-400000.0625
63.984554290771484,-400000.0625,-400000.0625,-400000.0625,-400000.0625,-400000.0625,-400000.0625,-400000.0625,-400000.0625
63.99062776565552,-400000.0625,-400000.0625,-400000.0625,-400000.0625,-400000.0625,-400000.0625,-400000.0625,-400000.0625
63.99596166610718,-400000.0625,-400000.0625,-400000.0625,-400000.0625,-400000.0625,-400000.0625,-400000.0625,-400000.0625
64.00282502174377,-400000.0625,-400000.0625,-400000.0625,-400000.0625,-400000.0625,-400000.0625,-400000.0625,-400000.0625
64.00827074050903,-400000.0625,-400000.0625,-400000.0625,-400000.0625,-400000.0625,-400000.0625,-400000.0625,-400000.0625
64.01549243927002,-400000.0625,-400000.0625,-400000.0625,-400000.0625,-400000.0625,-400000.0625,-400000.0625,-400000.0625
64.02225828170776,-400000.0625,-400000.0625,-400000.0625,-400000.0625,-400000.0625,-400000.0625,-400000.0625,-400000.0625
64.02705693244934,-400000.0625,-400000.0625,-400000.0625,-400000.0625,-400000.0625,-400000.0625,-400000.0625,-400000.0625
64.03412199020386,-400000.0625,-400000.0625,-400000.0625,-400000.0625,-400000.0625,-400000.0625,-400000.0625,-400000.0625
64.03977155685425,-400000.0625,-400000.0625,-400000.0625,-400000.0625,-400000.0625,-400000.0625,-400000.0625,-400000.0625
64.04503917694092,-400000.0625,-400000.0625,-400000.0625,-400000.0625,-400000.0625,-400000.0625,-400000.0625,-400000.0625
64.05016756057739,-400000.0625,-400000.0625,-400000.0625,-400000.0625,-400000.0625,-400000.0625,-400000.0625,-400000.0625
64.05528855323792,-400000.0625,-400000.0625,-400000.0625,-400000.0625,-400000.0625,-400000.0625,-400000.0625,-400000.0625
64.06273937225342,-400000.0625,-400000.0625,-400000.0625,-400000.0625,-400000.0625,-400000.0625,-400000.0625,-400000.0625
64.06970977783203,-400000.0625,-400000.0625,-400000.0625,-400000.0625,-400000.0625,-400000.0625,-400000.0625,-400000.0625
64.07541847229004,-400000.0625,-400000.0625,-400000.0625,-400000.0625,-400000.0625,-400000.0625,-400000.0625,-400000.0625
64.08216977119446,-400000.0625,-400000.0625,-400000.0625,-400000.0625,-400000.0625,-400000.0625,-400000.0625,-400000.0625
64.0881118774414,-400000.0625,-400000.0625,-400000.0625,-400000.0625,-400000.0625,-400000.0625,-400000.0625,-400000.0625
64.0932788848877,-400000.0625,-400000.0625,-400000.0625,-400000.0625,-400000.0625,-400000.0625,-400000.0625,-400000.0625
64.09970045089722,-400000.0625,-400000.0625,-400000.0625,-400000.0625,-400000.0625,-400000.0625,-400000.0625,-400000.0625
64.10522389411926,-400000.0625,-400000.0625,-400000.0625,-400000.0625,-400000.0625,-400000.0625,-400000.0625,-400000.0625
64.11038398742676,-400000.0625,-400000.0625,-400000.0625,-400000.0625,-400000.0625,-400000.0625,-400000.0625,-400000.0625
64.11695981025696,-400000.0625,-400000.0625,-400000.0625,-400000.0625,-400000.0625,-400000.0625,-400000.0625,-400000.0625
64.12283849716187,-400000.0625,-400000.0625,-400000.0625,-400000.0625,-400000.0625,-400000.0625,-400000.0625,-400000.0625
64.1279468536377,-400000.0625,-400000.0625,-400000.0625,-400000.0625,-400000.0625,-400000.0625,-400000.0625,-400000.0625
64.1374683380127,-400000.0625,-400000.0625,-400000.0625,-400000.0625,-400000.0625,-400000.0625,-400000.0625,-400000.0625
64.14264750480652,-400000.0625,-400000.0625,-400000.0625,-400000.0625,-400000.0625,-400000.0625,-400000.0625,-400000.0625
64.14852786064148,-400000.0625,-400000.0625,-400000.0625,-400000.0625,-400000.0625,-400000.0625,-400000.0625,-400000.0625
64.15625166893005,-400000.0625,-400000.0625,-400000.0625,-400000.0625,-400000.0625,-400000.0625,-400000.0625,-400000.0625
64.1624596118927,-400000.0625,-400000.0625,-400000.0625,-400000.0625,-400000.0625,-400000.0625,-400000.0625,-400000.0625
64.16788363456726,-400000.0625,-400000.0625,-400000.0625,-400000.0625,-400000.0625,-400000.0625,-400000.0625,-400000.0625
64.17336440086365,-400000.0625,-400000.0625,-400000.0625,-400000.0625,-400000.0625,-400000.0625,-400000.0625,-400000.0625
64.18026065826416,-400000.0625,-400000.0625,-400000.0625,-400000.0625,-400000.0625,-400000.0625,-400000.0625,-400000.0625
64.18784308433533,-400000.0625,-400000.0625,-400000.0625,-400000.0625,-400000.0625,-400000.0625,-400000.0625,-400000.0625
64.19423127174377,-400000.0625,-400000.0625,-400000.0625,-400000.0625,-400000.0625,-400000.0625,-400000.0625,-400000.0625
64.199716091156,-400000.0625,-400000.0625,-400000.0625,-400000.0625,-400000.0625,-400000.0625,-400000.0625,-400000.0625
64.20552229881287,-400000.0625,-400000.0625,-400000.0625,-400000.0625,-400000.0625,-400000.0625,-400000.0625,-400000.0625
64.21233582496643,-400000.0625,-400000.0625,-400000.0625,-400000.0625,-400000.0625,-400000.0625,-400000.0625,-400000.0625
64.21990633010864,-400000.0625,-400000.0625,-400000.0625,-400000.0625,-400000.0625,-400000.0625,-400000.0625,-400000.0625
64.22532510757446,-400000.0625,-400000.0625,-400000.0625,-400000.0625,-400000.0625,-400000.0625,-400000.0625,-400000.0625
64.23774647712708,-400000.0625,-400000.0625,-400000.0625,-400000.0625,-400000.0625,-400000.0625,-400000.0625,-400000.0625
64.27269530296326,-400000.0625,-400000.0625,-400000.0625,-400000.0625,-400000.0625,-400000.0625,-400000.0625,-400000.0625
64.28690814971924,-400000.0625,-400000.0625,-400000.0625,-400000.0625,-400000.0625,-400000.0625,-400000.0625,-400000.0625
64.29347610473633,-400000.0625,-400000.0625,-400000.0625,-400000.0625,-400000.0625,-400000.0625,-400000.0625,-400000.0625
64.30550026893616,-400000.0625,-400000.0625,-400000.0625,-400000.0625,-400000.0625,-400000.0625,-400000.0625,-400000.0625
64.31284761428833,-400000.0625,-400000.0625,-400000.0625,-400000.0625,-400000.0625,-400000.0625,-400000.0625,-400000.0625
64.32380366325378,-400000.0625,-400000.0625,-400000.0625,-400000.0625,-400000.0625,-400000.0625,-400000.0625,-400000.0625
64.33287072181702,-400000.0625,-400000.0625,-400000.0625,-400000.0625,-400000.0625,-400000.0625,-400000.0625,-400000.0625
64.35342121124268,-400000.0625,-400000.0625,-400000.0625,-400000.0625,-400000.0625,-400000.0625,-400000.0625,-400000.0625
64.36579513549805,-400000.0625,-400000.0625,-400000.0625,-400000.0625,-400000.0625,-400000.0625,-400000.0625,-400000.0625
64.37288117408752,-400000.0625,-400000.0625,-400000.0625,-400000.0625,-400000.0625,-400000.0625,-400000.0625,-400000.0625
64.38210201263428,-400000.0625,-400000.0625,-400000.0625,-400000.0625,-400000.0625,-400000.0625,-400000.0625,-400000.0625
64.38943147659302,-400000.0625,-400000.0625,-400000.0625,-400000.0625,-400000.0625,-400000.0625,-400000.0625,-400000.0625
64.4083731174469,-400000.0625,-400000.0625,-400000.0625,-400000.0625,-400000.0625,-400000.0625,-400000.0625,-400000.0625
64.41786360740662,-400000.0625,-400000.0625,-400000.0625,-400000.0625,-400000.0625,-400000.0625,-400000.0625,-400000.0625
64.4245765209198,-400000.0625,-400000.0625,-400000.0625,-400000.0625,-400000.0625,-400000.0625,-400000.0625,-400000.0625
64.44099497795105,-400000.0625,-400000.0625,-400000.0625,-400000.0625,-400000.0625,-400000.0625,-400000.0625,-400000.0625
64.44914531707764,-400000.0625,-400000.0625,-400000.0625,-400000.0625,-400000.0625,-400000.0625,-400000.0625,-400000.0625
64.45787119865417,-400000.0625,-400000.0625,-400000.0625,-400000.0625,-400000.0625,-400000.0625,-400000.0625,-400000.0625
64.4763994216919,-400000.0625,-400000.0625,-400000.0625,-400000.0625,-400000.0625,-400000.0625,-400000.0625,-400000.0625
64.4879105091095,-400000.0625,-400000.0625,-400000.0625,-400000.0625,-400000.0625,-400000.0625,-400000.0625,-400000.0625
64.49583649635315,-400000.0625,-400000.0625,-400000.0625,-400000.0625,-400000.0625,-400000.0625,-400000.0625,-400000.0625
64.5240535736084,-400000.0625,-400000.0625,-400000.0625,-400000.0625,-400000.0625,-400000.0625,-400000.0625,-400000.0625
64.5331039428711,-400000.0625,-400000.0625,-400000.0625,-400000.0625,-400000.0625,-400000.0625,-400000.0625,-400000.0625
64.54457330703735,-400000.0625,-400000.0625,-400000.0625,-400000.0625,-400000.0625,-400000.0625,-400000.0625,-400000.0625
64.55127382278442,-400000.0625,-400000.0625,-400000.0625,-400000.0625,-400000.0625,-400000.0625,-400000.0625,-400000.0625
64.56428980827332,-400000.0625,-400000.0625,-400000.0625,-400000.0625,-400000.0625,-400000.0625,-400000.0625,-400000.0625
64.58462357521057,-400000.0625,-400000.0625,-400000.0625,-400000.0625,-400000.0625,-400000.0625,-400000.0625,-400000.0625
64.5967710018158,-400000.0625,-400000.0625,-400000.0625,-400000.0625,-400000.0625,-400000.0625,-400000.0625,-400000.0625
64.60434031486511,-400000.0625,-400000.0625,-400000.0625,-400000.0625,-400000.0625,-400000.0625,-400000.0625,-400000.0625
64.62112879753113,-400000.0625,-400000.0625,-400000.0625,-400000.0625,-400000.0625,-400000.0625,-400000.0625,-400000.0625
64.62883687019348,-400000.0625,-400000.0625,-400000.0625,-400000.0625,-400000.0625,-400000.0625,-400000.0625,-400000.0625
64.63422632217407,-400000.0625,-400000.0625,-400000.0625,-400000.0625,-400000.0625,-400000.0625,-400000.0625,-400000.0625
64.6390290260315,-400000.0625,-400000.0625,-400000.0625,-400000.0625,-400000.0625,-400000.0625,-400000.0625,-400000.0625
64.63903856277466,-400000.0625,-400000.0625,-400000.0625,-400000.0625,-400000.0625,-400000.0625,-400000.0625,-400000.0625
64.63904309272766,-400000.0625,-400000.0625,-400000.0625,-400000.0625,-400000.0625,-400000.0625,-400000.0625,-400000.0625
64.63904666900635,-400000.0625,-400000.0625,-400000.0625,-400000.0625,-400000.0625,-400000.0625,-400000.0625,-400000.0625
64.63905072212219,-400000.0625,-400000.0625,-400000.0625,-400000.0625,-400000.0625,-400000.0625,-400000.0625,-400000.0625
64.63905453681946,-400000.0625,-400000.0625,-400000.0625,-400000.0625,-400000.0625,-400000.0625,-400000.0625,-400000.0625
64.63905835151672,-400000.0625,-400000.0625,-400000.0625,-400000.0625,-400000.0625,-400000.0625,-400000.0625,-400000.0625
64.63906288146973,-400000.0625,-400000.0625,-400000.0625,-400000.0625,-400000.0625,-400000.0625,-400000.0625,-400000.0625
64.63906693458557,-400000.0625,-400000.0625,-400000.0625,-400000.0625,-400000.0625,-400000.0625,-400000.0625,-400000.0625
64.63907051086426,-400000.0625,-400000.0625,-400000.0625,-400000.0625,-400000.0625,-400000.0625,-400000.0625,-400000.0625
64.63907432556152,-400000.0625,-400000.0625,-400000.0625,-400000.0625,-400000.0625,-400000.0625,-400000.0625,-400000.0625
64.63907790184021,-400000.0625,-400000.0625,-400000.0625,-400000.0625,-400000.0625,-400000.0625,-400000.0625,-400000.0625
64.63908171653748,-400000.0625,-400000.0625,-400000.0625,-400000.0625,-400000.0625,-400000.0625,-400000.0625,-400000.0625
64.6390860080719,-400000.0625,-400000.0625,-400000.0625,-400000.0625,-400000.0625,-400000.0625,-400000.0625,-400000.0625
64.63909029960632,-400000.0625,-400000.0625,-400000.0625,-400000.0625,-400000.0625,-400000.0625,-400000.0625,-400000.0625
64.63909435272217,-400000.0625,-400000.0625,-400000.0625,-400000.0625,-400000.0625,-400000.0625,-400000.0625,-400000.0625
64.63909792900085,-400000.0625,-400000.0625,-400000.0625,-400000.0625,-400000.0625,-400000.0625,-400000.0625,-400000.0625
64.6391019821167,-400000.0625,-400000.0625,-400000.0625,-400000.0625,-400000.0625,-400000.0625,-400000.0625,-400000.0625
64.63910675048828,-400000.0625,-400000.0625,-400000.0625,-400000.0625,-400000.0625,-400000.0625,-400000.0625,-400000.0625
64.63911056518555,-400000.0625,-400000.0625,-400000.0625,-400000.0625,-400000.0625,-400000.0625,-400000.0625,-400000.0625
64.63911414146423,-400000.0625,-400000.0625,-400000.0625,-400000.0625,-400000.0625,-400000.0625,-400000.0625,-400000.0625
64.63911819458008,-400000.0625,-400000.0625,-400000.0625,-400000.0625,-400000.0625,-400000.0625,-400000.0625,-400000.0625
64.63912200927734,-400000.0625,-400000.0625,-400000.0625,-400000.0625,-400000.0625,-400000.0625,-400000.0625,-400000.0625
64.63912582397461,-400000.0625,-400000.0625,-400000.0625,-400000.0625,-400000.0625,-400000.0625,-400000.0625,-400000.0625
64.63912963867188,-400000.0625,-400000.0625,-400000.0625,-400000.0625,-400000.0625,-400000.0625,-400000.0625,-400000.0625
64.63913369178772,-400000.0625,-400000.0625,-400000.0625,-400000.0625,-400000.0625,-400000.0625,-400000.0625,-400000.0625
64.63913750648499,-400000.0625,-400000.0625,-400000.0625,-400000.0625,-400000.0625,-400000.0625,-400000.0625,-400000.0625
64.63914108276367,-400000.0625,-400000.0625,-400000.0625,-400000.0625,-400000.0625,-400000.0625,-400000.0625,-400000.0625
64.63914489746094,-400000.0625,-400000.0625,-400000.0625,-400000.0625,-400000.0625,-400000.0625,-400000.0625,-400000.0625
64.63914847373962,-400000.0625,-400000.0625,-400000.0625,-400000.0625,-400000.0625,-400000.0625,-400000.0625,-400000.0625
64.63915514945984,-400000.0625,-400000.0625,-400000.0625,-400000.0625,-400000.0625,-400000.0625,-400000.0625,-400000.0625
64.63915872573853,-400000.0625,-400000.0625,-400000.0625,-400000.0625,-400000.0625,-400000.0625,-400000.0625,-400000.0625
64.63916254043579,-400000.0625,-400000.0625,-400000.0625,-400000.0625,-400000.0625,-400000.0625,-400000.0625,-400000.0625
64.63916611671448,-400000.0625,-400000.0625,-400000.0625,-400000.0625,-400000.0625,-400000.0625,-400000.0625,-400000.0625
64.63917112350464,-400000.0625,-400000.0625,-400000.0625,-400000.0625,-400000.0625,-400000.0625,-400000.0625,-400000.0625
64.6391749382019,-400000.0625,-400000.0625,-400000.0625,-400000.0625,-400000.0625,-400000.0625,-400000.0625,-400000.0625
64.63917851448059,-400000.0625,-400000.0625,-400000.0625,-400000.0625,-400000.0625,-400000.0625,-400000.0625,-400000.0625
64.63918209075928,-400000.0625,-400000.0625,-400000.0625,-400000.0625,-400000.0625,-400000.0625,-400000.0625,-400000.0625
64.63918614387512,-400000.0625,-400000.0625,-400000.0625,-400000.0625,-400000.0625,-400000.0625,-400000.0625,-400000.0625
64.63919043540955,-400000.0625,-400000.0625,-400000.0625,-400000.0625,-400000.0625,-400000.0625,-400000.0625,-400000.0625
64.63919472694397,-400000.0625,-400000.0625,-400000.0625,-400000.0625,-400000.0625,-400000.0625,-400000.0625,-400000.0625
64.63919878005981,-400000.0625,-400000.0625,-400000.0625,-400000.0625,-400000.0625,-400000.0625,-400000.0625,-400000.0625
64.63920903205872,-400000.0625,-400000.0625,-400000.0625,-400000.0625,-400000.0625,-400000.0625,-400000.0625,-400000.0625
64.6392171382904,-400000.0625,-400000.0625,-400000.0625,-400000.0625,-400000.0625,-400000.0625,-400000.0625,-400000.0625
64.63922142982483,-400000.0625,-400000.0625,-400000.0625,-400000.0625,-400000.0625,-400000.0625,-400000.0625,-400000.0625
64.63922882080078,-400000.0625,-400000.0625,-400000.0625,-400000.0625,-400000.0625,-400000.0625,-400000.0625,-400000.0625
64.6392331123352,-400000.0625,-400000.0625,-400000.0625,-400000.0625,-400000.0625,-400000.0625,-400000.0625,-400000.0625
64.64412760734558,-400000.0625,-400000.0625,-400000.0625,-400000.0625,-400000.0625,-400000.0625,-400000.0625,-400000.0625
64.6441376209259,-400000.0625,-400000.0625,-400000.0625,-400000.0625,-400000.0625,-400000.0625,-400000.0625,-400000.0625
64.64414286613464,-400000.0625,-400000.0625,-400000.0625,-400000.0625,-400000.0625,-400000.0625,-400000.0625,-400000.0625
64.64414739608765,-400000.0625,-400000.0625,-400000.0625,-400000.0625,-400000.0625,-400000.0625,-400000.0625,-400000.0625
64.64415216445923,-400000.0625,-400000.0625,-400000.0625,-400000.0625,-400000.0625,-400000.0625,-400000.0625,-400000.0625
64.64415621757507,-400000.0625,-400000.0625,-400000.0625,-400000.0625,-400000.0625,-400000.0625,-400000.0625,-400000.0625
64.6441605091095,-400000.0625,-400000.0625,-400000.0625,-400000.0625,-400000.0625,-400000.0625,-400000.0625,-400000.0625
64.64416432380676,-400000.0625,-400000.0625,-400000.0625,-400000.0625,-400000.0625,-400000.0625,-400000.0625,-400000.0625
64.64416861534119,-400000.0625,-400000.0625,-400000.0625,-400000.0625,-400000.0625,-400000.0625,-400000.0625,-400000.0625
64.64417219161987,-400000.0625,-400000.0625,-400000.0625,-400000.0625,-400000.0625,-400000.0625,-400000.0625,-400000.0625
64.64417672157288,-400000.0625,-400000.0625,-400000.0625,-400000.0625,-400000.0625,-400000.0625,-400000.0625,-400000.0625
64.64418053627014,-400000.0625,-400000.0625,-400000.0625,-400000.0625,-400000.0625,-400000.0625,-400000.0625,-400000.0625
64.64418458938599,-400000.0625,-400000.0625,-400000.0625,-400000.0625,-400000.0625,-400000.0625,-400000.0625,-400000.0625
64.64418840408325,-400000.0625,-400000.0625,-400000.0625,-400000.0625,-400000.0625,-400000.0625,-400000.0625,-400000.0625
64.6441924571991,-400000.0625,-400000.0625,-400000.0625,-400000.0625,-400000.0625,-400000.0625,-400000.0625,-400000.0625
64.64419603347778,-400000.0625,-400000.0625,-400000.0625,-400000.0625,-400000.0625,-400000.0625,-400000.0625,-400000.0625
64.64420008659363,-400000.0625,-400000.0625,-400000.0625,-400000.0625,-400000.0625,-400000.0625,-400000.0625,-400000.0625
64.64420437812805,-400000.0625,-400000.0625,-400000.0625,-400000.0625,-400000.0625,-400000.0625,-400000.0625,-400000.0625
64.64420890808105,-400000.0625,-400000.0625,-400000.0625,-400000.0625,-400000.0625,-400000.0625,-400000.0625,-400000.0625
64.6442129611969,-400000.0625,-400000.0625,-400000.0625,-400000.0625,-400000.0625,-400000.0625,-400000.0625,-400000.0625
64.6442174911499,-400000.0625,-400000.0625,-400000.0625,-400000.0625,-400000.0625,-400000.0625,-400000.0625,-400000.0625
64.64422178268433,-400000.0625,-400000.0625,-400000.0625,-400000.0625,-400000.0625,-400000.0625,-400000.0625,-400000.0625
64.64422559738159,-400000.0625,-400000.0625,-400000.0625,-400000.0625,-400000.0625,-400000.0625,-400000.0625,-400000.0625
64.64422941207886,-400000.0625,-400000.0625,-400000.0625,-400000.0625,-400000.0625,-400000.0625,-400000.0625,-400000.0625
64.64423322677612,-400000.0625,-400000.0625,-400000.0625,-400000.0625,-400000.0625,-400000.0625,-400000.0625,-400000.0625
64.64914011955261,-400000.0625,-400000.0625,-400000.0625,-400000.0625,-400000.0625,-400000.0625,-400000.0625,-400000.0625
64.64914989471436,-400000.0625,-400000.0625,-400000.0625,-400000.0625,-400000.0625,-400000.0625,-400000.0625,-400000.0625
64.64915442466736,-400000.0625,-400000.0625,-400000.0625,-400000.0625,-400000.0625,-400000.0625,-400000.0625,-400000.0625
64.6491584777832,-400000.0625,-400000.0625,-400000.0625,-400000.0625,-400000.0625,-400000.0625,-400000.0625,-400000.0625
64.64916229248047,-400000.0625,-400000.0625,-400000.0625,-400000.0625,-400000.0625,-400000.0625,-400000.0625,-400000.0625
64.64916610717773,-400000.0625,-400000.0625,-400000.0625,-400000.0625,-400000.0625,-400000.0625,-400000.0625,-400000.0625
64.64917016029358,-400000.0625,-400000.0625,-400000.0625,-400000.0625,-400000.0625,-400000.0625,-400000.0625,-400000.0625
64.64917373657227,-400000.0625,-400000.0625,-400000.0625,-400000.0625,-400000.0625,-400000.0625,-400000.0625,-400000.0625
64.64917731285095,-400000.0625,-400000.0625,-400000.0625,-400000.0625,-400000.0625,-400000.0625,-400000.0625,-400000.0625
64.64918088912964,-400000.0625,-400000.0625,-400000.0625,-400000.0625,-400000.0625,-400000.0625,-400000.0625,-400000.0625
64.64918518066406,-400000.0625,-400000.0625,-400000.0625,-400000.0625,-400000.0625,-400000.0625,-400000.0625,-400000.0625
64.64918923377991,-400000.0625,-400000.0625,-400000.0625,-400000.0625,-400000.0625,-400000.0625,-400000.0625,-400000.0625
64.64919304847717,-400000.0625,-400000.0625,-400000.0625,-400000.0625,-400000.0625,-400000.0625,-400000.0625,-400000.0625
64.64919686317444,-400000.0625,-400000.0625,-400000.0625,-400000.0625,-400000.0625,-400000.0625,-400000.0625,-400000.0625
64.6492006778717,-400000.0625,-400000.0625,-400000.0625,-400000.0625,-400000.0625,-400000.0625,-400000.0625,-400000.0625
64.64920401573181,-400000.0625,-400000.0625,-400000.0625,-400000.0625,-400000.0625,-400000.0625,-400000.0625,-400000.0625
64.6492075920105,-400000.0625,-400000.0625,-400000.0625,-400000.0625,-400000.0625,-400000.0625,-400000.0625,-400000.0625
64.64921140670776,-400000.0625,-400000.0625,-400000.0625,-400000.0625,-400000.0625,-400000.0625,-400000.0625,-400000.0625
64.64921498298645,-400000.0625,-400000.0625,-400000.0625,-400000.0625,-400000.0625,-400000.0625,-400000.0625,-400000.0625
64.64921879768372,-400000.0625,-400000.0625,-400000.0625,-400000.0625,-400000.0625,-400000.0625,-400000.0625,-400000.0625
64.6492223739624,-400000.0625,-400000.0625,-400000.0625,-400000.0625,-400000.0625,-400000.0625,-400000.0625,-400000.0625
64.64922642707825,-400000.0625,-400000.0625,-400000.0625,-400000.0625,-400000.0625,-400000.0625,-400000.0625,-400000.0625
64.64923071861267,-400000.0625,-400000.0625,-400000.0625,-400000.0625,-400000.0625,-400000.0625,-400000.0625,-400000.0625
64.64923477172852,-400000.0625,-400000.0625,-400000.0625,-400000.0625,-400000.0625,-400000.0625,-400000.0625,-400000.0625
64.65421271324158,-400000.0625,-400000.0625,-400000.0625,-400000.0625,-400000.0625,-400000.0625,-400000.0625,-400000.0625
64.65422344207764,-400000.0625,-400000.0625,-400000.0625,-400000.0625,-400000.0625,-400000.0625,-400000.0625,-400000.0625
64.65422797203064,-400000.0625,-400000.0625,-400000.0625,-400000.0625,-400000.0625,-400000.0625,-400000.0625,-400000.0625
64.65423250198364,-400000.0625,-400000.0625,-400000.0625,-400000.0625,-400000.0625,-400000.0625,-400000.0625,-400000.0625
64.65423631668091,-400000.0625,-400000.0625,-400000.0625,-400000.0625,-400000.0625,-400000.0625,-400000.0625,-400000.0625
64.65867900848389,-400000.0625,-400000.0625,-400000.0625,-400000.0625,-400000.0625,-400000.0625,-400000.0625,-400000.0625
64.65868949890137,-400000.0625,-400000.0625,-400000.0625,-400000.0625,-400000.0625,-400000.0625,-400000.0625,-400000.0625
64.65869450569153,-400000.0625,-400000.0625,-400000.0625,-400000.0625,-400000.0625,-400000.0625,-400000.0625,-400000.0625
64.65869903564453,-400000.0625,-400000.0625,-400000.0625,-400000.0625,-400000.0625,-400000.0625,-400000.0625,-400000.0625
64.65870356559753,-400000.0625,-400000.0625,-400000.0625,-400000.0625,-400000.0625,-400000.0625,-400000.0625,-400000.0625
64.65870714187622,-400000.0625,-400000.0625,-400000.0625,-400000.0625,-400000.0625,-400000.0625,-400000.0625,-400000.0625
64.6587119102478,-400000.0625,-400000.0625,-400000.0625,-400000.0625,-400000.0625,-400000.0625,-400000.0625,-400000.0625
64.65871596336365,-400000.0625,-400000.0625,-400000.0625,-400000.0625,-400000.0625,-400000.0625,-400000.0625,-400000.0625
64.65872001647949,-400000.0625,-400000.0625,-400000.0625,-400000.0625,-400000.0625,-400000.0625,-400000.0625,-400000.0625
64.65872406959534,-400000.0625,-400000.0625,-400000.0625,-400000.0625,-400000.0625,-400000.0625,-400000.0625,-400000.0625
64.65888094902039,-400000.0625,-400000.0625,-400000.0625,-400000.0625,-400000.0625,-400000.0625,-400000.0625,-400000.0625
64.65888476371765,-400000.0625,-400000.0625,-400000.0625,-400000.0625,-400000.0625,-400000.0625,-400000.0625,-400000.0625
64.6588888168335,-400000.0625,-400000.0625,-400000.0625,-400000.0625,-400000.0625,-400000.0625,-400000.0625,-400000.0625
64.65889263153076,-400000.0625,-400000.0625,-400000.0625,-400000.0625,-400000.0625,-400000.0625,-400000.0625,-400000.0625
64.6588966846466,-400000.0625,-400000.0625,-400000.0625,-400000.0625,-400000.0625,-400000.0625,-400000.0625,-400000.0625
64.65890049934387,-400000.0625,-400000.0625,-400000.0625,-400000.0625,-400000.0625,-400000.0625,-400000.0625,-400000.0625
64.65890407562256,-400000.0625,-400000.0625,-400000.0625,-400000.0625,-400000.0625,-400000.0625,-400000.0625,-400000.0625
64.6589081287384,-400000.0625,-400000.0625,-400000.0625,-400000.0625,-400000.0625,-400000.0625,-400000.0625,-400000.0625
64.65891313552856,-400000.0625,-400000.0625,-400000.0625,-400000.0625,-400000.0625,-400000.0625,-400000.0625,-400000.0625
64.65891695022583,-400000.0625,-400000.0625,-400000.0625,-400000.0625,-400000.0625,-400000.0625,-400000.0625,-400000.0625
64.6589207649231,-400000.0625,-400000.0625,-400000.0625,-400000.0625,-400000.0625,-400000.0625,-400000.0625,-400000.0625
64.65892434120178,-400000.0625,-400000.0625,-400000.0625,-400000.0625,-400000.0625,-400000.0625,-400000.0625,-400000.0625
64.65892815589905,-400000.0625,-400000.0625,-400000.0625,-400000.0625,-400000.0625,-400000.0625,-400000.0625,-400000.0625
64.65893220901489,-400000.0625,-400000.0625,-400000.0625,-400000.0625,-400000.0625,-400000.0625,-400000.0625,-400000.0625
64.65893578529358,-400000.0625,-400000.0625,-400000.0625,-400000.0625,-400000.0625,-400000.0625,-400000.0625,-400000.0625
64.65893959999084,-400000.0625,-400000.0625,-400000.0625,-400000.0625,-400000.0625,-400000.0625,-400000.0625,-400000.0625
64.65894317626953,-400000.0625,-400000.0625,-400000.0625,-400000.0625,-400000.0625,-400000.0625,-400000.0625,-400000.0625
64.65894675254822,-400000.0625,-400000.0625,-400000.0625,-400000.0625,-400000.0625,-400000.0625,-400000.0625,-400000.0625
64.6589503288269,-400000.0625,-400000.0625,-400000.0625,-400000.0625,-400000.0625,-400000.0625,-400000.0625,-400000.0625
64.65895366668701,-400000.0625,-400000.0625,-400000.0625,-400000.0625,-400000.0625,-400000.0625,-400000.0625,-400000.0625
64.65895748138428,-400000.0625,-400000.0625,-400000.0625,-400000.0625,-400000.0625,-400000.0625,-400000.0625,-400000.0625
64.65896081924438,-400000.0625,-400000.0625,-400000.0625,-400000.0625,-400000.0625,-400000.0625,-400000.0625,-400000.0625
64.65896415710449,-400000.0625,-400000.0625,-400000.0625,-400000.0625,-400000.0625,-400000.0625,-400000.0625,-400000.0625
64.65896773338318,-400000.0625,-400000.0625,-400000.0625,-400000.0625,-400000.0625,-400000.0625,-400000.0625,-400000.0625
64.65897130966187,-400000.0625,-400000.0625,-400000.0625,-400000.0625,-400000.0625,-400000.0625,-400000.0625,-400000.0625
64.65897512435913,-400000.0625,-400000.0625,-400000.0625,-400000.0625,-400000.0625,-400000.0625,-400000.0625,-400000.0625
64.6589789390564,-400000.0625,-400000.0625,-400000.0625,-400000.0625,-400000.0625,-400000.0625,-400000.0625,-400000.0625
64.65898251533508,-400000.0625,-400000.0625,-400000.0625,-400000.0625,-400000.0625,-400000.0625,-400000.0625,-400000.0625
64.65898633003235,-400000.0625,-400000.0625,-400000.0625,-400000.0625,-400000.0625,-400000.0625,-400000.0625,-400000.0625
64.65898966789246,-400000.0625,-400000.0625,-400000.0625,-400000.0625,-400000.0625,-400000.0625,-400000.0625,-400000.0625
64.65899324417114,-400000.0625,-400000.0625,-400000.0625,-400000.0625,-400000.0625,-400000.0625,-400000.0625,-400000.0625
64.65900015830994,-400000.0625,-400000.0625,-400000.0625,-400000.0625,-400000.0625,-400000.0625,-400000.0625,-400000.0625
64.65900349617004,-400000.0625,-400000.0625,-400000.0625,-400000.0625,-400000.0625,-400000.0625,-400000.0625,-400000.0625
64.65900731086731,-400000.0625,-400000.0625,-400000.0625,-400000.0625,-400000.0625,-400000.0625,-400000.0625,-400000.0625
64.65901136398315,-400000.0625,-400000.0625,-400000.0625,-400000.0625,-400000.0625,-400000.0625,-400000.0625,-400000.0625
64.65901708602905,-400000.0625,-400000.0625,-400000.0625,-400000.0625,-400000.0625,-400000.0625,-400000.0625,-400000.0625
64.65902018547058,-400000.0625,-400000.0625,-400000.0625,-400000.0625,-400000.0625,-400000.0625,-400000.0625,-400000.0625
