time,ch1,ch2,ch3,ch4,ch5,ch6,ch7,ch8
133.4031901359558,-400000.0625,-18370.6796875,-17702.390625,-400000.0625,-400000.0625,-400000.0625,-21687.509765625,-400000.0625
133.40837621688843,-400000.0625,-18344.310546875,-17676.16015625,-400000.0625,-400000.0625,-400000.0625,-21661.51953125,-400000.0625
133.41307258605957,-400000.0625,-18296.91015625,-17634.970703125,-400000.0625,-400000.0625,-400000.0625,-21612.26953125,-400000.0625
133.41308188438416,-400000.0625,-18281.369140625,-17625.189453125,-400000.0625,-400000.0625,-400000.0625,-21598.6796875,-400000.0625
133.41308617591858,-400000.0625,-18319.69921875,-17659.859375,-400000.0625,-400000.0625,-400000.0625,-21635.490234375,-400000.0625
133.41309070587158,-400000.0625,-18357.330078125,-17689.560546875,-400000.0625,-400000.0625,-400000.0625,-21674.25,-400000.0625
133.41309452056885,-400000.0625,-18359.5703125,-17693.0,-400000.0625,-400000.0625,-400000.0625,-21679.830078125,-400000.0625
133.4130983352661,-400000.0625,-18322.23046875,-17659.51953125,-400000.0625,-400000.0625,-400000.0625,-21639.5390625,-400000.0625
133.41310238838196,-400000.0625,-18281.83984375,-17624.759765625,-400000.0625,-400000.0625,-400000.0625,-21600.76953125,-400000.0625
133.4131064414978,-400000.0625,-18289.619140625,-17631.91015625,-400000.0625,-400000.0625,-400000.0625,-21605.109375,-400000.0625
133.41311025619507,-400000.0625,-18336.009765625,-17674.400390625,-400000.0625,-400000.0625,-400000.0625,-21654.80078125,-400000.0625
133.41311383247375,-400000.0625,-18357.759765625,-17691.94921875,-400000.0625,-400000.0625,-400000.0625,-21681.83984375,-400000.0625
133.41311764717102,-400000.0625,-18340.640625,-17676.400390625,-400000.0625,-400000.0625,-400000.0625,-21662.08984375,-400000.0625
133.4131214618683,-400000.0625,-18302.970703125,-17646.26953125,-400000.0625,-400000.0625,-400000.0625,-21621.990234375,-400000.0625
133.41312527656555,-400000.0625,-18290.859375,-17637.16015625,-400000.0625,-400000.0625,-400000.0625,-21609.98046875,-400000.0625
133.4131293296814,-400000.0625,-18323.23046875,-17666.720703125,-400000.0625,-400000.0625,-400000.0625,-21640.400390625,-400000.0625
133.41313290596008,-400000.0625,-18361.380859375,-17698.390625,-400000.0625,-400000.0625,-400000.0625,-21674.5390625,-400000.0625
133.41313695907593,-400000.0625,-18365.91015625,-17699.720703125,-400000.0625,-400000.0625,-400000.0625,-21675.640625,-400000.0625
133.4131407737732,-400000.0625,-18322.51953125,-17660.859375,-400000.0625,-400000.0625,-400000.0625,-21636.439453125,-400000.0625
133.41314435005188,-400000.0625,-18287.0390625,-17634.109375,-400000.0625,-400000.0625,-400000.0625,-21604.16015625,-400000.0625
133.41314840316772,-400000.0625,-18303.830078125,-17647.7890625,-400000.0625,-400000.0625,-400000.0625,-21618.509765625,-400000.0625
133.4131519794464,-400000.0625,-18354.66015625,-17688.23046875,-400000.0625,-400000.0625,-400000.0625,-21671.490234375,-400000.0625
133.4131579399109,-400000.0625,-18377.400390625,-17703.25,-400000.0625,-400000.0625,-400000.0625,-21690.939453125,-400000.0625
133.41316175460815,-400000.0625,-18338.869140625,-17666.490234375,-400000.0625,-400000.0625,-400000.0625,-21653.23046875,-400000.0625
133.413165807724,-400000.0625,-18287.0390625,-17626.140625,-400000.0625,-400000.0625,-400000.0625,-21604.349609375,-400000.0625
133.413170337677,-400000.0625,-18289.470703125,-17628.76953125,-400000.0625,-400000.0625,-400000.0625,-21605.830078125,-400000.0625
133.41317415237427,-400000.0625,-18338.400390625,-17671.490234375,-400000.0625,-400000.0625,-400000.0625,-21651.560546875,-400000.0625
133.41317796707153,-400000.0625,-18371.439453125,-17698.33984375,-400000.0625,-400000.0625,-400000.0625,-21690.80078125,-400000.0625
133.41318154335022,-400000.0625,-18353.75,-17686.1796875,-400000.0625,-400000.0625,-400000.0625,-21679.58984375,-400000.0625
133.41318535804749,-400000.0625,-18317.3203125,-17656.810546875,-400000.0625,-400000.0625,-400000.0625,-21639.400390625,-400000.0625
133.41318917274475,-400000.0625,-18299.76953125,-17641.359375,-400000.0625,-400000.0625,-400000.0625,-21615.080078125,-400000.0625
133.41319274902344,-400000.0625,-18314.55078125,-17651.609375,-400000.0625,-400000.0625,-400000.0625,-21630.91015625,-400000.0625
133.4131965637207,-400000.0625,-18356.279296875,-17688.23046875,-400000.0625,-400000.0625,-400000.0625,-21672.390625,-400000.0625
133.41320085525513,-400000.0625,-18374.869140625,-17703.33984375,-400000.0625,-400000.0625,-400000.0625,-21691.66015625,-400000.0625
133.4132044315338,-400000.0625,-18344.0703125,-17675.310546875,-400000.0625,-400000.0625,-400000.0625,-21667.9609375,-400000.0625
133.41320824623108,-400000.0625,-18304.58984375,-17639.830078125,-400000.0625,-400000.0625,-400000.0625,-21622.1796875,-400000.0625
133.4132125377655,-400000.0625,-18294.48046875,-17630.720703125,-400000.0625,-400000.0625,-400000.0625,-21604.830078125,-400000.0625
133.41321659088135,-400000.0625,-18325.66015625,-17660.0,-400000.0625,-400000.0625,-400000.0625,-21637.73046875,-400000.0625
133.4132204055786,-400000.0625,-18359.619140625,-17688.609375,-400000.0625,-400000.0625,-400000.0625,-21675.16015625,-400000.0625
133.41322422027588,-400000.0625,-18355.75,-17687.130859375,-400000.0625,-400000.0625,-400000.0625,-21672.5390625,-400000.0625
133.41322803497314,-400000.0625,-18312.740234375,-17649.130859375,-400000.0625,-400000.0625,-400000.0625,-21628.2890625,-400000.0625
133.413232088089,-400000.0625,-18293.669921875,-17636.970703125,-400000.0625,-400000.0625,-400000.0625,-21609.599609375,-400000.0625
133.41323590278625,-400000.0625,-18324.66015625,-17664.76953125,-400000.0625,-400000.0625,-400000.0625,-21640.830078125,-400000.0625
133.41324019432068,-400000.0625,-18370.439453125,-17702.060546875,-400000.0625,-400000.0625,-400000.0625,-21684.939453125,-400000.0625
133.41324377059937,-400000.0625,-18378.359375,-17709.0703125,-400000.0625,-400000.0625,-400000.0625,-21690.3203125,-400000.0625
133.41324758529663,-400000.0625,-18342.310546875,-17676.55078125,-400000.0625,-400000.0625,-400000.0625,-21652.4609375,-400000.0625
133.4132513999939,-400000.0625,-18300.009765625,-17638.880859375,-400000.0625,-400000.0625,-400000.0625,-21613.080078125,-400000.0625
133.41325497627258,-400000.0625,-18297.009765625,-17637.2109375,-400000.0625,-400000.0625,-400000.0625,-21609.400390625,-400000.0625
133.41325879096985,-400000.0625,-18329.810546875,-17666.76953125,-400000.0625,-400000.0625,-400000.0625,-21644.169921875,-400000.0625
133.41326260566711,-400000.0625,-18367.009765625,-17694.51953125,-400000.0625,-400000.0625,-400000.0625,-21679.98046875,-400000.0625
133.41326642036438,-400000.0625,-18364.859375,-17693.7109375,-400000.0625,-400000.0625,-400000.0625,-21676.44921875,-400000.0625
133.41327118873596,-400000.0625,-18312.41015625,-17651.66015625,-400000.0625,-400000.0625,-400000.0625,-21627.619140625,-400000.0625
133.41327500343323,-400000.0625,-18283.80078125,-17630.2890625,-400000.0625,-400000.0625,-400000.0625,-21597.439453125,-400000.0625
133.4132788181305,-400000.0625,-18311.599609375,-17653.75,-400000.0625,-400000.0625,-400000.0625,-21619.609375,-400000.0625
133.41328263282776,-400000.0625,-18362.380859375,-17696.48046875,-400000.0625,-400000.0625,-400000.0625,-21670.439453125,-400000.0625
133.41328644752502,-400000.0625,-18376.779296875,-17708.880859375,-400000.0625,-400000.0625,-400000.0625,-21686.990234375,-400000.0625
133.4132900238037,-400000.0625,-18335.5390625,-17671.349609375,-400000.0625,-400000.0625,-400000.0625,-21645.830078125,-400000.0625
133.41329383850098,-400000.0625,-18297.529296875,-17639.349609375,-400000.0625,-400000.0625,-400000.0625,-21607.2109375,-400000.0625
133.41329789161682,-400000.0625,-18299.30078125,-17642.310546875,-400000.0625,-400000.0625,-400000.0625,-21609.599609375,-400000.0625
133.4133017063141,-400000.0625,-18340.689453125,-17681.69921875,-400000.0625,-400000.0625,-400000.0625,-21650.98046875,-400000.0625
133.41330575942993,-400000.0625,-18375.259765625,-17708.349609375,-400000.0625,-400000.0625,-400000.0625,-21683.740234375,-400000.0625
133.41330933570862,-400000.0625,-18362.140625,-17695.05078125,-400000.0625,-400000.0625,-400000.0625,-21672.6796875,-400000.0625
133.41331315040588,-400000.0625,-18313.4609375,-17656.140625,-400000.0625,-400000.0625,-400000.0625,-21626.330078125,-400000.0625
133.41331696510315,-400000.0625,-18285.130859375,-17629.9609375,-400000.0625,-400000.0625,-400000.0625,-21593.859375,-400000.0625
133.41332077980042,-400000.0625,-18311.0703125,-17650.1796875,-400000.0625,-400000.0625,-400000.0625,-21617.26953125,-400000.0625
133.41332530975342,-400000.0625,-18359.140625,-17690.23046875,-400000.0625,-400000.0625,-400000.0625,-21668.33984375,-400000.0625
133.41332912445068,-400000.0625,-18378.0703125,-17705.73046875,-400000.0625,-400000.0625,-400000.0625,-21689.990234375,-400000.0625
133.41333293914795,-400000.0625,-18339.109375,-17671.5390625,-400000.0625,-400000.0625,-400000.0625,-21649.650390625,-400000.0625
133.4133369922638,-400000.0625,-18291.619140625,-17633.490234375,-400000.0625,-400000.0625,-400000.0625,-21603.009765625,-400000.0625
133.41334080696106,-400000.0625,-18300.30078125,-17644.650390625,-400000.0625,-400000.0625,-400000.0625,-21612.83984375,-400000.0625
133.41334462165833,-400000.0625,-18342.2109375,-17683.83984375,-400000.0625,-400000.0625,-400000.0625,-21660.279296875,-400000.0625
133.4133484363556,-400000.0625,-18370.490234375,-17708.259765625,-400000.0625,-400000.0625,-400000.0625,-21687.560546875,-400000.0625
133.41335225105286,-400000.0625,-18360.279296875,-17697.669921875,-400000.0625,-400000.0625,-400000.0625,-21670.490234375,-400000.0625
133.4133563041687,-400000.0625,-18322.279296875,-17666.439453125,-400000.0625,-400000.0625,-400000.0625,-21636.630859375,-400000.0625
133.41336011886597,-400000.0625,-18297.630859375,-17647.890625,-400000.0625,-400000.0625,-400000.0625,-21618.609375,-400000.0625
133.41336369514465,-400000.0625,-18317.560546875,-17663.2890625,-400000.0625,-400000.0625,-400000.0625,-21633.150390625,-400000.0625
133.4133677482605,-400000.0625,-18361.05078125,-17700.76953125,-400000.0625,-400000.0625,-400000.0625,-21674.869140625,-400000.0625
133.41337251663208,-400000.0625,-18369.76953125,-17708.689453125,-400000.0625,-400000.0625,-400000.0625,-21688.990234375,-400000.0625
133.41337609291077,-400000.0625,-18339.01953125,-17679.259765625,-400000.0625,-400000.0625,-400000.0625,-21656.08984375,-400000.0625
133.41337990760803,-400000.0625,-18302.400390625,-17647.130859375,-400000.0625,-400000.0625,-400000.0625,-21612.98046875,-400000.0625
133.41338396072388,-400000.0625,-18299.30078125,-17644.4609375,-400000.0625,-400000.0625,-400000.0625,-21608.689453125,-400000.0625
133.41971373558044,-400000.0625,-18345.640625,-17687.279296875,-400000.0625,-400000.0625,-400000.0625,-21657.419921875,-400000.0625
133.42558693885803,-400000.0625,-18371.869140625,-17708.830078125,-400000.0625,-400000.0625,-400000.0625,-21684.220703125,-400000.0625
133.43097615242004,-400000.0625,-18359.470703125,-17697.669921875,-400000.0625,-400000.0625,-400000.0625,-21670.6796875,-400000.0625
133.43840408325195,-400000.0625,-18312.740234375,-17654.470703125,-400000.0625,-400000.0625,-400000.0625,-21622.51953125,-400000.0625
133.4432954788208,-400000.0625,-18288.330078125,-17635.16015625,-400000.0625,-400000.0625,-400000.0625,-21598.150390625,-400000.0625
133.44330549240112,-400000.0625,-18319.560546875,-17663.2890625,-400000.0625,-400000.0625,-400000.0625,-21624.619140625,-400000.0625
133.44331002235413,-400000.0625,-18364.0,-17705.490234375,-400000.0625,-400000.0625,-400000.0625,-21676.259765625,-400000.0625
133.4433147907257,-400000.0625,-18367.9609375,-17706.009765625,-400000.0625,-400000.0625,-400000.0625,-21682.169921875,-400000.0625
133.44331884384155,-400000.0625,-18340.490234375,-17682.509765625,-400000.0625,-400000.0625,-400000.0625,-21651.080078125,-400000.0625
133.44332265853882,-400000.0625,-18302.009765625,-17651.130859375,-400000.0625,-400000.0625,-400000.0625,-21614.41015625,-400000.0625
133.44332671165466,-400000.0625,-18303.830078125,-17653.08984375,-400000.0625,-400000.0625,-400000.0625,-21615.69921875,-400000.0625
133.44333028793335,-400000.0625,-18347.119140625,-17689.419921875,-400000.0625,-400000.0625,-400000.0625,-21662.759765625,-400000.0625
133.44333624839783,-400000.0625,-18367.2890625,-17703.630859375,-400000.0625,-400000.0625,-400000.0625,-21682.55078125,-400000.0625
133.4433400630951,-400000.0625,-18345.740234375,-17685.509765625,-400000.0625,-400000.0625,-400000.0625,-21663.240234375,-400000.0625
133.44334387779236,-400000.0625,-18303.970703125,-17650.69921875,-400000.0625,-400000.0625,-400000.0625,-21617.560546875,-400000.0625
133.44334769248962,-400000.0625,-18286.51953125,-17634.25,-400000.0625,-400000.0625,-400000.0625,-21595.810546875,-400000.0625
133.4433515071869,-400000.0625,-18327.330078125,-17672.73046875,-400000.0625,-400000.0625,-400000.0625,-21639.400390625,-400000.0625
133.44335532188416,-400000.0625,-18372.109375,-17710.9296875,-400000.0625,-400000.0625,-400000.0625,-21685.83984375,-400000.0625
133.443359375,-400000.0625,-18376.44921875,-17711.5,-400000.0625,-400000.0625,-400000.0625,-21687.69921875,-400000.0625
133.4433629512787,-400000.0625,-18328.33984375,-17670.73046875,-400000.0625,-400000.0625,-400000.0625,-21640.880859375,-400000.0625
133.44336652755737,-400000.0625,-18290.05078125,-17637.869140625,-400000.0625,-400000.0625,-400000.0625,-21606.919921875,-400000.0625
133.44337034225464,-400000.0625,-18299.630859375,-17647.83984375,-400000.0625,-400000.0625,-400000.0625,-21615.029296875,-400000.0625
133.4433741569519,-400000.0625,-18355.419921875,-17699.720703125,-400000.0625,-400000.0625,-400000.0625,-21663.91015625,-400000.0625
133.44337797164917,-400000.0625,-18389.419921875,-17731.0,-400000.0625,-400000.0625,-400000.0625,-21694.5703125,-400000.0625
133.44338202476501,-400000.0625,-18359.94921875,-17703.869140625,-400000.0625,-400000.0625,-400000.0625,-21665.76953125,-400000.0625
133.44338583946228,-400000.0625,-18312.5,-17659.48046875,-400000.0625,-400000.0625,-400000.0625,-21615.75,-400000.0625
133.44338965415955,-400000.0625,-18295.33984375,-17644.55078125,-400000.0625,-400000.0625,-400000.0625,-21599.720703125,-400000.0625
133.4433934688568,-400000.0625,-18329.33984375,-17673.109375,-400000.0625,-400000.0625,-400000.0625,-21637.060546875,-400000.0625
133.44339847564697,-400000.0625,-18371.30078125,-17706.58984375,-400000.0625,-400000.0625,-400000.0625,-21679.55078125,-400000.0625
133.44340205192566,-400000.0625,-18374.490234375,-17710.5,-400000.0625,-400000.0625,-400000.0625,-21686.69921875,-400000.0625
133.4434061050415,-400000.0625,-18334.25,-17676.44921875,-400000.0625,-400000.0625,-400000.0625,-21645.7890625,-400000.0625
133.4434096813202,-400000.0625,-18289.5703125,-17639.689453125,-400000.0625,-400000.0625,-400000.0625,-21602.19921875,-400000.0625
133.44341349601746,-400000.0625,-18296.48046875,-17646.98046875,-400000.0625,-400000.0625,-400000.0625,-21609.55078125,-400000.0625
133.44887375831604,-400000.0625,-18346.310546875,-17688.1796875,-400000.0625,-400000.0625,-400000.0625,-21660.0,-400000.0625
133.464284658432,-400000.0625,-18370.9609375,-17709.16015625,-400000.0625,-400000.0625,-400000.0625,-21685.220703125,-400000.0625
133.47048425674438,-400000.0625,-18349.029296875,-17688.1796875,-400000.0625,-400000.0625,-400000.0625,-21659.419921875,-400000.0625
133.47558450698853,-400000.0625,-18295.240234375,-17637.400390625,-400000.0625,-400000.0625,-400000.0625,-21603.109375,-400000.0625
133.48098349571228,-400000.0625,-18283.80078125,-17630.099609375,-400000.0625,-400000.0625,-400000.0625,-21593.380859375,-400000.0625
133.48661351203918,-400000.0625,-18334.720703125,-17674.779296875,-400000.0625,-400000.0625,-400000.0625,-21645.5,-400000.0625
133.49181365966797,-400000.0625,-18378.5,-17713.740234375,-400000.0625,-400000.0625,-400000.0625,-21692.279296875,-400000.0625
133.49651098251343,-400000.0625,-18373.2109375,-17710.0703125,-400000.0625,-400000.0625,-400000.0625,-21693.380859375,-400000.0625
133.49652004241943,-400000.0625,-18330.720703125,-17670.919921875,-400000.0625,-400000.0625,-400000.0625,-21643.01953125,-400000.0625
133.49652481079102,-400000.0625,-18298.720703125,-17642.359375,-400000.0625,-400000.0625,-400000.0625,-21607.44921875,-400000.0625
133.49652910232544,-400000.0625,-18307.349609375,-17651.080078125,-400000.0625,-400000.0625,-400000.0625,-21620.75,-400000.0625
133.49653363227844,-400000.0625,-18346.9296875,-17682.890625,-400000.0625,-400000.0625,-400000.0625,-21658.609375,-400000.0625
133.4965376853943,-400000.0625,-18374.01953125,-17702.390625,-400000.0625,-400000.0625,-400000.0625,-21683.5,-400000.0625
133.49654173851013,-400000.0625,-18351.080078125,-17679.83984375,-400000.0625,-400000.0625,-400000.0625,-21657.80078125,-400000.0625
133.49654579162598,-400000.0625,-18301.349609375,-17639.5,-400000.0625,-400000.0625,-400000.0625,-21613.220703125,-400000.0625
133.4965524673462,-400000.0625,-18293.189453125,-17632.25,-400000.0625,-400000.0625,-400000.0625,-21604.58984375,-400000.0625
133.49655628204346,-400000.0625,-18328.33984375,-17662.0,-400000.0625,-400000.0625,-400000.0625,-21638.6796875,-400000.0625
133.4965603351593,-400000.0625,-18363.529296875,-17695.720703125,-400000.0625,-400000.0625,-400000.0625,-21680.0703125,-400000.0625
133.49656414985657,-400000.0625,-18362.380859375,-17692.849609375,-400000.0625,-400000.0625,-400000.0625,-21676.400390625,-400000.0625
133.4965682029724,-400000.0625,-18316.80078125,-17649.130859375,-400000.0625,-400000.0625,-400000.0625,-21627.2890625,-400000.0625
133.49657201766968,-400000.0625,-18281.990234375,-17620.140625,-400000.0625,-400000.0625,-400000.0625,-21595.91015625,-400000.0625
133.49657607078552,-400000.0625,-18301.970703125,-17641.640625,-400000.0625,-400000.0625,-400000.0625,-21616.75,-400000.0625
133.4965798854828,-400000.0625,-18353.0390625,-17685.3203125,-400000.0625,-400000.0625,-400000.0625,-21667.439453125,-400000.0625
133.49658393859863,-400000.0625,-18372.8203125,-17699.669921875,-400000.0625,-400000.0625,-400000.0625,-21682.650390625,-400000.0625
133.49658799171448,-400000.0625,-18350.890625,-17679.5,-400000.0625,-400000.0625,-400000.0625,-21657.609375,-400000.0625
133.49659156799316,-400000.0625,-18309.689453125,-17644.689453125,-400000.0625,-400000.0625,-400000.0625,-21616.029296875,-400000.0625
133.49659538269043,-400000.0625,-18290.859375,-17628.099609375,-400000.0625,-400000.0625,-400000.0625,-21596.390625,-400000.0625
133.49659943580627,-400000.0625,-18333.6796875,-17662.150390625,-400000.0625,-400000.0625,-400000.0625,-21640.16015625,-400000.0625
133.49660301208496,-400000.0625,-18376.640625,-17696.669921875,-400000.0625,-400000.0625,-400000.0625,-21686.7890625,-400000.0625
133.49660682678223,-400000.0625,-18363.099609375,-17684.650390625,-400000.0625,-400000.0625,-400000.0625,-21675.6796875,-400000.0625
133.4966104030609,-400000.0625,-18314.98046875,-17644.4609375,-400000.0625,-400000.0625,-400000.0625,-21627.859375,-400000.0625
133.49661421775818,-400000.0625,-18285.75,-17621.380859375,-400000.0625,-400000.0625,-400000.0625,-21595.810546875,-400000.0625
133.49661779403687,-400000.0625,-18307.16015625,-17639.73046875,-400000.0625,-400000.0625,-400000.0625,-21612.98046875,-400000.0625
133.49662160873413,-400000.0625,-18354.849609375,-17682.359375,-400000.0625,-400000.0625,-400000.0625,-21661.859375,-400000.0625
133.4966254234314,-400000.0625,-18371.76953125,-17697.76953125,-400000.0625,-400000.0625,-400000.0625,-21680.169921875,-400000.0625
133.4966299533844,-400000.0625,-18341.73046875,-17671.2109375,-400000.0625,-400000.0625,-400000.0625,-21647.890625,-400000.0625
133.49663400650024,-400000.0625,-18295.48046875,-17633.8203125,-400000.0625,-400000.0625,-400000.0625,-21602.109375,-400000.0625
133.4966380596161,-400000.0625,-18291.48046875,-17631.630859375,-400000.0625,-400000.0625,-400000.0625,-21597.630859375,-400000.0625
133.49664187431335,-400000.0625,-18335.25,-17665.099609375,-400000.0625,-400000.0625,-400000.0625,-21639.5390625,-400000.0625
133.4966459274292,-400000.0625,-18375.259765625,-17697.859375,-400000.0625,-400000.0625,-400000.0625,-21675.400390625,-400000.0625
133.49664950370789,-400000.0625,-18367.48046875,-17691.94921875,-400000.0625,-400000.0625,-400000.0625,-21667.05078125,-400000.0625
133.49665331840515,-400000.0625,-18318.609375,-17652.130859375,-400000.0625,-400000.0625,-400000.0625,-21624.380859375,-400000.0625
133.49665689468384,-400000.0625,-18293.720703125,-17627.380859375,-400000.0625,-400000.0625,-400000.0625,-21591.48046875,-400000.0625
133.4966607093811,-400000.0625,-18307.830078125,-17637.970703125,-400000.0625,-400000.0625,-400000.0625,-21604.01953125,-400000.0625
133.49666476249695,-400000.0625,-18352.69921875,-17680.26953125,-400000.0625,-400000.0625,-400000.0625,-21652.3203125,-400000.0625
133.4966685771942,-400000.0625,-18372.970703125,-17698.9609375,-400000.0625,-400000.0625,-400000.0625,-21675.640625,-400000.0625
133.49667239189148,-400000.0625,-18341.2109375,-17672.640625,-400000.0625,-400000.0625,-400000.0625,-21641.919921875,-400000.0625
133.49667620658875,-400000.0625,-18299.869140625,-17637.25,-400000.0625,-400000.0625,-400000.0625,-21598.33984375,-400000.0625
133.49667978286743,-400000.0625,-18288.470703125,-17629.669921875,-400000.0625,-400000.0625,-400000.0625,-21588.66015625,-400000.0625
133.4966835975647,-400000.0625,-18332.19921875,-17665.439453125,-400000.0625,-400000.0625,-400000.0625,-21627.330078125,-400000.0625
133.49668741226196,-400000.0625,-18366.2890625,-17693.140625,-400000.0625,-400000.0625,-400000.0625,-21664.48046875,-400000.0625
133.49669122695923,-400000.0625,-18352.4609375,-17681.4609375,-400000.0625,-400000.0625,-400000.0625,-21656.470703125,-400000.0625
133.49669480323792,-400000.0625,-18311.4609375,-17644.880859375,-400000.0625,-400000.0625,-400000.0625,-21615.029296875,-400000.0625
133.49669861793518,-400000.0625,-18282.369140625,-17622.189453125,-400000.0625,-400000.0625,-400000.0625,-21580.080078125,-400000.0625
133.49670243263245,-400000.0625,-18305.259765625,-17643.640625,-400000.0625,-400000.0625,-400000.0625,-21603.919921875,-400000.0625
133.49670600891113,-400000.0625,-18348.509765625,-17681.650390625,-400000.0625,-400000.0625,-400000.0625,-21652.080078125,-400000.0625
133.4967098236084,-400000.0625,-18372.970703125,-17703.19921875,-400000.0625,-400000.0625,-400000.0625,-21671.19921875,-400000.0625
133.49671387672424,-400000.0625,-18338.6796875,-17673.830078125,-400000.0625,-400000.0625,-400000.0625,-21635.919921875,-400000.0625
133.4967176914215,-400000.0625,-18292.0,-17632.30078125,-400000.0625,-400000.0625,-400000.0625,-21592.330078125,-400000.0625
133.49672198295593,-400000.0625,-18295.859375,-17636.349609375,-400000.0625,-400000.0625,-400000.0625,-21592.380859375,-400000.0625
133.4967257976532,-400000.0625,-18337.6796875,-17677.359375,-400000.0625,-400000.0625,-400000.0625,-21637.25,-400000.0625
133.49672937393188,-400000.0625,-18370.150390625,-17702.25,-400000.0625,-400000.0625,-400000.0625,-21669.25,-400000.0625
133.49673318862915,-400000.0625,-18351.75,-17684.990234375,-400000.0625,-400000.0625,-400000.0625,-21649.939453125,-400000.0625
133.49673700332642,-400000.0625,-18305.779296875,-17647.7890625,-400000.0625,-400000.0625,-400000.0625,-21607.5,-400000.0625
133.49674105644226,-400000.0625,-18284.23046875,-17630.669921875,-400000.0625,-400000.0625,-400000.0625,-21586.279296875,-400000.0625
133.49674534797668,-400000.0625,-18312.4609375,-17653.560546875,-400000.0625,-400000.0625,-400000.0625,-21613.9296875,-400000.0625
133.49674892425537,-400000.0625,-18343.01953125,-17678.880859375,-400000.0625,-400000.0625,-400000.0625,-21646.599609375,-400000.0625
133.49675273895264,-400000.0625,-18356.849609375,-17686.560546875,-400000.0625,-400000.0625,-400000.0625,-21655.0390625,-400000.0625
133.4967565536499,-400000.0625,-18321.7109375,-17656.0390625,-400000.0625,-400000.0625,-400000.0625,-21620.419921875,-400000.0625
133.49676060676575,-400000.0625,-18294.810546875,-17636.400390625,-400000.0625,-400000.0625,-400000.0625,-21589.849609375,-400000.0625
133.496764421463,-400000.0625,-18304.490234375,-17648.080078125,-400000.0625,-400000.0625,-400000.0625,-21595.33984375,-400000.0625
133.4967679977417,-400000.0625,-18350.169921875,-17687.419921875,-400000.0625,-400000.0625,-400000.0625,-21645.41015625,-400000.0625
133.49677157402039,-400000.0625,-18374.30078125,-17706.109375,-400000.0625,-400000.0625,-400000.0625,-21671.390625,-400000.0625
133.49677538871765,-400000.0625,-18353.4609375,-17687.900390625,-400000.0625,-400000.0625,-400000.0625,-21652.029296875,-400000.0625
133.49677896499634,-400000.0625,-18307.9296875,-17646.740234375,-400000.0625,-400000.0625,-400000.0625,-21603.349609375,-400000.0625
133.49678325653076,-400000.0625,-18284.3203125,-17628.9609375,-400000.0625,-400000.0625,-400000.0625,-21579.509765625,-400000.0625
133.49678683280945,-400000.0625,-18305.73046875,-17648.890625,-400000.0625,-400000.0625,-400000.0625,-21606.109375,-400000.0625
133.4967908859253,-400000.0625,-18353.990234375,-17688.23046875,-400000.0625,-400000.0625,-400000.0625,-21657.140625,-400000.0625
133.49679470062256,-400000.0625,-18367.390625,-17698.580078125,-400000.0625,-400000.0625,-400000.0625,-21672.970703125,-400000.0625
133.49679851531982,-400000.0625,-18334.009765625,-17670.779296875,-400000.0625,-400000.0625,-400000.0625,-21636.109375,-400000.0625
133.4968020915985,-400000.0625,-18292.720703125,-17634.490234375,-400000.0625,-400000.0625,-400000.0625,-21590.51953125,-400000.0625
133.49680590629578,-400000.0625,-18298.580078125,-17639.259765625,-400000.0625,-400000.0625,-400000.0625,-21599.869140625,-400000.0625
133.49680948257446,-400000.0625,-18339.30078125,-17673.919921875,-400000.0625,-400000.0625,-400000.0625,-21641.830078125,-400000.0625
133.49681305885315,-400000.0625,-18370.76953125,-17701.19921875,-400000.0625,-400000.0625,-400000.0625,-21678.55078125,-400000.0625
133.49681687355042,-400000.0625,-18356.75,-17685.609375,-400000.0625,-400000.0625,-400000.0625,-21661.330078125,-400000.0625
133.4968204498291,-400000.0625,-18309.2109375,-17644.41015625,-400000.0625,-400000.0625,-400000.0625,-21609.119140625,-400000.0625
133.5016222000122,-400000.0625,-18284.1796875,-17625.51953125,-400000.0625,-400000.0625,-400000.0625,-21582.560546875,-400000.0625
133.50163221359253,-400000.0625,-18313.509765625,-17651.419921875,-400000.0625,-400000.0625,-400000.0625,-21616.83984375,-400000.0625
133.5016369819641,-400000.0625,-18357.609375,-17687.0390625,-400000.0625,-400000.0625,-400000.0625,-21658.7109375,-400000.0625
133.50164103507996,-400000.0625,-18355.900390625,-17686.4609375,-400000.0625,-400000.0625,-400000.0625,-21655.75,-400000.0625
133.50164484977722,-400000.0625,-18324.279296875,-17658.759765625,-400000.0625,-400000.0625,-400000.0625,-21620.0390625,-400000.0625
133.50164890289307,-400000.0625,-18285.560546875,-17625.619140625,-400000.0625,-400000.0625,-400000.0625,-21583.990234375,-400000.0625
133.50165271759033,-400000.0625,-18288.08984375,-17630.05078125,-400000.0625,-400000.0625,-400000.0625,-21588.470703125,-400000.0625
133.5016565322876,-400000.0625,-18337.390625,-17670.439453125,-400000.0625,-400000.0625,-400000.0625,-21634.9609375,-400000.0625
133.50166034698486,-400000.0625,-18361.619140625,-17689.23046875,-400000.0625,-400000.0625,-400000.0625,-21659.189453125,-400000.0625
133.5016644001007,-400000.0625,-18335.76953125,-17667.869140625,-400000.0625,-400000.0625,-400000.0625,-21638.349609375,-400000.0625
133.50166821479797,-400000.0625,-18292.140625,-17632.6796875,-400000.0625,-400000.0625,-400000.0625,-21594.48046875,-400000.0625
133.50167179107666,-400000.0625,-18290.0,-17633.30078125,-400000.0625,-400000.0625,-400000.0625,-21587.51953125,-400000.0625
133.50167560577393,-400000.0625,-18322.80078125,-17660.669921875,-400000.0625,-400000.0625,-400000.0625,-21622.7109375,-400000.0625
133.50167965888977,-400000.0625,-18361.94921875,-17693.810546875,-400000.0625,-400000.0625,-400000.0625,-21663.2890625,-400000.0625
133.50168323516846,-400000.0625,-18364.619140625,-17695.48046875,-400000.0625,-400000.0625,-400000.0625,-21669.91015625,-400000.0625
133.50168704986572,-400000.0625,-18323.849609375,-17656.51953125,-400000.0625,-400000.0625,-400000.0625,-21627.859375,-400000.0625
133.501690864563,-400000.0625,-18290.240234375,-17625.859375,-400000.0625,-400000.0625,-400000.0625,-21585.939453125,-400000.0625
133.50169467926025,-400000.0625,-18301.869140625,-17636.01953125,-400000.0625,-400000.0625,-400000.0625,-21595.189453125,-400000.0625
133.50169825553894,-400000.0625,-18343.5,-17674.400390625,-400000.0625,-400000.0625,-400000.0625,-21644.44921875,-400000.0625
133.50170254707336,-400000.0625,-18369.869140625,-17697.2890625,-400000.0625,-400000.0625,-400000.0625,-21672.6796875,-400000.0625
133.50170636177063,-400000.0625,-18345.220703125,-17673.640625,-400000.0625,-400000.0625,-400000.0625,-21643.880859375,-400000.0625
133.5017101764679,-400000.0625,-18304.16015625,-17638.779296875,-400000.0625,-400000.0625,-400000.0625,-21604.349609375,-400000.0625
133.50171422958374,-400000.0625,-18287.849609375,-17626.240234375,-400000.0625,-400000.0625,-400000.0625,-21588.66015625,-400000.0625
133.50171828269958,-400000.0625,-18323.7109375,-17658.279296875,-400000.0625,-400000.0625,-400000.0625,-21621.1796875,-400000.0625
133.50172209739685,-400000.0625,-18360.380859375,-17689.94921875,-400000.0625,-400000.0625,-400000.0625,-21657.560546875,-400000.0625
133.5017261505127,-400000.0625,-18363.140625,-17689.08984375,-400000.0625,-400000.0625,-400000.0625,-21659.66015625,-400000.0625
133.50173044204712,-400000.0625,-18326.189453125,-17654.369140625,-400000.0625,-400000.0625,-400000.0625,-21617.609375,-400000.0625
133.50173425674438,-400000.0625,-18299.6796875,-17633.580078125,-400000.0625,-400000.0625,-400000.0625,-21589.900390625,-400000.0625
133.50173807144165,-400000.0625,-18313.509765625,-17652.279296875,-400000.0625,-400000.0625,-400000.0625,-21608.310546875,-400000.0625
133.50174188613892,-400000.0625,-18355.560546875,-17692.0,-400000.0625,-400000.0625,-400000.0625,-21649.3203125,-400000.0625
133.5017454624176,-400000.0625,-18378.689453125,-17708.970703125,-400000.0625,-400000.0625,-400000.0625,-21672.869140625,-400000.0625
133.50174951553345,-400000.0625,-18349.26953125,-17680.83984375,-400000.0625,-400000.0625,-400000.0625,-21642.0703125,-400000.0625
133.5017533302307,-400000.0625,-18309.2109375,-17646.740234375,-400000.0625,-400000.0625,-400000.0625,-21598.8203125,-400000.0625
133.50175833702087,-400000.0625,-18304.400390625,-17645.310546875,-400000.0625,-400000.0625,-400000.0625,-21596.099609375,-400000.0625
133.50176215171814,-400000.0625,-18337.19921875,-17675.58984375,-400000.0625,-400000.0625,-400000.0625,-21630.859375,-400000.0625
133.5017659664154,-400000.0625,-18373.970703125,-17707.44921875,-400000.0625,-400000.0625,-400000.0625,-21667.48046875,-400000.0625
133.50176978111267,-400000.0625,-18362.380859375,-17698.0,-400000.0625,-400000.0625,-400000.0625,-21658.609375,-400000.0625
133.50177359580994,-400000.0625,-18313.890625,-17651.26953125,-400000.0625,-400000.0625,-400000.0625,-21604.58984375,-400000.0625
133.5017774105072,-400000.0625,-18285.560546875,-17626.529296875,-400000.0625,-400000.0625,-400000.0625,-21571.689453125,-400000.0625
133.50178122520447,-400000.0625,-18312.029296875,-17651.609375,-400000.0625,-400000.0625,-400000.0625,-21600.76953125,-400000.0625
133.50178503990173,-400000.0625,-18358.66015625,-17692.189453125,-400000.0625,-400000.0625,-400000.0625,-21652.3203125,-400000.0625
133.501788854599,-400000.0625,-18377.349609375,-17710.689453125,-400000.0625,-400000.0625,-400000.0625,-21677.2109375,-400000.0625
133.50179314613342,-400000.0625,-18354.130859375,-17691.23046875,-400000.0625,-400000.0625,-400000.0625,-21648.26953125,-400000.0625
133.50179719924927,-400000.0625,-18303.919921875,-17647.650390625,-400000.0625,-400000.0625,-400000.0625,-21595.33984375,-400000.0625
133.50180077552795,-400000.0625,-18287.759765625,-17633.490234375,-400000.0625,-400000.0625,-400000.0625,-21580.359375,-400000.0625
133.50180459022522,-400000.0625,-18333.76953125,-17674.0703125,-400000.0625,-400000.0625,-400000.0625,-21632.8203125,-400000.0625
133.50180864334106,-400000.0625,-18377.880859375,-17714.650390625,-400000.0625,-400000.0625,-400000.0625,-21679.640625,-400000.0625
133.50181245803833,-400000.0625,-18373.73046875,-17712.0703125,-400000.0625,-400000.0625,-400000.0625,-21673.439453125,-400000.0625
133.5018162727356,-400000.0625,-18325.4296875,-17665.580078125,-400000.0625,-400000.0625,-400000.0625,-21618.23046875,-400000.0625
133.50181984901428,-400000.0625,-18295.580078125,-17640.740234375,-400000.0625,-400000.0625,-400000.0625,-21591.759765625,-400000.0625
133.5018241405487,-400000.0625,-18313.119140625,-17657.140625,-400000.0625,-400000.0625,-400000.0625,-21615.599609375,-400000.0625
133.50662446022034,-400000.0625,-18353.080078125,-17692.279296875,-400000.0625,-400000.0625,-400000.0625,-21653.80078125,-400000.0625
133.50663375854492,-400000.0625,-18373.58984375,-17713.830078125,-400000.0625,-400000.0625,-400000.0625,-21670.30078125,-400000.0625
133.5066385269165,-400000.0625,-18349.3203125,-17693.240234375,-400000.0625,-400000.0625,-400000.0625,-21650.3203125,-400000.0625
133.50664258003235,-400000.0625,-18303.58984375,-17652.3203125,-400000.0625,-400000.0625,-400000.0625,-21604.490234375,-400000.0625
133.5066466331482,-400000.0625,-18295.390625,-17643.55078125,-400000.0625,-400000.0625,-400000.0625,-21595.580078125,-400000.0625
133.50665044784546,-400000.0625,-18339.349609375,-17679.310546875,-400000.0625,-400000.0625,-400000.0625,-21640.779296875,-400000.0625
133.50665426254272,-400000.0625,-18375.689453125,-17709.58984375,-400000.0625,-400000.0625,-400000.0625,-21681.650390625,-400000.0625
133.50665807724,-400000.0625,-18369.30078125,-17701.76953125,-400000.0625,-400000.0625,-400000.0625,-21670.919921875,-400000.0625
133.50666189193726,-400000.0625,-18323.23046875,-17660.330078125,-400000.0625,-400000.0625,-400000.0625,-21625.66015625,-400000.0625
133.5066659450531,-400000.0625,-18291.380859375,-17636.490234375,-400000.0625,-400000.0625,-400000.0625,-21590.4296875,-400000.0625
133.50666975975037,-400000.0625,-18321.130859375,-17667.150390625,-400000.0625,-400000.0625,-400000.0625,-21618.80078125,-400000.0625
133.5066740512848,-400000.0625,-18369.580078125,-17712.0703125,-400000.0625,-400000.0625,-400000.0625,-21671.25,-400000.0625
133.50667810440063,-400000.0625,-18382.83984375,-17723.1796875,-400000.0625,-400000.0625,-400000.0625,-21686.83984375,-400000.0625
133.50668215751648,-400000.0625,-18351.130859375,-17691.5703125,-400000.0625,-400000.0625,-400000.0625,-21648.599609375,-400000.0625
133.50668597221375,-400000.0625,-18299.439453125,-17646.98046875,-400000.0625,-400000.0625,-400000.0625,-21594.0,-400000.0625
133.506689786911,-400000.0625,-18291.0,-17640.830078125,-400000.0625,-400000.0625,-400000.0625,-21589.94921875,-400000.0625
133.50669384002686,-400000.0625,-18338.25,-17680.98046875,-400000.0625,-400000.0625,-400000.0625,-21639.919921875,-400000.0625
133.50669765472412,-400000.0625,-18374.869140625,-17712.310546875,-400000.0625,-400000.0625,-400000.0625,-21678.0703125,-400000.0625
133.50670266151428,-400000.0625,-18363.2890625,-17703.919921875,-400000.0625,-400000.0625,-400000.0625,-21669.060546875,-400000.0625
133.50670671463013,-400000.0625,-18321.470703125,-17667.720703125,-400000.0625,-400000.0625,-400000.0625,-21624.66015625,-400000.0625
133.50671076774597,-400000.0625,-18300.919921875,-17652.609375,-400000.0625,-400000.0625,-400000.0625,-21605.01953125,-400000.0625
133.50671458244324,-400000.0625,-18322.369140625,-17673.640625,-400000.0625,-400000.0625,-400000.0625,-21627.5703125,-400000.0625
133.5067183971405,-400000.0625,-18370.19921875,-17711.44921875,-400000.0625,-400000.0625,-400000.0625,-21672.6796875,-400000.0625
133.50672245025635,-400000.0625,-18378.58984375,-17717.890625,-400000.0625,-400000.0625,-400000.0625,-21684.26953125,-400000.0625
133.5067262649536,-400000.0625,-18339.25,-17682.130859375,-400000.0625,-400000.0625,-400000.0625,-21646.5,-400000.0625
133.50673031806946,-400000.0625,-18302.25,-17649.990234375,-400000.0625,-400000.0625,-400000.0625,-21603.779296875,-400000.0625
133.50673413276672,-400000.0625,-18297.439453125,-17647.939453125,-400000.0625,-400000.0625,-400000.0625,-21595.91015625,-400000.0625
133.506737947464,-400000.0625,-18335.919921875,-17680.98046875,-400000.0625,-400000.0625,-400000.0625,-21636.869140625,-400000.0625
133.50674200057983,-400000.0625,-18375.16015625,-17713.259765625,-400000.0625,-400000.0625,-400000.0625,-21678.689453125,-400000.0625
133.50674605369568,-400000.0625,-18354.23046875,-17698.4296875,-400000.0625,-400000.0625,-400000.0625,-21659.900390625,-400000.0625
133.50675010681152,-400000.0625,-18314.55078125,-17663.05078125,-400000.0625,-400000.0625,-400000.0625,-21615.599609375,-400000.0625
133.50675415992737,-400000.0625,-18292.48046875,-17641.2109375,-400000.0625,-400000.0625,-400000.0625,-21594.619140625,-400000.0625
133.50675773620605,-400000.0625,-18322.140625,-17667.099609375,-400000.0625,-400000.0625,-400000.0625,-21627.91015625,-400000.0625
133.5067617893219,-400000.0625,-18379.55078125,-17719.4609375,-400000.0625,-400000.0625,-400000.0625,-21684.119140625,-400000.0625
133.50676584243774,-400000.0625,-18382.26953125,-17721.4609375,-400000.0625,-400000.0625,-400000.0625,-21687.83984375,-400000.0625
133.506769657135,-400000.0625,-18337.009765625,-17681.7890625,-400000.0625,-400000.0625,-400000.0625,-21646.220703125,-400000.0625
133.50677347183228,-400000.0625,-18297.05078125,-17646.119140625,-400000.0625,-400000.0625,-400000.0625,-21598.76953125,-400000.0625
133.50677728652954,-400000.0625,-18297.9609375,-17651.26953125,-400000.0625,-400000.0625,-400000.0625,-21598.580078125,-400000.0625
133.50678086280823,-400000.0625,-18348.650390625,-17693.380859375,-400000.0625,-400000.0625,-400000.0625,-21650.41015625,-400000.0625
133.50678491592407,-400000.0625,-18376.400390625,-17714.359375,-400000.0625,-400000.0625,-400000.0625,-21679.640625,-400000.0625
133.50678873062134,-400000.0625,-18356.279296875,-17697.380859375,-400000.0625,-400000.0625,-400000.0625,-21660.140625,-400000.0625
133.5067925453186,-400000.0625,-18319.66015625,-17665.8203125,-400000.0625,-400000.0625,-400000.0625,-21620.7109375,-400000.0625
133.50679659843445,-400000.0625,-18299.390625,-17650.4609375,-400000.0625,-400000.0625,-400000.0625,-21596.859375,-400000.0625
133.5068004131317,-400000.0625,-18319.3203125,-17669.009765625,-400000.0625,-400000.0625,-400000.0625,-21617.83984375,-400000.0625
133.50680422782898,-400000.0625,-18357.609375,-17700.05078125,-400000.0625,-400000.0625,-400000.0625,-21654.470703125,-400000.0625
133.50680828094482,-400000.0625,-18368.630859375,-17708.640625,-400000.0625,-400000.0625,-400000.0625,-21670.150390625,-400000.0625
133.5068118572235,-400000.0625,-18330.240234375,-17675.58984375,-400000.0625,-400000.0625,-400000.0625,-21628.94921875,-400000.0625
133.50681614875793,-400000.0625,-18298.19921875,-17651.75,-400000.0625,-400000.0625,-400000.0625,-21592.099609375,-400000.0625
133.50681972503662,-400000.0625,-18313.7890625,-17669.490234375,-400000.0625,-400000.0625,-400000.0625,-21608.880859375,-400000.0625
133.5068235397339,-400000.0625,-18361.900390625,-17708.109375,-400000.0625,-400000.0625,-400000.0625,-21656.470703125,-400000.0625
133.50682759284973,-400000.0625,-18385.029296875,-17725.759765625,-400000.0625,-400000.0625,-400000.0625,-21678.9296875,-400000.0625
133.51153779029846,-400000.0625,-18358.189453125,-17701.630859375,-400000.0625,-400000.0625,-400000.0625,-21649.169921875,-400000.0625
133.51154708862305,-400000.0625,-18318.609375,-17667.630859375,-400000.0625,-400000.0625,-400000.0625,-21604.830078125,-400000.0625
133.51155877113342,-400000.0625,-18298.8203125,-17652.80078125,-400000.0625,-400000.0625,-400000.0625,-21590.759765625,-400000.0625
133.51156616210938,-400000.0625,-18322.900390625,-17679.119140625,-400000.0625,-400000.0625,-400000.0625,-21624.23046875,-400000.0625
133.51157140731812,-400000.0625,-18362.05078125,-17710.259765625,-400000.0625,-400000.0625,-400000.0625,-21659.94921875,-400000.0625
133.51157760620117,-400000.0625,-18368.630859375,-17709.349609375,-400000.0625,-400000.0625,-400000.0625,-21659.619140625,-400000.0625
133.5115828514099,-400000.0625,-18326.48046875,-17676.830078125,-400000.0625,-400000.0625,-400000.0625,-21622.849609375,-400000.0625
133.51159000396729,-400000.0625,-18291.240234375,-17647.220703125,-400000.0625,-400000.0625,-400000.0625,-21587.23046875,-400000.0625
133.51159572601318,-400000.0625,-18307.400390625,-17664.240234375,-400000.0625,-400000.0625,-400000.0625,-21599.150390625,-400000.0625
133.51160168647766,-400000.0625,-18349.83984375,-17701.91015625,-400000.0625,-400000.0625,-400000.0625,-21644.119140625,-400000.0625
133.51160717010498,-400000.0625,-18360.759765625,-17708.109375,-400000.0625,-400000.0625,-400000.0625,-21659.51953125,-400000.0625
133.5116126537323,-400000.0625,-18339.109375,-17686.509765625,-400000.0625,-400000.0625,-400000.0625,-21638.5390625,-400000.0625
133.51161909103394,-400000.0625,-18308.779296875,-17661.759765625,-400000.0625,-400000.0625,-400000.0625,-21606.400390625,-400000.0625
133.51162457466125,-400000.0625,-18298.6796875,-17656.279296875,-400000.0625,-400000.0625,-400000.0625,-21601.060546875,-400000.0625
133.5116286277771,-400000.0625,-18336.19921875,-17688.419921875,-400000.0625,-400000.0625,-400000.0625,-21639.400390625,-400000.0625
133.51163244247437,-400000.0625,-18369.6796875,-17716.7890625,-400000.0625,-400000.0625,-400000.0625,-21673.6796875,-400000.0625
133.5116367340088,-400000.0625,-18361.759765625,-17706.830078125,-400000.0625,-400000.0625,-400000.0625,-21666.529296875,-400000.0625
133.51164078712463,-400000.0625,-18324.7109375,-17669.869140625,-400000.0625,-400000.0625,-400000.0625,-21628.240234375,-400000.0625
133.51164507865906,-400000.0625,-18292.330078125,-17642.169921875,-400000.0625,-400000.0625,-400000.0625,-21593.669921875,-400000.0625
133.51164937019348,-400000.0625,-18306.349609375,-17656.51953125,-400000.0625,-400000.0625,-400000.0625,-21606.0703125,-400000.0625
133.51165342330933,-400000.0625,-18357.609375,-17700.099609375,-400000.0625,-400000.0625,-400000.0625,-21657.560546875,-400000.0625
133.5116572380066,-400000.0625,-18375.109375,-17714.359375,-400000.0625,-400000.0625,-400000.0625,-21678.349609375,-400000.0625
133.51166105270386,-400000.0625,-18339.44921875,-17683.83984375,-400000.0625,-400000.0625,-400000.0625,-21643.2109375,-400000.0625
133.5116651058197,-400000.0625,-18298.8203125,-17653.990234375,-400000.0625,-400000.0625,-400000.0625,-21603.16015625,-400000.0625
133.51166892051697,-400000.0625,-18292.669921875,-17649.4609375,-400000.0625,-400000.0625,-400000.0625,-21596.859375,-400000.0625
133.5116732120514,-400000.0625,-18318.130859375,-17673.109375,-400000.0625,-400000.0625,-400000.0625,-21627.240234375,-400000.0625
133.51167702674866,-400000.0625,-18369.30078125,-17717.220703125,-400000.0625,-400000.0625,-400000.0625,-21677.119140625,-400000.0625
133.5116810798645,-400000.0625,-18370.33984375,-17715.5,-400000.0625,-400000.0625,-400000.0625,-21673.630859375,-400000.0625
133.51168513298035,-400000.0625,-18322.419921875,-17675.5390625,-400000.0625,-400000.0625,-400000.0625,-21634.009765625,-400000.0625
133.5116889476776,-400000.0625,-18293.0,-17646.98046875,-400000.0625,-400000.0625,-400000.0625,-21599.9609375,-400000.0625
133.51169300079346,-400000.0625,-18308.9296875,-17663.619140625,-400000.0625,-400000.0625,-400000.0625,-21612.359375,-400000.0625
133.5116970539093,-400000.0625,-18352.990234375,-17702.630859375,-400000.0625,-400000.0625,-400000.0625,-21657.900390625,-400000.0625
133.51170110702515,-400000.0625,-18372.349609375,-17718.75,-400000.0625,-400000.0625,-400000.0625,-21676.259765625,-400000.0625
133.511705160141,-400000.0625,-18344.830078125,-17694.859375,-400000.0625,-400000.0625,-400000.0625,-21648.310546875,-400000.0625
133.51170897483826,-400000.0625,-18299.6796875,-17654.990234375,-400000.0625,-400000.0625,-400000.0625,-21602.009765625,-400000.0625
133.5117130279541,-400000.0625,-18287.5703125,-17643.880859375,-400000.0625,-400000.0625,-400000.0625,-21589.470703125,-400000.0625
133.51171684265137,-400000.0625,-18330.859375,-17679.5,-400000.0625,-400000.0625,-400000.0625,-21631.2890625,-400000.0625
133.5117208957672,-400000.0625,-18366.76953125,-17710.740234375,-400000.0625,-400000.0625,-400000.0625,-21665.2890625,-400000.0625
133.51172494888306,-400000.0625,-18354.1796875,-17701.390625,-400000.0625,-400000.0625,-400000.0625,-21659.470703125,-400000.0625
133.5117290019989,-400000.0625,-18318.75,-17667.150390625,-400000.0625,-400000.0625,-400000.0625,-21622.470703125,-400000.0625
133.51173281669617,-400000.0625,-18295.189453125,-17648.029296875,-400000.0625,-400000.0625,-400000.0625,-21594.619140625,-400000.0625
133.511736869812,-400000.0625,-18309.55078125,-17659.140625,-400000.0625,-400000.0625,-400000.0625,-21609.44921875,-400000.0625
133.51174092292786,-400000.0625,-18353.1796875,-17694.4296875,-400000.0625,-400000.0625,-400000.0625,-21655.7109375,-400000.0625
133.51174449920654,-400000.0625,-18377.880859375,-17715.599609375,-400000.0625,-400000.0625,-400000.0625,-21677.310546875,-400000.0625
133.5117485523224,-400000.0625,-18348.890625,-17690.94921875,-400000.0625,-400000.0625,-400000.0625,-21645.640625,-400000.0625
133.51175212860107,-400000.0625,-18305.58984375,-17652.849609375,-400000.0625,-400000.0625,-400000.0625,-21600.869140625,-400000.0625
133.5117564201355,-400000.0625,-18296.33984375,-17646.4609375,-400000.0625,-400000.0625,-400000.0625,-21591.51953125,-400000.0625
133.51176047325134,-400000.0625,-18336.109375,-17682.359375,-400000.0625,-400000.0625,-400000.0625,-21631.669921875,-400000.0625
133.5117645263672,-400000.0625,-18374.779296875,-17715.7890625,-400000.0625,-400000.0625,-400000.0625,-21670.919921875,-400000.0625
133.51176834106445,-400000.0625,-18360.859375,-17703.5390625,-400000.0625,-400000.0625,-400000.0625,-21662.08984375,-400000.0625
133.51177215576172,-400000.0625,-18316.599609375,-17663.529296875,-400000.0625,-400000.0625,-400000.0625,-21617.75,-400000.0625
133.51177716255188,-400000.0625,-18292.48046875,-17646.169921875,-400000.0625,-400000.0625,-400000.0625,-21589.330078125,-400000.0625
133.51178121566772,-400000.0625,-18314.69921875,-17668.580078125,-400000.0625,-400000.0625,-400000.0625,-21616.509765625,-400000.0625
133.511785030365,-400000.0625,-18365.05078125,-17712.310546875,-400000.0625,-400000.0625,-400000.0625,-21670.33984375,-400000.0625
133.51178908348083,-400000.0625,-18380.2109375,-17723.609375,-400000.0625,-400000.0625,-400000.0625,-21686.130859375,-400000.0625
133.5117928981781,-400000.0625,-18341.259765625,-17689.51953125,-400000.0625,-400000.0625,-400000.0625,-21647.599609375,-400000.0625
133.51179695129395,-400000.0625,-18286.51953125,-17643.0703125,-400000.0625,-400000.0625,-400000.0625,-21590.189453125,-400000.0625
133.51180124282837,-400000.0625,-18285.0390625,-17643.55078125,-400000.0625,-400000.0625,-400000.0625,-21587.5703125,-400000.0625
133.51180505752563,-400000.0625,-18341.779296875,-17692.759765625,-400000.0625,-400000.0625,-400000.0625,-21645.169921875,-400000.0625
133.51180911064148,-400000.0625,-18375.259765625,-17716.740234375,-400000.0625,-400000.0625,-400000.0625,-21680.41015625,-400000.0625
133.51181268692017,-400000.0625,-18370.009765625,-17710.310546875,-400000.0625,-400000.0625,-400000.0625,-21671.869140625,-400000.0625
133.511816740036,-400000.0625,-18330.189453125,-17678.5,-400000.0625,-400000.0625,-400000.0625,-21631.669921875,-400000.0625
133.51182055473328,-400000.0625,-18296.580078125,-17650.890625,-400000.0625,-400000.0625,-400000.0625,-21602.779296875,-400000.0625
133.51182436943054,-400000.0625,-18318.75,-17670.58984375,-400000.0625,-400000.0625,-400000.0625,-21622.990234375,-400000.0625
133.5118284225464,-400000.0625,-18368.33984375,-17711.98046875,-400000.0625,-400000.0625,-400000.0625,-21668.9609375,-400000.0625
133.51670241355896,-400000.0625,-18374.16015625,-17717.75,-400000.0625,-400000.0625,-400000.0625,-21674.30078125,-400000.0625
133.5167121887207,-400000.0625,-18341.5,-17691.94921875,-400000.0625,-400000.0625,-400000.0625,-21641.5,-400000.0625
133.51671695709229,-400000.0625,-18300.009765625,-17656.66015625,-400000.0625,-400000.0625,-400000.0625,-21597.48046875,-400000.0625
133.51672101020813,-400000.0625,-18300.490234375,-17659.759765625,-400000.0625,-400000.0625,-400000.0625,-21598.76953125,-400000.0625
133.5167257785797,-400000.0625,-18338.349609375,-17693.140625,-400000.0625,-400000.0625,-400000.0625,-21641.109375,-400000.0625
133.51672959327698,-400000.0625,-18360.94921875,-17711.16015625,-400000.0625,-400000.0625,-400000.0625,-21666.390625,-400000.0625
133.51673364639282,-400000.0625,-18341.109375,-17692.849609375,-400000.0625,-400000.0625,-400000.0625,-21647.41015625,-400000.0625
133.51673793792725,-400000.0625,-18309.359375,-17666.060546875,-400000.0625,-400000.0625,-400000.0625,-21614.55078125,-400000.0625
133.51674246788025,-400000.0625,-18296.529296875,-17654.849609375,-400000.0625,-400000.0625,-400000.0625,-21594.9609375,-400000.0625
133.51674699783325,-400000.0625,-18326.240234375,-17683.599609375,-400000.0625,-400000.0625,-400000.0625,-21624.810546875,-400000.0625
133.51675176620483,-400000.0625,-18368.48046875,-17721.609375,-400000.0625,-400000.0625,-400000.0625,-21668.009765625,-400000.0625
133.51675605773926,-400000.0625,-18371.8203125,-17722.939453125,-400000.0625,-400000.0625,-400000.0625,-21672.5390625,-400000.0625
133.51676034927368,-400000.0625,-18331.8203125,-17684.69921875,-400000.0625,-400000.0625,-400000.0625,-21631.2890625,-400000.0625
133.51676440238953,-400000.0625,-18292.380859375,-17648.4609375,-400000.0625,-400000.0625,-400000.0625,-21587.66015625,-400000.0625
133.51676845550537,-400000.0625,-18298.720703125,-17653.80078125,-400000.0625,-400000.0625,-400000.0625,-21595.05078125,-400000.0625
133.51677250862122,-400000.0625,-18348.41015625,-17696.33984375,-400000.0625,-400000.0625,-400000.0625,-21647.0703125,-400000.0625
133.51677632331848,-400000.0625,-18379.5,-17723.1796875,-400000.0625,-400000.0625,-400000.0625,-21679.5,-400000.0625
133.51678037643433,-400000.0625,-18360.240234375,-17701.099609375,-400000.0625,-400000.0625,-400000.0625,-21653.69921875,-400000.0625
133.5167841911316,-400000.0625,-18308.5,-17655.94921875,-400000.0625,-400000.0625,-400000.0625,-21598.19921875,-400000.0625
133.51678824424744,-400000.0625,-18297.390625,-17649.990234375,-400000.0625,-400000.0625,-400000.0625,-21586.75,-400000.0625
133.51679229736328,-400000.0625,-18328.720703125,-17679.98046875,-400000.0625,-400000.0625,-400000.0625,-21618.990234375,-400000.0625
133.51679635047913,-400000.0625,-18378.16015625,-17721.75,-400000.0625,-400000.0625,-400000.0625,-21668.060546875,-400000.0625
133.51680040359497,-400000.0625,-18379.55078125,-17724.279296875,-400000.0625,-400000.0625,-400000.0625,-21668.48046875,-400000.0625
133.51680445671082,-400000.0625,-18337.970703125,-17691.08984375,-400000.0625,-400000.0625,-400000.0625,-21630.390625,-400000.0625
133.51680850982666,-400000.0625,-18300.869140625,-17662.9609375,-400000.0625,-400000.0625,-400000.0625,-21594.9609375,-400000.0625
133.51681280136108,-400000.0625,-18311.119140625,-17669.779296875,-400000.0625,-400000.0625,-400000.0625,-21599.150390625,-400000.0625
133.51681756973267,-400000.0625,-18351.990234375,-17702.9609375,-400000.0625,-400000.0625,-400000.0625,-21642.970703125,-400000.0625
133.5168216228485,-400000.0625,-18370.9609375,-17715.169921875,-400000.0625,-400000.0625,-400000.0625,-21666.19921875,-400000.0625
133.51682591438293,-400000.0625,-18351.650390625,-17698.4296875,-400000.0625,-400000.0625,-400000.0625,-21644.400390625,-400000.0625
133.51683020591736,-400000.0625,-18321.369140625,-17673.689453125,-400000.0625,-400000.0625,-400000.0625,-21615.599609375,-400000.0625
133.522127866745,-400000.0625,-18300.390625,-17653.75,-400000.0625,-400000.0625,-400000.0625,-21595.76953125,-400000.0625
133.52742505073547,-400000.0625,-18329.859375,-17679.880859375,-400000.0625,-400000.0625,-400000.0625,-21620.08984375,-400000.0625
133.53245043754578,-400000.0625,-18375.01953125,-17718.98046875,-400000.0625,-400000.0625,-400000.0625,-21666.0,-400000.0625
133.5372974872589,-400000.0625,-18377.44921875,-17719.939453125,-400000.0625,-400000.0625,-400000.0625,-21670.580078125,-400000.0625
133.5373089313507,-400000.0625,-18330.529296875,-17681.080078125,-400000.0625,-400000.0625,-400000.0625,-21622.759765625,-400000.0625
133.53731393814087,-400000.0625,-18286.75,-17644.259765625,-400000.0625,-400000.0625,-400000.0625,-21580.890625,-400000.0625
133.5373179912567,-400000.0625,-18291.669921875,-17650.75,-400000.0625,-400000.0625,-400000.0625,-21588.0390625,-400000.0625
133.53732228279114,-400000.0625,-18337.439453125,-17689.66015625,-400000.0625,-400000.0625,-400000.0625,-21633.099609375,-400000.0625
133.53732633590698,-400000.0625,-18359.470703125,-17708.01953125,-400000.0625,-400000.0625,-400000.0625,-21653.69921875,-400000.0625
133.5373306274414,-400000.0625,-18346.5,-17696.240234375,-400000.0625,-400000.0625,-400000.0625,-21641.5,-400000.0625
133.5373351573944,-400000.0625,-18311.119140625,-17667.390625,-400000.0625,-400000.0625,-400000.0625,-21607.119140625,-400000.0625
133.53734040260315,-400000.0625,-18291.05078125,-17653.990234375,-400000.0625,-400000.0625,-400000.0625,-21590.140625,-400000.0625
133.537344455719,-400000.0625,-18316.939453125,-17676.689453125,-400000.0625,-400000.0625,-400000.0625,-21613.220703125,-400000.0625
133.53734874725342,-400000.0625,-18366.009765625,-17716.41015625,-400000.0625,-400000.0625,-400000.0625,-21659.0,-400000.0625
133.53735327720642,-400000.0625,-18368.2890625,-17719.83984375,-400000.0625,-400000.0625,-400000.0625,-21661.05078125,-400000.0625
133.53735756874084,-400000.0625,-18327.330078125,-17683.3203125,-400000.0625,-400000.0625,-400000.0625,-21619.130859375,-400000.0625
133.5373613834381,-400000.0625,-18287.94921875,-17651.890625,-400000.0625,-400000.0625,-400000.0625,-21584.23046875,-400000.0625
133.53736543655396,-400000.0625,-18303.01953125,-17664.150390625,-400000.0625,-400000.0625,-400000.0625,-21598.2890625,-400000.0625
133.53736972808838,-400000.0625,-18345.98046875,-17699.9609375,-400000.0625,-400000.0625,-400000.0625,-21638.830078125,-400000.0625
133.5373740196228,-400000.0625,-18367.48046875,-17719.41015625,-400000.0625,-400000.0625,-400000.0625,-21661.279296875,-400000.0625
133.53737807273865,-400000.0625,-18345.220703125,-17699.19921875,-400000.0625,-400000.0625,-400000.0625,-21635.73046875,-400000.0625
133.53738236427307,-400000.0625,-18298.33984375,-17658.279296875,-400000.0625,-400000.0625,-400000.0625,-21593.4296875,-400000.0625
133.5373866558075,-400000.0625,-18287.369140625,-17648.7890625,-400000.0625,-400000.0625,-400000.0625,-21586.08984375,-400000.0625
133.53739070892334,-400000.0625,-18324.470703125,-17682.599609375,-400000.0625,-400000.0625,-400000.0625,-21623.470703125,-400000.0625
133.53739547729492,-400000.0625,-18371.390625,-17724.609375,-400000.0625,-400000.0625,-400000.0625,-21667.8203125,-400000.0625
133.53739976882935,-400000.0625,-18364.720703125,-17715.98046875,-400000.0625,-400000.0625,-400000.0625,-21664.189453125,-400000.0625
133.53740406036377,-400000.0625,-18320.08984375,-17674.689453125,-400000.0625,-400000.0625,-400000.0625,-21620.80078125,-400000.0625
133.5374083518982,-400000.0625,-18283.66015625,-17641.98046875,-400000.0625,-400000.0625,-400000.0625,-21584.130859375,-400000.0625
133.53741216659546,-400000.0625,-18303.349609375,-17662.76953125,-400000.0625,-400000.0625,-400000.0625,-21604.16015625,-400000.0625
133.53741884231567,-400000.0625,-18364.2890625,-17714.0703125,-400000.0625,-400000.0625,-400000.0625,-21659.470703125,-400000.0625
133.5374231338501,-400000.0625,-18387.220703125,-17730.48046875,-400000.0625,-400000.0625,-400000.0625,-21680.310546875,-400000.0625
133.53742742538452,-400000.0625,-18350.359375,-17700.390625,-400000.0625,-400000.0625,-400000.0625,-21649.169921875,-400000.0625
133.5374312400818,-400000.0625,-18298.580078125,-17657.330078125,-400000.0625,-400000.0625,-400000.0625,-21596.390625,-400000.0625
133.5374355316162,-400000.0625,-18292.48046875,-17650.080078125,-400000.0625,-400000.0625,-400000.0625,-21581.4609375,-400000.0625
133.53743958473206,-400000.0625,-18329.4296875,-17679.9296875,-400000.0625,-400000.0625,-400000.0625,-21620.939453125,-400000.0625
133.5374436378479,-400000.0625,-18364.05078125,-17711.98046875,-400000.0625,-400000.0625,-400000.0625,-21660.66015625,-400000.0625
133.53744769096375,-400000.0625,-18362.810546875,-17714.689453125,-400000.0625,-400000.0625,-400000.0625,-21657.419921875,-400000.0625
133.53745198249817,-400000.0625,-18315.41015625,-17671.58984375,-400000.0625,-400000.0625,-400000.0625,-21613.359375,-400000.0625
133.53745675086975,-400000.0625,-18287.51953125,-17643.7890625,-400000.0625,-400000.0625,-400000.0625,-21581.650390625,-400000.0625
133.54221606254578,-400000.0625,-18311.9296875,-17667.580078125,-400000.0625,-400000.0625,-400000.0625,-21605.30078125,-400000.0625
133.5422248840332,-400000.0625,-18358.470703125,-17705.73046875,-400000.0625,-400000.0625,-400000.0625,-21652.509765625,-400000.0625
133.54223036766052,-400000.0625,-18379.740234375,-17719.69921875,-400000.0625,-400000.0625,-400000.0625,-21676.16015625,-400000.0625
133.5422351360321,-400000.0625,-18350.080078125,-17695.669921875,-400000.0625,-400000.0625,-400000.0625,-21643.5,-400000.0625
133.54223942756653,-400000.0625,-18298.630859375,-17655.990234375,-400000.0625,-400000.0625,-400000.0625,-21592.7109375,-400000.0625
133.54224395751953,-400000.0625,-18294.05078125,-17653.7109375,-400000.0625,-400000.0625,-400000.0625,-21589.51953125,-400000.0625
133.54224801063538,-400000.0625,-18338.400390625,-17688.849609375,-400000.0625,-400000.0625,-400000.0625,-21630.859375,-400000.0625
133.5422523021698,-400000.0625,-18368.2890625,-17715.41015625,-400000.0625,-400000.0625,-400000.0625,-21663.140625,-400000.0625
133.54225635528564,-400000.0625,-18356.470703125,-17702.630859375,-400000.0625,-400000.0625,-400000.0625,-21652.080078125,-400000.0625
133.61604595184326,-400000.0625,-18308.2109375,-17659.7109375,-400000.0625,-400000.0625,-400000.0625,-21605.349609375,-400000.0625
133.63487243652344,-400000.0625,-18282.609375,-17642.2109375,-400000.0625,-400000.0625,-400000.0625,-21581.26953125,-400000.0625
133.64082956314087,-400000.0625,-18302.16015625,-17663.189453125,-400000.0625,-400000.0625,-400000.0625,-21602.439453125,-400000.0625
133.64653658866882,-400000.0625,-18357.759765625,-17709.58984375,-400000.0625,-400000.0625,-400000.0625,-21656.609375,-400000.0625
133.65258812904358,-400000.0625,-18376.0703125,-17721.990234375,-400000.0625,-400000.0625,-400000.0625,-21671.349609375,-400000.0625
133.65790367126465,-400000.0625,-18339.6796875,-17691.419921875,-400000.0625,-400000.0625,-400000.0625,-21636.19921875,-400000.0625
133.6630253791809,-400000.0625,-18299.390625,-17656.23046875,-400000.0625,-400000.0625,-400000.0625,-21592.4296875,-400000.0625
133.67000007629395,-400000.0625,-18301.8203125,-17656.189453125,-400000.0625,-400000.0625,-400000.0625,-21593.529296875,-400000.0625
133.67551612854004,-400000.0625,-18338.16015625,-17687.939453125,-400000.0625,-400000.0625,-400000.0625,-21633.25,-400000.0625
133.68109369277954,-400000.0625,-18374.5390625,-17717.359375,-400000.0625,-400000.0625,-400000.0625,-21667.529296875,-400000.0625
133.69053292274475,-400000.0625,-18363.529296875,-17707.5390625,-400000.0625,-400000.0625,-400000.0625,-21657.66015625,-400000.0625
133.69549441337585,-400000.0625,-18322.330078125,-17670.73046875,-400000.0625,-400000.0625,-400000.0625,-21613.98046875,-400000.0625
133.69550824165344,-400000.0625,-18296.8203125,-17651.130859375,-400000.0625,-400000.0625,-400000.0625,-21590.66015625,-400000.0625
133.69551372528076,-400000.0625,-18321.51953125,-17673.919921875,-400000.0625,-400000.0625,-400000.0625,-21616.220703125,-400000.0625
133.69551849365234,-400000.0625,-18373.060546875,-17716.740234375,-400000.0625,-400000.0625,-400000.0625,-21663.720703125,-400000.0625
133.6955225467682,-400000.0625,-18381.029296875,-17720.890625,-400000.0625,-400000.0625,-400000.0625,-21669.19921875,-400000.0625
133.6955268383026,-400000.0625,-18340.400390625,-17686.75,-400000.0625,-400000.0625,-400000.0625,-21630.619140625,-400000.0625
133.6955316066742,-400000.0625,-18297.869140625,-17650.69921875,-400000.0625,-400000.0625,-400000.0625,-21585.369140625,-400000.0625
133.69553589820862,-400000.0625,-18290.900390625,-17642.55078125,-400000.0625,-400000.0625,-400000.0625,-21578.169921875,-400000.0625
133.69554018974304,-400000.0625,-18338.630859375,-17685.26953125,-400000.0625,-400000.0625,-400000.0625,-21627.810546875,-400000.0625
133.70087456703186,-400000.0625,-18376.2109375,-17716.55078125,-400000.0625,-400000.0625,-400000.0625,-21664.33984375,-400000.0625
133.70600366592407,-400000.0625,-18354.470703125,-17697.669921875,-400000.0625,-400000.0625,-400000.0625,-21647.9296875,-400000.0625
133.7115387916565,-400000.0625,-18312.890625,-17660.189453125,-400000.0625,-400000.0625,-400000.0625,-21603.16015625,-400000.0625
133.71786832809448,-400000.0625,-18302.060546875,-17650.3203125,-400000.0625,-400000.0625,-400000.0625,-21584.890625,-400000.0625
133.73241209983826,-400000.0625,-18329.619140625,-17676.880859375,-400000.0625,-400000.0625,-400000.0625,-21619.26953125,-400000.0625
133.73821258544922,-400000.0625,-18366.9609375,-17706.009765625,-400000.0625,-400000.0625,-400000.0625,-21660.140625,-400000.0625
133.74339723587036,-400000.0625,-18377.970703125,-17712.7890625,-400000.0625,-400000.0625,-400000.0625,-21669.25,-400000.0625
133.7491478919983,-400000.0625,-18344.2109375,-17685.939453125,-400000.0625,-400000.0625,-400000.0625,-21636.25,-400000.0625
133.75508213043213,-400000.0625,-18307.5390625,-17656.849609375,-400000.0625,-400000.0625,-400000.0625,-21600.30078125,-400000.0625
133.76122856140137,-400000.0625,-18305.880859375,-17656.279296875,-400000.0625,-400000.0625,-400000.0625,-21600.630859375,-400000.0625
133.76732754707336,-400000.0625,-18342.9296875,-17686.66015625,-400000.0625,-400000.0625,-400000.0625,-21637.919921875,-400000.0625
133.77289748191833,-400000.0625,-18371.439453125,-17709.5,-400000.0625,-400000.0625,-400000.0625,-21661.470703125,-400000.0625
133.7779505252838,-400000.0625,-18353.849609375,-17690.849609375,-400000.0625,-400000.0625,-400000.0625,-21644.880859375,-400000.0625
133.78421235084534,-400000.0625,-18308.119140625,-17650.990234375,-400000.0625,-400000.0625,-400000.0625,-21601.060546875,-400000.0625
133.78978323936462,-400000.0625,-18294.2890625,-17642.310546875,-400000.0625,-400000.0625,-400000.0625,-21582.3203125,-400000.0625
133.79488062858582,-400000.0625,-18325.759765625,-17670.6796875,-400000.0625,-400000.0625,-400000.0625,-21615.599609375,-400000.0625
133.80086374282837,-400000.0625,-18372.5390625,-17710.2109375,-400000.0625,-400000.0625,-400000.0625,-21665.859375,-400000.0625
133.8058726787567,-400000.0625,-18380.359375,-17711.58984375,-400000.0625,-400000.0625,-400000.0625,-21674.109375,-400000.0625
133.81071639060974,-400000.0625,-18345.7890625,-17680.0703125,-400000.0625,-400000.0625,-400000.0625,-21635.76953125,-400000.0625
133.81072568893433,-400000.0625,-18296.76953125,-17639.259765625,-400000.0625,-400000.0625,-400000.0625,-21589.7109375,-400000.0625
133.81073021888733,-400000.0625,-18301.8203125,-17647.029296875,-400000.0625,-400000.0625,-400000.0625,-21594.380859375,-400000.0625
133.81073427200317,-400000.0625,-18360.94921875,-17698.0,-400000.0625,-400000.0625,-400000.0625,-21649.41015625,-400000.0625
133.81073832511902,-400000.0625,-18387.609375,-17718.3203125,-400000.0625,-400000.0625,-400000.0625,-21673.25,-400000.0625
133.81074213981628,-400000.0625,-18357.369140625,-17693.810546875,-400000.0625,-400000.0625,-400000.0625,-21653.4609375,-400000.0625
133.81074619293213,-400000.0625,-18313.220703125,-17654.7109375,-400000.0625,-400000.0625,-400000.0625,-21612.41015625,-400000.0625
133.81075024604797,-400000.0625,-18294.48046875,-17638.5390625,-400000.0625,-400000.0625,-400000.0625,-21589.380859375,-400000.0625
133.81075429916382,-400000.0625,-18320.130859375,-17661.529296875,-400000.0625,-400000.0625,-400000.0625,-21613.69921875,-400000.0625
133.81075811386108,-400000.0625,-18367.9609375,-17703.8203125,-400000.0625,-400000.0625,-400000.0625,-21661.4296875,-400000.0625
133.81076216697693,-400000.0625,-18374.919921875,-17710.830078125,-400000.0625,-400000.0625,-400000.0625,-21667.630859375,-400000.0625
133.81076645851135,-400000.0625,-18337.109375,-17676.44921875,-400000.0625,-400000.0625,-400000.0625,-21626.669921875,-400000.0625
133.81077027320862,-400000.0625,-18307.9296875,-17650.080078125,-400000.0625,-400000.0625,-400000.0625,-21600.30078125,-400000.0625
133.81077408790588,-400000.0625,-18316.130859375,-17659.619140625,-400000.0625,-400000.0625,-400000.0625,-21608.310546875,-400000.0625
133.81077790260315,-400000.0625,-18362.619140625,-17700.76953125,-400000.0625,-400000.0625,-400000.0625,-21646.0703125,-400000.0625
133.81078219413757,-400000.0625,-18384.650390625,-17718.98046875,-400000.0625,-400000.0625,-400000.0625,-21670.76953125,-400000.0625
133.810786485672,-400000.0625,-18359.759765625,-17696.099609375,-400000.0625,-400000.0625,-400000.0625,-21646.220703125,-400000.0625
133.81079053878784,-400000.0625,-18313.9296875,-17660.189453125,-400000.0625,-400000.0625,-400000.0625,-21601.109375,-400000.0625
133.81079411506653,-400000.0625,-18292.330078125,-17646.029296875,-400000.0625,-400000.0625,-400000.0625,-21583.419921875,-400000.0625
133.8107979297638,-400000.0625,-18331.8203125,-17678.119140625,-400000.0625,-400000.0625,-400000.0625,-21624.380859375,-400000.0625
133.81080198287964,-400000.0625,-18374.640625,-17715.5,-400000.0625,-400000.0625,-400000.0625,-21664.5703125,-400000.0625
133.8108057975769,-400000.0625,-18372.30078125,-17712.169921875,-400000.0625,-400000.0625,-400000.0625,-21660.0,-400000.0625
133.81080961227417,-400000.0625,-18328.140625,-17676.310546875,-400000.0625,-400000.0625,-400000.0625,-21622.849609375,-400000.0625
133.81081366539001,-400000.0625,-18301.30078125,-17650.890625,-400000.0625,-400000.0625,-400000.0625,-21592.5703125,-400000.0625
133.81081748008728,-400000.0625,-18315.080078125,-17663.05078125,-400000.0625,-400000.0625,-400000.0625,-21603.779296875,-400000.0625
133.81082153320312,-400000.0625,-18358.419921875,-17701.580078125,-400000.0625,-400000.0625,-400000.0625,-21651.130859375,-400000.0625
133.81696152687073,-400000.0625,-18386.80078125,-17724.94921875,-400000.0625,-400000.0625,-400000.0625,-21674.830078125,-400000.0625
133.82190489768982,-400000.0625,-18358.0390625,-17700.009765625,-400000.0625,-400000.0625,-400000.0625,-21643.359375,-400000.0625
133.82999658584595,-400000.0625,-18309.310546875,-17658.900390625,-400000.0625,-400000.0625,-400000.0625,-21594.91015625,-400000.0625
133.8348741531372,-400000.0625,-18301.30078125,-17652.939453125,-400000.0625,-400000.0625,-400000.0625,-21586.849609375,-400000.0625
133.83488512039185,-400000.0625,-18337.630859375,-17683.26953125,-400000.0625,-400000.0625,-400000.0625,-21623.380859375,-400000.0625
133.83489060401917,-400000.0625,-18378.01953125,-17715.890625,-400000.0625,-400000.0625,-400000.0625,-21665.380859375,-400000.0625
133.834894657135,-400000.0625,-18377.5,-17715.83984375,-400000.0625,-400000.0625,-400000.0625,-21666.859375,-400000.0625
133.83489871025085,-400000.0625,-18332.580078125,-17674.58984375,-400000.0625,-400000.0625,-400000.0625,-21620.7109375,-400000.0625
133.83490300178528,-400000.0625,-18293.240234375,-17641.830078125,-400000.0625,-400000.0625,-400000.0625,-21586.75,-400000.0625
133.83490753173828,-400000.0625,-18310.01953125,-17660.189453125,-400000.0625,-400000.0625,-400000.0625,-21601.060546875,-400000.0625
133.83491206169128,-400000.0625,-18354.080078125,-17696.4296875,-400000.0625,-400000.0625,-400000.0625,-21642.0703125,-400000.0625
133.83491611480713,-400000.0625,-18371.5390625,-17712.640625,-400000.0625,-400000.0625,-400000.0625,-21663.94921875,-400000.0625
133.83492255210876,-400000.0625,-18344.2109375,-17688.279296875,-400000.0625,-400000.0625,-400000.0625,-21638.830078125,-400000.0625
133.8349268436432,-400000.0625,-18301.869140625,-17654.23046875,-400000.0625,-400000.0625,-400000.0625,-21595.2890625,-400000.0625
133.8349311351776,-400000.0625,-18298.91015625,-17651.609375,-400000.0625,-400000.0625,-400000.0625,-21584.080078125,-400000.0625
133.83493542671204,-400000.0625,-18337.5390625,-17685.75,-400000.0625,-400000.0625,-400000.0625,-21623.51953125,-400000.0625
133.87727642059326,-400000.0625,-18371.490234375,-17716.310546875,-400000.0625,-400000.0625,-400000.0625,-21659.66015625,-400000.0625
133.88196921348572,-400000.0625,-18368.19921875,-17711.16015625,-400000.0625,-400000.0625,-400000.0625,-21657.23046875,-400000.0625
133.8819797039032,-400000.0625,-18329.619140625,-17673.689453125,-400000.0625,-400000.0625,-400000.0625,-21615.220703125,-400000.0625
133.88198471069336,-400000.0625,-18312.890625,-17656.51953125,-400000.0625,-400000.0625,-400000.0625,-21590.470703125,-400000.0625
133.88198900222778,-400000.0625,-18348.169921875,-17679.650390625,-400000.0625,-400000.0625,-400000.0625,-21618.849609375,-400000.0625
133.88199305534363,-400000.0625,-18405.919921875,-17725.369140625,-400000.0625,-400000.0625,-400000.0625,-21674.490234375,-400000.0625
133.88199734687805,-400000.0625,-18414.119140625,-17740.390625,-400000.0625,-400000.0625,-400000.0625,-21680.7890625,-400000.0625
133.8820025920868,-400000.0625,-18381.7890625,-17713.740234375,-400000.0625,-400000.0625,-400000.0625,-21644.58984375,-400000.0625
133.88200545310974,-400000.0625,-18356.23046875,-17683.69921875,-400000.0625,-400000.0625,-400000.0625,-21611.220703125,-400000.0625
133.88200974464417,-400000.0625,-18357.279296875,-17681.890625,-400000.0625,-400000.0625,-400000.0625,-21606.830078125,-400000.0625
133.88201355934143,-400000.0625,-18416.44921875,-17732.240234375,-400000.0625,-400000.0625,-400000.0625,-21656.66015625,-400000.0625
133.882018327713,-400000.0625,-18471.2890625,-17776.060546875,-400000.0625,-400000.0625,-400000.0625,-21703.529296875,-400000.0625
133.88202166557312,-400000.0625,-18477.30078125,-17778.919921875,-400000.0625,-400000.0625,-400000.0625,-21700.580078125,-400000.0625
133.88202500343323,-400000.0625,-18432.0,-17740.630859375,-400000.0625,-400000.0625,-400000.0625,-21645.7890625,-400000.0625
133.88202905654907,-400000.0625,-18424.470703125,-17730.05078125,-400000.0625,-400000.0625,-400000.0625,-21624.759765625,-400000.0625
133.88203287124634,-400000.0625,-18467.240234375,-17762.330078125,-400000.0625,-400000.0625,-400000.0625,-21655.849609375,-400000.0625
133.92573952674866,-400000.0625,-18514.6796875,-17811.009765625,-400000.0625,-400000.0625,-400000.0625,-21703.8203125,-400000.0625
133.93908047676086,-400000.0625,-18541.150390625,-17828.0390625,-400000.0625,-400000.0625,-400000.0625,-21719.029296875,-400000.0625
133.94375681877136,-400000.0625,-18529.130859375,-17808.109375,-400000.0625,-400000.0625,-400000.0625,-21693.08984375,-400000.0625
133.94376587867737,-400000.0625,-18499.5703125,-17784.689453125,-400000.0625,-400000.0625,-400000.0625,-21650.7890625,-400000.0625
133.94377040863037,-400000.0625,-18499.51953125,-17792.130859375,-400000.0625,-400000.0625,-400000.0625,-21650.75,-400000.0625
133.94377446174622,-400000.0625,-18547.25,-17832.849609375,-400000.0625,-400000.0625,-400000.0625,-21695.0390625,-400000.0625
133.94377875328064,-400000.0625,-18587.5,-17862.849609375,-400000.0625,-400000.0625,-400000.0625,-21727.330078125,-400000.0625
133.94378352165222,-400000.0625,-18587.640625,-17857.740234375,-400000.0625,-400000.0625,-400000.0625,-21721.029296875,-400000.0625
133.94378781318665,-400000.0625,-18545.8203125,-17823.41015625,-400000.0625,-400000.0625,-400000.0625,-21678.55078125,-400000.0625
133.9437918663025,-400000.0625,-18527.69921875,-17806.390625,-400000.0625,-400000.0625,-400000.0625,-21653.509765625,-400000.0625
133.9437961578369,-400000.0625,-18556.689453125,-17829.130859375,-400000.0625,-400000.0625,-400000.0625,-21674.58984375,-400000.0625
133.94380068778992,-400000.0625,-18593.41015625,-17858.560546875,-400000.0625,-400000.0625,-400000.0625,-21719.7890625,-400000.0625
133.94380497932434,-400000.0625,-18608.4296875,-17864.1796875,-400000.0625,-400000.0625,-400000.0625,-21730.51953125,-400000.0625
133.94380903244019,-400000.0625,-18568.80078125,-17831.1796875,-400000.0625,-400000.0625,-400000.0625,-21691.0390625,-400000.0625
133.94381308555603,-400000.0625,-18520.9296875,-17790.69921875,-400000.0625,-400000.0625,-400000.0625,-21644.55078125,-400000.0625
133.94381666183472,-400000.0625,-18526.41015625,-17798.380859375,-400000.0625,-400000.0625,-400000.0625,-21650.69921875,-400000.0625
134.0330114364624,-400000.0625,-18577.859375,-17845.109375,-400000.0625,-400000.0625,-400000.0625,-21703.25,-400000.0625
134.04837608337402,-400000.0625,-18611.720703125,-17868.810546875,-400000.0625,-400000.0625,-400000.0625,-21735.619140625,-400000.0625
134.0540325641632,-400000.0625,-18601.470703125,-17857.599609375,-400000.0625,-400000.0625,-400000.0625,-21723.130859375,-400000.0625
134.0597848892212,-400000.0625,-18551.0703125,-17814.349609375,-400000.0625,-400000.0625,-400000.0625,-21676.16015625,-400000.0625
134.06482005119324,-400000.0625,-18520.640625,-17790.890625,-400000.0625,-400000.0625,-400000.0625,-21647.740234375,-400000.0625
134.07186937332153,-400000.0625,-18540.619140625,-17809.390625,-400000.0625,-400000.0625,-400000.0625,-21667.48046875,-400000.0625
134.07778692245483,-400000.0625,-18586.0703125,-17849.779296875,-400000.0625,-400000.0625,-400000.0625,-21716.169921875,-400000.0625
134.0839295387268,-400000.0625,-18594.029296875,-17853.9296875,-400000.0625,-400000.0625,-400000.0625,-21721.26953125,-400000.0625
134.0895481109619,-400000.0625,-18558.650390625,-17821.83984375,-400000.0625,-400000.0625,-400000.0625,-21680.98046875,-400000.0625
134.09444165229797,-400000.0625,-18521.5,-17795.759765625,-400000.0625,-400000.0625,-400000.0625,-21643.740234375,-400000.0625
134.0944516658783,-400000.0625,-18521.41015625,-17795.990234375,-400000.0625,-400000.0625,-400000.0625,-21642.16015625,-400000.0625
134.09445691108704,-400000.0625,-18563.130859375,-17831.5703125,-400000.0625,-400000.0625,-400000.0625,-21688.849609375,-400000.0625
134.09446167945862,-400000.0625,-18593.169921875,-17858.83984375,-400000.0625,-400000.0625,-400000.0625,-21721.560546875,-400000.0625
134.09446620941162,-400000.0625,-18574.91015625,-17840.529296875,-400000.0625,-400000.0625,-400000.0625,-21703.76953125,-400000.0625
134.09447050094604,-400000.0625,-18531.849609375,-17802.810546875,-400000.0625,-400000.0625,-400000.0625,-21664.810546875,-400000.0625
134.0944745540619,-400000.0625,-18511.630859375,-17790.220703125,-400000.0625,-400000.0625,-400000.0625,-21641.44921875,-400000.0625
134.09447860717773,-400000.0625,-18539.0,-17813.01953125,-400000.0625,-400000.0625,-400000.0625,-21666.720703125,-400000.0625
134.09448289871216,-400000.0625,-18583.490234375,-17847.640625,-400000.0625,-400000.0625,-400000.0625,-21710.16015625,-400000.0625
134.09448671340942,-400000.0625,-18589.640625,-17848.01953125,-400000.0625,-400000.0625,-400000.0625,-21711.779296875,-400000.0625
134.09449124336243,-400000.0625,-18537.859375,-17801.2890625,-400000.0625,-400000.0625,-400000.0625,-21666.150390625,-400000.0625
134.09449529647827,-400000.0625,-18500.0390625,-17770.439453125,-400000.0625,-400000.0625,-400000.0625,-21629.05078125,-400000.0625
134.09449934959412,-400000.0625,-18516.73046875,-17792.130859375,-400000.0625,-400000.0625,-400000.0625,-21647.0703125,-400000.0625
134.09450340270996,-400000.0625,-18564.80078125,-17834.380859375,-400000.0625,-400000.0625,-400000.0625,-21698.759765625,-400000.0625
134.09450793266296,-400000.0625,-18596.599609375,-17858.560546875,-400000.0625,-400000.0625,-400000.0625,-21730.619140625,-400000.0625
134.0945119857788,-400000.0625,-18573.48046875,-17836.859375,-400000.0625,-400000.0625,-400000.0625,-21708.8203125,-400000.0625
134.09451603889465,-400000.0625,-18528.029296875,-17798.859375,-400000.0625,-400000.0625,-400000.0625,-21660.759765625,-400000.0625
134.0945200920105,-400000.0625,-18509.439453125,-17779.30078125,-400000.0625,-400000.0625,-400000.0625,-21636.009765625,-400000.0625
134.09452414512634,-400000.0625,-18540.48046875,-17807.6796875,-400000.0625,-400000.0625,-400000.0625,-21671.630859375,-400000.0625
134.0945281982422,-400000.0625,-18590.259765625,-17852.119140625,-400000.0625,-400000.0625,-400000.0625,-21718.4609375,-400000.0625
134.0945327281952,-400000.0625,-18585.919921875,-17847.869140625,-400000.0625,-400000.0625,-400000.0625,-21717.119140625,-400000.0625
134.09453701972961,-400000.0625,-18551.5390625,-17819.880859375,-400000.0625,-400000.0625,-400000.0625,-21685.169921875,-400000.0625
134.09454131126404,-400000.0625,-18519.830078125,-17792.419921875,-400000.0625,-400000.0625,-400000.0625,-21649.740234375,-400000.0625
134.1056776046753,-400000.0625,-18523.220703125,-17799.189453125,-400000.0625,-400000.0625,-400000.0625,-21655.419921875,-400000.0625
134.1113202571869,-400000.0625,-18563.369140625,-17833.380859375,-400000.0625,-400000.0625,-400000.0625,-21692.140625,-400000.0625
134.11694383621216,-400000.0625,-18583.490234375,-17851.0703125,-400000.0625,-400000.0625,-400000.0625,-21712.349609375,-400000.0625
134.12220668792725,-400000.0625,-18570.0,-17837.48046875,-400000.0625,-400000.0625,-400000.0625,-21701.390625,-400000.0625
134.12751293182373,-400000.0625,-18532.23046875,-17804.0,-400000.0625,-400000.0625,-400000.0625,-21665.150390625,-400000.0625
134.13312005996704,-400000.0625,-18506.33984375,-17784.599609375,-400000.0625,-400000.0625,-400000.0625,-21641.400390625,-400000.0625
134.15048360824585,-400000.0625,-18543.19921875,-17816.880859375,-400000.0625,-400000.0625,-400000.0625,-21677.16015625,-400000.0625
134.15632009506226,-400000.0625,-18591.83984375,-17854.599609375,-400000.0625,-400000.0625,-400000.0625,-21725.560546875,-400000.0625
134.16127800941467,-400000.0625,-18596.029296875,-17855.880859375,-400000.0625,-400000.0625,-400000.0625,-21725.279296875,-400000.0625
134.16128635406494,-400000.0625,-18554.119140625,-17819.220703125,-400000.0625,-400000.0625,-400000.0625,-21688.509765625,-400000.0625
134.16129159927368,-400000.0625,-18518.01953125,-17787.98046875,-400000.0625,-400000.0625,-400000.0625,-21652.75,-400000.0625
134.16129612922668,-400000.0625,-18525.509765625,-17799.7109375,-400000.0625,-400000.0625,-400000.0625,-21662.330078125,-400000.0625
134.16130018234253,-400000.0625,-18567.419921875,-17836.48046875,-400000.0625,-400000.0625,-400000.0625,-21701.8203125,-400000.0625
134.16130471229553,-400000.0625,-18590.01953125,-17852.259765625,-400000.0625,-400000.0625,-400000.0625,-21716.880859375,-400000.0625
134.16130900382996,-400000.0625,-18567.330078125,-17832.0390625,-400000.0625,-400000.0625,-400000.0625,-21699.240234375,-400000.0625
134.16131329536438,-400000.0625,-18519.0703125,-17791.3203125,-400000.0625,-400000.0625,-400000.0625,-21656.130859375,-400000.0625
134.18299221992493,-400000.0625,-18514.919921875,-17790.4609375,-400000.0625,-400000.0625,-400000.0625,-21645.01953125,-400000.0625
134.18911242485046,-400000.0625,-18549.349609375,-17820.26953125,-400000.0625,-400000.0625,-400000.0625,-21678.5,-400000.0625
134.1938672065735,-400000.0625,-18594.119140625,-17855.220703125,-400000.0625,-400000.0625,-400000.0625,-21719.740234375,-400000.0625
134.19387817382812,-400000.0625,-18600.080078125,-17857.119140625,-400000.0625,-400000.0625,-400000.0625,-21725.939453125,-400000.0625
134.19388222694397,-400000.0625,-18546.060546875,-17810.970703125,-400000.0625,-400000.0625,-400000.0625,-21674.779296875,-400000.0625
134.19388675689697,-400000.0625,-18508.009765625,-17782.98046875,-400000.0625,-400000.0625,-400000.0625,-21639.6796875,-400000.0625
134.19389057159424,-400000.0625,-18515.5390625,-17790.890625,-400000.0625,-400000.0625,-400000.0625,-21651.1796875,-400000.0625
134.19389414787292,-400000.0625,-18564.849609375,-17834.380859375,-400000.0625,-400000.0625,-400000.0625,-21705.580078125,-400000.0625
134.1938979625702,-400000.0625,-18587.310546875,-17857.119140625,-400000.0625,-400000.0625,-400000.0625,-21727.0390625,-400000.0625
134.1939024925232,-400000.0625,-18559.3203125,-17833.900390625,-400000.0625,-400000.0625,-400000.0625,-21699.859375,-400000.0625
134.19390678405762,-400000.0625,-18520.55078125,-17796.140625,-400000.0625,-400000.0625,-400000.0625,-21659.7109375,-400000.0625
134.19391059875488,-400000.0625,-18512.5390625,-17786.41015625,-400000.0625,-400000.0625,-400000.0625,-21645.119140625,-400000.0625
134.1939148902893,-400000.0625,-18544.9609375,-17815.310546875,-400000.0625,-400000.0625,-400000.0625,-21680.55078125,-400000.0625
134.19391918182373,-400000.0625,-18587.0703125,-17850.310546875,-400000.0625,-400000.0625,-400000.0625,-21722.560546875,-400000.0625
134.19392371177673,-400000.0625,-18582.5390625,-17845.5390625,-400000.0625,-400000.0625,-400000.0625,-21716.169921875,-400000.0625
134.19392776489258,-400000.0625,-18534.279296875,-17803.529296875,-400000.0625,-400000.0625,-400000.0625,-21670.869140625,-400000.0625
134.2655153274536,-400000.0625,-18501.380859375,-17777.44921875,-400000.0625,-400000.0625,-400000.0625,-21640.109375,-400000.0625
134.2786409854889,-400000.0625,-18518.119140625,-17793.509765625,-400000.0625,-400000.0625,-400000.0625,-21657.80078125,-400000.0625
134.28347277641296,-400000.0625,-18569.810546875,-17836.140625,-400000.0625,-400000.0625,-400000.0625,-21707.390625,-400000.0625
134.28348326683044,-400000.0625,-18592.220703125,-17853.41015625,-400000.0625,-400000.0625,-400000.0625,-21729.419921875,-400000.0625
134.28348803520203,-400000.0625,-18554.5,-17820.0703125,-400000.0625,-400000.0625,-400000.0625,-21694.5703125,-400000.0625
134.28349256515503,-400000.0625,-18508.580078125,-17781.16015625,-400000.0625,-400000.0625,-400000.0625,-21645.98046875,-400000.0625
134.2834975719452,-400000.0625,-18504.240234375,-17780.740234375,-400000.0625,-400000.0625,-400000.0625,-21639.869140625,-400000.0625
134.28350138664246,-400000.0625,-18542.9609375,-17810.869140625,-400000.0625,-400000.0625,-400000.0625,-21677.349609375,-400000.0625
134.28350520133972,-400000.0625,-18571.08984375,-17834.140625,-400000.0625,-400000.0625,-400000.0625,-21709.919921875,-400000.0625
134.28350925445557,-400000.0625,-18564.75,-17830.7109375,-400000.0625,-400000.0625,-400000.0625,-21709.349609375,-400000.0625
134.28351354599,-400000.0625,-18526.080078125,-17792.939453125,-400000.0625,-400000.0625,-400000.0625,-21665.859375,-400000.0625
134.283518075943,-400000.0625,-18494.66015625,-17766.099609375,-400000.0625,-400000.0625,-400000.0625,-21632.580078125,-400000.0625
134.28352236747742,-400000.0625,-18519.9296875,-17790.650390625,-400000.0625,-400000.0625,-400000.0625,-21652.83984375,-400000.0625
134.28352642059326,-400000.0625,-18570.5703125,-17836.05078125,-400000.0625,-400000.0625,-400000.0625,-21709.970703125,-400000.0625
134.2835304737091,-400000.0625,-18580.150390625,-17841.060546875,-400000.0625,-400000.0625,-400000.0625,-21719.3203125,-400000.0625
134.2835350036621,-400000.0625,-18549.869140625,-17814.109375,-400000.0625,-400000.0625,-400000.0625,-21683.220703125,-400000.0625
134.28353881835938,-400000.0625,-18504.240234375,-17777.400390625,-400000.0625,-400000.0625,-400000.0625,-21635.490234375,-400000.0625
134.28354334831238,-400000.0625,-18500.759765625,-17780.119140625,-400000.0625,-400000.0625,-400000.0625,-21636.76953125,-400000.0625
134.28354740142822,-400000.0625,-18546.25,-17819.740234375,-400000.0625,-400000.0625,-400000.0625,-21682.5,-400000.0625
134.2835512161255,-400000.0625,-18588.16015625,-17853.599609375,-400000.0625,-400000.0625,-400000.0625,-21719.890625,-400000.0625
134.28355503082275,-400000.0625,-18577.240234375,-17839.9609375,-400000.0625,-400000.0625,-400000.0625,-21709.5390625,-400000.0625
134.28355884552002,-400000.0625,-18523.41015625,-17790.130859375,-400000.0625,-400000.0625,-400000.0625,-21658.7109375,-400000.0625
134.28356337547302,-400000.0625,-18498.900390625,-17770.33984375,-400000.0625,-400000.0625,-400000.0625,-21632.720703125,-400000.0625
134.28356766700745,-400000.0625,-18521.599609375,-17793.7109375,-400000.0625,-400000.0625,-400000.0625,-21654.3203125,-400000.0625
134.2835717201233,-400000.0625,-18567.51953125,-17835.08984375,-400000.0625,-400000.0625,-400000.0625,-21699.2890625,-400000.0625
134.28357529640198,-400000.0625,-18586.58984375,-17849.5390625,-400000.0625,-400000.0625,-400000.0625,-21718.119140625,-400000.0625
134.28357934951782,-400000.0625,-18554.98046875,-17819.7890625,-400000.0625,-400000.0625,-400000.0625,-21686.26953125,-400000.0625
134.28358364105225,-400000.0625,-18511.009765625,-17784.55078125,-400000.0625,-400000.0625,-400000.0625,-21642.400390625,-400000.0625
134.2835874557495,-400000.0625,-18501.330078125,-17782.2109375,-400000.0625,-400000.0625,-400000.0625,-21633.009765625,-400000.0625
134.28359150886536,-400000.0625,-18542.2890625,-17815.2109375,-400000.0625,-400000.0625,-400000.0625,-21675.400390625,-400000.0625
134.28359532356262,-400000.0625,-18582.109375,-17849.689453125,-400000.0625,-400000.0625,-400000.0625,-21717.41015625,-400000.0625
134.2835991382599,-400000.0625,-18577.91015625,-17844.490234375,-400000.0625,-400000.0625,-400000.0625,-21707.779296875,-400000.0625
134.33450269699097,-400000.0625,-18524.599609375,-17799.05078125,-400000.0625,-400000.0625,-400000.0625,-21655.66015625,-400000.0625
134.33930659294128,-400000.0625,-18488.55078125,-17766.810546875,-400000.0625,-400000.0625,-400000.0625,-21620.130859375,-400000.0625
134.3393156528473,-400000.0625,-18527.83984375,-17803.91015625,-400000.0625,-400000.0625,-400000.0625,-21658.380859375,-400000.0625
134.33932042121887,-400000.0625,-18587.880859375,-17857.4609375,-400000.0625,-400000.0625,-400000.0625,-21714.5,-400000.0625
134.3393247127533,-400000.0625,-18595.75,-17861.75,-400000.0625,-400000.0625,-400000.0625,-21727.369140625,-400000.0625
134.33932852745056,-400000.0625,-18553.640625,-17824.83984375,-400000.0625,-400000.0625,-400000.0625,-21690.23046875,-400000.0625
134.33933210372925,-400000.0625,-18510.76953125,-17791.080078125,-400000.0625,-400000.0625,-400000.0625,-21643.880859375,-400000.0625
134.3393359184265,-400000.0625,-18506.099609375,-17788.599609375,-400000.0625,-400000.0625,-400000.0625,-21640.779296875,-400000.0625
134.33933973312378,-400000.0625,-18553.349609375,-17824.939453125,-400000.0625,-400000.0625,-400000.0625,-21681.98046875,-400000.0625
134.3393430709839,-400000.0625,-18581.8203125,-17843.150390625,-400000.0625,-400000.0625,-400000.0625,-21704.060546875,-400000.0625
134.33934688568115,-400000.0625,-18572.900390625,-17828.0390625,-400000.0625,-400000.0625,-400000.0625,-21689.26953125,-400000.0625
134.339350938797,-400000.0625,-18534.94921875,-17797.08984375,-400000.0625,-400000.0625,-400000.0625,-21656.279296875,-400000.0625
134.33935475349426,-400000.0625,-18509.490234375,-17781.98046875,-400000.0625,-400000.0625,-400000.0625,-21639.919921875,-400000.0625
134.33935809135437,-400000.0625,-18546.060546875,-17808.490234375,-400000.0625,-400000.0625,-400000.0625,-21669.009765625,-400000.0625
134.33936166763306,-400000.0625,-18613.009765625,-17834.94921875,-400000.0625,-400000.0625,-400000.0625,-21706.6796875,-400000.0625
134.33936524391174,-400000.0625,-18618.779296875,-17835.189453125,-400000.0625,-400000.0625,-400000.0625,-21707.109375,-400000.0625
134.41652464866638,-400000.0625,-18598.990234375,-17803.810546875,-400000.0625,-400000.0625,-400000.0625,-21673.009765625,-400000.0625
134.43176364898682,-400000.0625,-18556.119140625,-17764.94921875,-400000.0625,-400000.0625,-400000.0625,-21630.810546875,-400000.0625
134.43872594833374,-400000.0625,-18553.119140625,-17783.119140625,-400000.0625,-400000.0625,-400000.0625,-21645.830078125,-400000.0625
134.44342231750488,-400000.0625,-18577.009765625,-17837.380859375,-400000.0625,-400000.0625,-400000.0625,-21683.9296875,-400000.0625
134.44343447685242,-400000.0625,-18644.140625,-17860.560546875,-400000.0625,-400000.0625,-400000.0625,-21706.25,-400000.0625
134.44343948364258,-400000.0625,-18650.19921875,-17839.099609375,-400000.0625,-400000.0625,-400000.0625,-21697.810546875,-400000.0625
134.44344329833984,-400000.0625,-18629.26953125,-17808.73046875,-400000.0625,-400000.0625,-400000.0625,-21652.3203125,-400000.0625
134.4434473514557,-400000.0625,-18563.939453125,-17803.720703125,-400000.0625,-400000.0625,-400000.0625,-21640.16015625,-400000.0625
134.44345116615295,-400000.0625,-18591.220703125,-17847.970703125,-400000.0625,-400000.0625,-400000.0625,-21684.509765625,-400000.0625
134.44345498085022,-400000.0625,-18689.30078125,-17893.130859375,-400000.0625,-400000.0625,-400000.0625,-21730.759765625,-400000.0625
134.44345879554749,-400000.0625,-18727.73046875,-17901.7109375,-400000.0625,-400000.0625,-400000.0625,-21728.849609375,-400000.0625
134.44346237182617,-400000.0625,-18722.009765625,-17877.2890625,-400000.0625,-400000.0625,-400000.0625,-21689.849609375,-400000.0625
134.44346618652344,-400000.0625,-18733.890625,-17869.279296875,-400000.0625,-400000.0625,-400000.0625,-21663.759765625,-400000.0625
134.44346976280212,-400000.0625,-18785.76953125,-17897.609375,-400000.0625,-400000.0625,-400000.0625,-21672.869140625,-400000.0625
134.44347405433655,-400000.0625,-18855.9609375,-17945.009765625,-400000.0625,-400000.0625,-400000.0625,-21707.16015625,-400000.0625
134.4434778690338,-400000.0625,-18904.310546875,-17971.0390625,-400000.0625,-400000.0625,-400000.0625,-21729.51953125,-400000.0625
134.45207023620605,-400000.0625,-18904.970703125,-17962.83984375,-400000.0625,-400000.0625,-400000.0625,-21706.490234375,-400000.0625
134.45810794830322,-400000.0625,-18880.80078125,-17931.890625,-400000.0625,-400000.0625,-400000.0625,-21656.1796875,-400000.0625
134.46325373649597,-400000.0625,-18876.939453125,-17923.2109375,-400000.0625,-400000.0625,-400000.0625,-21633.33984375,-400000.0625
134.468754529953,-400000.0625,-18896.19921875,-17937.94921875,-400000.0625,-400000.0625,-400000.0625,-21663.619140625,-400000.0625
134.47376775741577,-400000.0625,-18943.259765625,-17974.240234375,-400000.0625,-400000.0625,-400000.0625,-21719.509765625,-400000.0625
134.4785532951355,-400000.0625,-18948.80078125,-17973.7109375,-400000.0625,-400000.0625,-400000.0625,-21735.76953125,-400000.0625
134.4785623550415,-400000.0625,-18897.390625,-17928.080078125,-400000.0625,-400000.0625,-400000.0625,-21696.240234375,-400000.0625
134.4785668849945,-400000.0625,-18855.2890625,-17897.1796875,-400000.0625,-400000.0625,-400000.0625,-21671.109375,-400000.0625
134.47857093811035,-400000.0625,-18862.390625,-17909.0,-400000.0625,-400000.0625,-400000.0625,-21696.900390625,-400000.0625
134.47857522964478,-400000.0625,-18894.529296875,-17944.2890625,-400000.0625,-400000.0625,-400000.0625,-21758.3203125,-400000.0625
134.47857928276062,-400000.0625,-18906.689453125,-17959.01953125,-400000.0625,-400000.0625,-400000.0625,-21788.740234375,-400000.0625
134.47858333587646,-400000.0625,-18870.400390625,-17931.419921875,-400000.0625,-400000.0625,-400000.0625,-21767.859375,-400000.0625
134.47858715057373,-400000.0625,-18819.189453125,-17892.7890625,-400000.0625,-400000.0625,-400000.0625,-21728.609375,-400000.0625
134.478590965271,-400000.0625,-18794.349609375,-17877.76953125,-400000.0625,-400000.0625,-400000.0625,-21717.359375,-400000.0625
134.47859501838684,-400000.0625,-18816.189453125,-17906.380859375,-400000.0625,-400000.0625,-400000.0625,-21756.939453125,-400000.0625
134.47859930992126,-400000.0625,-18844.080078125,-17934.75,-400000.0625,-400000.0625,-400000.0625,-21797.849609375,-400000.0625
134.51062536239624,-400000.0625,-18829.630859375,-17926.9296875,-400000.0625,-400000.0625,-400000.0625,-21793.75,-400000.0625
134.51563906669617,-400000.0625,-18773.1796875,-17883.73046875,-400000.0625,-400000.0625,-400000.0625,-21750.119140625,-400000.0625
134.52078413963318,-400000.0625,-18728.44921875,-17848.44921875,-400000.0625,-400000.0625,-400000.0625,-21710.970703125,-400000.0625
134.53434014320374,-400000.0625,-18726.779296875,-17853.7890625,-400000.0625,-400000.0625,-400000.0625,-21717.83984375,-400000.0625
134.54020524024963,-400000.0625,-18763.400390625,-17888.359375,-400000.0625,-400000.0625,-400000.0625,-21765.189453125,-400000.0625
134.54577612876892,-400000.0625,-18782.189453125,-17908.720703125,-400000.0625,-400000.0625,-400000.0625,-21792.1796875,-400000.0625
134.55129289627075,-400000.0625,-18751.05078125,-17887.98046875,-400000.0625,-400000.0625,-400000.0625,-21768.91015625,-400000.0625
134.55729699134827,-400000.0625,-18696.599609375,-17843.919921875,-400000.0625,-400000.0625,-400000.0625,-21719.359375,-400000.0625
134.56241011619568,-400000.0625,-18680.720703125,-17832.810546875,-400000.0625,-400000.0625,-400000.0625,-21704.6796875,-400000.0625
134.56853318214417,-400000.0625,-18720.009765625,-17869.5703125,-400000.0625,-400000.0625,-400000.0625,-21749.830078125,-400000.0625
134.5740053653717,-400000.0625,-18749.4296875,-17899.900390625,-400000.0625,-400000.0625,-400000.0625,-21789.41015625,-400000.0625
134.57944655418396,-400000.0625,-18739.890625,-17891.740234375,-400000.0625,-400000.0625,-400000.0625,-21777.869140625,-400000.0625
134.5848491191864,-400000.0625,-18686.150390625,-17851.01953125,-400000.0625,-400000.0625,-400000.0625,-21734.380859375,-400000.0625
134.59074926376343,-400000.0625,-18649.529296875,-17818.169921875,-400000.0625,-400000.0625,-400000.0625,-21698.669921875,-400000.0625
134.59625339508057,-400000.0625,-18655.869140625,-17826.560546875,-400000.0625,-400000.0625,-400000.0625,-21707.439453125,-400000.0625
134.60202527046204,-400000.0625,-18690.490234375,-17862.990234375,-400000.0625,-400000.0625,-400000.0625,-21753.7890625,-400000.0625
134.60760807991028,-400000.0625,-18706.849609375,-17878.009765625,-400000.0625,-400000.0625,-400000.0625,-21773.630859375,-400000.0625
134.6125328540802,-400000.0625,-18668.939453125,-17846.869140625,-400000.0625,-400000.0625,-400000.0625,-21742.490234375,-400000.0625
134.61254239082336,-400000.0625,-18619.830078125,-17805.580078125,-400000.0625,-400000.0625,-400000.0625,-21692.560546875,-400000.0625
134.61254739761353,-400000.0625,-18611.9609375,-17799.94921875,-400000.0625,-400000.0625,-400000.0625,-21684.890625,-400000.0625
134.6125521659851,-400000.0625,-18646.76953125,-17836.48046875,-400000.0625,-400000.0625,-400000.0625,-21728.94921875,-400000.0625
134.6125566959381,-400000.0625,-18679.330078125,-17864.900390625,-400000.0625,-400000.0625,-400000.0625,-21769.9609375,-400000.0625
134.61256098747253,-400000.0625,-18668.220703125,-17855.9296875,-400000.0625,-400000.0625,-400000.0625,-21763.279296875,-400000.0625
134.61256504058838,-400000.0625,-18619.109375,-17821.26953125,-400000.0625,-400000.0625,-400000.0625,-21714.830078125,-400000.0625
134.61256909370422,-400000.0625,-18586.830078125,-17794.279296875,-400000.0625,-400000.0625,-400000.0625,-21682.26953125,-400000.0625
134.61257314682007,-400000.0625,-18600.900390625,-17805.2890625,-400000.0625,-400000.0625,-400000.0625,-21698.099609375,-400000.0625
134.61257791519165,-400000.0625,-18638.5703125,-17840.439453125,-400000.0625,-400000.0625,-400000.0625,-21745.640625,-400000.0625
134.61258244514465,-400000.0625,-18650.009765625,-17852.880859375,-400000.0625,-400000.0625,-400000.0625,-21765.279296875,-400000.0625
134.6125864982605,-400000.0625,-18617.6796875,-17827.609375,-400000.0625,-400000.0625,-400000.0625,-21733.330078125,-400000.0625
134.61259078979492,-400000.0625,-18574.2890625,-17792.3203125,-400000.0625,-400000.0625,-400000.0625,-21689.609375,-400000.0625
134.61259508132935,-400000.0625,-18560.41015625,-17784.119140625,-400000.0625,-400000.0625,-400000.0625,-21677.2109375,-400000.0625
134.61259937286377,-400000.0625,-18597.3203125,-17818.259765625,-400000.0625,-400000.0625,-400000.0625,-21720.080078125,-400000.0625
134.6488881111145,-400000.0625,-18630.55078125,-17844.349609375,-400000.0625,-400000.0625,-400000.0625,-21760.080078125,-400000.0625
134.66312098503113,-400000.0625,-18612.48046875,-17828.66015625,-400000.0625,-400000.0625,-400000.0625,-21744.060546875,-400000.0625
134.66936492919922,-400000.0625,-18567.470703125,-17791.560546875,-400000.0625,-400000.0625,-400000.0625,-21695.94921875,-400000.0625
134.67442798614502,-400000.0625,-18540.619140625,-17770.439453125,-400000.0625,-400000.0625,-400000.0625,-21669.720703125,-400000.0625
134.67987990379333,-400000.0625,-18564.0390625,-17788.560546875,-400000.0625,-400000.0625,-400000.0625,-21694.619140625,-400000.0625
134.6858422756195,-400000.0625,-18605.51953125,-17825.80078125,-400000.0625,-400000.0625,-400000.0625,-21740.439453125,-400000.0625
134.69092202186584,-400000.0625,-18617.009765625,-17835.4296875,-400000.0625,-400000.0625,-400000.0625,-21755.029296875,-400000.0625
134.69586038589478,-400000.0625,-18588.830078125,-17811.349609375,-400000.0625,-400000.0625,-400000.0625,-21724.80078125,-400000.0625
134.69586968421936,-400000.0625,-18542.91015625,-17777.060546875,-400000.0625,-400000.0625,-400000.0625,-21685.69921875,-400000.0625
134.69587445259094,-400000.0625,-18539.380859375,-17777.6796875,-400000.0625,-400000.0625,-400000.0625,-21679.0703125,-400000.0625
134.69587898254395,-400000.0625,-18578.150390625,-17811.2109375,-400000.0625,-400000.0625,-400000.0625,-21716.740234375,-400000.0625
134.69588351249695,-400000.0625,-18606.619140625,-17833.5703125,-400000.0625,-400000.0625,-400000.0625,-21750.41015625,-400000.0625
134.6958873271942,-400000.0625,-18596.890625,-17825.75,-400000.0625,-400000.0625,-400000.0625,-21740.580078125,-400000.0625
134.69589114189148,-400000.0625,-18550.919921875,-17786.359375,-400000.0625,-400000.0625,-400000.0625,-21695.7109375,-400000.0625
134.6958954334259,-400000.0625,-18527.650390625,-17765.240234375,-400000.0625,-400000.0625,-400000.0625,-21670.490234375,-400000.0625
134.69589948654175,-400000.0625,-18556.98046875,-17793.560546875,-400000.0625,-400000.0625,-400000.0625,-21700.099609375,-400000.0625
134.69590425491333,-400000.0625,-18596.029296875,-17828.66015625,-400000.0625,-400000.0625,-400000.0625,-21742.060546875,-400000.0625
134.69590830802917,-400000.0625,-18601.75,-17831.380859375,-400000.0625,-400000.0625,-400000.0625,-21746.2109375,-400000.0625
134.69591212272644,-400000.0625,-18567.900390625,-17800.669921875,-400000.0625,-400000.0625,-400000.0625,-21713.58984375,-400000.0625
134.69591617584229,-400000.0625,-18525.83984375,-17766.05078125,-400000.0625,-400000.0625,-400000.0625,-21672.439453125,-400000.0625
134.69592022895813,-400000.0625,-18526.83984375,-17766.5703125,-400000.0625,-400000.0625,-400000.0625,-21670.490234375,-400000.0625
134.69592428207397,-400000.0625,-18563.560546875,-17797.759765625,-400000.0625,-400000.0625,-400000.0625,-21709.109375,-400000.0625
134.69592905044556,-400000.0625,-18598.080078125,-17826.369140625,-400000.0625,-400000.0625,-400000.0625,-21741.970703125,-400000.0625
134.70061469078064,-400000.0625,-18585.2109375,-17815.880859375,-400000.0625,-400000.0625,-400000.0625,-21729.279296875,-400000.0625
134.70062589645386,-400000.0625,-18538.48046875,-17774.109375,-400000.0625,-400000.0625,-400000.0625,-21681.83984375,-400000.0625
134.70063138008118,-400000.0625,-18509.9609375,-17747.9296875,-400000.0625,-400000.0625,-400000.0625,-21658.5703125,-400000.0625
134.70063591003418,-400000.0625,-18531.51953125,-17774.6796875,-400000.0625,-400000.0625,-400000.0625,-21687.3203125,-400000.0625
134.70063996315002,-400000.0625,-18584.439453125,-17819.740234375,-400000.0625,-400000.0625,-400000.0625,-21737.150390625,-400000.0625
134.70064616203308,-400000.0625,-18587.5390625,-17816.640625,-400000.0625,-400000.0625,-400000.0625,-21740.76953125,-400000.0625
134.70064997673035,-400000.0625,-18557.0703125,-17790.83984375,-400000.0625,-400000.0625,-400000.0625,-21710.400390625,-400000.0625
134.70065474510193,-400000.0625,-18520.2109375,-17761.0390625,-400000.0625,-400000.0625,-400000.0625,-21673.490234375,-400000.0625
134.70065879821777,-400000.0625,-18522.119140625,-17762.0390625,-400000.0625,-400000.0625,-400000.0625,-21674.400390625,-400000.0625
134.78296422958374,-400000.0625,-18556.119140625,-17794.1796875,-400000.0625,-400000.0625,-400000.0625,-21717.5,-400000.0625
134.79544854164124,-400000.0625,-18589.58984375,-17824.509765625,-400000.0625,-400000.0625,-400000.0625,-21748.16015625,-400000.0625
134.79991674423218,-400000.0625,-18573.380859375,-17811.830078125,-400000.0625,-400000.0625,-400000.0625,-21735.0,-400000.0625
134.79992628097534,-400000.0625,-18523.55078125,-17768.720703125,-400000.0625,-400000.0625,-400000.0625,-21685.130859375,-400000.0625
134.79993081092834,-400000.0625,-18504.810546875,-17753.4609375,-400000.0625,-400000.0625,-400000.0625,-21665.859375,-400000.0625
134.79993534088135,-400000.0625,-18532.330078125,-17777.490234375,-400000.0625,-400000.0625,-400000.0625,-21696.240234375,-400000.0625
134.7999391555786,-400000.0625,-18579.8203125,-17813.640625,-400000.0625,-400000.0625,-400000.0625,-21741.109375,-400000.0625
134.79994297027588,-400000.0625,-18585.58984375,-17816.58984375,-400000.0625,-400000.0625,-400000.0625,-21746.830078125,-400000.0625
134.79994654655457,-400000.0625,-18541.619140625,-17780.16015625,-400000.0625,-400000.0625,-400000.0625,-21704.390625,-400000.0625
134.79995012283325,-400000.0625,-18513.400390625,-17758.0390625,-400000.0625,-400000.0625,-400000.0625,-21673.009765625,-400000.0625
134.79995393753052,-400000.0625,-18518.310546875,-17763.240234375,-400000.0625,-400000.0625,-400000.0625,-21672.58984375,-400000.0625
134.79995775222778,-400000.0625,-18554.310546875,-17796.900390625,-400000.0625,-400000.0625,-400000.0625,-21711.0703125,-400000.0625
134.79996132850647,-400000.0625,-18590.740234375,-17829.130859375,-400000.0625,-400000.0625,-400000.0625,-21747.779296875,-400000.0625
134.79996514320374,-400000.0625,-18573.810546875,-17814.880859375,-400000.0625,-400000.0625,-400000.0625,-21734.189453125,-400000.0625
134.79996871948242,-400000.0625,-18520.689453125,-17768.48046875,-400000.0625,-400000.0625,-400000.0625,-21683.41015625,-400000.0625
134.7999725341797,-400000.0625,-18502.08984375,-17750.359375,-400000.0625,-400000.0625,-400000.0625,-21664.0,-400000.0625
134.80381894111633,-400000.0625,-18526.650390625,-17772.25,-400000.0625,-400000.0625,-400000.0625,-21689.23046875,-400000.0625
134.80946516990662,-400000.0625,-18568.609375,-17811.349609375,-400000.0625,-400000.0625,-400000.0625,-21735.240234375,-400000.0625
134.81402158737183,-400000.0625,-18574.48046875,-17816.970703125,-400000.0625,-400000.0625,-400000.0625,-21742.349609375,-400000.0625
134.8140308856964,-400000.0625,-18538.05078125,-17786.119140625,-400000.0625,-400000.0625,-400000.0625,-21706.6796875,-400000.0625
134.8140368461609,-400000.0625,-18509.150390625,-17762.279296875,-400000.0625,-400000.0625,-400000.0625,-21676.44921875,-400000.0625
134.81404185295105,-400000.0625,-18520.310546875,-17771.91015625,-400000.0625,-400000.0625,-400000.0625,-21687.080078125,-400000.0625
134.8140470981598,-400000.0625,-18554.55078125,-17801.189453125,-400000.0625,-400000.0625,-400000.0625,-21723.4609375,-400000.0625
134.81405210494995,-400000.0625,-18576.4296875,-17818.0703125,-400000.0625,-400000.0625,-400000.0625,-21746.0703125,-400000.0625
134.8140573501587,-400000.0625,-18549.970703125,-17795.0390625,-400000.0625,-400000.0625,-400000.0625,-21724.23046875,-400000.0625
134.81406235694885,-400000.0625,-18506.0,-17755.83984375,-400000.0625,-400000.0625,-400000.0625,-21675.400390625,-400000.0625
134.81406784057617,-400000.0625,-18494.470703125,-17745.5,-400000.0625,-400000.0625,-400000.0625,-21665.05078125,-400000.0625
134.81407284736633,-400000.0625,-18525.029296875,-17772.099609375,-400000.0625,-400000.0625,-400000.0625,-21696.669921875,-400000.0625
134.8140778541565,-400000.0625,-18567.80078125,-17810.919921875,-400000.0625,-400000.0625,-400000.0625,-21743.30078125,-400000.0625
134.81408262252808,-400000.0625,-18579.150390625,-17818.689453125,-400000.0625,-400000.0625,-400000.0625,-21754.9296875,-400000.0625
134.81408762931824,-400000.0625,-18533.759765625,-17777.970703125,-400000.0625,-400000.0625,-400000.0625,-21705.580078125,-400000.0625
134.81409287452698,-400000.0625,-18503.4296875,-17754.220703125,-400000.0625,-400000.0625,-400000.0625,-21674.919921875,-400000.0625
134.8907220363617,-400000.0625,-18515.779296875,-17762.7109375,-400000.0625,-400000.0625,-400000.0625,-21679.44921875,-400000.0625
134.90474486351013,-400000.0625,-18564.0390625,-17801.099609375,-400000.0625,-400000.0625,-400000.0625,-21730.94921875,-400000.0625
134.91022944450378,-400000.0625,-18585.400390625,-17819.689453125,-400000.0625,-400000.0625,-400000.0625,-21755.7890625,-400000.0625
134.91535592079163,-400000.0625,-18554.0703125,-17795.369140625,-400000.0625,-400000.0625,-400000.0625,-21724.0390625,-400000.0625
134.921049118042,-400000.0625,-18511.25,-17758.279296875,-400000.0625,-400000.0625,-400000.0625,-21683.26953125,-400000.0625
134.92675614356995,-400000.0625,-18500.5703125,-17746.5,-400000.0625,-400000.0625,-400000.0625,-21669.580078125,-400000.0625
134.93182682991028,-400000.0625,-18528.849609375,-17769.2890625,-400000.0625,-400000.0625,-400000.0625,-21697.619140625,-400000.0625
134.93750309944153,-400000.0625,-18565.0390625,-17801.759765625,-400000.0625,-400000.0625,-400000.0625,-21739.529296875,-400000.0625
134.9424262046814,-400000.0625,-18562.41015625,-17797.900390625,-400000.0625,-400000.0625,-400000.0625,-21736.150390625,-400000.0625
134.9424352645874,-400000.0625,-18521.220703125,-17761.51953125,-400000.0625,-400000.0625,-400000.0625,-21696.51953125,-400000.0625
134.94244003295898,-400000.0625,-18495.66015625,-17743.6796875,-400000.0625,-400000.0625,-400000.0625,-21668.009765625,-400000.0625
134.9424443244934,-400000.0625,-18510.580078125,-17761.66015625,-400000.0625,-400000.0625,-400000.0625,-21682.41015625,-400000.0625
134.94244861602783,-400000.0625,-18552.349609375,-17798.859375,-400000.0625,-400000.0625,-400000.0625,-21731.4296875,-400000.0625
134.94245314598083,-400000.0625,-18578.580078125,-17819.9296875,-400000.0625,-400000.0625,-400000.0625,-21758.560546875,-400000.0625
134.94245719909668,-400000.0625,-18552.9296875,-17796.94921875,-400000.0625,-400000.0625,-400000.0625,-21726.900390625,-400000.0625
134.94246125221252,-400000.0625,-18502.05078125,-17753.220703125,-400000.0625,-400000.0625,-400000.0625,-21677.880859375,-400000.0625
134.94246530532837,-400000.0625,-18495.1796875,-17747.0703125,-400000.0625,-400000.0625,-400000.0625,-21670.8203125,-400000.0625
134.9424693584442,-400000.0625,-18532.369140625,-17781.119140625,-400000.0625,-400000.0625,-400000.0625,-21709.25,-400000.0625
134.94247388839722,-400000.0625,-18570.140625,-17811.009765625,-400000.0625,-400000.0625,-400000.0625,-21746.5390625,-400000.0625
134.94247794151306,-400000.0625,-18556.880859375,-17798.279296875,-400000.0625,-400000.0625,-400000.0625,-21732.51953125,-400000.0625
134.9424819946289,-400000.0625,-18503.0,-17751.26953125,-400000.0625,-400000.0625,-400000.0625,-21679.169921875,-400000.0625
134.9424865245819,-400000.0625,-18477.16015625,-17731.2890625,-400000.0625,-400000.0625,-400000.0625,-21654.890625,-400000.0625
134.94249081611633,-400000.0625,-18504.669921875,-17755.029296875,-400000.0625,-400000.0625,-400000.0625,-21681.220703125,-400000.0625
134.94249534606934,-400000.0625,-18554.740234375,-17798.279296875,-400000.0625,-400000.0625,-400000.0625,-21736.669921875,-400000.0625
134.94249963760376,-400000.0625,-18576.720703125,-17817.310546875,-400000.0625,-400000.0625,-400000.0625,-21760.509765625,-400000.0625
134.94250392913818,-400000.0625,-18547.5390625,-17795.51953125,-400000.0625,-400000.0625,-400000.0625,-21733.240234375,-400000.0625
134.94250798225403,-400000.0625,-18499.23046875,-17754.650390625,-400000.0625,-400000.0625,-400000.0625,-21686.650390625,-400000.0625
134.94778895378113,-400000.0625,-18497.23046875,-17751.650390625,-400000.0625,-400000.0625,-400000.0625,-21676.109375,-400000.0625
134.95293498039246,-400000.0625,-18531.939453125,-17780.310546875,-400000.0625,-400000.0625,-400000.0625,-21711.970703125,-400000.0625
134.95906233787537,-400000.0625,-18561.4609375,-17804.529296875,-400000.0625,-400000.0625,-400000.0625,-21745.490234375,-400000.0625
134.96480107307434,-400000.0625,-18560.98046875,-17801.859375,-400000.0625,-400000.0625,-400000.0625,-21743.919921875,-400000.0625
134.9714617729187,-400000.0625,-18517.2109375,-17763.94921875,-400000.0625,-400000.0625,-400000.0625,-21698.759765625,-400000.0625
134.98343706130981,-400000.0625,-18488.69921875,-17741.400390625,-400000.0625,-400000.0625,-400000.0625,-21672.25,-400000.0625
134.9894621372223,-400000.0625,-18508.2890625,-17757.849609375,-400000.0625,-400000.0625,-400000.0625,-21692.94921875,-400000.0625
134.99442744255066,-400000.0625,-18550.73046875,-17793.279296875,-400000.0625,-400000.0625,-400000.0625,-21735.810546875,-400000.0625
135.00403356552124,-400000.0625,-18582.16015625,-17819.44921875,-400000.0625,-400000.0625,-400000.0625,-21762.900390625,-400000.0625
135.00982284545898,-400000.0625,-18553.310546875,-17795.1796875,-400000.0625,-400000.0625,-400000.0625,-21734.240234375,-400000.0625
135.01483464241028,-400000.0625,-18501.330078125,-17752.359375,-400000.0625,-400000.0625,-400000.0625,-21684.98046875,-400000.0625
135.02064085006714,-400000.0625,-18493.1796875,-17746.01953125,-400000.0625,-400000.0625,-400000.0625,-21678.310546875,-400000.0625
135.02586841583252,-400000.0625,-18539.759765625,-17785.98046875,-400000.0625,-400000.0625,-400000.0625,-21715.830078125,-400000.0625
135.0309784412384,-400000.0625,-18567.140625,-17810.439453125,-400000.0625,-400000.0625,-400000.0625,-21744.830078125,-400000.0625
135.0365834236145,-400000.0625,-18554.259765625,-17796.7109375,-400000.0625,-400000.0625,-400000.0625,-21736.91015625,-400000.0625
135.04329347610474,-400000.0625,-18508.060546875,-17753.560546875,-400000.0625,-400000.0625,-400000.0625,-21687.650390625,-400000.0625
135.0503053665161,-400000.0625,-18488.69921875,-17738.5390625,-400000.0625,-400000.0625,-400000.0625,-21668.8203125,-400000.0625
135.05731654167175,-400000.0625,-18519.0703125,-17768.0,-400000.0625,-400000.0625,-400000.0625,-21699.240234375,-400000.0625
135.0631468296051,-400000.0625,-18567.900390625,-17808.580078125,-400000.0625,-400000.0625,-400000.0625,-21746.5390625,-400000.0625
135.0694718360901,-400000.0625,-18576.91015625,-17814.970703125,-400000.0625,-400000.0625,-400000.0625,-21755.75,-400000.0625
135.0747630596161,-400000.0625,-18544.580078125,-17789.509765625,-400000.0625,-400000.0625,-400000.0625,-21728.5703125,-400000.0625
135.0802595615387,-400000.0625,-18499.0390625,-17751.169921875,-400000.0625,-400000.0625,-400000.0625,-21689.470703125,-400000.0625
135.08553385734558,-400000.0625,-18497.560546875,-17753.890625,-400000.0625,-400000.0625,-400000.0625,-21688.029296875,-400000.0625
135.0914146900177,-400000.0625,-18542.859375,-17792.80078125,-400000.0625,-400000.0625,-400000.0625,-21726.66015625,-400000.0625
135.09675645828247,-400000.0625,-18571.330078125,-17813.259765625,-400000.0625,-400000.0625,-400000.0625,-21753.98046875,-400000.0625
135.11166906356812,-400000.0625,-18560.3203125,-17803.05078125,-400000.0625,-400000.0625,-400000.0625,-21738.720703125,-400000.0625
135.11732816696167,-400000.0625,-18512.6796875,-17757.419921875,-400000.0625,-400000.0625,-400000.0625,-21691.130859375,-400000.0625
135.12243175506592,-400000.0625,-18492.26953125,-17744.970703125,-400000.0625,-400000.0625,-400000.0625,-21674.830078125,-400000.0625
135.1278431415558,-400000.0625,-18524.359375,-17772.390625,-400000.0625,-400000.0625,-400000.0625,-21703.580078125,-400000.0625
135.1328465938568,-400000.0625,-18569.189453125,-17808.390625,-400000.0625,-400000.0625,-400000.0625,-21753.5,-400000.0625
135.13880896568298,-400000.0625,-18580.9609375,-17820.41015625,-400000.0625,-400000.0625,-400000.0625,-21768.51953125,-400000.0625
135.14439487457275,-400000.0625,-18549.25,-17794.560546875,-400000.0625,-400000.0625,-400000.0625,-21732.51953125,-400000.0625
135.14999222755432,-400000.0625,-18497.849609375,-17750.26953125,-400000.0625,-400000.0625,-400000.0625,-21685.7890625,-400000.0625
135.15567994117737,-400000.0625,-18485.640625,-17738.19921875,-400000.0625,-400000.0625,-400000.0625,-21670.919921875,-400000.0625
135.1609869003296,-400000.0625,-18538.91015625,-17781.779296875,-400000.0625,-400000.0625,-400000.0625,-21721.169921875,-400000.0625
135.1671280860901,-400000.0625,-18573.330078125,-17810.970703125,-400000.0625,-400000.0625,-400000.0625,-21759.849609375,-400000.0625
135.17325162887573,-400000.0625,-18562.26953125,-17800.2890625,-400000.0625,-400000.0625,-400000.0625,-21743.73046875,-400000.0625
135.1792221069336,-400000.0625,-18521.83984375,-17767.619140625,-400000.0625,-400000.0625,-400000.0625,-21704.390625,-400000.0625
135.18471908569336,-400000.0625,-18499.7109375,-17747.640625,-400000.0625,-400000.0625,-400000.0625,-21678.400390625,-400000.0625
135.19041442871094,-400000.0625,-18520.689453125,-17765.619140625,-400000.0625,-400000.0625,-400000.0625,-21696.759765625,-400000.0625
135.19560861587524,-400000.0625,-18568.66015625,-17810.439453125,-400000.0625,-400000.0625,-400000.0625,-21748.01953125,-400000.0625
135.20172834396362,-400000.0625,-18581.580078125,-17822.55078125,-400000.0625,-400000.0625,-400000.0625,-21760.419921875,-400000.0625
135.21744012832642,-400000.0625,-18542.2890625,-17787.3203125,-400000.0625,-400000.0625,-400000.0625,-21717.169921875,-400000.0625
135.22288537025452,-400000.0625,-18496.369140625,-17746.9296875,-400000.0625,-400000.0625,-400000.0625,-21671.150390625,-400000.0625
135.22851705551147,-400000.0625,-18492.990234375,-17748.0703125,-400000.0625,-400000.0625,-400000.0625,-21671.009765625,-400000.0625
135.23408555984497,-400000.0625,-18530.560546875,-17781.16015625,-400000.0625,-400000.0625,-400000.0625,-21713.58984375,-400000.0625
135.23971581459045,-400000.0625,-18568.990234375,-17812.5390625,-400000.0625,-400000.0625,-400000.0625,-21749.359375,-400000.0625
135.24515438079834,-400000.0625,-18565.69921875,-17804.720703125,-400000.0625,-400000.0625,-400000.0625,-21736.48046875,-400000.0625
135.2508602142334,-400000.0625,-18518.16015625,-17767.2890625,-400000.0625,-400000.0625,-400000.0625,-21694.380859375,-400000.0625
135.25634598731995,-400000.0625,-18493.23046875,-17746.400390625,-400000.0625,-400000.0625,-400000.0625,-21672.919921875,-400000.0625
135.26153326034546,-400000.0625,-18529.1796875,-17778.490234375,-400000.0625,-400000.0625,-400000.0625,-21706.5390625,-400000.0625
135.26707553863525,-400000.0625,-18563.650390625,-17807.30078125,-400000.0625,-400000.0625,-400000.0625,-21743.630859375,-400000.0625
135.27275276184082,-400000.0625,-18563.26953125,-17803.529296875,-400000.0625,-400000.0625,-400000.0625,-21743.25,-400000.0625
135.27874088287354,-400000.0625,-18529.69921875,-17772.30078125,-400000.0625,-400000.0625,-400000.0625,-21710.970703125,-400000.0625
135.2844271659851,-400000.0625,-18498.849609375,-17748.169921875,-400000.0625,-400000.0625,-400000.0625,-21676.73046875,-400000.0625
135.28993678092957,-400000.0625,-18504.2890625,-17755.990234375,-400000.0625,-400000.0625,-400000.0625,-21682.359375,-400000.0625
135.29494953155518,-400000.0625,-18543.91015625,-17791.4609375,-400000.0625,-400000.0625,-400000.0625,-21725.080078125,-400000.0625
135.3008155822754,-400000.0625,-18575.0,-17815.01953125,-400000.0625,-400000.0625,-400000.0625,-21757.609375,-400000.0625
135.3061535358429,-400000.0625,-18553.400390625,-17796.94921875,-400000.0625,-400000.0625,-400000.0625,-21737.2890625,-400000.0625
135.31943130493164,-400000.0625,-18503.619140625,-17752.98046875,-400000.0625,-400000.0625,-400000.0625,-21685.939453125,-400000.0625
135.32427859306335,-400000.0625,-18486.7890625,-17739.919921875,-400000.0625,-400000.0625,-400000.0625,-21668.529296875,-400000.0625
135.3242893218994,-400000.0625,-18517.310546875,-17764.189453125,-400000.0625,-400000.0625,-400000.0625,-21700.91015625,-400000.0625
135.32429385185242,-400000.0625,-18567.0390625,-17805.669921875,-400000.0625,-400000.0625,-400000.0625,-21752.310546875,-400000.0625
135.32429838180542,-400000.0625,-18568.08984375,-17808.869140625,-400000.0625,-400000.0625,-400000.0625,-21757.609375,-400000.0625
135.32430219650269,-400000.0625,-18516.16015625,-17764.669921875,-400000.0625,-400000.0625,-400000.0625,-21707.8203125,-400000.0625
135.3243064880371,-400000.0625,-18483.5,-17738.19921875,-400000.0625,-400000.0625,-400000.0625,-21672.58984375,-400000.0625
135.32431054115295,-400000.0625,-18506.2890625,-17756.849609375,-400000.0625,-400000.0625,-400000.0625,-21690.900390625,-400000.0625
135.3243145942688,-400000.0625,-18547.109375,-17790.029296875,-400000.0625,-400000.0625,-400000.0625,-21731.810546875,-400000.0625
135.32431864738464,-400000.0625,-18567.369140625,-17810.30078125,-400000.0625,-400000.0625,-400000.0625,-21756.650390625,-400000.0625
135.32432293891907,-400000.0625,-18554.55078125,-17800.140625,-400000.0625,-400000.0625,-400000.0625,-21744.830078125,-400000.0625
135.3243269920349,-400000.0625,-18508.25,-17755.560546875,-400000.0625,-400000.0625,-400000.0625,-21697.240234375,-400000.0625
135.32433104515076,-400000.0625,-18482.9296875,-17734.05078125,-400000.0625,-400000.0625,-400000.0625,-21677.5390625,-400000.0625
135.3243350982666,-400000.0625,-18522.359375,-17767.189453125,-400000.0625,-400000.0625,-400000.0625,-21713.400390625,-400000.0625
135.3243386745453,-400000.0625,-18568.369140625,-17804.8203125,-400000.0625,-400000.0625,-400000.0625,-21756.369140625,-400000.0625
135.32434272766113,-400000.0625,-18559.7890625,-17798.140625,-400000.0625,-400000.0625,-400000.0625,-21749.98046875,-400000.0625
135.32434678077698,-400000.0625,-18523.98046875,-17767.240234375,-400000.0625,-400000.0625,-400000.0625,-21717.599609375,-400000.0625
135.32435083389282,-400000.0625,-18492.41015625,-17738.73046875,-400000.0625,-400000.0625,-400000.0625,-21684.55078125,-400000.0625
135.3243546485901,-400000.0625,-18498.51953125,-17746.640625,-400000.0625,-400000.0625,-400000.0625,-21686.990234375,-400000.0625
135.32435846328735,-400000.0625,-18545.9609375,-17785.7890625,-400000.0625,-400000.0625,-400000.0625,-21730.759765625,-400000.0625
135.32436203956604,-400000.0625,-18569.759765625,-17801.669921875,-400000.0625,-400000.0625,-400000.0625,-21754.26953125,-400000.0625
135.3243658542633,-400000.0625,-18542.390625,-17776.6796875,-400000.0625,-400000.0625,-400000.0625,-21725.470703125,-400000.0625
135.32436966896057,-400000.0625,-18505.150390625,-17748.0703125,-400000.0625,-400000.0625,-400000.0625,-21690.3203125,-400000.0625
135.32437348365784,-400000.0625,-18491.130859375,-17734.91015625,-400000.0625,-400000.0625,-400000.0625,-21678.259765625,-400000.0625
135.3243772983551,-400000.0625,-18524.26953125,-17762.849609375,-400000.0625,-400000.0625,-400000.0625,-21709.349609375,-400000.0625
135.3243808746338,-400000.0625,-18559.55078125,-17794.23046875,-400000.0625,-400000.0625,-400000.0625,-21746.73046875,-400000.0625
135.3243854045868,-400000.0625,-18555.119140625,-17786.83984375,-400000.0625,-400000.0625,-400000.0625,-21744.640625,-400000.0625
135.32438969612122,-400000.0625,-18512.439453125,-17754.1796875,-400000.0625,-400000.0625,-400000.0625,-21697.91015625,-400000.0625
135.32439351081848,-400000.0625,-18489.41015625,-17738.490234375,-400000.0625,-400000.0625,-400000.0625,-21669.529296875,-400000.0625
135.32440519332886,-400000.0625,-18505.2890625,-17753.560546875,-400000.0625,-400000.0625,-400000.0625,-21687.220703125,-400000.0625
135.32440948486328,-400000.0625,-18537.7109375,-17778.5390625,-400000.0625,-400000.0625,-400000.0625,-21725.939453125,-400000.0625
