time,ch1,ch2,ch3,ch4,ch5,ch6,ch7,ch8
174.82584643363953,-400000.0625,-18013.05078125,-17602.259765625,-400000.0625,-400000.0625,-400000.0625,-21497.630859375,-400000.0625
174.83596801757812,-400000.0625,-17979.05078125,-17570.779296875,-400000.0625,-400000.0625,-400000.0625,-21462.869140625,-400000.0625
174.84556198120117,-400000.0625,-17964.080078125,-17561.439453125,-400000.0625,-400000.0625,-400000.0625,-21447.330078125,-400000.0625
174.85559630393982,-400000.0625,-17988.16015625,-17587.4296875,-400000.0625,-400000.0625,-400000.0625,-21472.890625,-400000.0625
174.86726713180542,-400000.0625,-18018.76953125,-17622.0390625,-400000.0625,-400000.0625,-400000.0625,-21496.970703125,-400000.0625
174.8750867843628,-400000.0625,-18026.9296875,-17636.869140625,-400000.0625,-400000.0625,-400000.0625,-21490.91015625,-400000.0625
174.8845398426056,-400000.0625,-18015.19921875,-17630.05078125,-400000.0625,-400000.0625,-400000.0625,-21464.779296875,-400000.0625
174.8933174610138,-400000.0625,-17979.9609375,-17605.779296875,-400000.0625,-400000.0625,-400000.0625,-21418.759765625,-400000.0625
174.9010374546051,-400000.0625,-17970.0390625,-17614.650390625,-400000.0625,-400000.0625,-400000.0625,-21402.310546875,-400000.0625
174.90962886810303,-400000.0625,-17999.509765625,-17654.51953125,-400000.0625,-400000.0625,-400000.0625,-21427.16015625,-400000.0625
174.9322006702423,-400000.0625,-18030.83984375,-17693.4296875,-400000.0625,-400000.0625,-400000.0625,-21448.330078125,-400000.0625
174.94337558746338,-400000.0625,-18018.720703125,-17692.0,-400000.0625,-400000.0625,-400000.0625,-21423.150390625,-400000.0625
174.95137453079224,-400000.0625,-17978.150390625,-17664.48046875,-400000.0625,-400000.0625,-400000.0625,-21373.849609375,-400000.0625
174.9633550643921,-400000.0625,-17955.689453125,-17653.08984375,-400000.0625,-400000.0625,-400000.0625,-21349.810546875,-400000.0625
174.97574996948242,-400000.0625,-17977.0,-17675.349609375,-400000.0625,-400000.0625,-400000.0625,-21366.650390625,-400000.0625
174.98696899414062,-400000.0625,-18003.66015625,-17707.779296875,-400000.0625,-400000.0625,-400000.0625,-21398.640625,-400000.0625
174.99849152565002,-400000.0625,-18017.720703125,-17725.279296875,-400000.0625,-400000.0625,-400000.0625,-21413.279296875,-400000.0625
175.00714898109436,-400000.0625,-17986.16015625,-17698.91015625,-400000.0625,-400000.0625,-400000.0625,-21379.0,-400000.0625
175.0171594619751,-400000.0625,-17940.669921875,-17660.759765625,-400000.0625,-400000.0625,-400000.0625,-21339.509765625,-400000.0625
175.04290461540222,-400000.0625,-17949.6796875,-17667.009765625,-400000.0625,-400000.0625,-400000.0625,-21344.5703125,-400000.0625
175.05027842521667,-400000.0625,-18004.0390625,-17716.220703125,-400000.0625,-400000.0625,-400000.0625,-21394.349609375,-400000.0625
175.05948281288147,-400000.0625,-18037.560546875,-17748.640625,-400000.0625,-400000.0625,-400000.0625,-21426.19921875,-400000.0625
175.06642389297485,-400000.0625,-18018.30078125,-17732.720703125,-400000.0625,-400000.0625,-400000.0625,-21404.939453125,-400000.0625
175.07555222511292,-400000.0625,-17970.08984375,-17686.80078125,-400000.0625,-400000.0625,-400000.0625,-21360.73046875,-400000.0625
175.08696341514587,-400000.0625,-17943.9609375,-17663.580078125,-400000.0625,-400000.0625,-400000.0625,-21336.80078125,-400000.0625
175.0944344997406,-400000.0625,-17964.4609375,-17683.69921875,-400000.0625,-400000.0625,-400000.0625,-21354.009765625,-400000.0625
175.10358834266663,-400000.0625,-18010.900390625,-17725.66015625,-400000.0625,-400000.0625,-400000.0625,-21393.060546875,-400000.0625
175.11267352104187,-400000.0625,-18032.83984375,-17745.830078125,-400000.0625,-400000.0625,-400000.0625,-21413.419921875,-400000.0625
175.12133407592773,-400000.0625,-18010.279296875,-17723.369140625,-400000.0625,-400000.0625,-400000.0625,-21382.5703125,-400000.0625
175.14381623268127,-400000.0625,-17965.650390625,-17679.7890625,-400000.0625,-400000.0625,-400000.0625,-21337.80078125,-400000.0625
175.16756129264832,-400000.0625,-17971.140625,-17690.23046875,-400000.0625,-400000.0625,-400000.0625,-21346.619140625,-400000.0625
175.18061208724976,-400000.0625,-18021.16015625,-17737.009765625,-400000.0625,-400000.0625,-400000.0625,-21393.490234375,-400000.0625
175.19020128250122,-400000.0625,-18051.720703125,-17762.08984375,-400000.0625,-400000.0625,-400000.0625,-21417.94921875,-400000.0625
175.19819045066833,-400000.0625,-18022.30078125,-17735.529296875,-400000.0625,-400000.0625,-400000.0625,-21391.869140625,-400000.0625
175.2077612876892,-400000.0625,-17974.189453125,-17688.80078125,-400000.0625,-400000.0625,-400000.0625,-21343.849609375,-400000.0625
175.21672368049622,-400000.0625,-17960.9296875,-17673.44921875,-400000.0625,-400000.0625,-400000.0625,-21328.01953125,-400000.0625
175.22653365135193,-400000.0625,-17990.58984375,-17699.099609375,-400000.0625,-400000.0625,-400000.0625,-21355.25,-400000.0625
175.24977231025696,-400000.0625,-18030.259765625,-17737.19921875,-400000.0625,-400000.0625,-400000.0625,-21396.259765625,-400000.0625
175.25795125961304,-400000.0625,-18034.509765625,-17742.01953125,-400000.0625,-400000.0625,-400000.0625,-21398.740234375,-400000.0625
175.26438522338867,-400000.0625,-18003.560546875,-17710.259765625,-400000.0625,-400000.0625,-400000.0625,-21367.599609375,-400000.0625
175.27548456192017,-400000.0625,-17968.369140625,-17675.740234375,-400000.0625,-400000.0625,-400000.0625,-21323.490234375,-400000.0625
175.28321480751038,-400000.0625,-17973.94921875,-17685.560546875,-400000.0625,-400000.0625,-400000.0625,-21330.689453125,-400000.0625
175.29441142082214,-400000.0625,-18022.869140625,-17732.76953125,-400000.0625,-400000.0625,-400000.0625,-21379.759765625,-400000.0625
175.30407452583313,-400000.0625,-18051.9609375,-17761.140625,-400000.0625,-400000.0625,-400000.0625,-21399.55078125,-400000.0625
175.31335997581482,-400000.0625,-18022.73046875,-17733.669921875,-400000.0625,-400000.0625,-400000.0625,-21375.849609375,-400000.0625
175.32095217704773,-400000.0625,-17986.630859375,-17698.91015625,-400000.0625,-400000.0625,-400000.0625,-21345.330078125,-400000.0625
175.32968854904175,-400000.0625,-17973.0,-17686.1796875,-400000.0625,-400000.0625,-400000.0625,-21329.880859375,-400000.0625
175.35512924194336,-400000.0625,-17999.220703125,-17709.779296875,-400000.0625,-400000.0625,-400000.0625,-21348.619140625,-400000.0625
175.36324191093445,-400000.0625,-18035.369140625,-17744.16015625,-400000.0625,-400000.0625,-400000.0625,-21381.5703125,-400000.0625
175.3718981742859,-400000.0625,-18034.220703125,-17738.6796875,-400000.0625,-400000.0625,-400000.0625,-21381.240234375,-400000.0625
175.38073062896729,-400000.0625,-17988.869140625,-17691.23046875,-400000.0625,-400000.0625,-400000.0625,-21337.849609375,-400000.0625
175.38916110992432,-400000.0625,-17944.619140625,-17650.1796875,-400000.0625,-400000.0625,-400000.0625,-21294.7890625,-400000.0625
175.39549779891968,-400000.0625,-19825.69921875,-19498.44921875,-400000.0625,-400000.0625,-400000.0625,-23148.869140625,-400000.0625
175.40199732780457,-400000.0625,-22559.599609375,-22195.33984375,-400000.0625,-195386.4375,-400000.0625,-25845.390625,-400000.0625
175.4109079837799,-400000.0625,-20602.0390625,-20281.7890625,-400000.0625,-14094.2099609375,-400000.0625,-23908.08984375,-400000.0625
175.42073273658752,-400000.0625,-19264.80078125,-18960.48046875,-400000.0625,455.760009765625,-400000.0625,-22581.009765625,-400000.0625
175.4300992488861,-400000.0625,-18738.509765625,-18433.0,-400000.0625,1609.0899658203125,-400000.0625,-22054.669921875,-400000.0625
175.45899558067322,-400000.0625,-18470.619140625,-18210.41015625,-400000.0625,2142.760009765625,-400000.0625,-21801.51953125,-400000.0625
175.4686222076416,-400000.0625,-18391.23046875,-18126.060546875,-400000.0625,2395.300048828125,-400000.0625,-21698.05078125,-400000.0625
175.4765706062317,-400000.0625,-18368.630859375,-17986.779296875,-400000.0625,2531.47998046875,-400000.0625,-21667.669921875,-400000.0625
175.48954463005066,-400000.0625,-18307.779296875,-17934.990234375,-400000.0625,2649.1201171875,-400000.0625,-21601.5390625,-400000.0625
175.49811840057373,-400000.0625,-18228.76953125,-17879.349609375,-400000.0625,2769.419921875,-400000.0625,-21504.599609375,-400000.0625
175.50922894477844,-400000.0625,-18160.439453125,-17828.560546875,-400000.0625,2860.739990234375,-400000.0625,-21452.48046875,-400000.0625
175.51947259902954,-400000.0625,-18150.279296875,-17814.689453125,-400000.0625,2896.360107421875,-400000.0625,-21439.7890625,-400000.0625
175.53117656707764,-400000.0625,-18187.859375,-17829.130859375,-400000.0625,2910.419921875,-400000.0625,-21454.720703125,-400000.0625
175.56081652641296,-400000.0625,-18205.83984375,-17828.509765625,-400000.0625,2922.300048828125,-400000.0625,-21451.51953125,-400000.0625
175.57201313972473,-400000.0625,-18185.470703125,-17800.859375,-400000.0625,2980.139892578125,-400000.0625,-21424.060546875,-400000.0625
175.58192825317383,-400000.0625,-18143.470703125,-17783.44921875,-400000.0625,3053.570068359375,-400000.0625,-21411.759765625,-400000.0625
175.59284472465515,-400000.0625,-18173.26953125,-17773.8203125,-400000.0625,3083.610107421875,-400000.0625,-21407.890625,-400000.0625
175.60266160964966,-400000.0625,-18210.599609375,-17793.7109375,-400000.0625,3072.68994140625,-400000.0625,-21419.189453125,-400000.0625
175.61364722251892,-400000.0625,-18237.01953125,-17847.58984375,-400000.0625,3050.570068359375,-400000.0625,-21467.44921875,-400000.0625
175.6295781135559,-400000.0625,-18278.650390625,-17852.830078125,-400000.0625,3075.550048828125,-400000.0625,-21465.30078125,-400000.0625
175.64330625534058,-400000.0625,-18283.75,-17797.189453125,-400000.0625,3141.8798828125,-400000.0625,-21408.369140625,-400000.0625
175.67104291915894,-400000.0625,-18259.619140625,-17774.8203125,-400000.0625,3192.280029296875,-400000.0625,-21384.05078125,-400000.0625
175.68118715286255,-400000.0625,-18308.400390625,-17820.41015625,-400000.0625,3196.909912109375,-400000.0625,-21425.76953125,-400000.0625
175.6896014213562,-400000.0625,-18395.470703125,-17885.310546875,-400000.0625,3159.52001953125,-400000.0625,-21494.150390625,-400000.0625
175.69666361808777,-400000.0625,-18414.55078125,-17907.189453125,-400000.0625,3153.090087890625,-400000.0625,-21505.880859375,-400000.0625
175.70697140693665,-400000.0625,-18399.099609375,-17873.619140625,-400000.0625,3189.610107421875,-400000.0625,-21458.099609375,-400000.0625
175.71992230415344,-400000.0625,-18380.880859375,-17830.23046875,-400000.0625,3233.669921875,-400000.0625,-21398.359375,-400000.0625
175.73045420646667,-400000.0625,-18390.369140625,-17809.390625,-400000.0625,3260.330078125,-400000.0625,-21360.919921875,-400000.0625
175.74331212043762,-400000.0625,-18439.099609375,-17826.75,-400000.0625,3237.77001953125,-400000.0625,-21362.58984375,-400000.0625
175.77533411979675,-400000.0625,-18481.5,-17852.5,-400000.0625,3191.0400390625,-400000.0625,-21371.509765625,-400000.0625
175.7847192287445,-400000.0625,-18484.259765625,-17846.490234375,-400000.0625,3180.739990234375,-400000.0625,-21357.8203125,-400000.0625
175.80006861686707,-400000.0625,-18464.419921875,-17814.779296875,-400000.0625,3204.919921875,-400000.0625,-21320.19921875,-400000.0625
175.81007051467896,-400000.0625,-18430.5703125,-17782.359375,-400000.0625,3215.5,-400000.0625,-21293.740234375,-400000.0625
175.81967425346375,-400000.0625,-18436.91015625,-17792.75,-400000.0625,3174.02001953125,-400000.0625,-21322.6796875,-400000.0625
175.82845377922058,-400000.0625,-18466.900390625,-17823.98046875,-400000.0625,3091.760009765625,-400000.0625,-21369.7890625,-400000.0625
175.84258580207825,-400000.0625,-18456.75,-17828.609375,-400000.0625,3048.800048828125,-400000.0625,-21390.630859375,-400000.0625
175.85449981689453,-400000.0625,-18417.0703125,-17803.529296875,-400000.0625,3064.300048828125,-400000.0625,-21382.380859375,-400000.0625
175.8850381374359,-400000.0625,-18367.630859375,-17769.390625,-400000.0625,3047.85009765625,-400000.0625,-21367.359375,-400000.0625
175.8950514793396,-400000.0625,-18347.740234375,-17765.7109375,-400000.0625,2519.0400390625,-400000.0625,-21379.0,-400000.0625
175.90601563453674,-400000.0625,-18376.01953125,-17804.48046875,-400000.0625,2669.050048828125,-400000.0625,-21426.19921875,-400000.0625
175.91468572616577,-400000.0625,-18377.640625,-17820.4609375,-400000.0625,2725.840087890625,-400000.0625,-21441.890625,-400000.0625
175.9232361316681,-400000.0625,-18332.580078125,-17799.140625,-400000.0625,1817.27001953125,-400000.0625,-21424.33984375,-400000.0625
175.93314695358276,-400000.0625,-18277.98046875,-17762.140625,-400000.0625,2175.469970703125,-400000.0625,-21395.640625,-400000.0625
175.94490361213684,-400000.0625,-18238.740234375,-17740.060546875,-400000.0625,2745.580078125,-400000.0625,-21378.900390625,-400000.0625
175.955153465271,-400000.0625,-18252.66015625,-17769.669921875,-400000.0625,2861.260009765625,-400000.0625,-21413.279296875,-400000.0625
175.98628950119019,-400000.0625,-18268.919921875,-17799.0,-400000.0625,3100.969970703125,-400000.0625,-21447.609375,-400000.0625
175.9966721534729,-400000.0625,-18255.5703125,-17795.7109375,-400000.0625,3149.080078125,-400000.0625,-21443.3203125,-400000.0625
176.01021242141724,-400000.0625,-18220.94921875,-17771.6796875,-400000.0625,3159.949951171875,-400000.0625,-21423.2890625,-400000.0625
176.0203263759613,-400000.0625,-18158.009765625,-17728.380859375,-400000.0625,3183.60009765625,-400000.0625,-21382.05078125,-400000.0625
176.0289499759674,-400000.0625,-18136.740234375,-17717.83984375,-400000.0625,3189.52001953125,-400000.0625,-21375.560546875,-400000.0625
176.03729510307312,-400000.0625,-18168.400390625,-17756.650390625,-400000.0625,3151.93994140625,-400000.0625,-21416.0,-400000.0625
176.0441861152649,-400000.0625,-18188.669921875,-17780.689453125,-400000.0625,3116.659912109375,-400000.0625,-21443.69921875,-400000.0625
176.05304646492004,-400000.0625,-18159.19921875,-17759.51953125,-400000.0625,3126.9599609375,-400000.0625,-21428.16015625,-400000.0625
176.06244158744812,-400000.0625,-18105.560546875,-17715.41015625,-400000.0625,3165.6298828125,-400000.0625,-21382.94921875,-400000.0625
176.0835943222046,-400000.0625,-18072.080078125,-17690.80078125,-400000.0625,3186.989990234375,-400000.0625,-21356.6796875,-400000.0625
176.09389448165894,-400000.0625,-18087.9609375,-17712.640625,-400000.0625,3162.9599609375,-400000.0625,-21382.2890625,-400000.0625
176.10327053070068,-400000.0625,-18121.9609375,-17748.7890625,-400000.0625,3128.719970703125,-400000.0625,-21424.25,-400000.0625
176.11214661598206,-400000.0625,-18121.2890625,-17749.740234375,-400000.0625,3118.179931640625,-400000.0625,-21426.009765625,-400000.0625
176.1219916343689,-400000.0625,-18075.66015625,-17711.44921875,-400000.0625,3149.699951171875,-400000.0625,-21390.439453125,-400000.0625
176.13036179542542,-400000.0625,-18035.83984375,-17676.44921875,-400000.0625,3194.139892578125,-400000.0625,-21353.33984375,-400000.0625
176.13954663276672,-400000.0625,-18034.080078125,-17677.740234375,-400000.0625,3195.719970703125,-400000.0625,-21357.009765625,-400000.0625
176.15840768814087,-400000.0625,-18072.080078125,-17715.7890625,-400000.0625,3154.56005859375,-400000.0625,-21392.8203125,-400000.0625
176.1745731830597,-400000.0625,-18095.640625,-17743.349609375,-400000.0625,3126.3798828125,-400000.0625,-21423.150390625,-400000.0625
176.20051336288452,-400000.0625,-18080.330078125,-17729.94921875,-400000.0625,3138.35009765625,-400000.0625,-21417.94921875,-400000.0625
176.2093641757965,-400000.0625,-18036.3203125,-17687.509765625,-400000.0625,3183.080078125,-400000.0625,-21377.23046875,-400000.0625
176.21643447875977,-400000.0625,-18014.33984375,-17670.490234375,-400000.0625,3202.06005859375,-400000.0625,-21352.390625,-400000.0625
176.22401523590088,-400000.0625,-18025.779296875,-17687.75,-400000.0625,3178.070068359375,-400000.0625,-21369.890625,-400000.0625
176.2301526069641,-400000.0625,-18056.73046875,-17719.560546875,-400000.0625,3141.7900390625,-400000.0625,-21406.69921875,-400000.0625
176.2386302947998,-400000.0625,-18066.740234375,-17726.609375,-400000.0625,3137.590087890625,-400000.0625,-21409.560546875,-400000.0625
176.2459316253662,-400000.0625,-18032.359375,-17694.05078125,-400000.0625,3163.9599609375,-400000.0625,-21372.990234375,-400000.0625
176.25279879570007,-400000.0625,-17998.83984375,-17661.810546875,-400000.0625,3202.8701171875,-400000.0625,-21347.759765625,-400000.0625
176.25967407226562,-400000.0625,-18009.140625,-17669.630859375,-400000.0625,3195.949951171875,-400000.0625,-21358.869140625,-400000.0625
176.26570439338684,-400000.0625,-18051.630859375,-17710.689453125,-400000.0625,3151.75,-400000.0625,-21402.740234375,-400000.0625
176.27517795562744,-400000.0625,-18076.759765625,-17733.76953125,-400000.0625,3129.239990234375,-400000.0625,-21424.6796875,-400000.0625
176.3050401210785,-400000.0625,-18054.6796875,-17712.169921875,-400000.0625,3147.1298828125,-400000.0625,-21405.890625,-400000.0625
176.31465888023376,-400000.0625,-18004.75,-17667.25,-400000.0625,3192.429931640625,-400000.0625,-21357.630859375,-400000.0625
176.32441973686218,-400000.0625,-17985.390625,-17649.939453125,-400000.0625,3210.2099609375,-400000.0625,-21341.0390625,-400000.0625
176.33339047431946,-400000.0625,-17997.080078125,-17660.0,-400000.0625,3192.85009765625,-400000.0625,-21357.58984375,-400000.0625
176.34320855140686,-400000.0625,-18032.55078125,-17695.94921875,-400000.0625,3155.280029296875,-400000.0625,-21395.58984375,-400000.0625
176.3506565093994,-400000.0625,-18046.810546875,-17708.73046875,-400000.0625,3147.889892578125,-400000.0625,-21406.609375,-400000.0625
176.35842037200928,-400000.0625,-18017.529296875,-17679.359375,-400000.0625,3182.7900390625,-400000.0625,-21379.4296875,-400000.0625
176.36521315574646,-400000.0625,-17988.5390625,-17652.80078125,-400000.0625,3213.409912109375,-400000.0625,-21354.630859375,-400000.0625
176.3713140487671,-400000.0625,-17985.25,-17652.369140625,-400000.0625,3211.449951171875,-400000.0625,-21351.8203125,-400000.0625
176.3781909942627,-400000.0625,-18021.109375,-17687.849609375,-400000.0625,3179.360107421875,-400000.0625,-21388.9609375,-400000.0625
176.40194725990295,-400000.0625,-18045.05078125,-17707.58984375,-400000.0625,3163.0,-400000.0625,-21416.48046875,-400000.0625
176.41165685653687,-400000.0625,-18024.01953125,-17686.080078125,-400000.0625,3187.080078125,-400000.0625,-21396.58984375,-400000.0625
176.42177724838257,-400000.0625,-17978.0,-17641.01953125,-400000.0625,3232.2900390625,-400000.0625,-21352.6796875,-400000.0625
176.4296839237213,-400000.0625,-17959.9296875,-17624.05078125,-400000.0625,3252.4599609375,-400000.0625,-21335.650390625,-400000.0625
176.4401080608368,-400000.0625,-17991.830078125,-17653.560546875,-400000.0625,3228.090087890625,-400000.0625,-21365.740234375,-400000.0625
176.44778394699097,-400000.0625,-18038.0390625,-17701.6796875,-400000.0625,3188.320068359375,-400000.0625,-21412.380859375,-400000.0625
176.4543011188507,-400000.0625,-18038.130859375,-17703.490234375,-400000.0625,3197.860107421875,-400000.0625,-21415.05078125,-400000.0625
176.46070170402527,-400000.0625,-17998.4609375,-17665.439453125,-400000.0625,3244.2099609375,-400000.0625,-21377.759765625,-400000.0625
176.46888971328735,-400000.0625,-17975.08984375,-17643.83984375,-400000.0625,3271.6298828125,-400000.0625,-21350.76953125,-400000.0625
176.47804188728333,-400000.0625,-17989.490234375,-17657.08984375,-400000.0625,3263.280029296875,-400000.0625,-21365.259765625,-400000.0625
176.48447108268738,-400000.0625,-18025.58984375,-17690.470703125,-400000.0625,3237.25,-400000.0625,-21402.5,-400000.0625
176.50717163085938,-400000.0625,-18039.849609375,-17704.30078125,-400000.0625,3220.320068359375,-400000.0625,-21413.279296875,-400000.0625
176.51798582077026,-400000.0625,-18014.099609375,-17677.98046875,-400000.0625,3245.830078125,-400000.0625,-21392.060546875,-400000.0625
176.5263011455536,-400000.0625,-17967.890625,-17633.73046875,-400000.0625,3298.89990234375,-400000.0625,-21349.48046875,-400000.0625
176.53907752037048,-400000.0625,-17958.740234375,-17626.9609375,-400000.0625,3311.679931640625,-400000.0625,-21341.470703125,-400000.0625
176.5476098060608,-400000.0625,-17996.26953125,-17659.7109375,-400000.0625,3284.840087890625,-400000.0625,-21373.23046875,-400000.0625
176.55576467514038,-400000.0625,-18035.83984375,-17694.669921875,-400000.0625,3258.419921875,-400000.0625,-21413.140625,-400000.0625
176.56228590011597,-400000.0625,-18038.509765625,-17697.76953125,-400000.0625,3263.760009765625,-400000.0625,-21424.009765625,-400000.0625
176.57091212272644,-400000.0625,-18020.390625,-17677.98046875,-400000.0625,3293.89990234375,-400000.0625,-21405.509765625,-400000.0625
176.58066248893738,-400000.0625,-17993.01953125,-17651.509765625,-400000.0625,3328.85009765625,-400000.0625,-21374.939453125,-400000.0625
176.59025597572327,-400000.0625,-17995.880859375,-17659.140625,-400000.0625,3329.179931640625,-400000.0625,-21367.83984375,-400000.0625
176.62298011779785,-400000.0625,-18026.5390625,-17693.0,-400000.0625,3304.77001953125,-400000.0625,-21388.25,-400000.0625
176.6361904144287,-400000.0625,-18046.0,-17718.69921875,-400000.0625,3299.6201171875,-400000.0625,-21404.220703125,-400000.0625
176.6433970928192,-400000.0625,-18020.6796875,-17699.009765625,-400000.0625,3334.139892578125,-400000.0625,-21374.1796875,-400000.0625
176.65198063850403,-400000.0625,-17988.060546875,-17670.439453125,-400000.0625,3376.530029296875,-400000.0625,-21330.740234375,-400000.0625
176.66187691688538,-400000.0625,-17983.919921875,-17675.259765625,-400000.0625,3388.31005859375,-400000.0625,-21325.640625,-400000.0625
176.66992449760437,-400000.0625,-18011.380859375,-17709.2109375,-400000.0625,3366.469970703125,-400000.0625,-21354.150390625,-400000.0625
176.6762580871582,-400000.0625,-18032.169921875,-17731.94921875,-400000.0625,3353.929931640625,-400000.0625,-21374.130859375,-400000.0625
176.6860420703888,-400000.0625,-18029.359375,-17727.66015625,-400000.0625,3373.580078125,-400000.0625,-21377.140625,-400000.0625
176.69667148590088,-400000.0625,-18011.859375,-17705.25,-400000.0625,3426.219970703125,-400000.0625,-21357.5390625,-400000.0625
176.73029565811157,-400000.0625,-17988.25,-17685.130859375,-400000.0625,3463.4599609375,-400000.0625,-21331.83984375,-400000.0625
176.74223566055298,-400000.0625,-17989.16015625,-17690.80078125,-400000.0625,3459.68994140625,-400000.0625,-21341.279296875,-400000.0625
176.75269651412964,-400000.0625,-18023.2109375,-17721.0390625,-400000.0625,3437.3798828125,-400000.0625,-21372.849609375,-400000.0625
176.7605857849121,-400000.0625,-18041.470703125,-17737.060546875,-400000.0625,3433.659912109375,-400000.0625,-21393.109375,-400000.0625
176.76727676391602,-400000.0625,-18025.01953125,-17720.83984375,-400000.0625,3461.409912109375,-400000.0625,-21377.7109375,-400000.0625
176.77496314048767,-400000.0625,-17984.19921875,-17682.55078125,-400000.0625,3524.39990234375,-400000.0625,-21339.509765625,-400000.0625
176.7821810245514,-400000.0625,-17982.6796875,-17682.169921875,-400000.0625,3552.389892578125,-400000.0625,-21338.3203125,-400000.0625
176.78973126411438,-400000.0625,-18015.4296875,-17713.740234375,-400000.0625,3534.3701171875,-400000.0625,-21366.83984375,-400000.0625
176.7982234954834,-400000.0625,-18050.150390625,-17747.169921875,-400000.0625,3518.919921875,-400000.0625,-21400.169921875,-400000.0625
176.82939648628235,-400000.0625,-18045.759765625,-17740.439453125,-400000.0625,3543.85009765625,-400000.0625,-21395.5,-400000.0625
176.84054350852966,-400000.0625,-18002.23046875,-17694.380859375,-400000.0625,3606.030029296875,-400000.0625,-21351.05078125,-400000.0625
176.84774327278137,-400000.0625,-17973.51953125,-17668.6796875,-400000.0625,3653.340087890625,-400000.0625,-21330.9296875,-400000.0625
176.85838747024536,-400000.0625,-17994.9296875,-17692.51953125,-400000.0625,3656.43994140625,-400000.0625,-21356.970703125,-400000.0625
176.86653590202332,-400000.0625,-18027.119140625,-17724.330078125,-400000.0625,3646.89990234375,-400000.0625,-21388.9609375,-400000.0625
176.87474632263184,-400000.0625,-18044.330078125,-17740.30078125,-400000.0625,3668.2099609375,-400000.0625,-21405.890625,-400000.0625
176.88358736038208,-400000.0625,-18018.19921875,-17714.7890625,-400000.0625,3724.0,-400000.0625,-21379.08984375,-400000.0625
176.89230632781982,-400000.0625,-17967.419921875,-17669.25,-400000.0625,3788.419921875,-400000.0625,-21334.98046875,-400000.0625
176.90135216712952,-400000.0625,-17977.2890625,-17675.58984375,-400000.0625,3810.60009765625,-400000.0625,-21344.849609375,-400000.0625
176.92873811721802,-400000.0625,-18025.310546875,-17717.75,-400000.0625,3806.68994140625,-400000.0625,-21386.390625,-400000.0625
176.9413993358612,-400000.0625,-18050.91015625,-17741.919921875,-400000.0625,3815.840087890625,-400000.0625,-21415.51953125,-400000.0625
176.95447206497192,-400000.0625,-18029.7890625,-17723.130859375,-400000.0625,3870.820068359375,-400000.0625,-21397.779296875,-400000.0625
176.96559357643127,-400000.0625,-17985.73046875,-17679.359375,-400000.0625,3942.389892578125,-400000.0625,-21352.009765625,-400000.0625
176.97586154937744,-400000.0625,-17972.23046875,-17665.2890625,-400000.0625,3995.280029296875,-400000.0625,-21338.609375,-400000.0625
176.98473477363586,-400000.0625,-17989.259765625,-17685.369140625,-400000.0625,4027.510009765625,-400000.0625,-21360.5,-400000.0625
176.99418020248413,-400000.0625,-18020.390625,-17715.119140625,-400000.0625,4036.090087890625,-400000.0625,-21389.439453125,-400000.0625
177.0024528503418,-400000.0625,-18030.599609375,-17723.1796875,-400000.0625,4060.93994140625,-400000.0625,-21394.5390625,-400000.0625
177.02340126037598,-400000.0625,-17996.029296875,-17693.189453125,-400000.0625,4123.35009765625,-400000.0625,-21364.259765625,-400000.0625
177.03658294677734,-400000.0625,-17970.609375,-17670.970703125,-400000.0625,4190.2099609375,-400000.0625,-21345.5703125,-400000.0625
177.04598760604858,-400000.0625,-17986.109375,-17682.029296875,-400000.0625,4244.89990234375,-400000.0625,-21361.5390625,-400000.0625
177.05680227279663,-400000.0625,-18015.580078125,-17711.830078125,-400000.0625,4272.75,-400000.0625,-21389.009765625,-400000.0625
177.07052946090698,-400000.0625,-18032.69921875,-17731.140625,-400000.0625,4309.60986328125,-400000.0625,-21408.66015625,-400000.0625
177.07964968681335,-400000.0625,-18019.869140625,-17718.75,-400000.0625,4374.1201171875,-400000.0625,-21395.919921875,-400000.0625
177.0897514820099,-400000.0625,-17987.73046875,-17687.609375,-400000.0625,4458.43017578125,-400000.0625,-21367.98046875,-400000.0625
177.09667801856995,-400000.0625,-17963.75,-17666.76953125,-400000.0625,4538.68017578125,-400000.0625,-21339.08984375,-400000.0625
177.10729837417603,-400000.0625,-17975.669921875,-17677.830078125,-400000.0625,4579.5400390625,-400000.0625,-21351.48046875,-400000.0625
177.12793254852295,-400000.0625,-18015.009765625,-17717.650390625,-400000.0625,4594.60986328125,-400000.0625,-21391.8203125,-400000.0625
177.1369185447693,-400000.0625,-18036.80078125,-17734.240234375,-400000.0625,4629.89990234375,-400000.0625,-21410.279296875,-400000.0625
177.15565872192383,-400000.0625,-18016.8203125,-17713.5,-400000.0625,4712.25,-400000.0625,-21390.390625,-400000.0625
177.1742582321167,-400000.0625,-17987.2109375,-17685.029296875,-400000.0625,4800.22021484375,-400000.0625,-21361.2109375,-400000.0625
177.18648266792297,-400000.0625,-17989.30078125,-17690.08984375,-400000.0625,4849.47998046875,-400000.0625,-21368.55078125,-400000.0625
177.19510173797607,-400000.0625,-18012.05078125,-17718.75,-400000.0625,4866.169921875,-400000.0625,-21393.30078125,-400000.0625
177.2045328617096,-400000.0625,-18032.359375,-17735.439453125,-400000.0625,4891.2998046875,-400000.0625,-21405.890625,-400000.0625
177.2127754688263,-400000.0625,-18021.970703125,-17719.130859375,-400000.0625,4956.47998046875,-400000.0625,-21393.490234375,-400000.0625
177.23650670051575,-400000.0625,-17998.4609375,-17689.419921875,-400000.0625,5047.7998046875,-400000.0625,-21366.5,-400000.0625
177.24594044685364,-400000.0625,-17985.19921875,-17679.689453125,-400000.0625,5115.83984375,-400000.0625,-21365.740234375,-400000.0625
177.25489807128906,-400000.0625,-17995.599609375,-17698.189453125,-400000.0625,5147.64990234375,-400000.0625,-21398.98046875,-400000.0625
177.26707482337952,-400000.0625,-18023.2109375,-17726.140625,-400000.0625,5162.85986328125,-400000.0625,-21440.029296875,-400000.0625
177.278906583786,-400000.0625,-18015.9609375,-17721.26953125,-400000.0625,5213.1201171875,-400000.0625,-21446.609375,-400000.0625
177.29033660888672,-400000.0625,-17974.619140625,-17676.98046875,-400000.0625,5297.27978515625,-400000.0625,-21415.900390625,-400000.0625
177.30212020874023,-400000.0625,-17949.33984375,-17640.55078125,-400000.0625,5371.14013671875,-400000.0625,-21393.490234375,-400000.0625
177.31054782867432,-400000.0625,-17951.30078125,-17633.5390625,-400000.0625,5414.52978515625,-400000.0625,-21402.55078125,-400000.0625
177.31929230690002,-400000.0625,-17988.400390625,-17665.8203125,-400000.0625,5435.27978515625,-400000.0625,-21445.80078125,-400000.0625
177.3441903591156,-400000.0625,-18012.529296875,-17687.419921875,-400000.0625,5470.22998046875,-400000.0625,-21475.26953125,-400000.0625
177.35486698150635,-400000.0625,-18006.1796875,-17679.55078125,-400000.0625,5530.259765625,-400000.0625,-21480.130859375,-400000.0625
177.36559009552002,-400000.0625,-17965.130859375,-17642.2109375,-400000.0625,5617.2900390625,-400000.0625,-21444.900390625,-400000.0625
177.37567138671875,-400000.0625,-17938.470703125,-17616.609375,-400000.0625,5690.3798828125,-400000.0625,-21414.0390625,-400000.0625
177.38656044006348,-400000.0625,-17963.83984375,-17640.830078125,-400000.0625,5717.330078125,-400000.0625,-21436.029296875,-400000.0625
177.39579224586487,-400000.0625,-18003.0390625,-17679.740234375,-400000.0625,5726.9599609375,-400000.0625,-21474.890625,-400000.0625
177.4049563407898,-400000.0625,-18002.130859375,-17680.599609375,-400000.0625,5761.91015625,-400000.0625,-21473.4609375,-400000.0625
177.4134657382965,-400000.0625,-17967.080078125,-17644.4609375,-400000.0625,5833.6298828125,-400000.0625,-21436.41015625,-400000.0625
177.42415738105774,-400000.0625,-17945.8203125,-17622.619140625,-400000.0625,5902.2900390625,-400000.0625,-21417.669921875,-400000.0625
177.44784092903137,-400000.0625,-17962.4609375,-17636.30078125,-400000.0625,5934.85986328125,-400000.0625,-21433.2109375,-400000.0625
177.45775246620178,-400000.0625,-17998.169921875,-17669.630859375,-400000.0625,5934.0498046875,-400000.0625,-21467.01953125,-400000.0625
177.46769046783447,-400000.0625,-18016.720703125,-17683.83984375,-400000.0625,5939.8701171875,-400000.0625,-21483.94921875,-400000.0625
177.47765946388245,-400000.0625,-17994.83984375,-17663.810546875,-400000.0625,5980.39990234375,-400000.0625,-21466.689453125,-400000.0625
177.48899364471436,-400000.0625,-17960.169921875,-17632.76953125,-400000.0625,6025.97998046875,-400000.0625,-21431.01953125,-400000.0625
177.49931693077087,-400000.0625,-17951.060546875,-17626.0,-400000.0625,6044.47998046875,-400000.0625,-21422.439453125,-400000.0625
177.50918626785278,-400000.0625,-17977.33984375,-17648.26953125,-400000.0625,6030.66015625,-400000.0625,-21444.75,-400000.0625
177.51871824264526,-400000.0625,-18003.80078125,-17675.119140625,-400000.0625,6020.93017578125,-400000.0625,-21472.119140625,-400000.0625
177.52931666374207,-400000.0625,-18006.419921875,-17676.55078125,-400000.0625,6025.89013671875,-400000.0625,-21474.650390625,-400000.0625
177.55363774299622,-400000.0625,-17986.349609375,-17655.5703125,-400000.0625,6044.39013671875,-400000.0625,-21454.33984375,-400000.0625
177.5631914138794,-400000.0625,-17974.08984375,-17644.0703125,-400000.0625,6052.919921875,-400000.0625,-21439.130859375,-400000.0625
177.57536458969116,-400000.0625,-17977.05078125,-17648.75,-400000.0625,6040.240234375,-400000.0625,-21440.599609375,-400000.0625
177.58699083328247,-400000.0625,-18004.560546875,-17676.779296875,-400000.0625,6005.56982421875,-400000.0625,-21475.599609375,-400000.0625
177.59662127494812,-400000.0625,-18018.529296875,-17688.66015625,-400000.0625,5978.6298828125,-400000.0625,-21487.2890625,-400000.0625
177.60734057426453,-400000.0625,-17997.98046875,-17665.19921875,-400000.0625,5979.97021484375,-400000.0625,-21459.19921875,-400000.0625
177.6171703338623,-400000.0625,-17962.98046875,-17632.30078125,-400000.0625,6006.3798828125,-400000.0625,-21424.76953125,-400000.0625
177.6250705718994,-400000.0625,-17945.05078125,-17618.7109375,-400000.0625,6011.9599609375,-400000.0625,-21413.759765625,-400000.0625
177.631662607193,-400000.0625,-17973.279296875,-17645.83984375,-400000.0625,5968.52001953125,-400000.0625,-21440.890625,-400000.0625
177.6596279144287,-400000.0625,-18036.890625,-17702.6796875,-400000.0625,5903.669921875,-400000.0625,-21495.109375,-400000.0625
177.66864371299744,-400000.0625,-18037.080078125,-17699.669921875,-400000.0625,5885.41015625,-400000.0625,-21494.25,-400000.0625
177.67809438705444,-400000.0625,-17997.220703125,-17658.51953125,-400000.0625,5906.52978515625,-400000.0625,-21455.33984375,-400000.0625
177.6859781742096,-400000.0625,-17974.5703125,-17636.970703125,-400000.0625,5904.81982421875,-400000.0625,-21435.310546875,-400000.0625
177.69934368133545,-400000.0625,-17992.98046875,-17648.130859375,-400000.0625,5856.7998046875,-400000.0625,-21445.560546875,-400000.0625
177.7091612815857,-400000.0625,-18034.41015625,-17684.990234375,-400000.0625,5782.990234375,-400000.0625,-21479.990234375,-400000.0625
177.72108840942383,-400000.0625,-18044.7109375,-17701.439453125,-400000.0625,5733.97021484375,-400000.0625,-21497.16015625,-400000.0625
177.73065400123596,-400000.0625,-18037.849609375,-17670.5390625,-400000.0625,5714.31982421875,-400000.0625,-21466.0703125,-400000.0625
177.73882389068604,-400000.0625,-18024.259765625,-17629.8203125,-400000.0625,5706.97998046875,-400000.0625,-21428.640625,-400000.0625
177.76309394836426,-400000.0625,-17983.060546875,-17637.640625,-400000.0625,5686.18994140625,-400000.0625,-21426.16015625,-400000.0625
177.7717969417572,-400000.0625,-18030.119140625,-17665.48046875,-400000.0625,5627.77978515625,-400000.0625,-21456.05078125,-400000.0625
177.7781946659088,-400000.0625,-18074.3203125,-17693.279296875,-400000.0625,5554.919921875,-400000.0625,-21485.08984375,-400000.0625
177.78707718849182,-400000.0625,-18079.810546875,-17686.560546875,-400000.0625,5503.66015625,-400000.0625,-21476.69921875,-400000.0625
177.79771733283997,-400000.0625,-18044.900390625,-17651.26953125,-400000.0625,5483.06005859375,-400000.0625,-21442.509765625,-400000.0625
177.81037306785583,-400000.0625,-18041.0390625,-17631.390625,-400000.0625,5464.27001953125,-400000.0625,-21436.5,-400000.0625
177.82060194015503,-400000.0625,-18058.640625,-17664.33984375,-400000.0625,5400.85009765625,-400000.0625,-21460.630859375,-400000.0625
177.82952642440796,-400000.0625,-18119.4296875,-17710.5390625,-400000.0625,5305.85986328125,-400000.0625,-21493.720703125,-400000.0625
177.83732295036316,-400000.0625,-18162.009765625,-17729.140625,-400000.0625,5244.2998046875,-400000.0625,-21509.4609375,-400000.0625
177.84594011306763,-400000.0625,-18166.5390625,-17719.369140625,-400000.0625,5223.080078125,-400000.0625,-21488.529296875,-400000.0625
177.87120652198792,-400000.0625,-18172.4609375,-17694.189453125,-400000.0625,5213.64013671875,-400000.0625,-21452.669921875,-400000.0625
177.88092350959778,-400000.0625,-18206.740234375,-17695.240234375,-400000.0625,5195.81005859375,-400000.0625,-21450.810546875,-400000.0625
177.89036083221436,-400000.0625,-18280.3203125,-17744.640625,-400000.0625,5153.7001953125,-400000.0625,-21496.19921875,-400000.0625
177.89951038360596,-400000.0625,-18360.51953125,-17802.189453125,-400000.0625,5091.85986328125,-400000.0625,-21536.01953125,-400000.0625
177.90852117538452,-400000.0625,-18381.41015625,-17813.919921875,-400000.0625,5074.41015625,-400000.0625,-21531.109375,-400000.0625
177.91604089736938,-400000.0625,-18381.740234375,-17790.83984375,-400000.0625,5085.14013671875,-400000.0625,-21495.869140625,-400000.0625
177.92790055274963,-400000.0625,-18370.19921875,-17773.150390625,-400000.0625,5065.35009765625,-400000.0625,-21467.740234375,-400000.0625
177.93943452835083,-400000.0625,-18384.7890625,-17786.55078125,-400000.0625,5012.47021484375,-400000.0625,-21470.41015625,-400000.0625
177.94877362251282,-400000.0625,-18419.3203125,-17818.599609375,-400000.0625,4947.330078125,-400000.0625,-21498.16015625,-400000.0625
177.97673845291138,-400000.0625,-18418.119140625,-17827.3203125,-400000.0625,4886.47998046875,-400000.0625,-21503.44921875,-400000.0625
177.98768186569214,-400000.0625,-18377.830078125,-17798.0,-400000.0625,4874.419921875,-400000.0625,-21473.83984375,-400000.0625
177.99523663520813,-400000.0625,-18336.16015625,-17765.05078125,-400000.0625,4882.2900390625,-400000.0625,-21446.330078125,-400000.0625
178.00495314598083,-400000.0625,-18320.279296875,-17762.279296875,-400000.0625,4837.56005859375,-400000.0625,-21445.609375,-400000.0625
178.01408338546753,-400000.0625,-18344.830078125,-17800.5703125,-400000.0625,4771.18994140625,-400000.0625,-21482.0390625,-400000.0625
178.0288634300232,-400000.0625,-18350.41015625,-17823.939453125,-400000.0625,4713.580078125,-400000.0625,-21510.7890625,-400000.0625
178.03948307037354,-400000.0625,-18316.560546875,-17807.009765625,-400000.0625,4681.2998046875,-400000.0625,-21492.2890625,-400000.0625
178.05128717422485,-400000.0625,-18259.0,-17764.140625,-400000.0625,4671.9599609375,-400000.0625,-21448.810546875,-400000.0625
178.07855796813965,-400000.0625,-18198.349609375,-17721.26953125,-400000.0625,4670.0498046875,-400000.0625,-21408.849609375,-400000.0625
178.0871570110321,-400000.0625,-18212.080078125,-17749.359375,-400000.0625,4625.509765625,-400000.0625,-21439.029296875,-400000.0625
178.09609627723694,-400000.0625,-18243.359375,-17787.220703125,-400000.0625,4555.3701171875,-400000.0625,-21478.80078125,-400000.0625
178.10811948776245,-400000.0625,-18240.169921875,-17796.08984375,-400000.0625,4496.0498046875,-400000.0625,-21495.390625,-400000.0625
178.12058115005493,-400000.0625,-18199.880859375,-17768.150390625,-400000.0625,4473.02001953125,-400000.0625,-21471.359375,-400000.0625
178.1315996646881,-400000.0625,-18141.26953125,-17721.69921875,-400000.0625,4468.16015625,-400000.0625,-21425.919921875,-400000.0625
178.1546914577484,-400000.0625,-18117.529296875,-17708.0703125,-400000.0625,4397.35009765625,-400000.0625,-21415.619140625,-400000.0625
178.20413398742676,-400000.0625,-18141.4609375,-17739.630859375,-400000.0625,4167.1298828125,-400000.0625,-21449.279296875,-400000.0625
178.21279096603394,-400000.0625,-18153.619140625,-17757.849609375,-400000.0625,3624.580078125,-400000.0625,-21465.259765625,-400000.0625
178.22408723831177,-400000.0625,-18129.58984375,-17737.9609375,-400000.0625,2868.699951171875,-400000.0625,-21447.609375,-400000.0625
178.23463225364685,-400000.0625,-18072.890625,-17687.560546875,-400000.0625,1436.1400146484375,-400000.0625,-21403.69921875,-400000.0625
178.24412512779236,-400000.0625,-18053.919921875,-17678.880859375,-400000.0625,1683.52001953125,-400000.0625,-21392.5390625,-400000.0625
178.25398802757263,-400000.0625,-18072.080078125,-17702.439453125,-400000.0625,2169.320068359375,-400000.0625,-21413.900390625,-400000.0625
178.26305413246155,-400000.0625,-18102.359375,-17733.669921875,-400000.0625,3316.2099609375,-400000.0625,-21448.7109375,-400000.0625
178.2926206588745,-400000.0625,-18097.830078125,-17733.2890625,-400000.0625,3783.22998046875,-400000.0625,-21444.279296875,-400000.0625
178.30154490470886,-400000.0625,-18058.58984375,-17702.869140625,-400000.0625,3381.679931640625,-400000.0625,-21410.560546875,-400000.0625
178.3122501373291,-400000.0625,-18019.009765625,-17666.490234375,-400000.0625,1645.1400146484375,-400000.0625,-21380.619140625,-400000.0625
178.32653188705444,-400000.0625,-18024.400390625,-17672.73046875,-400000.0625,192.7899932861328,-400000.0625,-21388.390625,-400000.0625
178.33560967445374,-400000.0625,-18067.4609375,-17720.609375,-400000.0625,1285.510009765625,-400000.0625,-21435.83984375,-400000.0625
178.342848777771,-400000.0625,-18093.6796875,-17746.740234375,-400000.0625,3616.0,-400000.0625,-21467.01953125,-400000.0625
178.3550717830658,-400000.0625,-18069.599609375,-17725.849609375,-400000.0625,3566.550048828125,-400000.0625,-21446.66015625,-400000.0625
178.3697259426117,-400000.0625,-18019.9609375,-17681.509765625,-400000.0625,3655.14990234375,-400000.0625,-21398.01953125,-400000.0625
178.40078973770142,-400000.0625,-17983.869140625,-17655.51953125,-400000.0625,3899.239990234375,-400000.0625,-21369.75,-400000.0625
178.40977120399475,-400000.0625,-18001.1796875,-17673.779296875,-400000.0625,4213.10009765625,-400000.0625,-21390.970703125,-400000.0625
178.4181981086731,-400000.0625,-18044.330078125,-17714.9296875,-400000.0625,4253.2900390625,-400000.0625,-21431.689453125,-400000.0625
178.42894673347473,-400000.0625,-18053.30078125,-17725.330078125,-400000.0625,4264.02001953125,-400000.0625,-21443.939453125,-400000.0625
178.44026017189026,-400000.0625,-18022.400390625,-17695.759765625,-400000.0625,4297.16015625,-400000.0625,-21420.390625,-400000.0625
178.44960141181946,-400000.0625,-17990.689453125,-17662.810546875,-400000.0625,4323.2001953125,-400000.0625,-21390.25,-400000.0625
178.46142745018005,-400000.0625,-17991.259765625,-17662.810546875,-400000.0625,4314.14013671875,-400000.0625,-21390.73046875,-400000.0625
178.4740388393402,-400000.0625,-18019.25,-17687.509765625,-400000.0625,4284.18994140625,-400000.0625,-21416.759765625,-400000.0625
178.5042130947113,-400000.0625,-18036.4609375,-17706.5390625,-400000.0625,4263.77978515625,-400000.0625,-21432.01953125,-400000.0625
178.51274228096008,-400000.0625,-18013.189453125,-17687.0390625,-400000.0625,4265.02001953125,-400000.0625,-21410.75,-400000.0625
178.52024459838867,-400000.0625,-17967.1796875,-17643.740234375,-400000.0625,4300.02001953125,-400000.0625,-21366.359375,-400000.0625
178.5276391506195,-400000.0625,-17966.080078125,-17645.890625,-400000.0625,4297.5,-400000.0625,-21370.130859375,-400000.0625
178.5348722934723,-400000.0625,-18002.80078125,-17678.259765625,-400000.0625,4270.1201171875,-400000.0625,-21407.1796875,-400000.0625
178.54139494895935,-400000.0625,-18045.05078125,-17717.599609375,-400000.0625,4237.22021484375,-400000.0625,-21445.279296875,-400000.0625
178.5513687133789,-400000.0625,-18046.810546875,-17719.69921875,-400000.0625,4220.490234375,-400000.0625,-21447.51953125,-400000.0625
178.55965447425842,-400000.0625,-17996.310546875,-17671.060546875,-400000.0625,4253.10009765625,-400000.0625,-21406.130859375,-400000.0625
178.56829714775085,-400000.0625,-17952.490234375,-17629.009765625,-400000.0625,4280.22998046875,-400000.0625,-21369.69921875,-400000.0625
178.57940077781677,-400000.0625,-17961.310546875,-17638.58984375,-400000.0625,4268.83984375,-400000.0625,-21378.08984375,-400000.0625
178.60910439491272,-400000.0625,-17982.529296875,-17659.669921875,-400000.0625,4228.35009765625,-400000.0625,-21395.44921875,-400000.0625
178.61970973014832,-400000.0625,-18016.529296875,-17692.380859375,-400000.0625,4198.7900390625,-400000.0625,-21425.869140625,-400000.0625
178.62896752357483,-400000.0625,-18021.779296875,-17696.240234375,-400000.0625,4199.97998046875,-400000.0625,-21434.01953125,-400000.0625
178.64157366752625,-400000.0625,-17987.73046875,-17663.669921875,-400000.0625,4219.2001953125,-400000.0625,-21401.0703125,-400000.0625
178.65033292770386,-400000.0625,-17960.55078125,-17637.400390625,-400000.0625,4230.8798828125,-400000.0625,-21375.279296875,-400000.0625
178.65867161750793,-400000.0625,-17981.2890625,-17658.330078125,-400000.0625,4203.990234375,-400000.0625,-21394.400390625,-400000.0625
178.6652009487152,-400000.0625,-18013.2890625,-17691.810546875,-400000.0625,4165.35986328125,-400000.0625,-21429.779296875,-400000.0625
178.67537569999695,-400000.0625,-18012.140625,-17691.900390625,-400000.0625,4157.58984375,-400000.0625,-21426.73046875,-400000.0625
178.68622374534607,-400000.0625,-17967.939453125,-17648.890625,-400000.0625,4192.02001953125,-400000.0625,-21390.009765625,-400000.0625
178.71280813217163,-400000.0625,-17938.849609375,-17620.279296875,-400000.0625,4218.77001953125,-400000.0625,-21363.169921875,-400000.0625
178.7223300933838,-400000.0625,-17955.0703125,-17634.5390625,-400000.0625,4205.75,-400000.0625,-21370.560546875,-400000.0625
178.72938704490662,-400000.0625,-17967.75,-17648.26953125,-400000.0625,4183.91015625,-400000.0625,-21391.16015625,-400000.0625
178.7389988899231,-400000.0625,-17979.810546875,-17665.439453125,-400000.0625,4150.9599609375,-400000.0625,-21412.330078125,-400000.0625
178.7474193572998,-400000.0625,-17994.5,-17677.599609375,-400000.0625,4132.4599609375,-400000.0625,-21415.859375,-400000.0625
178.7571234703064,-400000.0625,-17971.419921875,-17652.3203125,-400000.0625,4166.7900390625,-400000.0625,-21388.25,-400000.0625
178.7654778957367,-400000.0625,-17951.6796875,-17636.060546875,-400000.0625,4187.68017578125,-400000.0625,-21371.650390625,-400000.0625
178.7727439403534,-400000.0625,-17966.560546875,-17643.880859375,-400000.0625,4177.240234375,-400000.0625,-21391.009765625,-400000.0625
178.77893042564392,-400000.0625,-18002.939453125,-17667.25,-400000.0625,4144.43017578125,-400000.0625,-21423.19921875,-400000.0625
178.785795211792,-400000.0625,-18003.75,-17671.6796875,-400000.0625,4141.66015625,-400000.0625,-21420.19921875,-400000.0625
178.79199409484863,-400000.0625,-17959.44921875,-17640.58984375,-400000.0625,4172.7998046875,-400000.0625,-21378.51953125,-400000.0625
178.82224678993225,-400000.0625,-17921.16015625,-17609.169921875,-400000.0625,4202.41015625,-400000.0625,-21337.650390625,-400000.0625
178.83330726623535,-400000.0625,-17934.0390625,-17624.94921875,-400000.0625,4186.33984375,-400000.0625,-21342.330078125,-400000.0625
178.84103536605835,-400000.0625,-17983.580078125,-17672.6796875,-400000.0625,4154.97021484375,-400000.0625,-21389.109375,-400000.0625
178.84915018081665,-400000.0625,-18011.619140625,-17702.630859375,-400000.0625,4129.83984375,-400000.0625,-21414.380859375,-400000.0625
178.8578245639801,-400000.0625,-17983.19921875,-17681.55078125,-400000.0625,4167.31982421875,-400000.0625,-21378.619140625,-400000.0625
178.86526322364807,-400000.0625,-17938.380859375,-17641.880859375,-400000.0625,4214.0498046875,-400000.0625,-21335.69921875,-400000.0625
178.87149572372437,-400000.0625,-17935.849609375,-17641.779296875,-400000.0625,4215.669921875,-400000.0625,-21335.3203125,-400000.0625
178.87756729125977,-400000.0625,-17974.66015625,-17679.259765625,-400000.0625,4205.31982421875,-400000.0625,-21377.759765625,-400000.0625
178.88652801513672,-400000.0625,-18012.0,-17717.939453125,-400000.0625,4197.02978515625,-400000.0625,-21418.759765625,-400000.0625
178.89473581314087,-400000.0625,-18010.240234375,-17718.4609375,-400000.0625,4234.02978515625,-400000.0625,-21414.0,-400000.0625
178.91730046272278,-400000.0625,-17975.240234375,-17684.890625,-400000.0625,4305.509765625,-400000.0625,-21378.140625,-400000.0625
178.92685341835022,-400000.0625,-17937.66015625,-17647.359375,-400000.0625,4374.93017578125,-400000.0625,-21348.33984375,-400000.0625
178.93627262115479,-400000.0625,-17935.140625,-17650.220703125,-400000.0625,4409.02978515625,-400000.0625,-21349.580078125,-400000.0625
178.94374060630798,-400000.0625,-17978.05078125,-17693.900390625,-400000.0625,4410.97998046875,-400000.0625,-21391.58984375,-400000.0625
178.95313000679016,-400000.0625,-18006.759765625,-17721.4609375,-400000.0625,4457.18994140625,-400000.0625,-21423.19921875,-400000.0625
178.96059226989746,-400000.0625,-17972.7109375,-17686.990234375,-400000.0625,4562.14013671875,-400000.0625,-21389.580078125,-400000.0625
178.96929287910461,-400000.0625,-17948.25,-17659.189453125,-400000.0625,4684.5,-400000.0625,-21365.599609375,-400000.0625
178.97716355323792,-400000.0625,-17940.4296875,-17653.1796875,-400000.0625,4795.89013671875,-400000.0625,-21364.880859375,-400000.0625
178.9871928691864,-400000.0625,-17958.880859375,-17674.5,-400000.0625,4882.85986328125,-400000.0625,-21377.7109375,-400000.0625
178.99583435058594,-400000.0625,-17974.330078125,-17693.4296875,-400000.0625,4977.0400390625,-400000.0625,-21388.580078125,-400000.0625
179.02934551239014,-400000.0625,-17984.439453125,-17698.91015625,-400000.0625,5117.080078125,-400000.0625,-21398.7890625,-400000.0625
179.0408992767334,-400000.0625,-17969.369140625,-17683.509765625,-400000.0625,5301.91015625,-400000.0625,-21383.2890625,-400000.0625
179.0510754585266,-400000.0625,-17945.720703125,-17659.08984375,-400000.0625,5500.35986328125,-400000.0625,-21358.2109375,-400000.0625
179.06289625167847,-400000.0625,-17951.349609375,-17668.19921875,-400000.0625,5692.77001953125,-400000.0625,-21364.01953125,-400000.0625
179.0713288784027,-400000.0625,-17987.30078125,-17709.880859375,-400000.0625,5846.7900390625,-400000.0625,-21404.83984375,-400000.0625
179.08304047584534,-400000.0625,-17989.880859375,-17709.349609375,-400000.0625,6031.75,-400000.0625,-21407.4609375,-400000.0625
179.09219455718994,-400000.0625,-17947.2890625,-17667.580078125,-400000.0625,6262.919921875,-400000.0625,-21366.0703125,-400000.0625
179.10891366004944,-400000.0625,-17924.44921875,-17642.9296875,-400000.0625,6502.43994140625,-400000.0625,-21352.099609375,-400000.0625
179.15001893043518,-400000.0625,-17948.919921875,-17667.390625,-400000.0625,6710.669921875,-400000.0625,-21378.7109375,-400000.0625
179.1731572151184,-400000.0625,-17982.2890625,-17703.490234375,-400000.0625,6878.330078125,-400000.0625,-21405.130859375,-400000.0625
179.18788933753967,-400000.0625,-17976.4296875,-17701.150390625,-400000.0625,7050.7998046875,-400000.0625,-21391.8203125,-400000.0625
179.20324540138245,-400000.0625,-17965.41015625,-17684.80078125,-400000.0625,7266.330078125,-400000.0625,-21389.19921875,-400000.0625
179.21336722373962,-400000.0625,-17949.5390625,-17664.2890625,-400000.0625,7505.080078125,-400000.0625,-21381.380859375,-400000.0625
179.24668741226196,-400000.0625,-17947.25,-17662.669921875,-400000.0625,7717.56005859375,-400000.0625,-21372.75,-400000.0625
179.25853514671326,-400000.0625,-17959.880859375,-17677.119140625,-400000.0625,7863.330078125,-400000.0625,-21384.2890625,-400000.0625
179.26926159858704,-400000.0625,-17984.9609375,-17699.76953125,-400000.0625,8000.0400390625,-400000.0625,-21414.5703125,-400000.0625
179.27778697013855,-400000.0625,-17991.01953125,-17707.779296875,-400000.0625,8162.2099609375,-400000.0625,-21420.580078125,-400000.0625
179.29071474075317,-400000.0625,-17955.5390625,-17672.490234375,-400000.0625,8334.1103515625,-400000.0625,-21378.810546875,-400000.0625
179.30357813835144,-400000.0625,-17927.029296875,-17645.650390625,-400000.0625,8485.990234375,-400000.0625,-21354.73046875,-400000.0625
179.31172680854797,-400000.0625,-17938.4296875,-17658.380859375,-400000.0625,8606.669921875,-400000.0625,-21369.890625,-400000.0625
179.3223843574524,-400000.0625,-17963.69921875,-17687.66015625,-400000.0625,8682.6796875,-400000.0625,-21392.439453125,-400000.0625
179.35484957695007,-400000.0625,-17976.380859375,-17703.5390625,-400000.0625,8752.6298828125,-400000.0625,-21410.279296875,-400000.0625
179.36481308937073,-400000.0625,-17964.3203125,-17688.80078125,-400000.0625,8846.759765625,-400000.0625,-21398.44921875,-400000.0625
179.37714266777039,-400000.0625,-17936.5703125,-17659.859375,-400000.0625,8940.8896484375,-400000.0625,-21367.83984375,-400000.0625
179.38603496551514,-400000.0625,-17912.6796875,-17638.779296875,-400000.0625,9015.23046875,-400000.0625,-21351.9609375,-400000.0625
179.39533877372742,-400000.0625,-17932.23046875,-17657.470703125,-400000.0625,9039.01953125,-400000.0625,-21371.130859375,-400000.0625
179.40567231178284,-400000.0625,-17974.08984375,-17700.05078125,-400000.0625,9068.2001953125,-400000.0625,-21404.3203125,-400000.0625
179.41366720199585,-400000.0625,-17980.390625,-17706.109375,-400000.0625,9100.6298828125,-400000.0625,-21411.470703125,-400000.0625
179.42118167877197,-400000.0625,-17944.19921875,-17668.19921875,-400000.0625,9169.48046875,-400000.0625,-21378.140625,-400000.0625
179.43353390693665,-400000.0625,-17914.6796875,-17642.740234375,-400000.0625,9218.7900390625,-400000.0625,-21351.76953125,-400000.0625
179.46780967712402,-400000.0625,-17911.76953125,-17642.5,-400000.0625,9232.08984375,-400000.0625,-21355.060546875,-400000.0625
179.4782223701477,-400000.0625,-17952.779296875,-17681.7890625,-400000.0625,9208.2998046875,-400000.0625,-21400.41015625,-400000.0625
179.48753094673157,-400000.0625,-17973.849609375,-17705.060546875,-400000.0625,9200.759765625,-400000.0625,-21416.7109375,-400000.0625
179.4976556301117,-400000.0625,-17955.01953125,-17691.810546875,-400000.0625,9219.1201171875,-400000.0625,-21395.259765625,-400000.0625
179.50638222694397,-400000.0625,-17914.009765625,-17648.75,-400000.0625,9259.83984375,-400000.0625,-21358.73046875,-400000.0625
179.51400709152222,-400000.0625,-17914.6796875,-17639.01953125,-400000.0625,9276.7197265625,-400000.0625,-21359.919921875,-400000.0625
179.52418899536133,-400000.0625,-17952.16015625,-17674.73046875,-400000.0625,9251.7900390625,-400000.0625,-21394.779296875,-400000.0625
179.5332112312317,-400000.0625,-17984.060546875,-17713.310546875,-400000.0625,9206.009765625,-400000.0625,-21427.439453125,-400000.0625
179.54414629936218,-400000.0625,-17983.060546875,-17712.169921875,-400000.0625,9181.6396484375,-400000.0625,-21427.30078125,-400000.0625
179.57315707206726,-400000.0625,-17933.470703125,-17664.009765625,-400000.0625,9205.3896484375,-400000.0625,-21379.900390625,-400000.0625
179.58154916763306,-400000.0625,-17900.80078125,-17633.390625,-400000.0625,9209.2001953125,-400000.0625,-21344.94921875,-400000.0625
179.5897879600525,-400000.0625,-17919.73046875,-17650.220703125,-400000.0625,9176.2998046875,-400000.0625,-21361.970703125,-400000.0625
179.59882998466492,-400000.0625,-17961.310546875,-17692.66015625,-400000.0625,9109.3603515625,-400000.0625,-21404.4609375,-400000.0625
179.60644674301147,-400000.0625,-17992.259765625,-17719.220703125,-400000.0625,9045.650390625,-400000.0625,-21426.630859375,-400000.0625
179.61651182174683,-400000.0625,-17978.859375,-17703.9609375,-400000.0625,9023.6201171875,-400000.0625,-21409.23046875,-400000.0625
179.6261637210846,-400000.0625,-17942.05078125,-17665.099609375,-400000.0625,9019.8095703125,-400000.0625,-21372.369140625,-400000.0625
179.63426518440247,-400000.0625,-17928.83984375,-17645.890625,-400000.0625,8985.4697265625,-400000.0625,-21360.400390625,-400000.0625
179.64194583892822,-400000.0625,-17943.91015625,-17661.380859375,-400000.0625,8922.7197265625,-400000.0625,-21386.48046875,-400000.0625
179.6516981124878,-400000.0625,-17964.3203125,-17683.83984375,-400000.0625,8862.6396484375,-400000.0625,-21417.099609375,-400000.0625
179.67710781097412,-400000.0625,-17961.689453125,-17675.349609375,-400000.0625,8820.150390625,-400000.0625,-21424.869140625,-400000.0625
179.69031858444214,-400000.0625,-17935.1796875,-17647.26953125,-400000.0625,8784.099609375,-400000.0625,-21409.69921875,-400000.0625
179.70049715042114,-400000.0625,-17897.560546875,-17606.689453125,-400000.0625,8761.9296875,-400000.0625,-21378.7109375,-400000.0625
179.71073198318481,-400000.0625,-17905.05078125,-17601.919921875,-400000.0625,8699.419921875,-400000.0625,-21381.48046875,-400000.0625
179.72072100639343,-400000.0625,-17950.5390625,-17637.779296875,-400000.0625,8607.76953125,-400000.0625,-21432.58984375,-400000.0625
179.72917580604553,-400000.0625,-17989.349609375,-17671.16015625,-400000.0625,8524.23046875,-400000.0625,-21476.80078125,-400000.0625
179.7382881641388,-400000.0625,-17980.099609375,-17659.810546875,-400000.0625,8483.080078125,-400000.0625,-21465.689453125,-400000.0625
179.74556374549866,-400000.0625,-17941.4296875,-17616.26953125,-400000.0625,8455.23046875,-400000.0625,-21426.25,-400000.0625
179.7538537979126,-400000.0625,-17916.400390625,-17594.859375,-400000.0625,8406.16015625,-400000.0625,-21402.69921875,-400000.0625
179.78279304504395,-400000.0625,-17922.119140625,-17600.349609375,-400000.0625,8314.5595703125,-400000.0625,-21408.939453125,-400000.0625
179.79182696342468,-400000.0625,-17946.19921875,-17624.5703125,-400000.0625,8213.66015625,-400000.0625,-21434.880859375,-400000.0625
179.80026245117188,-400000.0625,-17949.76953125,-17633.73046875,-400000.0625,8137.89013671875,-400000.0625,-21439.83984375,-400000.0625
179.81021356582642,-400000.0625,-17939.380859375,-17642.740234375,-400000.0625,8095.89013671875,-400000.0625,-21430.58984375,-400000.0625
179.83825778961182,-400000.0625,-17928.650390625,-17601.349609375,-400000.0625,8059.06982421875,-400000.0625,-21418.91015625,-400000.0625
179.8632001876831,-400000.0625,-17936.1796875,-17595.099609375,-400000.0625,8002.330078125,-400000.0625,-21417.810546875,-400000.0625
179.8987889289856,-400000.0625,-17963.650390625,-17631.150390625,-400000.0625,7908.81982421875,-400000.0625,-21439.599609375,-400000.0625
179.90744924545288,-400000.0625,-17971.5703125,-17641.640625,-400000.0625,7836.6298828125,-400000.0625,-21449.7109375,-400000.0625
179.9194848537445,-400000.0625,-17961.080078125,-17624.189453125,-400000.0625,7801.919921875,-400000.0625,-21437.310546875,-400000.0625
179.9356665611267,-400000.0625,-17926.220703125,-17584.900390625,-400000.0625,7799.10009765625,-400000.0625,-21401.5,-400000.0625
179.95254230499268,-400000.0625,-17938.330078125,-17592.099609375,-400000.0625,7763.85986328125,-400000.0625,-21408.1796875,-400000.0625
179.96260142326355,-400000.0625,-17981.76953125,-17626.5703125,-400000.0625,7684.08984375,-400000.0625,-21441.75,-400000.0625
179.97167706489563,-400000.0625,-18001.220703125,-17645.4609375,-400000.0625,7610.990234375,-400000.0625,-21461.25,-400000.0625
180.01283359527588,-400000.0625,-18003.939453125,-17654.560546875,-400000.0625,7572.4599609375,-400000.0625,-21470.359375,-400000.0625
180.0225670337677,-400000.0625,-17995.98046875,-17638.5390625,-400000.0625,7571.89013671875,-400000.0625,-21436.169921875,-400000.0625
180.0311303138733,-400000.0625,-17976.099609375,-17594.4296875,-400000.0625,7568.169921875,-400000.0625,-21393.830078125,-400000.0625
180.04902458190918,-400000.0625,-17998.650390625,-17576.599609375,-400000.0625,7538.64990234375,-400000.0625,-21419.240234375,-400000.0625
180.0617036819458,-400000.0625,-18029.7890625,-17632.76953125,-400000.0625,7488.6298828125,-400000.0625,-21455.2890625,-400000.0625
180.0795738697052,-400000.0625,-18083.619140625,-17654.990234375,-400000.0625,7445.81005859375,-400000.0625,-21466.5390625,-400000.0625
180.101567029953,-400000.0625,-18076.1796875,-17621.810546875,-400000.0625,7440.330078125,-400000.0625,-21439.130859375,-400000.0625
180.13546633720398,-400000.0625,-17996.029296875,-17598.009765625,-400000.0625,7447.39013671875,-400000.0625,-21422.720703125,-400000.0625
180.16673350334167,-400000.0625,-18010.4296875,-17612.890625,-400000.0625,7427.35986328125,-400000.0625,-21436.98046875,-400000.0625
180.18633556365967,-400000.0625,-18064.0703125,-17639.58984375,-400000.0625,7370.81005859375,-400000.0625,-21447.759765625,-400000.0625
180.21204924583435,-400000.0625,-18126.6796875,-17670.970703125,-400000.0625,7332.85009765625,-400000.0625,-21471.4609375,-400000.0625
180.22526025772095,-400000.0625,-18176.41015625,-17683.080078125,-400000.0625,7321.5498046875,-400000.0625,-21487.099609375,-400000.0625
180.24033403396606,-400000.0625,-18196.6796875,-17671.009765625,-400000.0625,7340.14990234375,-400000.0625,-21474.220703125,-400000.0625
180.25985026359558,-400000.0625,-18215.51953125,-17658.51953125,-400000.0625,7356.60009765625,-400000.0625,-21453.240234375,-400000.0625
180.27664637565613,-400000.0625,-18257.51953125,-17678.7890625,-400000.0625,7334.66015625,-400000.0625,-21460.390625,-400000.0625
180.2872269153595,-400000.0625,-18330.9609375,-17731.099609375,-400000.0625,7286.5,-400000.0625,-21510.560546875,-400000.0625
180.3142318725586,-400000.0625,-18368.150390625,-17753.41015625,-400000.0625,7253.169921875,-400000.0625,-21538.58984375,-400000.0625
180.32201409339905,-400000.0625,-18347.9296875,-17727.810546875,-400000.0625,7261.93994140625,-400000.0625,-21519.279296875,-400000.0625
180.32775592803955,-400000.0625,-18297.720703125,-17679.029296875,-400000.0625,7269.10009765625,-400000.0625,-21470.83984375,-400000.0625
180.3332495689392,-400000.0625,-18265.6796875,-17653.130859375,-400000.0625,7261.27978515625,-400000.0625,-21443.4609375,-400000.0625
180.33893465995789,-400000.0625,-18274.98046875,-17671.919921875,-400000.0625,7235.18994140625,-400000.0625,-21472.359375,-400000.0625
180.34449458122253,-400000.0625,-18306.01953125,-17712.55078125,-400000.0625,7164.43017578125,-400000.0625,-21514.900390625,-400000.0625
180.35038304328918,-400000.0625,-18301.349609375,-17718.83984375,-400000.0625,7127.6201171875,-400000.0625,-21528.060546875,-400000.0625
180.3561396598816,-400000.0625,-18235.44921875,-17665.529296875,-400000.0625,7151.31982421875,-400000.0625,-21480.900390625,-400000.0625
180.36166763305664,-400000.0625,-18195.6796875,-17639.16015625,-400000.0625,7150.75,-400000.0625,-21456.48046875,-400000.0625
180.3673324584961,-400000.0625,-18200.830078125,-17658.7109375,-400000.0625,7121.47021484375,-400000.0625,-21474.75,-400000.0625
180.37324476242065,-400000.0625,-18222.91015625,-17690.0390625,-400000.0625,7076.41015625,-400000.0625,-21507.359375,-400000.0625
180.37879252433777,-400000.0625,-18224.150390625,-17696.669921875,-400000.0625,7051.66015625,-400000.0625,-21522.140625,-400000.0625
180.38440799713135,-400000.0625,-18172.169921875,-17656.810546875,-400000.0625,7068.43994140625,-400000.0625,-21476.75,-400000.0625
180.39000034332275,-400000.0625,-18128.6796875,-17625.619140625,-400000.0625,7087.85009765625,-400000.0625,-21444.369140625,-400000.0625
180.4075152873993,-400000.0625,-18119.240234375,-17626.380859375,-400000.0625,7085.1298828125,-400000.0625,-21447.990234375,-400000.0625
180.41587710380554,-400000.0625,-18138.69921875,-17653.75,-400000.0625,7044.93994140625,-400000.0625,-21472.310546875,-400000.0625
180.42560458183289,-400000.0625,-18153.720703125,-17675.119140625,-400000.0625,7005.8798828125,-400000.0625,-21494.19921875,-400000.0625
180.4465115070343,-400000.0625,-18139.890625,-17667.8203125,-400000.0625,6996.2998046875,-400000.0625,-21492.009765625,-400000.0625
180.46292662620544,-400000.0625,-18085.099609375,-17622.08984375,-400000.0625,7037.77978515625,-400000.0625,-21451.2890625,-400000.0625
180.47996473312378,-400000.0625,-18038.560546875,-17583.80078125,-400000.0625,7076.7900390625,-400000.0625,-21416.05078125,-400000.0625
180.4905126094818,-400000.0625,-18052.439453125,-17601.640625,-400000.0625,7059.3798828125,-400000.0625,-21433.689453125,-400000.0625
180.51185154914856,-400000.0625,-18087.19921875,-17643.01953125,-400000.0625,7012.4599609375,-400000.0625,-21473.740234375,-400000.0625
180.5210838317871,-400000.0625,-18083.150390625,-17643.5,-400000.0625,7014.18017578125,-400000.0625,-21470.220703125,-400000.0625
180.5349497795105,-400000.0625,-18065.740234375,-17628.240234375,-400000.0625,7032.58984375,-400000.0625,-21453.0,-400000.0625
180.5422556400299,-400000.0625,-18038.23046875,-17601.349609375,-400000.0625,7055.9501953125,-400000.0625,-21440.3203125,-400000.0625
180.55020093917847,-400000.0625,-18037.1796875,-17596.33984375,-400000.0625,7060.0498046875,-400000.0625,-21439.599609375,-400000.0625
180.55712962150574,-400000.0625,-18053.9609375,-17616.609375,-400000.0625,7037.77978515625,-400000.0625,-21451.859375,-400000.0625
180.56336188316345,-400000.0625,-18063.830078125,-17643.259765625,-400000.0625,7002.8798828125,-400000.0625,-21458.91015625,-400000.0625
180.57184052467346,-400000.0625,-18059.01953125,-17642.880859375,-400000.0625,6998.25,-400000.0625,-21445.80078125,-400000.0625
180.5795133113861,-400000.0625,-18023.349609375,-17606.2109375,-400000.0625,7027.43994140625,-400000.0625,-21405.26953125,-400000.0625
180.58930444717407,-400000.0625,-18014.76953125,-17592.380859375,-400000.0625,7045.22021484375,-400000.0625,-21388.529296875,-400000.0625
180.5955994129181,-400000.0625,-18028.310546875,-17613.75,-400000.0625,7025.2900390625,-400000.0625,-21402.650390625,-400000.0625
180.6137764453888,-400000.0625,-18050.390625,-17648.560546875,-400000.0625,6986.89990234375,-400000.0625,-21424.25,-400000.0625
180.6210401058197,-400000.0625,-18066.169921875,-17665.439453125,-400000.0625,6962.77978515625,-400000.0625,-21439.599609375,-400000.0625
180.62798714637756,-400000.0625,-18035.4609375,-17632.150390625,-400000.0625,6988.18994140625,-400000.0625,-21405.7890625,-400000.0625
180.63442158699036,-400000.0625,-17988.349609375,-17588.51953125,-400000.0625,7021.0,-400000.0625,-21356.390625,-400000.0625
180.6412501335144,-400000.0625,-18004.75,-17603.640625,-400000.0625,7004.5,-400000.0625,-21375.7109375,-400000.0625
180.64797067642212,-400000.0625,-18054.439453125,-17651.130859375,-400000.0625,6970.02001953125,-400000.0625,-21426.060546875,-400000.0625
180.65553879737854,-400000.0625,-18072.75,-17671.30078125,-400000.0625,6942.56005859375,-400000.0625,-21451.140625,-400000.0625
180.6627368927002,-400000.0625,-18049.529296875,-17648.890625,-400000.0625,6968.1201171875,-400000.0625,-21427.58984375,-400000.0625
180.66993951797485,-400000.0625,-18008.51953125,-17610.740234375,-400000.0625,7012.419921875,-400000.0625,-21391.109375,-400000.0625
180.67624616622925,-400000.0625,-17986.060546875,-17591.529296875,-400000.0625,7045.41015625,-400000.0625,-21370.080078125,-400000.0625
180.68251299858093,-400000.0625,-17989.73046875,-17598.73046875,-400000.0625,7031.16015625,-400000.0625,-21373.890625,-400000.0625
180.68918538093567,-400000.0625,-18020.349609375,-17628.529296875,-400000.0625,6999.97021484375,-400000.0625,-21403.509765625,-400000.0625
180.71085000038147,-400000.0625,-18049.91015625,-17654.279296875,-400000.0625,7002.8798828125,-400000.0625,-21436.98046875,-400000.0625
180.7349624633789,-400000.0625,-18029.5,-17632.060546875,-400000.0625,7040.4501953125,-400000.0625,-21419.0,-400000.0625
180.74778199195862,-400000.0625,-17993.359375,-17594.4296875,-400000.0625,7085.85009765625,-400000.0625,-21379.380859375,-400000.0625
180.7656376361847,-400000.0625,-17990.44921875,-17596.099609375,-400000.0625,7091.27978515625,-400000.0625,-21374.75,-400000.0625
180.77944564819336,-400000.0625,-18018.76953125,-17627.619140625,-400000.0625,7061.10009765625,-400000.0625,-21401.599609375,-400000.0625
180.7909505367279,-400000.0625,-18044.619140625,-17647.4609375,-400000.0625,7055.18994140625,-400000.0625,-21422.099609375,-400000.0625
180.80110263824463,-400000.0625,-18034.26953125,-17633.30078125,-400000.0625,7090.0400390625,-400000.0625,-21411.0390625,-400000.0625
180.8096616268158,-400000.0625,-17995.310546875,-17592.619140625,-400000.0625,7134.2998046875,-400000.0625,-21374.0390625,-400000.0625
180.82115578651428,-400000.0625,-17964.650390625,-17562.8203125,-400000.0625,7168.9599609375,-400000.0625,-21346.05078125,-400000.0625
180.8606038093567,-400000.0625,-17977.759765625,-17579.369140625,-400000.0625,7151.64990234375,-400000.0625,-21352.869140625,-400000.0625
180.88274693489075,-400000.0625,-18021.439453125,-17617.1796875,-400000.0625,7126.759765625,-400000.0625,-21393.640625,-400000.0625
180.90238857269287,-400000.0625,-18039.1796875,-17629.19921875,-400000.0625,7135.39013671875,-400000.0625,-21421.9609375,-400000.0625
180.91925382614136,-400000.0625,-18033.7890625,-17622.810546875,-400000.0625,7167.6298828125,-400000.0625,-21412.470703125,-400000.0625
180.92999911308289,-400000.0625,-18011.859375,-17602.73046875,-400000.0625,7231.08984375,-400000.0625,-21388.630859375,-400000.0625
180.95943999290466,-400000.0625,-17984.8203125,-17578.83984375,-400000.0625,7256.7001953125,-400000.0625,-21363.689453125,-400000.0625
180.97279810905457,-400000.0625,-18007.470703125,-17599.6796875,-400000.0625,7251.7900390625,-400000.0625,-21384.099609375,-400000.0625
180.98955154418945,-400000.0625,-18047.099609375,-17643.169921875,-400000.0625,7238.580078125,-400000.0625,-21420.580078125,-400000.0625
180.99688386917114,-400000.0625,-18027.5,-17622.810546875,-400000.0625,7265.52001953125,-400000.0625,-21401.689453125,-400000.0625
181.00441336631775,-400000.0625,-17988.44921875,-17576.509765625,-400000.0625,7324.169921875,-400000.0625,-21363.98046875,-400000.0625
181.01066064834595,-400000.0625,-17999.69921875,-17585.08984375,-400000.0625,7365.31982421875,-400000.0625,-21376.609375,-400000.0625
181.01807117462158,-400000.0625,-18041.1796875,-17622.0390625,-400000.0625,7354.2099609375,-400000.0625,-21415.189453125,-400000.0625
181.02462816238403,-400000.0625,-18068.740234375,-17648.560546875,-400000.0625,7346.43994140625,-400000.0625,-21442.69921875,-400000.0625
181.03239583969116,-400000.0625,-18063.310546875,-17642.880859375,-400000.0625,7367.08984375,-400000.0625,-21436.029296875,-400000.0625
181.0504651069641,-400000.0625,-18023.349609375,-17604.5390625,-400000.0625,7421.2998046875,-400000.0625,-21399.119140625,-400000.0625
181.05745100975037,-400000.0625,-17987.490234375,-17565.109375,-400000.0625,7487.580078125,-400000.0625,-21360.259765625,-400000.0625
181.0639307498932,-400000.0625,-17980.91015625,-17559.390625,-400000.0625,7506.89990234375,-400000.0625,-21355.109375,-400000.0625
181.07132172584534,-400000.0625,-18038.23046875,-17612.509765625,-400000.0625,7480.3798828125,-400000.0625,-21415.08984375,-400000.0625
181.078759431839,-400000.0625,-18076.609375,-17645.55078125,-400000.0625,7483.39013671875,-400000.0625,-21448.419921875,-400000.0625
181.08754897117615,-400000.0625,-18058.73046875,-17630.150390625,-400000.0625,7532.7900390625,-400000.0625,-21435.9296875,-400000.0625
181.09384274482727,-400000.0625,-18021.390625,-17595.529296875,-400000.0625,7581.9501953125,-400000.0625,-21391.58984375,-400000.0625
181.10156226158142,-400000.0625,-17994.83984375,-17572.359375,-400000.0625,7611.93994140625,-400000.0625,-21361.740234375,-400000.0625
181.10844039916992,-400000.0625,-18033.3203125,-17603.490234375,-400000.0625,7620.759765625,-400000.0625,-21403.98046875,-400000.0625
181.11510348320007,-400000.0625,-18072.890625,-17637.060546875,-400000.0625,7609.89013671875,-400000.0625,-21439.130859375,-400000.0625
181.12270593643188,-400000.0625,-18073.0390625,-17634.009765625,-400000.0625,7645.4599609375,-400000.0625,-21442.609375,-400000.0625
181.12951111793518,-400000.0625,-18061.58984375,-17617.900390625,-400000.0625,7704.35009765625,-400000.0625,-21434.119140625,-400000.0625
181.1363925933838,-400000.0625,-18037.23046875,-17597.060546875,-400000.0625,7750.7998046875,-400000.0625,-21407.75,-400000.0625
181.16864228248596,-400000.0625,-18033.080078125,-17598.150390625,-400000.0625,7771.2099609375,-400000.0625,-21407.69921875,-400000.0625
181.18017196655273,-400000.0625,-18052.6796875,-17622.7109375,-400000.0625,7764.39013671875,-400000.0625,-21432.5,-400000.0625
181.1876711845398,-400000.0625,-18075.330078125,-17642.119140625,-400000.0625,7773.64013671875,-400000.0625,-21444.75,-400000.0625
181.19367265701294,-400000.0625,-18062.880859375,-17628.619140625,-400000.0625,7818.1298828125,-400000.0625,-21427.630859375,-400000.0625
181.20062804222107,-400000.0625,-18035.83984375,-17597.390625,-400000.0625,7883.60009765625,-400000.0625,-21400.640625,-400000.0625
181.20778822898865,-400000.0625,-18041.51953125,-17601.439453125,-400000.0625,7939.009765625,-400000.0625,-21405.169921875,-400000.0625
181.21417784690857,-400000.0625,-18057.970703125,-17622.759765625,-400000.0625,7965.85009765625,-400000.0625,-21421.669921875,-400000.0625
181.2245535850525,-400000.0625,-18079.859375,-17647.55078125,-400000.0625,7974.52978515625,-400000.0625,-21443.609375,-400000.0625
181.23047733306885,-400000.0625,-18087.91015625,-17657.380859375,-400000.0625,8000.330078125,-400000.0625,-21452.380859375,-400000.0625
181.23785376548767,-400000.0625,-18045.140625,-17620.1796875,-400000.0625,8081.8701171875,-400000.0625,-21408.75,-400000.0625
181.25686979293823,-400000.0625,-18006.08984375,-17580.3203125,-400000.0625,8157.5400390625,-400000.0625,-21368.7890625,-400000.0625
181.26266193389893,-400000.0625,-18048.9609375,-17619.80078125,-400000.0625,8196.0703125,-400000.0625,-21409.1796875,-400000.0625
181.26996660232544,-400000.0625,-18093.919921875,-17664.240234375,-400000.0625,8204.0302734375,-400000.0625,-21453.189453125,-400000.0625
181.27655816078186,-400000.0625,-18108.939453125,-17680.119140625,-400000.0625,8255.580078125,-400000.0625,-21470.83984375,-400000.0625
181.2831735610962,-400000.0625,-18094.640625,-17666.060546875,-400000.0625,8337.6396484375,-400000.0625,-21455.8203125,-400000.0625
181.28955841064453,-400000.0625,-18047.2890625,-17618.470703125,-400000.0625,8458.759765625,-400000.0625,-21412.80078125,-400000.0625
181.2957742214203,-400000.0625,-18037.75,-17614.509765625,-400000.0625,8532.8095703125,-400000.0625,-21404.650390625,-400000.0625
181.30249166488647,-400000.0625,-18050.150390625,-17633.060546875,-400000.0625,8580.349609375,-400000.0625,-21418.529296875,-400000.0625
181.3093364238739,-400000.0625,-18081.759765625,-17661.859375,-400000.0625,8632.7998046875,-400000.0625,-21451.51953125,-400000.0625
181.31567931175232,-400000.0625,-18115.08984375,-17686.66015625,-400000.0625,8697.3203125,-400000.0625,-21483.140625,-400000.0625
181.32245874404907,-400000.0625,-18072.890625,-17647.939453125,-400000.0625,8806.2802734375,-400000.0625,-21437.98046875,-400000.0625
181.3288745880127,-400000.0625,-18030.689453125,-17610.359375,-400000.0625,8908.7998046875,-400000.0625,-21397.119140625,-400000.0625
181.33717727661133,-400000.0625,-18049.099609375,-17626.240234375,-400000.0625,8986.330078125,-400000.0625,-21411.759765625,-400000.0625
181.34299278259277,-400000.0625,-18099.740234375,-17675.5,-400000.0625,9031.009765625,-400000.0625,-21465.349609375,-400000.0625
181.36083459854126,-400000.0625,-18117.720703125,-17691.0390625,-400000.0625,9077.0703125,-400000.0625,-21484.0,-400000.0625
181.36899876594543,-400000.0625,-18073.130859375,-17647.890625,-400000.0625,9172.009765625,-400000.0625,-21437.83984375,-400000.0625
181.37494111061096,-400000.0625,-18031.169921875,-17612.650390625,-400000.0625,9278.4404296875,-400000.0625,-21398.01953125,-400000.0625
181.38064885139465,-400000.0625,-18035.029296875,-17618.900390625,-400000.0625,9338.51953125,-400000.0625,-21401.259765625,-400000.0625
181.38802981376648,-400000.0625,-18062.44921875,-17647.509765625,-400000.0625,9360.5498046875,-400000.0625,-21428.73046875,-400000.0625
181.3940327167511,-400000.0625,-18109.279296875,-17693.51953125,-400000.0625,9393.650390625,-400000.0625,-21476.83984375,-400000.0625
181.4027328491211,-400000.0625,-18122.060546875,-17703.580078125,-400000.0625,9456.6796875,-400000.0625,-21487.2890625,-400000.0625
181.40851402282715,-400000.0625,-18085.529296875,-17664.05078125,-400000.0625,9541.8896484375,-400000.0625,-21448.66015625,-400000.0625
181.4144926071167,-400000.0625,-18050.2890625,-17631.630859375,-400000.0625,9620.7197265625,-400000.0625,-21420.390625,-400000.0625
181.42170023918152,-400000.0625,-18049.2890625,-17637.349609375,-400000.0625,9666.8701171875,-400000.0625,-21425.19921875,-400000.0625
181.42852902412415,-400000.0625,-18064.119140625,-17650.990234375,-400000.0625,9666.830078125,-400000.0625,-21435.359375,-400000.0625
181.4355707168579,-400000.0625,-18084.859375,-17670.349609375,-400000.0625,9670.16015625,-400000.0625,-21452.859375,-400000.0625
181.4420986175537,-400000.0625,-18075.75,-17664.76953125,-400000.0625,9732.0595703125,-400000.0625,-21448.7109375,-400000.0625
181.4484920501709,-400000.0625,-18055.349609375,-17636.01953125,-400000.0625,9809.2998046875,-400000.0625,-21428.400390625,-400000.0625
181.46852850914001,-400000.0625,-18071.890625,-17650.220703125,-400000.0625,9840.4404296875,-400000.0625,-21445.3203125,-400000.0625
181.47511053085327,-400000.0625,-18100.9296875,-17681.119140625,-400000.0625,9853.599609375,-400000.0625,-21477.23046875,-400000.0625
181.48113775253296,-400000.0625,-18111.1796875,-17692.7109375,-400000.0625,9860.849609375,-400000.0625,-21482.990234375,-400000.0625
181.48879432678223,-400000.0625,-18089.109375,-17670.400390625,-400000.0625,9898.1396484375,-400000.0625,-21463.830078125,-400000.0625
181.49458503723145,-400000.0625,-18050.720703125,-17627.810546875,-400000.0625,9988.8798828125,-400000.0625,-21432.55078125,-400000.0625
181.50522089004517,-400000.0625,-18055.25,-17633.009765625,-400000.0625,10027.3603515625,-400000.0625,-21433.44921875,-400000.0625
181.51456356048584,-400000.0625,-18070.890625,-17653.80078125,-400000.0625,10040.5703125,-400000.0625,-21441.650390625,-400000.0625
181.52692985534668,-400000.0625,-18108.23046875,-17690.08984375,-400000.0625,10026.740234375,-400000.0625,-21479.470703125,-400000.0625
181.53830432891846,-400000.0625,-18133.58984375,-17711.44921875,-400000.0625,10053.0595703125,-400000.0625,-21505.83984375,-400000.0625
181.54560589790344,-400000.0625,-18097.2109375,-17673.919921875,-400000.0625,10109.5703125,-400000.0625,-21464.779296875,-400000.0625
181.55579209327698,-400000.0625,-18059.01953125,-17630.2890625,-400000.0625,10162.8798828125,-400000.0625,-21426.630859375,-400000.0625
181.58022665977478,-400000.0625,-18053.33984375,-17628.48046875,-400000.0625,10197.830078125,-400000.0625,-21414.94921875,-400000.0625
181.59130597114563,-400000.0625,-18062.0703125,-17649.029296875,-400000.0625,10209.5595703125,-400000.0625,-21421.9609375,-400000.0625
181.60177183151245,-400000.0625,-18088.060546875,-17669.73046875,-400000.0625,10230.1103515625,-400000.0625,-21432.5,-400000.0625
181.61072969436646,-400000.0625,-18125.490234375,-17708.400390625,-400000.0625,10232.0703125,-400000.0625,-21460.009765625,-400000.0625
181.61988353729248,-400000.0625,-18117.720703125,-17703.6796875,-400000.0625,10283.0400390625,-400000.0625,-21447.7109375,-400000.0625
181.6380488872528,-400000.0625,-18110.419921875,-17696.4296875,-400000.0625,10337.349609375,-400000.0625,-21430.919921875,-400000.0625
181.65168690681458,-400000.0625,-18115.470703125,-17705.390625,-400000.0625,10347.7001953125,-400000.0625,-21425.349609375,-400000.0625
181.66333031654358,-400000.0625,-18117.330078125,-17713.98046875,-400000.0625,10337.9296875,-400000.0625,-21428.2109375,-400000.0625
181.69732570648193,-400000.0625,-18105.939453125,-17702.869140625,-400000.0625,10377.1201171875,-400000.0625,-21417.140625,-400000.0625
181.7078733444214,-400000.0625,-18109.66015625,-17706.2109375,-400000.0625,10406.4501953125,-400000.0625,-21422.05078125,-400000.0625
181.71794056892395,-400000.0625,-18125.970703125,-17719.939453125,-400000.0625,10435.9599609375,-400000.0625,-21442.23046875,-400000.0625
181.7283856868744,-400000.0625,-18104.69921875,-17699.859375,-400000.0625,10457.990234375,-400000.0625,-21421.390625,-400000.0625
181.74146246910095,-400000.0625,-18129.6796875,-17724.130859375,-400000.0625,10449.5498046875,-400000.0625,-21443.560546875,-400000.0625
181.75178837776184,-400000.0625,-18146.419921875,-17744.2109375,-400000.0625,10449.41015625,-400000.0625,-21454.4296875,-400000.0625
181.76576328277588,-400000.0625,-18104.41015625,-17704.060546875,-400000.0625,10512.7802734375,-400000.0625,-21420.099609375,-400000.0625
181.79293012619019,-400000.0625,-18120.8203125,-17721.69921875,-400000.0625,10527.0400390625,-400000.0625,-21442.849609375,-400000.0625
181.80553531646729,-400000.0625,-18129.919921875,-17733.810546875,-400000.0625,10544.400390625,-400000.0625,-21443.4609375,-400000.0625
181.81519389152527,-400000.0625,-18116.05078125,-17721.3203125,-400000.0625,10535.48046875,-400000.0625,-21434.640625,-400000.0625
181.82621598243713,-400000.0625,-18140.41015625,-17745.310546875,-400000.0625,10511.6396484375,-400000.0625,-21454.529296875,-400000.0625
181.8382658958435,-400000.0625,-18179.1796875,-17774.150390625,-400000.0625,10551.8798828125,-400000.0625,-21494.109375,-400000.0625
181.8489649295807,-400000.0625,-18131.44921875,-17726.66015625,-400000.0625,10602.9501953125,-400000.0625,-21450.470703125,-400000.0625
181.86237502098083,-400000.0625,-18074.80078125,-17676.740234375,-400000.0625,10641.150390625,-400000.0625,-21394.73046875,-400000.0625
181.87518548965454,-400000.0625,-18092.25,-17698.859375,-400000.0625,10634.6103515625,-400000.0625,-21415.669921875,-400000.0625
181.90598154067993,-400000.0625,-18141.609375,-17748.740234375,-400000.0625,10611.009765625,-400000.0625,-21460.919921875,-400000.0625
181.91604351997375,-400000.0625,-18166.400390625,-17771.33984375,-400000.0625,10596.7099609375,-400000.0625,-21480.130859375,-400000.0625
181.92736506462097,-400000.0625,-18131.0703125,-17736.869140625,-400000.0625,10623.599609375,-400000.0625,-21452.5703125,-400000.0625
181.9391770362854,-400000.0625,-18093.400390625,-17697.48046875,-400000.0625,10659.3603515625,-400000.0625,-21417.94921875,-400000.0625
181.9481053352356,-400000.0625,-18087.099609375,-17693.0390625,-400000.0625,10673.1904296875,-400000.0625,-21409.939453125,-400000.0625
181.9593243598938,-400000.0625,-18104.75,-17709.58984375,-400000.0625,10678.4404296875,-400000.0625,-21429.58984375,-400000.0625
181.9751284122467,-400000.0625,-18158.490234375,-17760.369140625,-400000.0625,10643.580078125,-400000.0625,-21483.279296875,-400000.0625
181.98552298545837,-400000.0625,-18155.05078125,-17768.580078125,-400000.0625,10604.3798828125,-400000.0625,-21487.91015625,-400000.0625
182.0130796432495,-400000.0625,-18094.2109375,-17724.900390625,-400000.0625,10612.2998046875,-400000.0625,-21435.220703125,-400000.0625
182.02340245246887,-400000.0625,-18032.029296875,-17745.5390625,-400000.0625,10645.0595703125,-400000.0625,-21393.640625,-400000.0625
182.03384828567505,-400000.0625,-18060.5390625,-17760.94921875,-400000.0625,10606.7197265625,-400000.0625,-21413.66015625,-400000.0625
182.04509449005127,-400000.0625,-18127.779296875,-17730.810546875,-400000.0625,10577.8701171875,-400000.0625,-21462.5390625,-400000.0625
182.05559182167053,-400000.0625,-18168.169921875,-17761.279296875,-400000.0625,10577.8203125,-400000.0625,-21498.5390625,-400000.0625
182.07114839553833,-400000.0625,-18136.26953125,-17753.560546875,-400000.0625,10580.4501953125,-400000.0625,-21474.080078125,-400000.0625
182.0811631679535,-400000.0625,-18062.01953125,-17701.91015625,-400000.0625,10617.3095703125,-400000.0625,-21413.900390625,-400000.0625
182.09327173233032,-400000.0625,-18026.640625,-17676.16015625,-400000.0625,10644.9599609375,-400000.0625,-21385.150390625,-400000.0625
182.122798204422,-400000.0625,-18065.98046875,-17708.919921875,-400000.0625,10617.4501953125,-400000.0625,-21423.19921875,-400000.0625
182.13835167884827,-400000.0625,-18137.55078125,-17775.19921875,-400000.0625,10563.7998046875,-400000.0625,-21488.2890625,-400000.0625
182.15247869491577,-400000.0625,-18143.130859375,-17778.779296875,-400000.0625,10559.3701171875,-400000.0625,-21489.529296875,-400000.0625
182.16601467132568,-400000.0625,-18123.099609375,-17750.740234375,-400000.0625,10601.240234375,-400000.0625,-21459.919921875,-400000.0625
182.18262934684753,-400000.0625,-18075.560546875,-17718.130859375,-400000.0625,10642.33984375,-400000.0625,-21408.69921875,-400000.0625
182.1943542957306,-400000.0625,-18088.6796875,-17739.580078125,-400000.0625,10626.9404296875,-400000.0625,-21417.5703125,-400000.0625
182.22925734519958,-400000.0625,-18146.609375,-17794.7109375,-400000.0625,10574.0595703125,-400000.0625,-21458.439453125,-400000.0625
182.2413628101349,-400000.0625,-18188.05078125,-17828.470703125,-400000.0625,10547.7802734375,-400000.0625,-21478.4609375,-400000.0625
182.25148749351501,-400000.0625,-18176.83984375,-17806.150390625,-400000.0625,10570.4296875,-400000.0625,-21447.0390625,-400000.0625
182.26111435890198,-400000.0625,-18163.869140625,-17784.310546875,-400000.0625,10614.830078125,-400000.0625,-21409.609375,-400000.0625
182.27437448501587,-400000.0625,-18174.080078125,-17794.279296875,-400000.0625,10606.7197265625,-400000.0625,-21398.44921875,-400000.0625
182.2901668548584,-400000.0625,-18230.919921875,-17847.919921875,-400000.0625,10562.3701171875,-400000.0625,-21435.0703125,-400000.0625
182.30188155174255,-400000.0625,-18296.669921875,-17895.41015625,-400000.0625,10526.3203125,-400000.0625,-21471.9296875,-400000.0625
182.33182501792908,-400000.0625,-18315.509765625,-17906.0,-400000.0625,10518.83984375,-400000.0625,-21462.5390625,-400000.0625
182.34262228012085,-400000.0625,-18294.33984375,-17878.439453125,-400000.0625,10543.2998046875,-400000.0625,-21418.529296875,-400000.0625
182.35280513763428,-400000.0625,-18268.25,-17853.599609375,-400000.0625,10566.2802734375,-400000.0625,-21384.189453125,-400000.0625
182.36355638504028,-400000.0625,-18307.640625,-17873.859375,-400000.0625,10557.7001953125,-400000.0625,-21400.599609375,-400000.0625
182.3750240802765,-400000.0625,-18327.720703125,-17896.4609375,-400000.0625,10520.83984375,-400000.0625,-21411.0390625,-400000.0625
182.3878357410431,-400000.0625,-18354.69921875,-17920.0703125,-400000.0625,10485.41015625,-400000.0625,-21431.689453125,-400000.0625
182.4021782875061,-400000.0625,-18383.69921875,-17934.369140625,-400000.0625,10482.4599609375,-400000.0625,-21451.669921875,-400000.0625
182.43855667114258,-400000.0625,-18354.890625,-17913.150390625,-400000.0625,10480.9296875,-400000.0625,-21418.859375,-400000.0625
182.45101690292358,-400000.0625,-18342.400390625,-17897.3203125,-400000.0625,10484.599609375,-400000.0625,-21397.880859375,-400000.0625
182.4621684551239,-400000.0625,-18377.2109375,-17927.509765625,-400000.0625,10469.580078125,-400000.0625,-21429.349609375,-400000.0625
182.47435927391052,-400000.0625,-18408.25,-17958.740234375,-400000.0625,10421.0400390625,-400000.0625,-21456.669921875,-400000.0625
182.48609280586243,-400000.0625,-18384.029296875,-17934.130859375,-400000.0625,10420.1796875,-400000.0625,-21429.58984375,-400000.0625
182.49675035476685,-400000.0625,-18363.720703125,-17912.76953125,-400000.0625,10436.3896484375,-400000.0625,-21414.849609375,-400000.0625
182.51073813438416,-400000.0625,-18344.880859375,-17901.759765625,-400000.0625,10432.580078125,-400000.0625,-21401.83984375,-400000.0625
182.5448055267334,-400000.0625,-18351.1796875,-17907.48046875,-400000.0625,10419.0400390625,-400000.0625,-21409.75,-400000.0625
182.5555398464203,-400000.0625,-18382.41015625,-17940.0,-400000.0625,10375.9296875,-400000.0625,-21439.169921875,-400000.0625
182.5641326904297,-400000.0625,-18399.33984375,-17957.55078125,-400000.0625,10336.4501953125,-400000.0625,-21450.330078125,-400000.0625
182.57695770263672,-400000.0625,-18369.9609375,-17931.80078125,-400000.0625,10346.509765625,-400000.0625,-21425.76953125,-400000.0625
182.58765172958374,-400000.0625,-18334.720703125,-17894.369140625,-400000.0625,10370.8798828125,-400000.0625,-21394.30078125,-400000.0625
182.6027317047119,-400000.0625,-18323.08984375,-17882.349609375,-400000.0625,10366.8701171875,-400000.0625,-21381.810546875,-400000.0625
182.6144495010376,-400000.0625,-18348.310546875,-17907.759765625,-400000.0625,10322.099609375,-400000.0625,-21410.990234375,-400000.0625
182.65242767333984,-400000.0625,-18383.599609375,-17941.720703125,-400000.0625,10277.3203125,-400000.0625,-21447.990234375,-400000.0625
182.664644241333,-400000.0625,-18378.400390625,-17940.05078125,-400000.0625,10280.0400390625,-400000.0625,-21445.560546875,-400000.0625
182.67879843711853,-400000.0625,-18342.2109375,-17907.240234375,-400000.0625,10293.8701171875,-400000.0625,-21411.369140625,-400000.0625
182.69258451461792,-400000.0625,-18302.19921875,-17873.9609375,-400000.0625,10313.8896484375,-400000.0625,-21367.650390625,-400000.0625
182.70585823059082,-400000.0625,-18292.669921875,-17869.51953125,-400000.0625,10314.66015625,-400000.0625,-21360.16015625,-400000.0625
182.71651244163513,-400000.0625,-18332.630859375,-17909.8203125,-400000.0625,10270.83984375,-400000.0625,-21402.119140625,-400000.0625
182.75994181632996,-400000.0625,-18371.439453125,-17946.2890625,-400000.0625,10226.9697265625,-400000.0625,-21435.359375,-400000.0625
182.77134776115417,-400000.0625,-18347.55078125,-17924.83984375,-400000.0625,10242.1298828125,-400000.0625,-21418.859375,-400000.0625
182.78046488761902,-400000.0625,-18315.75,-17892.3203125,-400000.0625,10270.8798828125,-400000.0625,-21389.529296875,-400000.0625
182.79270792007446,-400000.0625,-18315.169921875,-17891.310546875,-400000.0625,10269.7900390625,-400000.0625,-21393.640625,-400000.0625
182.80386686325073,-400000.0625,-18339.25,-17916.060546875,-400000.0625,10252.8603515625,-400000.0625,-21418.189453125,-400000.0625
182.81336903572083,-400000.0625,-18355.900390625,-17933.75,-400000.0625,10221.8603515625,-400000.0625,-21439.650390625,-400000.0625
182.8258171081543,-400000.0625,-18326.5703125,-17912.099609375,-400000.0625,10218.91015625,-400000.0625,-21412.609375,-400000.0625
182.84816980361938,-400000.0625,-18297.48046875,-17887.310546875,-400000.0625,10243.990234375,-400000.0625,-21381.140625,-400000.0625
182.86162543296814,-400000.0625,-18269.640625,-17859.890625,-400000.0625,10279.7998046875,-400000.0625,-21356.19921875,-400000.0625
182.87462782859802,-400000.0625,-18275.740234375,-17860.990234375,-400000.0625,10268.2099609375,-400000.0625,-21367.890625,-400000.0625
182.88518524169922,-400000.0625,-18328.05078125,-17913.580078125,-400000.0625,10228.919921875,-400000.0625,-21421.099609375,-400000.0625
182.8952236175537,-400000.0625,-18366.48046875,-17952.060546875,-400000.0625,10196.5,-400000.0625,-21457.19921875,-400000.0625
182.9055027961731,-400000.0625,-18344.2109375,-17929.890625,-400000.0625,10207.080078125,-400000.0625,-21433.0703125,-400000.0625
182.91327023506165,-400000.0625,-18292.94921875,-17884.640625,-400000.0625,10243.0400390625,-400000.0625,-21384.810546875,-400000.0625
182.924222946167,-400000.0625,-18280.3203125,-17873.4296875,-400000.0625,10259.0595703125,-400000.0625,-21368.650390625,-400000.0625
182.93368268013,-400000.0625,-18301.060546875,-17892.26953125,-400000.0625,10232.6904296875,-400000.0625,-21388.009765625,-400000.0625
182.9632122516632,-400000.0625,-18330.189453125,-17920.830078125,-400000.0625,10194.9697265625,-400000.0625,-21414.810546875,-400000.0625
182.9744040966034,-400000.0625,-18314.890625,-17906.099609375,-400000.0625,10191.580078125,-400000.0625,-21402.26953125,-400000.0625
182.98454308509827,-400000.0625,-18266.349609375,-17859.4609375,-400000.0625,10242.2197265625,-400000.0625,-21352.25,-400000.0625
182.99516415596008,-400000.0625,-18252.900390625,-17845.919921875,-400000.0625,10263.7802734375,-400000.0625,-21342.330078125,-400000.0625
183.00646138191223,-400000.0625,-18294.4296875,-17885.5,-400000.0625,10234.169921875,-400000.0625,-21383.859375,-400000.0625
183.01884150505066,-400000.0625,-18350.169921875,-17942.380859375,-400000.0625,10183.0498046875,-400000.0625,-21442.369140625,-400000.0625
183.03033542633057,-400000.0625,-18368.33984375,-17960.7890625,-400000.0625,10165.259765625,-400000.0625,-21454.05078125,-400000.0625
183.04297852516174,-400000.0625,-18329.859375,-17921.44921875,-400000.0625,10190.009765625,-400000.0625,-21416.7109375,-400000.0625
183.076434135437,-400000.0625,-18278.9296875,-17874.0,-400000.0625,10218.8095703125,-400000.0625,-21366.4609375,-400000.0625
183.08867740631104,-400000.0625,-18264.390625,-17865.470703125,-400000.0625,10212.1396484375,-400000.0625,-21353.8203125,-400000.0625
183.0978286266327,-400000.0625,-18288.23046875,-17891.69921875,-400000.0625,10185.48046875,-400000.0625,-21385.76953125,-400000.0625
183.10807919502258,-400000.0625,-18325.810546875,-17924.599609375,-400000.0625,10160.58984375,-400000.0625,-21418.669921875,-400000.0625
183.1156051158905,-400000.0625,-18324.759765625,-17916.439453125,-400000.0625,10164.7900390625,-400000.0625,-21412.08984375,-400000.0625
183.12233209609985,-400000.0625,-18297.630859375,-17888.98046875,-400000.0625,10179.0,-400000.0625,-21390.6796875,-400000.0625
183.12990713119507,-400000.0625,-18277.220703125,-17874.9609375,-400000.0625,10197.6904296875,-400000.0625,-21373.3203125,-400000.0625
183.14171934127808,-400000.0625,-18310.83984375,-17906.51953125,-400000.0625,10170.3203125,-400000.0625,-21397.9296875,-400000.0625
183.1687114238739,-400000.0625,-18347.98046875,-17941.099609375,-400000.0625,10123.6796875,-400000.0625,-21425.919921875,-400000.0625
183.2058024406433,-400000.0625,-18340.109375,-17936.1796875,-400000.0625,10109.4296875,-400000.0625,-21422.009765625,-400000.0625
183.21384596824646,-400000.0625,-18306.5390625,-17898.419921875,-400000.0625,10125.349609375,-400000.0625,-21379.189453125,-400000.0625
183.22357892990112,-400000.0625,-18280.26953125,-17873.76953125,-400000.0625,10149.5302734375,-400000.0625,-21356.8203125,-400000.0625
183.23209166526794,-400000.0625,-18282.83984375,-17875.439453125,-400000.0625,10151.009765625,-400000.0625,-21358.5390625,-400000.0625
183.2435188293457,-400000.0625,-18305.73046875,-17891.9296875,-400000.0625,10122.25,-400000.0625,-21380.189453125,-400000.0625
183.25232791900635,-400000.0625,-18341.640625,-17920.58984375,-400000.0625,10088.830078125,-400000.0625,-21409.900390625,-400000.0625
183.2661051750183,-400000.0625,-18349.599609375,-17928.080078125,-400000.0625,10080.669921875,-400000.0625,-21416.2890625,-400000.0625
183.27836179733276,-400000.0625,-18322.609375,-17902.849609375,-400000.0625,10093.8798828125,-400000.0625,-21388.25,-400000.0625
183.31106519699097,-400000.0625,-18296.19921875,-17879.060546875,-400000.0625,10113.8603515625,-400000.0625,-21361.259765625,-400000.0625
183.32442355155945,-400000.0625,-18307.970703125,-17893.3203125,-400000.0625,10088.16015625,-400000.0625,-21372.1796875,-400000.0625
183.33400321006775,-400000.0625,-18341.5,-17924.01953125,-400000.0625,10057.0703125,-400000.0625,-21407.080078125,-400000.0625
183.34338355064392,-400000.0625,-18352.560546875,-17927.599609375,-400000.0625,10053.73046875,-400000.0625,-21417.619140625,-400000.0625
183.3546164035797,-400000.0625,-18326.330078125,-17903.94921875,-400000.0625,10070.419921875,-400000.0625,-21391.30078125,-400000.0625
183.36374735832214,-400000.0625,-18301.630859375,-17879.19921875,-400000.0625,10095.740234375,-400000.0625,-21362.349609375,-400000.0625
183.37450003623962,-400000.0625,-18292.05078125,-17868.330078125,-400000.0625,10096.650390625,-400000.0625,-21357.490234375,-400000.0625
183.3886468410492,-400000.0625,-18317.890625,-17893.650390625,-400000.0625,10058.9296875,-400000.0625,-21382.91015625,-400000.0625
183.42787313461304,-400000.0625,-18348.169921875,-17922.740234375,-400000.0625,10030.1796875,-400000.0625,-21406.990234375,-400000.0625
183.44199299812317,-400000.0625,-18339.779296875,-17911.33984375,-400000.0625,10034.990234375,-400000.0625,-21401.4609375,-400000.0625
183.45213150978088,-400000.0625,-18307.880859375,-17879.19921875,-400000.0625,10067.7998046875,-400000.0625,-21368.83984375,-400000.0625
183.46226406097412,-400000.0625,-18295.91015625,-17871.759765625,-400000.0625,10080.0,-400000.0625,-21352.580078125,-400000.0625
183.47796416282654,-400000.0625,-18311.5,-17888.119140625,-400000.0625,10062.83984375,-400000.0625,-21370.69921875,-400000.0625
183.4959375858307,-400000.0625,-18360.94921875,-17921.970703125,-400000.0625,10025.2197265625,-400000.0625,-21409.900390625,-400000.0625
183.5383973121643,-400000.0625,-18369.76953125,-17921.16015625,-400000.0625,10019.2998046875,-400000.0625,-21413.189453125,-400000.0625
183.551194190979,-400000.0625,-18326.7109375,-17886.58984375,-400000.0625,10057.6396484375,-400000.0625,-21375.470703125,-400000.0625
183.56124234199524,-400000.0625,-18272.58984375,-17843.060546875,-400000.0625,10103.419921875,-400000.0625,-21343.419921875,-400000.0625
183.57161259651184,-400000.0625,-18274.310546875,-17844.6796875,-400000.0625,10094.3603515625,-400000.0625,-21362.970703125,-400000.0625
183.58085131645203,-400000.0625,-18326.900390625,-17883.73046875,-400000.0625,10052.2099609375,-400000.0625,-21413.380859375,-400000.0625
183.59226059913635,-400000.0625,-18342.58984375,-17896.609375,-400000.0625,10035.9501953125,-400000.0625,-21436.98046875,-400000.0625
183.60418915748596,-400000.0625,-18338.5390625,-17885.16015625,-400000.0625,10037.419921875,-400000.0625,-21433.400390625,-400000.0625
183.64491248130798,-400000.0625,-18302.400390625,-17847.58984375,-400000.0625,10060.2197265625,-400000.0625,-21408.849609375,-400000.0625
183.65530371665955,-400000.0625,-18277.9296875,-17818.830078125,-400000.0625,10081.4404296875,-400000.0625,-21399.259765625,-400000.0625
183.66321063041687,-400000.0625,-18298.25,-17833.51953125,-400000.0625,10063.41015625,-400000.0625,-21422.9609375,-400000.0625
183.673033952713,-400000.0625,-18316.599609375,-17852.259765625,-400000.0625,10038.419921875,-400000.0625,-21450.470703125,-400000.0625
183.6841320991516,-400000.0625,-18324.759765625,-17853.640625,-400000.0625,10031.26953125,-400000.0625,-21454.4296875,-400000.0625
183.6947717666626,-400000.0625,-18302.73046875,-17828.560546875,-400000.0625,10044.3896484375,-400000.0625,-21430.01953125,-400000.0625
183.70771026611328,-400000.0625,-18270.01953125,-17799.0,-400000.0625,10065.9404296875,-400000.0625,-21400.259765625,-400000.0625
183.7424919605255,-400000.0625,-18270.58984375,-17793.849609375,-400000.0625,10064.650390625,-400000.0625,-21401.599609375,-400000.0625
183.75232315063477,-400000.0625,-18317.80078125,-17833.51953125,-400000.0625,10027.83984375,-400000.0625,-21444.419921875,-400000.0625
183.76190853118896,-400000.0625,-18352.890625,-17865.0390625,-400000.0625,9989.5498046875,-400000.0625,-21474.3203125,-400000.0625
183.77350759506226,-400000.0625,-18323.23046875,-17835.48046875,-400000.0625,9999.990234375,-400000.0625,-21445.419921875,-400000.0625
183.7824113368988,-400000.0625,-18286.80078125,-17800.91015625,-400000.0625,10025.3095703125,-400000.0625,-21406.890625,-400000.0625
183.79208612442017,-400000.0625,-18273.880859375,-17788.83984375,-400000.0625,10043.2900390625,-400000.0625,-21392.060546875,-400000.0625
183.80068564414978,-400000.0625,-18295.810546875,-17808.580078125,-400000.0625,10015.2998046875,-400000.0625,-21417.720703125,-400000.0625
183.81489038467407,-400000.0625,-18331.720703125,-17835.91015625,-400000.0625,9977.5302734375,-400000.0625,-21450.140625,-400000.0625
183.84939122200012,-400000.0625,-18332.76953125,-17834.619140625,-400000.0625,9979.580078125,-400000.0625,-21450.810546875,-400000.0625
183.86196041107178,-400000.0625,-18292.759765625,-17797.0390625,-400000.0625,10001.1396484375,-400000.0625,-21416.91015625,-400000.0625
183.8733422756195,-400000.0625,-18253.849609375,-17757.509765625,-400000.0625,10025.599609375,-400000.0625,-21375.51953125,-400000.0625
183.88452768325806,-400000.0625,-18273.119140625,-17777.16015625,-400000.0625,10004.3798828125,-400000.0625,-21398.400390625,-400000.0625
183.89476704597473,-400000.0625,-18336.16015625,-17831.94921875,-400000.0625,9954.1201171875,-400000.0625,-21455.05078125,-400000.0625
183.91110563278198,-400000.0625,-18350.599609375,-17843.19921875,-400000.0625,9935.3798828125,-400000.0625,-21469.169921875,-400000.0625
183.9223484992981,-400000.0625,-18316.26953125,-17812.5390625,-400000.0625,9950.1103515625,-400000.0625,-21431.689453125,-400000.0625
183.95760703086853,-400000.0625,-18267.970703125,-17764.5703125,-400000.0625,9984.400390625,-400000.0625,-21385.9609375,-400000.0625
183.97093629837036,-400000.0625,-18257.759765625,-17752.119140625,-400000.0625,9997.419921875,-400000.0625,-21381.330078125,-400000.0625
183.98070573806763,-400000.0625,-18291.810546875,-17786.599609375,-400000.0625,9964.4697265625,-400000.0625,-21413.419921875,-400000.0625
183.9952826499939,-400000.0625,-18323.0390625,-17814.73046875,-400000.0625,9939.1904296875,-400000.0625,-21441.80078125,-400000.0625
184.00415563583374,-400000.0625,-18321.609375,-17813.73046875,-400000.0625,9936.51953125,-400000.0625,-21432.44921875,-400000.0625
184.0123462677002,-400000.0625,-18296.9609375,-17788.41015625,-400000.0625,9948.2099609375,-400000.0625,-21404.69921875,-400000.0625
184.0233919620514,-400000.0625,-18268.5390625,-17763.4296875,-400000.0625,9968.5703125,-400000.0625,-21380.900390625,-400000.0625
184.0600926876068,-400000.0625,-18271.689453125,-17771.439453125,-400000.0625,9957.3603515625,-400000.0625,-21388.390625,-400000.0625
184.07185006141663,-400000.0625,-18315.080078125,-17807.91015625,-400000.0625,9910.8203125,-400000.0625,-21424.19921875,-400000.0625
184.08133602142334,-400000.0625,-18325.7109375,-17816.400390625,-400000.0625,9894.75,-400000.0625,-21439.130859375,-400000.0625
184.09201216697693,-400000.0625,-18291.5703125,-17784.119140625,-400000.0625,9924.3701171875,-400000.0625,-21407.560546875,-400000.0625
184.10605001449585,-400000.0625,-18257.810546875,-17747.44921875,-400000.0625,9950.1103515625,-400000.0625,-21369.75,-400000.0625
184.1193130016327,-400000.0625,-18243.55078125,-17736.439453125,-400000.0625,9959.4599609375,-400000.0625,-21355.6796875,-400000.0625
184.1289336681366,-400000.0625,-18284.369140625,-17781.16015625,-400000.0625,9920.7900390625,-400000.0625,-21392.25,-400000.0625
184.18651580810547,-400000.0625,-18344.169921875,-17832.08984375,-400000.0625,9870.240234375,-400000.0625,-21452.0,-400000.0625
184.19915652275085,-400000.0625,-18336.060546875,-17824.75,-400000.0625,9866.669921875,-400000.0625,-21446.330078125,-400000.0625
184.2105176448822,-400000.0625,-18291.900390625,-17788.130859375,-400000.0625,9900.6201171875,-400000.0625,-21405.650390625,-400000.0625
184.2202603816986,-400000.0625,-18275.41015625,-17768.33984375,-400000.0625,9907.91015625,-400000.0625,-21384.33984375,-400000.0625
184.22987174987793,-400000.0625,-18271.310546875,-17765.859375,-400000.0625,9905.8603515625,-400000.0625,-21382.380859375,-400000.0625
184.26062536239624,-400000.0625,-18296.240234375,-17786.41015625,-400000.0625,9869.6201171875,-400000.0625,-21401.259765625,-400000.0625
184.26975297927856,-400000.0625,-18325.859375,-17813.490234375,-400000.0625,9843.6396484375,-400000.0625,-21431.830078125,-400000.0625
184.27982664108276,-400000.0625,-18319.939453125,-17810.6796875,-400000.0625,9856.26953125,-400000.0625,-21428.919921875,-400000.0625
184.28977394104004,-400000.0625,-18288.810546875,-17779.01953125,-400000.0625,9894.5595703125,-400000.0625,-21398.359375,-400000.0625
184.29976272583008,-400000.0625,-18264.8203125,-17762.51953125,-400000.0625,9903.9599609375,-400000.0625,-21380.759765625,-400000.0625
184.3105127811432,-400000.0625,-18297.390625,-17796.330078125,-400000.0625,9864.330078125,-400000.0625,-21409.900390625,-400000.0625
184.32000875473022,-400000.0625,-18328.240234375,-17821.41015625,-400000.0625,9815.6904296875,-400000.0625,-21435.119140625,-400000.0625
184.33079648017883,-400000.0625,-18317.419921875,-17808.6796875,-400000.0625,9814.2197265625,-400000.0625,-21421.240234375,-400000.0625
184.35653734207153,-400000.0625,-18279.939453125,-17772.720703125,-400000.0625,9860.1796875,-400000.0625,-21398.640625,-400000.0625
184.3688461780548,-400000.0625,-18253.66015625,-17753.890625,-400000.0625,9875.919921875,-400000.0625,-21396.73046875,-400000.0625
184.3798954486847,-400000.0625,-18275.640625,-17772.439453125,-400000.0625,9864.0,-400000.0625,-21425.150390625,-400000.0625
184.39183473587036,-400000.0625,-18303.869140625,-17802.05078125,-400000.0625,9830.6201171875,-400000.0625,-21460.25,-400000.0625
184.40418076515198,-400000.0625,-18318.3203125,-17810.009765625,-400000.0625,9805.009765625,-400000.0625,-21469.7890625,-400000.0625
184.41486501693726,-400000.0625,-18290.140625,-17783.01953125,-400000.0625,9816.5498046875,-400000.0625,-21451.4296875,-400000.0625
184.42908716201782,-400000.0625,-18260.390625,-17749.83984375,-400000.0625,9856.080078125,-400000.0625,-21438.26953125,-400000.0625
184.44296026229858,-400000.0625,-18249.560546875,-17737.19921875,-400000.0625,9858.080078125,-400000.0625,-21437.029296875,-400000.0625
184.47459840774536,-400000.0625,-18257.0,-17746.400390625,-400000.0625,9823.4697265625,-400000.0625,-21448.5703125,-400000.0625
184.49208569526672,-400000.0625,-18275.259765625,-17760.759765625,-400000.0625,9791.900390625,-400000.0625,-21470.5,-400000.0625
184.5068233013153,-400000.0625,-18281.26953125,-17770.48046875,-400000.0625,9776.6396484375,-400000.0625,-21475.130859375,-400000.0625
184.5191307067871,-400000.0625,-18266.19921875,-17750.599609375,-400000.0625,9810.830078125,-400000.0625,-21459.109375,-400000.0625
184.5284399986267,-400000.0625,-18263.150390625,-17742.830078125,-400000.0625,9835.0498046875,-400000.0625,-21454.619140625,-400000.0625
184.5412242412567,-400000.0625,-18290.66015625,-17770.240234375,-400000.0625,9816.8896484375,-400000.0625,-21483.5703125,-400000.0625
184.5536916255951,-400000.0625,-18313.310546875,-17793.08984375,-400000.0625,9777.1201171875,-400000.0625,-21510.41015625,-400000.0625
184.57937908172607,-400000.0625,-18290.66015625,-17771.91015625,-400000.0625,9768.33984375,-400000.0625,-21486.94921875,-400000.0625
184.59273838996887,-400000.0625,-18261.91015625,-17747.98046875,-400000.0625,9777.9296875,-400000.0625,-21459.529296875,-400000.0625
184.60352230072021,-400000.0625,-18259.859375,-17741.869140625,-400000.0625,9788.0400390625,-400000.0625,-21449.380859375,-400000.0625
184.61395168304443,-400000.0625,-18260.810546875,-17745.58984375,-400000.0625,9783.2197265625,-400000.0625,-21452.2890625,-400000.0625
184.624351978302,-400000.0625,-18293.0,-17771.25,-400000.0625,9746.740234375,-400000.0625,-21488.720703125,-400000.0625
184.63307642936707,-400000.0625,-18330.189453125,-17801.4296875,-400000.0625,9710.0302734375,-400000.0625,-21521.94921875,-400000.0625
184.64584064483643,-400000.0625,-18319.939453125,-17787.98046875,-400000.0625,9707.1201171875,-400000.0625,-21509.83984375,-400000.0625
184.65886902809143,-400000.0625,-18282.080078125,-17753.41015625,-400000.0625,9729.4296875,-400000.0625,-21473.119140625,-400000.0625
184.68691611289978,-400000.0625,-18259.240234375,-17735.669921875,-400000.0625,9733.150390625,-400000.0625,-21455.150390625,-400000.0625
184.70198702812195,-400000.0625,-18260.76953125,-17742.44921875,-400000.0625,9707.8798828125,-400000.0625,-21459.580078125,-400000.0625
184.71265196800232,-400000.0625,-18284.990234375,-17763.900390625,-400000.0625,9665.2001953125,-400000.0625,-21477.1796875,-400000.0625
184.72888660430908,-400000.0625,-18311.7890625,-17786.029296875,-400000.0625,9628.3896484375,-400000.0625,-21501.16015625,-400000.0625
184.73915028572083,-400000.0625,-18298.580078125,-17771.91015625,-400000.0625,9633.4501953125,-400000.0625,-21490.2890625,-400000.0625
184.74840426445007,-400000.0625,-18251.51953125,-17720.990234375,-400000.0625,9662.5302734375,-400000.0625,-21440.939453125,-400000.0625
184.7604398727417,-400000.0625,-18250.419921875,-17716.359375,-400000.0625,9637.3603515625,-400000.0625,-21438.9296875,-400000.0625
184.78007912635803,-400000.0625,-18305.919921875,-17769.240234375,-400000.0625,9577.509765625,-400000.0625,-21492.099609375,-400000.0625
184.79092359542847,-400000.0625,-18334.9609375,-17792.419921875,-400000.0625,9539.0302734375,-400000.0625,-21518.189453125,-400000.0625
184.80406880378723,-400000.0625,-18308.55078125,-17766.5703125,-400000.0625,9537.5498046875,-400000.0625,-21492.720703125,-400000.0625
184.81620836257935,-400000.0625,-18271.689453125,-17730.0,-400000.0625,9551.6201171875,-400000.0625,-21457.390625,-400000.0625
184.82744026184082,-400000.0625,-18256.900390625,-17717.650390625,-400000.0625,9542.419921875,-400000.0625,-21445.609375,-400000.0625
184.83748936653137,-400000.0625,-18277.5,-17738.490234375,-400000.0625,9500.7001953125,-400000.0625,-21463.30078125,-400000.0625
184.84654545783997,-400000.0625,-18299.6796875,-17758.900390625,-400000.0625,9459.349609375,-400000.0625,-21488.91015625,-400000.0625
184.8571639060974,-400000.0625,-18317.26953125,-17767.240234375,-400000.0625,9423.4501953125,-400000.0625,-21503.119140625,-400000.0625
184.8730239868164,-400000.0625,-18299.8203125,-17747.689453125,-400000.0625,9429.9296875,-400000.0625,-21487.330078125,-400000.0625
184.9021213054657,-400000.0625,-18270.109375,-17717.599609375,-400000.0625,9441.0400390625,-400000.0625,-21456.8203125,-400000.0625
184.91132855415344,-400000.0625,-18278.310546875,-17724.330078125,-400000.0625,9403.66015625,-400000.0625,-21463.970703125,-400000.0625
184.91910481452942,-400000.0625,-18310.169921875,-17747.599609375,-400000.0625,9354.2099609375,-400000.0625,-21488.5703125,-400000.0625
184.9260709285736,-400000.0625,-18325.279296875,-17761.5703125,-400000.0625,9321.4501953125,-400000.0625,-21505.0703125,-400000.0625
184.93469500541687,-400000.0625,-18304.16015625,-17740.5390625,-400000.0625,9319.58984375,-400000.0625,-21486.859375,-400000.0625
184.94517993927002,-400000.0625,-18273.880859375,-17709.919921875,-400000.0625,9327.41015625,-400000.0625,-21455.9609375,-400000.0625
184.95483112335205,-400000.0625,-18264.25,-17701.869140625,-400000.0625,9306.669921875,-400000.0625,-21445.130859375,-400000.0625
184.9641237258911,-400000.0625,-18276.41015625,-17710.779296875,-400000.0625,9267.4296875,-400000.0625,-21457.48046875,-400000.0625
184.97482705116272,-400000.0625,-18307.880859375,-17740.58984375,-400000.0625,9220.98046875,-400000.0625,-21489.33984375,-400000.0625
184.9997594356537,-400000.0625,-18330.580078125,-17756.990234375,-400000.0625,9183.3603515625,-400000.0625,-21506.55078125,-400000.0625
185.00802326202393,-400000.0625,-18309.98046875,-17736.390625,-400000.0625,9191.5595703125,-400000.0625,-21484.330078125,-400000.0625
185.0159032344818,-400000.0625,-18278.55078125,-17701.76953125,-400000.0625,9210.16015625,-400000.0625,-21448.0390625,-400000.0625
185.02626943588257,-400000.0625,-18273.689453125,-17700.76953125,-400000.0625,9183.7900390625,-400000.0625,-21442.75,-400000.0625
185.03557538986206,-400000.0625,-18307.16015625,-17735.439453125,-400000.0625,9137.73046875,-400000.0625,-21473.509765625,-400000.0625
185.04626154899597,-400000.0625,-18325.0390625,-17745.119140625,-400000.0625,9102.6796875,-400000.0625,-21492.25,-400000.0625
185.05661034584045,-400000.0625,-18306.349609375,-17724.1796875,-400000.0625,9099.2900390625,-400000.0625,-21471.359375,-400000.0625
185.06433939933777,-400000.0625,-18268.6796875,-17690.990234375,-400000.0625,9118.75,-400000.0625,-21436.55078125,-400000.0625
185.0748805999756,-400000.0625,-18273.779296875,-17691.900390625,-400000.0625,9093.8095703125,-400000.0625,-21440.990234375,-400000.0625
185.10039353370667,-400000.0625,-18317.560546875,-17730.759765625,-400000.0625,9048.509765625,-400000.0625,-21482.759765625,-400000.0625
185.1095507144928,-400000.0625,-18338.919921875,-17751.599609375,-400000.0625,9019.08984375,-400000.0625,-21506.359375,-400000.0625
185.12162113189697,-400000.0625,-18333.060546875,-17749.5,-400000.0625,9005.01953125,-400000.0625,-21497.060546875,-400000.0625
185.13183999061584,-400000.0625,-18299.869140625,-17719.26953125,-400000.0625,9013.0302734375,-400000.0625,-21463.73046875,-400000.0625
185.14590716362,-400000.0625,-18273.5,-17689.900390625,-400000.0625,9017.2802734375,-400000.0625,-21435.880859375,-400000.0625
185.175119638443,-400000.0625,-18267.8203125,-17685.939453125,-400000.0625,9008.1201171875,-400000.0625,-21434.41015625,-400000.0625
185.20576214790344,-400000.0625,-18308.44921875,-17726.140625,-400000.0625,8957.669921875,-400000.0625,-21474.939453125,-400000.0625
185.21829104423523,-400000.0625,-18338.400390625,-17751.650390625,-400000.0625,8906.7900390625,-400000.0625,-21501.259765625,-400000.0625
185.2418990135193,-400000.0625,-18313.69921875,-17726.5703125,-400000.0625,8911.75,-400000.0625,-21482.369140625,-400000.0625
185.2695438861847,-400000.0625,-18273.9296875,-17686.0390625,-400000.0625,8941.080078125,-400000.0625,-21440.130859375,-400000.0625
185.28893494606018,-400000.0625,-18274.830078125,-17685.609375,-400000.0625,8938.26953125,-400000.0625,-21446.0390625,-400000.0625
185.32192993164062,-400000.0625,-18306.16015625,-17713.599609375,-400000.0625,8906.0302734375,-400000.0625,-21474.55078125,-400000.0625
185.33419942855835,-400000.0625,-18337.970703125,-17743.830078125,-400000.0625,8855.490234375,-400000.0625,-21501.349609375,-400000.0625
185.34921550750732,-400000.0625,-18344.119140625,-17743.2109375,-400000.0625,8837.3701171875,-400000.0625,-21503.16015625,-400000.0625
185.362158536911,-400000.0625,-18312.650390625,-17712.400390625,-400000.0625,8843.3798828125,-400000.0625,-21476.560546875,-400000.0625
185.37461471557617,-400000.0625,-18268.30078125,-17673.349609375,-400000.0625,8869.0302734375,-400000.0625,-21446.849609375,-400000.0625
185.384521484375,-400000.0625,-18262.580078125,-17669.630859375,-400000.0625,8860.6396484375,-400000.0625,-21458.439453125,-400000.0625
185.396821975708,-400000.0625,-18293.619140625,-17699.720703125,-400000.0625,8812.3798828125,-400000.0625,-21497.19921875,-400000.0625
185.42418432235718,-400000.0625,-18325.859375,-17725.5703125,-400000.0625,8765.7900390625,-400000.0625,-21522.94921875,-400000.0625
185.43412852287292,-400000.0625,-18301.25,-17697.240234375,-400000.0625,8775.6201171875,-400000.0625,-21503.740234375,-400000.0625
185.4431607723236,-400000.0625,-18254.380859375,-17649.509765625,-400000.0625,8795.5498046875,-400000.0625,-21469.599609375,-400000.0625
185.45371556282043,-400000.0625,-18248.990234375,-17642.689453125,-400000.0625,8779.0498046875,-400000.0625,-21467.119140625,-400000.0625
185.4648802280426,-400000.0625,-18288.900390625,-17677.640625,-400000.0625,8747.33984375,-400000.0625,-21511.029296875,-400000.0625
185.47788071632385,-400000.0625,-18319.609375,-17702.720703125,-400000.0625,8711.91015625,-400000.0625,-21533.919921875,-400000.0625
185.4863793849945,-400000.0625,-18293.5703125,-17680.740234375,-400000.0625,8697.990234375,-400000.0625,-21513.1796875,-400000.0625
185.49493408203125,-400000.0625,-18280.7890625,-17660.330078125,-400000.0625,8700.2802734375,-400000.0625,-21495.060546875,-400000.0625
185.50404620170593,-400000.0625,-18279.98046875,-17663.0,-400000.0625,8699.849609375,-400000.0625,-21489.33984375,-400000.0625
185.5288827419281,-400000.0625,-18289.380859375,-17674.830078125,-400000.0625,8671.7099609375,-400000.0625,-21500.640625,-400000.0625
185.53835701942444,-400000.0625,-18315.41015625,-17693.380859375,-400000.0625,8644.0595703125,-400000.0625,-21523.189453125,-400000.0625
185.54541873931885,-400000.0625,-18330.4296875,-17710.16015625,-400000.0625,8607.5302734375,-400000.0625,-21538.0703125,-400000.0625
185.55510926246643,-400000.0625,-18312.5,-17691.330078125,-400000.0625,8596.1396484375,-400000.0625,-21517.1796875,-400000.0625
185.5660252571106,-400000.0625,-18272.2109375,-17650.69921875,-400000.0625,8612.6796875,-400000.0625,-21476.220703125,-400000.0625
185.57796120643616,-400000.0625,-18254.08984375,-17633.150390625,-400000.0625,8592.7998046875,-400000.0625,-21458.6796875,-400000.0625
185.58882594108582,-400000.0625,-18272.44921875,-17649.69921875,-400000.0625,8574.8203125,-400000.0625,-21477.69921875,-400000.0625
185.59583163261414,-400000.0625,-18316.990234375,-17695.380859375,-400000.0625,8514.0703125,-400000.0625,-21523.859375,-400000.0625
185.60642170906067,-400000.0625,-18332.580078125,-17704.970703125,-400000.0625,8444.8798828125,-400000.0625,-21534.16015625,-400000.0625
185.63105630874634,-400000.0625,-18301.390625,-17669.439453125,-400000.0625,8345.1796875,-400000.0625,-21505.169921875,-400000.0625
185.6396563053131,-400000.0625,-18271.310546875,-17638.0703125,-400000.0625,8311.1298828125,-400000.0625,-21475.369140625,-400000.0625
185.6463553905487,-400000.0625,-18273.740234375,-17642.2109375,-400000.0625,8125.4501953125,-400000.0625,-21476.650390625,-400000.0625
185.6559703350067,-400000.0625,-18314.3203125,-17679.7890625,-400000.0625,7975.6298828125,-400000.0625,-21512.83984375,-400000.0625
185.66423916816711,-400000.0625,-18331.33984375,-17695.859375,-400000.0625,7920.5,-400000.0625,-21530.009765625,-400000.0625
185.6711447238922,-400000.0625,-18298.630859375,-17669.390625,-400000.0625,7710.7900390625,-400000.0625,-21499.2109375,-400000.0625
185.68004608154297,-400000.0625,-18251.08984375,-17628.91015625,-400000.0625,6813.56982421875,-400000.0625,-21448.51953125,-400000.0625
185.69392132759094,-400000.0625,-18260.76953125,-17638.16015625,-400000.0625,6857.10986328125,-400000.0625,-21457.25,-400000.0625
185.70212125778198,-400000.0625,-18309.169921875,-17681.26953125,-400000.0625,7948.830078125,-400000.0625,-21503.400390625,-400000.0625
185.71010375022888,-400000.0625,-18337.109375,-17709.109375,-400000.0625,8134.4599609375,-400000.0625,-21530.009765625,-400000.0625
185.7455756664276,-400000.0625,-18330.859375,-17698.669921875,-400000.0625,7609.419921875,-400000.0625,-21524.05078125,-400000.0625
185.76127648353577,-400000.0625,-18287.849609375,-17655.94921875,-400000.0625,6859.06005859375,-400000.0625,-21480.369140625,-400000.0625
185.77364301681519,-400000.0625,-18243.98046875,-17616.4609375,-400000.0625,5445.91015625,-400000.0625,-21441.4609375,-400000.0625
185.7867488861084,-400000.0625,-18252.419921875,-17625.4296875,-400000.0625,4196.259765625,-400000.0625,-21450.05078125,-400000.0625
185.79996180534363,-400000.0625,-18296.8203125,-17668.490234375,-400000.0625,4013.010009765625,-400000.0625,-21492.720703125,-400000.0625
185.8147361278534,-400000.0625,-18319.1796875,-17690.369140625,-400000.0625,4660.56005859375,-400000.0625,-21513.939453125,-400000.0625
185.84616327285767,-400000.0625,-18293.240234375,-17667.76953125,-400000.0625,4682.2099609375,-400000.0625,-21489.380859375,-400000.0625
185.85446953773499,-400000.0625,-18267.109375,-17637.73046875,-400000.0625,5164.2900390625,-400000.0625,-21458.9609375,-400000.0625
185.86700248718262,-400000.0625,-18265.30078125,-17635.19921875,-400000.0625,4396.06005859375,-400000.0625,-21460.869140625,-400000.0625
185.87785243988037,-400000.0625,-18289.66015625,-17660.51953125,-400000.0625,3620.010009765625,-400000.0625,-21483.330078125,-400000.0625
185.89081931114197,-400000.0625,-18328.91015625,-17697.05078125,-400000.0625,4146.6201171875,-400000.0625,-21518.810546875,-400000.0625
185.90474224090576,-400000.0625,-18336.25,-17703.30078125,-400000.0625,6183.669921875,-400000.0625,-21530.060546875,-400000.0625
185.9151303768158,-400000.0625,-18282.419921875,-17653.75,-400000.0625,7153.89013671875,-400000.0625,-21480.560546875,-400000.0625
185.9435155391693,-400000.0625,-18243.119140625,-17614.560546875,-400000.0625,7527.8798828125,-400000.0625,-21440.560546875,-400000.0625
185.95149445533752,-400000.0625,-18266.5390625,-17636.58984375,-400000.0625,7886.509765625,-400000.0625,-21470.44921875,-400000.0625
185.962473154068,-400000.0625,-18313.119140625,-17678.01953125,-400000.0625,8090.8798828125,-400000.0625,-21508.26953125,-400000.0625
185.9731900691986,-400000.0625,-18319.939453125,-17686.0390625,-400000.0625,8127.4501953125,-400000.0625,-21518.759765625,-400000.0625
185.9844045639038,-400000.0625,-18287.759765625,-17655.990234375,-400000.0625,8157.2099609375,-400000.0625,-21489.529296875,-400000.0625
185.99320578575134,-400000.0625,-18248.849609375,-17614.41015625,-400000.0625,8186.009765625,-400000.0625,-21448.470703125,-400000.0625
186.0028851032257,-400000.0625,-18261.150390625,-17628.05078125,-400000.0625,8174.330078125,-400000.0625,-21455.91015625,-400000.0625
186.0163881778717,-400000.0625,-18296.720703125,-17664.2890625,-400000.0625,8139.08984375,-400000.0625,-21496.349609375,-400000.0625
186.04462671279907,-400000.0625,-18316.3203125,-17684.41015625,-400000.0625,8113.33984375,-400000.0625,-21518.330078125,-400000.0625
186.05662965774536,-400000.0625,-18295.4296875,-17666.439453125,-400000.0625,8126.31005859375,-400000.0625,-21497.6796875,-400000.0625
186.0649015903473,-400000.0625,-18256.619140625,-17626.099609375,-400000.0625,8154.2998046875,-400000.0625,-21453.9609375,-400000.0625
186.0755271911621,-400000.0625,-18245.650390625,-17612.55078125,-400000.0625,8155.009765625,-400000.0625,-21445.939453125,-400000.0625
186.08282041549683,-400000.0625,-18271.5390625,-17637.44921875,-400000.0625,8134.93994140625,-400000.0625,-21472.080078125,-400000.0625
