time,ch1,ch2,ch3,ch4,ch5,ch6,ch7,ch8
209.5774257183075,-400000.0625,-8482.5,-2940.93994140625,-400000.0625,-13161.990234375,-400000.0625,5050.47021484375,-400000.0625
209.58244347572327,-400000.0625,-8454.419921875,-2910.330078125,-400000.0625,-13133.150390625,-400000.0625,5067.10986328125,-400000.0625
209.5873508453369,-400000.0625,-8435.349609375,-2887.679931640625,-400000.0625,-13111.8798828125,-400000.0625,5096.39013671875,-400000.0625
209.5873601436615,-400000.0625,-8457.08984375,-2913.89990234375,-400000.0625,-13128.849609375,-400000.0625,5071.830078125,-400000.0625
209.58736515045166,-400000.0625,-8482.080078125,-2940.93994140625,-400000.0625,-13154.1298828125,-400000.0625,5045.56005859375,-400000.0625
209.58736991882324,-400000.0625,-8477.7802734375,-2935.030029296875,-400000.0625,-13160.1796875,-400000.0625,5050.89990234375,-400000.0625
209.5873739719391,-400000.0625,-8458.7099609375,-2910.18994140625,-400000.0625,-13131.669921875,-400000.0625,5074.64013671875,-400000.0625
209.58737778663635,-400000.0625,-8438.830078125,-2891.25,-400000.0625,-13107.919921875,-400000.0625,5107.31005859375,-400000.0625
209.5873818397522,-400000.0625,-8453.080078125,-2908.090087890625,-400000.0625,-13130.51953125,-400000.0625,5088.0,-400000.0625
209.58738565444946,-400000.0625,-8470.1103515625,-2923.43994140625,-400000.0625,-13152.4599609375,-400000.0625,5052.9501953125,-400000.0625
209.58738923072815,-400000.0625,-8477.259765625,-2932.1201171875,-400000.0625,-13157.7998046875,-400000.0625,5057.10009765625,-400000.0625
209.58739280700684,-400000.0625,-8458.4697265625,-2913.429931640625,-400000.0625,-13134.6201171875,-400000.0625,5077.64990234375,-400000.0625
209.5873966217041,-400000.0625,-8438.400390625,-2889.5400390625,-400000.0625,-13105.919921875,-400000.0625,5102.68017578125,-400000.0625
209.5874001979828,-400000.0625,-8451.650390625,-2902.030029296875,-400000.0625,-13116.599609375,-400000.0625,5073.06982421875,-400000.0625
209.58740401268005,-400000.0625,-8478.6904296875,-2927.8798828125,-400000.0625,-13141.25,-400000.0625,5050.9501953125,-400000.0625
209.58740758895874,-400000.0625,-8481.6904296875,-2933.1201171875,-400000.0625,-13157.080078125,-400000.0625,5045.64990234375,-400000.0625
209.58741116523743,-400000.0625,-8454.1298828125,-2913.52001953125,-400000.0625,-13139.4404296875,-400000.0625,5068.8701171875,-400000.0625
209.58741521835327,-400000.0625,-8440.1103515625,-2892.919921875,-400000.0625,-13110.9697265625,-400000.0625,5103.06005859375,-400000.0625
209.58741927146912,-400000.0625,-8456.5595703125,-2908.989990234375,-400000.0625,-13130.1396484375,-400000.0625,5087.7099609375,-400000.0625
209.5874228477478,-400000.0625,-8477.7802734375,-2928.68994140625,-400000.0625,-13152.5498046875,-400000.0625,5048.47021484375,-400000.0625
209.58742713928223,-400000.0625,-8477.740234375,-2934.550048828125,-400000.0625,-13152.080078125,-400000.0625,5042.740234375,-400000.0625
209.5874309539795,-400000.0625,-8452.4599609375,-2911.52001953125,-400000.0625,-13123.23046875,-400000.0625,5073.169921875,-400000.0625
209.58743476867676,-400000.0625,-8430.33984375,-2884.820068359375,-400000.0625,-13098.099609375,-400000.0625,5098.2998046875,-400000.0625
209.58743858337402,-400000.0625,-8457.3798828125,-2909.469970703125,-400000.0625,-13129.759765625,-400000.0625,5084.85009765625,-400000.0625
209.5874423980713,-400000.0625,-8480.6904296875,-2935.840087890625,-400000.0625,-13159.08984375,-400000.0625,5054.9501953125,-400000.0625
209.58744645118713,-400000.0625,-8477.6904296875,-2935.030029296875,-400000.0625,-13159.1298828125,-400000.0625,5061.52978515625,-400000.0625
209.58745002746582,-400000.0625,-8450.599609375,-2908.419921875,-400000.0625,-13132.4296875,-400000.0625,5068.16015625,-400000.0625
209.59205293655396,-400000.0625,-8426.3798828125,-2886.77001953125,-400000.0625,-13104.2001953125,-400000.0625,5092.91015625,-400000.0625
209.5920605659485,-400000.0625,-8447.98046875,-2906.0400390625,-400000.0625,-13117.83984375,-400000.0625,5077.60009765625,-400000.0625
209.5920650959015,-400000.0625,-8472.6298828125,-2929.5400390625,-400000.0625,-13143.5400390625,-400000.0625,5057.47998046875,-400000.0625
209.59206914901733,-400000.0625,-8468.76953125,-2929.2099609375,-400000.0625,-13153.7900390625,-400000.0625,5050.7099609375,-400000.0625
209.59207272529602,-400000.0625,-8449.599609375,-2906.89990234375,-400000.0625,-13125.6103515625,-400000.0625,5079.41015625,-400000.0625
209.5920763015747,-400000.0625,-8423.3798828125,-2884.14990234375,-400000.0625,-13097.099609375,-400000.0625,5093.240234375,-400000.0625
209.59208035469055,-400000.0625,-8443.58984375,-2903.3701171875,-400000.0625,-13127.3798828125,-400000.0625,5076.89013671875,-400000.0625
209.59208416938782,-400000.0625,-8465.48046875,-2928.2099609375,-400000.0625,-13155.26953125,-400000.0625,5055.9501953125,-400000.0625
209.59208798408508,-400000.0625,-8467.4404296875,-2933.169921875,-400000.0625,-13157.990234375,-400000.0625,5052.52001953125,-400000.0625
209.59209156036377,-400000.0625,-8448.509765625,-2910.090087890625,-400000.0625,-13128.2802734375,-400000.0625,5072.8798828125,-400000.0625
209.59209513664246,-400000.0625,-8426.51953125,-2885.10009765625,-400000.0625,-13099.0,-400000.0625,5093.240234375,-400000.0625
209.59209895133972,-400000.0625,-8452.650390625,-2909.7099609375,-400000.0625,-13116.080078125,-400000.0625,5072.39990234375,-400000.0625
209.59210300445557,-400000.0625,-8469.1103515625,-2923.43994140625,-400000.0625,-13138.009765625,-400000.0625,5053.22998046875,-400000.0625
209.59210658073425,-400000.0625,-8473.25,-2932.260009765625,-400000.0625,-13146.1201171875,-400000.0625,5054.85986328125,-400000.0625
209.59211039543152,-400000.0625,-8448.2197265625,-2911.0,-400000.0625,-13127.759765625,-400000.0625,5077.1201171875,-400000.0625
209.59211468696594,-400000.0625,-8426.7099609375,-2889.820068359375,-400000.0625,-13107.400390625,-400000.0625,5095.77001953125,-400000.0625
209.5921185016632,-400000.0625,-8445.1201171875,-2905.080078125,-400000.0625,-13123.849609375,-400000.0625,5082.509765625,-400000.0625
209.5921220779419,-400000.0625,-8466.9599609375,-2926.5400390625,-400000.0625,-13149.98046875,-400000.0625,5057.0,-400000.0625
209.59212589263916,-400000.0625,-8478.1201171875,-2934.5,-400000.0625,-13152.83984375,-400000.0625,5052.14013671875,-400000.0625
209.59212970733643,-400000.0625,-8450.83984375,-2906.659912109375,-400000.0625,-13121.990234375,-400000.0625,5072.97998046875,-400000.0625
209.5921332836151,-400000.0625,-8422.2802734375,-2885.2900390625,-400000.0625,-13092.900390625,-400000.0625,5093.85986328125,-400000.0625
209.59213709831238,-400000.0625,-8445.0302734375,-2905.4599609375,-400000.0625,-13114.259765625,-400000.0625,5076.7900390625,-400000.0625
209.59214067459106,-400000.0625,-8474.259765625,-2930.780029296875,-400000.0625,-13146.4501953125,-400000.0625,5056.10009765625,-400000.0625
209.59214425086975,-400000.0625,-8476.5400390625,-2937.409912109375,-400000.0625,-13158.4697265625,-400000.0625,5057.0,-400000.0625
209.5921483039856,-400000.0625,-8453.990234375,-2912.0,-400000.0625,-13128.4697265625,-400000.0625,5070.8798828125,-400000.0625
209.59215188026428,-400000.0625,-8429.580078125,-2885.489990234375,-400000.0625,-13104.0595703125,-400000.0625,5096.81982421875,-400000.0625
209.59215545654297,-400000.0625,-8449.3603515625,-2901.699951171875,-400000.0625,-13120.2197265625,-400000.0625,5076.5,-400000.0625
209.59215927124023,-400000.0625,-8471.0595703125,-2928.39990234375,-400000.0625,-13147.6396484375,-400000.0625,5045.83984375,-400000.0625
209.59216284751892,-400000.0625,-8474.349609375,-2930.159912109375,-400000.0625,-13152.5498046875,-400000.0625,5055.56982421875,-400000.0625
209.5921664237976,-400000.0625,-8453.66015625,-2915.10009765625,-400000.0625,-13130.7099609375,-400000.0625,5074.169921875,-400000.0625
209.5921700000763,-400000.0625,-8433.4404296875,-2895.68994140625,-400000.0625,-13105.8701171875,-400000.0625,5102.64013671875,-400000.0625
209.59217381477356,-400000.0625,-8449.3203125,-2910.85009765625,-400000.0625,-13122.080078125,-400000.0625,5078.4599609375,-400000.0625
209.59217739105225,-400000.0625,-8473.9697265625,-2928.969970703125,-400000.0625,-13143.6396484375,-400000.0625,5056.0,-400000.0625
209.59218096733093,-400000.0625,-8474.5400390625,-2933.7900390625,-400000.0625,-13156.1796875,-400000.0625,5048.080078125,-400000.0625
209.59218454360962,-400000.0625,-8448.1201171875,-2909.570068359375,-400000.0625,-13130.7099609375,-400000.0625,5074.41015625,-400000.0625
209.59218835830688,-400000.0625,-8420.900390625,-2882.909912109375,-400000.0625,-13097.1396484375,-400000.0625,5092.72021484375,-400000.0625
209.59219217300415,-400000.0625,-8444.3603515625,-2904.840087890625,-400000.0625,-13113.3095703125,-400000.0625,5071.68994140625,-400000.0625
209.59219598770142,-400000.0625,-8472.8701171875,-2925.679931640625,-400000.0625,-13145.259765625,-400000.0625,5048.47021484375,-400000.0625
209.64012622833252,-400000.0625,-8481.599609375,-2933.360107421875,-400000.0625,-13154.509765625,-400000.0625,5038.740234375,-400000.0625
209.65147304534912,-400000.0625,-8457.23046875,-2915.530029296875,-400000.0625,-13134.0498046875,-400000.0625,5059.91015625,-400000.0625
209.6559329032898,-400000.0625,-8430.580078125,-2889.969970703125,-400000.0625,-13101.5302734375,-400000.0625,5087.14013671875,-400000.0625
209.6559407711029,-400000.0625,-8453.080078125,-2910.52001953125,-400000.0625,-13120.7998046875,-400000.0625,5080.18017578125,-400000.0625
209.65594577789307,-400000.0625,-8476.349609375,-2931.60009765625,-400000.0625,-13152.3095703125,-400000.0625,5050.7998046875,-400000.0625
209.65594911575317,-400000.0625,-8480.0703125,-2936.219970703125,-400000.0625,-13155.8896484375,-400000.0625,5048.509765625,-400000.0625
209.65595245361328,-400000.0625,-8455.1796875,-2914.52001953125,-400000.0625,-13122.5595703125,-400000.0625,5067.919921875,-400000.0625
209.65595602989197,-400000.0625,-8429.240234375,-2886.199951171875,-400000.0625,-13095.0498046875,-400000.0625,5090.6201171875,-400000.0625
209.65595936775208,-400000.0625,-8446.0302734375,-2899.929931640625,-400000.0625,-13122.1298828125,-400000.0625,5081.93994140625,-400000.0625
209.65596270561218,-400000.0625,-8474.919921875,-2924.010009765625,-400000.0625,-13148.6904296875,-400000.0625,5059.77001953125,-400000.0625
209.6559660434723,-400000.0625,-8484.7001953125,-2930.97998046875,-400000.0625,-13150.98046875,-400000.0625,5045.22021484375,-400000.0625
209.6559693813324,-400000.0625,-8458.330078125,-2908.989990234375,-400000.0625,-13119.5595703125,-400000.0625,5068.68017578125,-400000.0625
209.65597367286682,-400000.0625,-8429.48046875,-2890.489990234375,-400000.0625,-13095.0,-400000.0625,5091.72021484375,-400000.0625
209.65597701072693,-400000.0625,-8454.1796875,-2902.840087890625,-400000.0625,-13117.169921875,-400000.0625,5068.2099609375,-400000.0625
209.65598034858704,-400000.0625,-8479.4501953125,-2934.27001953125,-400000.0625,-13147.0703125,-400000.0625,5045.080078125,-400000.0625
209.65598368644714,-400000.0625,-8476.0703125,-2932.68994140625,-400000.0625,-13149.6904296875,-400000.0625,5045.080078125,-400000.0625
209.70780277252197,-400000.0625,-8444.599609375,-2898.070068359375,-400000.0625,-13123.990234375,-400000.0625,5080.83984375,-400000.0625
209.71284008026123,-400000.0625,-8428.2900390625,-2878.570068359375,-400000.0625,-13099.7197265625,-400000.0625,5103.58984375,-400000.0625
209.71743488311768,-400000.0625,-8447.740234375,-2898.31005859375,-400000.0625,-13116.080078125,-400000.0625,5081.4599609375,-400000.0625
209.7174427509308,-400000.0625,-8471.0595703125,-2924.679931640625,-400000.0625,-13144.400390625,-400000.0625,5053.81005859375,-400000.0625
209.7174470424652,-400000.0625,-8479.0703125,-2933.840087890625,-400000.0625,-13152.98046875,-400000.0625,5052.85009765625,-400000.0625
209.71745109558105,-400000.0625,-8458.759765625,-2908.469970703125,-400000.0625,-13124.7099609375,-400000.0625,5074.5,-400000.0625
209.71745443344116,-400000.0625,-8431.7197265625,-2884.340087890625,-400000.0625,-13099.0498046875,-400000.0625,5094.72021484375,-400000.0625
209.71745800971985,-400000.0625,-8447.3603515625,-2899.739990234375,-400000.0625,-13121.3701171875,-400000.0625,5074.41015625,-400000.0625
209.71746182441711,-400000.0625,-8477.5,-2926.25,-400000.0625,-13147.0703125,-400000.0625,5053.66015625,-400000.0625
209.7174654006958,-400000.0625,-8481.9296875,-2931.8798828125,-400000.0625,-13142.6796875,-400000.0625,5037.740234375,-400000.0625
209.71746921539307,-400000.0625,-8458.4697265625,-2910.949951171875,-400000.0625,-13122.3701171875,-400000.0625,5077.02978515625,-400000.0625
209.71747279167175,-400000.0625,-8442.9296875,-2893.780029296875,-400000.0625,-13111.16015625,-400000.0625,5101.39990234375,-400000.0625
209.71747756004333,-400000.0625,-8458.6201171875,-2908.179931640625,-400000.0625,-13126.1396484375,-400000.0625,5072.7900390625,-400000.0625
209.71748113632202,-400000.0625,-8481.98046875,-2935.27001953125,-400000.0625,-13147.4501953125,-400000.0625,5058.47998046875,-400000.0625
209.7174847126007,-400000.0625,-8488.26953125,-2937.360107421875,-400000.0625,-13147.5498046875,-400000.0625,5047.75,-400000.0625
209.71748876571655,-400000.0625,-8456.419921875,-2910.570068359375,-400000.0625,-13120.83984375,-400000.0625,5070.2099609375,-400000.0625
209.77523136138916,-400000.0625,-8436.8701171875,-2887.5400390625,-400000.0625,-13098.2900390625,-400000.0625,5088.6201171875,-400000.0625
209.78444457054138,-400000.0625,-8458.23046875,-2908.280029296875,-400000.0625,-13121.7998046875,-400000.0625,5078.64990234375,-400000.0625
209.78923749923706,-400000.0625,-8485.9404296875,-2930.31005859375,-400000.0625,-13148.259765625,-400000.0625,5051.08984375,-400000.0625
209.7892460823059,-400000.0625,-8488.7001953125,-2935.97998046875,-400000.0625,-13151.98046875,-400000.0625,5038.02001953125,-400000.0625
209.7892506122589,-400000.0625,-8458.0,-2906.280029296875,-400000.0625,-13123.1298828125,-400000.0625,5056.10009765625,-400000.0625
209.78925442695618,-400000.0625,-8437.6796875,-2887.389892578125,-400000.0625,-13097.7197265625,-400000.0625,5094.85986328125,-400000.0625
209.78925800323486,-400000.0625,-8451.5595703125,-2902.169921875,-400000.0625,-13114.2197265625,-400000.0625,5072.64013671875,-400000.0625
209.78926181793213,-400000.0625,-8472.5400390625,-2922.489990234375,-400000.0625,-13138.150390625,-400000.0625,5047.31982421875,-400000.0625
209.78926587104797,-400000.0625,-8483.3603515625,-2937.510009765625,-400000.0625,-13147.8798828125,-400000.0625,5039.41015625,-400000.0625
209.78926968574524,-400000.0625,-8461.8095703125,-2913.3798828125,-400000.0625,-13126.4697265625,-400000.0625,5059.0498046875,-400000.0625
209.7892735004425,-400000.0625,-8436.25,-2887.010009765625,-400000.0625,-13091.759765625,-400000.0625,5090.56982421875,-400000.0625
209.78927731513977,-400000.0625,-8457.900390625,-2909.52001953125,-400000.0625,-13110.01953125,-400000.0625,5072.93017578125,-400000.0625
209.78928208351135,-400000.0625,-8476.830078125,-2927.72998046875,-400000.0625,-13145.5,-400000.0625,5052.85009765625,-400000.0625
209.78928589820862,-400000.0625,-8485.650390625,-2931.639892578125,-400000.0625,-13149.4501953125,-400000.0625,5041.89013671875,-400000.0625
209.78928971290588,-400000.0625,-8463.240234375,-2913.090087890625,-400000.0625,-13126.990234375,-400000.0625,5056.6201171875,-400000.0625
209.78929376602173,-400000.0625,-8434.8701171875,-2888.5400390625,-400000.0625,-13098.33984375,-400000.0625,5094.240234375,-400000.0625
209.84436225891113,-400000.0625,-8447.0302734375,-2902.699951171875,-400000.0625,-13113.7900390625,-400000.0625,5079.3701171875,-400000.0625
209.84958171844482,-400000.0625,-8479.01953125,-2930.97998046875,-400000.0625,-13145.6396484375,-400000.0625,5055.14013671875,-400000.0625
209.85420441627502,-400000.0625,-8486.0302734375,-2931.169921875,-400000.0625,-13150.5498046875,-400000.0625,5046.22998046875,-400000.0625
209.85421228408813,-400000.0625,-8458.8095703125,-2910.090087890625,-400000.0625,-13123.3701171875,-400000.0625,5065.97021484375,-400000.0625
209.85421705245972,-400000.0625,-8435.2001953125,-2888.72998046875,-400000.0625,-13103.580078125,-400000.0625,5089.7099609375,-400000.0625
209.85422086715698,-400000.0625,-8458.7099609375,-2907.22998046875,-400000.0625,-13121.23046875,-400000.0625,5069.5400390625,-400000.0625
209.85422444343567,-400000.0625,-8483.3203125,-2927.830078125,-400000.0625,-13142.6796875,-400000.0625,5050.27978515625,-400000.0625
209.85422825813293,-400000.0625,-8488.990234375,-2935.219970703125,-400000.0625,-13153.8896484375,-400000.0625,5043.60009765625,-400000.0625
209.85423183441162,-400000.0625,-8468.0595703125,-2910.659912109375,-400000.0625,-13126.6103515625,-400000.0625,5068.4501953125,-400000.0625
209.8542356491089,-400000.0625,-8447.8896484375,-2893.5400390625,-400000.0625,-13101.33984375,-400000.0625,5087.81005859375,-400000.0625
209.85423922538757,-400000.0625,-8458.849609375,-2908.52001953125,-400000.0625,-13124.7099609375,-400000.0625,5070.2099609375,-400000.0625
209.85424327850342,-400000.0625,-8474.6396484375,-2927.39990234375,-400000.0625,-13147.5,-400000.0625,5038.169921875,-400000.0625
209.85424709320068,-400000.0625,-8485.1796875,-2935.360107421875,-400000.0625,-13151.1201171875,-400000.0625,5044.4599609375,-400000.0625
209.85425090789795,-400000.0625,-8466.150390625,-2913.81005859375,-400000.0625,-13123.849609375,-400000.0625,5063.52978515625,-400000.0625
209.85425472259521,-400000.0625,-8443.0703125,-2892.590087890625,-400000.0625,-13100.7197265625,-400000.0625,5091.240234375,-400000.0625
209.8542582988739,-400000.0625,-8455.51953125,-2908.1298828125,-400000.0625,-13114.83984375,-400000.0625,5072.97998046875,-400000.0625
209.90976119041443,-400000.0625,-8485.41015625,-2934.889892578125,-400000.0625,-13144.5400390625,-400000.0625,5046.75,-400000.0625
209.92121839523315,-400000.0625,-8505.2998046875,-2949.52001953125,-400000.0625,-13158.6103515625,-400000.0625,5035.64013671875,-400000.0625
209.92589926719666,-400000.0625,-8494.5703125,-2930.449951171875,-400000.0625,-13128.4296875,-400000.0625,5060.81982421875,-400000.0625
209.9259078502655,-400000.0625,-8464.1904296875,-2911.139892578125,-400000.0625,-13099.0,-400000.0625,5078.1298828125,-400000.0625
209.92591285705566,-400000.0625,-8479.6904296875,-2929.02001953125,-400000.0625,-13111.259765625,-400000.0625,5069.8798828125,-400000.0625
209.92591667175293,-400000.0625,-8517.26953125,-2964.2099609375,-400000.0625,-13134.8095703125,-400000.0625,5035.64013671875,-400000.0625
209.92592024803162,-400000.0625,-8537.099609375,-2979.659912109375,-400000.0625,-13140.009765625,-400000.0625,5033.2998046875,-400000.0625
209.92592406272888,-400000.0625,-8517.7900390625,-2961.72998046875,-400000.0625,-13103.919921875,-400000.0625,5051.3798828125,-400000.0625
209.92592787742615,-400000.0625,-8516.5,-2954.580078125,-400000.0625,-13083.2197265625,-400000.0625,5069.2099609375,-400000.0625
209.92593145370483,-400000.0625,-8550.1201171875,-2984.760009765625,-400000.0625,-13097.48046875,-400000.0625,5032.5400390625,-400000.0625
209.92593502998352,-400000.0625,-8579.6796875,-3015.610107421875,-400000.0625,-13116.5498046875,-400000.0625,5006.41015625,-400000.0625
209.9259388446808,-400000.0625,-8594.9404296875,-3024.530029296875,-400000.0625,-13124.3701171875,-400000.0625,5005.41015625,-400000.0625
209.92594242095947,-400000.0625,-8590.1298828125,-3013.090087890625,-400000.0625,-13099.8603515625,-400000.0625,5019.47021484375,-400000.0625
209.92594599723816,-400000.0625,-8588.3603515625,-2998.449951171875,-400000.0625,-13077.3095703125,-400000.0625,5030.43994140625,-400000.0625
209.925950050354,-400000.0625,-8605.9599609375,-3012.510009765625,-400000.0625,-13093.0,-400000.0625,5029.490234375,-400000.0625
209.9259536266327,-400000.0625,-8636.2802734375,-3042.7900390625,-400000.0625,-13112.4501953125,-400000.0625,4987.18994140625,-400000.0625
209.96650409698486,-400000.0625,-8660.83984375,-3058.14990234375,-400000.0625,-13124.0400390625,-400000.0625,4970.8798828125,-400000.0625
209.97248363494873,-400000.0625,-8643.6796875,-3031.2099609375,-400000.0625,-13095.759765625,-400000.0625,4997.8701171875,-400000.0625
209.9775767326355,-400000.0625,-8616.3095703125,-3008.699951171875,-400000.0625,-13063.8603515625,-400000.0625,5032.25,-400000.0625
209.9828600883484,-400000.0625,-8639.0498046875,-3028.72998046875,-400000.0625,-13084.4599609375,-400000.0625,5007.64990234375,-400000.0625
209.98776173591614,-400000.0625,-8670.4697265625,-3053.239990234375,-400000.0625,-13113.1201171875,-400000.0625,4983.08984375,-400000.0625
209.9877679347992,-400000.0625,-8682.2001953125,-3056.669921875,-400000.0625,-13119.650390625,-400000.0625,4966.4501953125,-400000.0625
209.98777174949646,-400000.0625,-8665.849609375,-3042.27001953125,-400000.0625,-13096.8095703125,-400000.0625,4988.580078125,-400000.0625
209.987774848938,-400000.0625,-8637.3798828125,-3018.429931640625,-400000.0625,-13074.4501953125,-400000.0625,5028.68017578125,-400000.0625
209.9877781867981,-400000.0625,-8668.4697265625,-3040.4599609375,-400000.0625,-13101.9599609375,-400000.0625,5007.97998046875,-400000.0625
209.9877815246582,-400000.0625,-8687.9296875,-3060.77001953125,-400000.0625,-13125.7099609375,-400000.0625,4979.89990234375,-400000.0625
209.9877848625183,-400000.0625,-8683.73046875,-3060.8701171875,-400000.0625,-13124.08984375,-400000.0625,4981.7998046875,-400000.0625
209.98778820037842,-400000.0625,-8661.3203125,-3037.8798828125,-400000.0625,-13095.2900390625,-400000.0625,5010.64990234375,-400000.0625
209.98779153823853,-400000.0625,-8637.91015625,-3013.75,-400000.0625,-13077.3095703125,-400000.0625,5033.39990234375,-400000.0625
209.98779487609863,-400000.0625,-8645.490234375,-3024.909912109375,-400000.0625,-13097.0,-400000.0625,5013.1298828125,-400000.0625
209.98779821395874,-400000.0625,-8667.7099609375,-3042.64990234375,-400000.0625,-13121.5595703125,-400000.0625,4997.25,-400000.0625
209.98780155181885,-400000.0625,-8669.330078125,-3042.7900390625,-400000.0625,-13126.900390625,-400000.0625,4986.47998046875,-400000.0625
210.02274203300476,-400000.0625,-8650.349609375,-3021.81005859375,-400000.0625,-13100.9599609375,-400000.0625,5011.990234375,-400000.0625
210.03308749198914,-400000.0625,-8626.5595703125,-3001.31005859375,-400000.0625,-13072.919921875,-400000.0625,5036.5498046875,-400000.0625
210.03834915161133,-400000.0625,-8639.5302734375,-3014.610107421875,-400000.0625,-13089.1298828125,-400000.0625,5019.85986328125,-400000.0625
210.04376435279846,-400000.0625,-8668.9501953125,-3036.7900390625,-400000.0625,-13107.349609375,-400000.0625,4989.6201171875,-400000.0625
210.04880094528198,-400000.0625,-8675.5302734375,-3051.760009765625,-400000.0625,-13128.0,-400000.0625,4990.240234375,-400000.0625
210.05448246002197,-400000.0625,-8649.4501953125,-3025.77001953125,-400000.0625,-13113.2099609375,-400000.0625,5018.52001953125,-400000.0625
210.05999279022217,-400000.0625,-8624.8896484375,-2998.159912109375,-400000.0625,-13082.3203125,-400000.0625,5041.41015625,-400000.0625
210.06498527526855,-400000.0625,-8642.8203125,-3015.280029296875,-400000.0625,-13092.3798828125,-400000.0625,5013.93994140625,-400000.0625
210.06499361991882,-400000.0625,-8671.48046875,-3043.27001953125,-400000.0625,-13123.23046875,-400000.0625,5000.5400390625,-400000.0625
210.06499814987183,-400000.0625,-8680.580078125,-3050.800048828125,-400000.0625,-13133.099609375,-400000.0625,4989.9599609375,-400000.0625
210.07065558433533,-400000.0625,-8656.169921875,-3029.5400390625,-400000.0625,-13105.9697265625,-400000.0625,5011.75,-400000.0625
210.0756561756134,-400000.0625,-8622.4599609375,-3001.070068359375,-400000.0625,-13077.7900390625,-400000.0625,5034.4501953125,-400000.0625
210.0811755657196,-400000.0625,-8645.2001953125,-3020.10009765625,-400000.0625,-13096.330078125,-400000.0625,5027.43994140625,-400000.0625
210.08615612983704,-400000.0625,-8671.48046875,-3043.080078125,-400000.0625,-13120.2197265625,-400000.0625,4997.8701171875,-400000.0625
210.08616495132446,-400000.0625,-8678.099609375,-3054.330078125,-400000.0625,-13132.099609375,-400000.0625,4989.52978515625,-400000.0625
210.0861692428589,-400000.0625,-8669.849609375,-3037.639892578125,-400000.0625,-13105.580078125,-400000.0625,5015.18017578125,-400000.0625
210.08835101127625,-400000.0625,-8646.580078125,-3007.60009765625,-400000.0625,-13078.740234375,-400000.0625,5035.5,-400000.0625
210.09403204917908,-400000.0625,-8651.9697265625,-3028.72998046875,-400000.0625,-13098.4296875,-400000.0625,5030.39013671875,-400000.0625
210.0993194580078,-400000.0625,-8681.6298828125,-3063.25,-400000.0625,-13128.4697265625,-400000.0625,5004.93017578125,-400000.0625
210.10452461242676,-400000.0625,-8693.0302734375,-3075.080078125,-400000.0625,-13131.1396484375,-400000.0625,4990.9599609375,-400000.0625
210.10969400405884,-400000.0625,-8670.9501953125,-3055.669921875,-400000.0625,-13107.25,-400000.0625,5024.85986328125,-400000.0625
210.11517238616943,-400000.0625,-8642.580078125,-3028.5400390625,-400000.0625,-13082.2197265625,-400000.0625,5046.56005859375,-400000.0625
210.12082147598267,-400000.0625,-8666.23046875,-3052.090087890625,-400000.0625,-13101.580078125,-400000.0625,5029.490234375,-400000.0625
210.1259000301361,-400000.0625,-8695.2197265625,-3081.85009765625,-400000.0625,-13129.1904296875,-400000.0625,5013.60986328125,-400000.0625
210.13704657554626,-400000.0625,-8698.7001953125,-3089.909912109375,-400000.0625,-13136.580078125,-400000.0625,5004.22021484375,-400000.0625
210.14261198043823,-400000.0625,-8678.48046875,-3074.1201171875,-400000.0625,-13118.83984375,-400000.0625,5027.43994140625,-400000.0625
210.14803647994995,-400000.0625,-8654.6396484375,-3045.75,-400000.0625,-13088.4697265625,-400000.0625,5052.3798828125,-400000.0625
210.15381479263306,-400000.0625,-8669.6201171875,-3062.25,-400000.0625,-13100.8603515625,-400000.0625,5032.830078125,-400000.0625
210.15945982933044,-400000.0625,-8696.5595703125,-3087.659912109375,-400000.0625,-13128.4697265625,-400000.0625,5022.240234375,-400000.0625
210.16464734077454,-400000.0625,-8700.08984375,-3093.77001953125,-400000.0625,-13140.580078125,-400000.0625,5009.3701171875,-400000.0625
210.17011785507202,-400000.0625,-8670.08984375,-3066.300048828125,-400000.0625,-13112.6396484375,-400000.0625,5037.830078125,-400000.0625
210.1750509738922,-400000.0625,-8654.6904296875,-3046.610107421875,-400000.0625,-13089.1796875,-400000.0625,5065.06005859375,-400000.0625
210.1883008480072,-400000.0625,-8670.1396484375,-3065.919921875,-400000.0625,-13112.0703125,-400000.0625,5045.22021484375,-400000.0625
210.19398760795593,-400000.0625,-8687.7802734375,-3085.7099609375,-400000.0625,-13143.2998046875,-400000.0625,5018.759765625,-400000.0625
210.1989688873291,-400000.0625,-8703.08984375,-3095.47998046875,-400000.0625,-13145.400390625,-400000.0625,5010.7998046875,-400000.0625
210.1989769935608,-400000.0625,-8674.099609375,-3069.830078125,-400000.0625,-13113.830078125,-400000.0625,5030.68017578125,-400000.0625
210.19898176193237,-400000.0625,-8648.7802734375,-3043.56005859375,-400000.0625,-13087.23046875,-400000.0625,5063.68017578125,-400000.0625
210.1989860534668,-400000.0625,-8668.3798828125,-3061.530029296875,-400000.0625,-13104.76953125,-400000.0625,5051.14013671875,-400000.0625
210.19898986816406,-400000.0625,-8684.9697265625,-3082.280029296875,-400000.0625,-13129.669921875,-400000.0625,5021.56982421875,-400000.0625
210.19899344444275,-400000.0625,-8692.3603515625,-3088.239990234375,-400000.0625,-13145.400390625,-400000.0625,5014.08984375,-400000.0625
210.2042453289032,-400000.0625,-8674.5703125,-3070.39990234375,-400000.0625,-13118.7900390625,-400000.0625,5037.5,-400000.0625
210.2096872329712,-400000.0625,-8646.2001953125,-3041.219970703125,-400000.0625,-13086.650390625,-400000.0625,5060.85986328125,-400000.0625
210.2153720855713,-400000.0625,-8662.1796875,-3055.139892578125,-400000.0625,-13111.5498046875,-400000.0625,5041.4599609375,-400000.0625
210.2208297252655,-400000.0625,-8692.7900390625,-3082.75,-400000.0625,-13136.48046875,-400000.0625,5021.0498046875,-400000.0625
210.22583556175232,-400000.0625,-8696.7998046875,-3090.10009765625,-400000.0625,-13148.169921875,-400000.0625,5016.52001953125,-400000.0625
210.231116771698,-400000.0625,-8669.4697265625,-3066.969970703125,-400000.0625,-13118.3203125,-400000.0625,5042.93994140625,-400000.0625
210.24030327796936,-400000.0625,-8654.6904296875,-3053.469970703125,-400000.0625,-13092.8095703125,-400000.0625,5064.2998046875,-400000.0625
210.24530720710754,-400000.0625,-8667.7998046875,-3065.489990234375,-400000.0625,-13110.9296875,-400000.0625,5050.47021484375,-400000.0625
210.25064849853516,-400000.0625,-8690.169921875,-3085.659912109375,-400000.0625,-13134.33984375,-400000.0625,5031.68017578125,-400000.0625
210.25541806221008,-400000.0625,-8692.9296875,-3087.18994140625,-400000.0625,-13143.01953125,-400000.0625,5021.91015625,-400000.0625
210.25542569160461,-400000.0625,-8672.2900390625,-3066.780029296875,-400000.0625,-13118.650390625,-400000.0625,5041.5498046875,-400000.0625
210.2554304599762,-400000.0625,-8643.9599609375,-3038.739990234375,-400000.0625,-13091.3798828125,-400000.0625,5070.39990234375,-400000.0625
210.25543451309204,-400000.0625,-8661.5595703125,-3054.669921875,-400000.0625,-13105.4404296875,-400000.0625,5055.08984375,-400000.0625
210.2554383277893,-400000.0625,-8685.0703125,-3081.510009765625,-400000.0625,-13130.330078125,-400000.0625,5036.02001953125,-400000.0625
210.25544214248657,-400000.0625,-8701.1298828125,-3094.14990234375,-400000.0625,-13144.8798828125,-400000.0625,5027.33984375,-400000.0625
210.25544595718384,-400000.0625,-8678.0595703125,-3074.219970703125,-400000.0625,-13116.5498046875,-400000.0625,5039.8798828125,-400000.0625
210.25545001029968,-400000.0625,-8644.919921875,-3044.800048828125,-400000.0625,-13089.75,-400000.0625,5063.25,-400000.0625
210.25545358657837,-400000.0625,-8659.9404296875,-3061.679931640625,-400000.0625,-13113.7900390625,-400000.0625,5046.509765625,-400000.0625
210.25545716285706,-400000.0625,-8692.3603515625,-3089.47998046875,-400000.0625,-13140.580078125,-400000.0625,5032.06005859375,-400000.0625
210.2554612159729,-400000.0625,-8699.990234375,-3098.43994140625,-400000.0625,-13143.6796875,-400000.0625,5016.14013671875,-400000.0625
210.2554647922516,-400000.0625,-8668.0400390625,-3064.300048828125,-400000.0625,-13112.259765625,-400000.0625,5034.8798828125,-400000.0625
210.25546860694885,-400000.0625,-8651.73046875,-3043.840087890625,-400000.0625,-13086.419921875,-400000.0625,5065.10986328125,-400000.0625
210.25547242164612,-400000.0625,-8668.0400390625,-3067.2099609375,-400000.0625,-13105.7802734375,-400000.0625,5046.509765625,-400000.0625
210.25547623634338,-400000.0625,-8699.0400390625,-3085.659912109375,-400000.0625,-13138.6796875,-400000.0625,5027.33984375,-400000.0625
210.2842185497284,-400000.0625,-8719.400390625,-3099.159912109375,-400000.0625,-13155.26953125,-400000.0625,5016.22998046875,-400000.0625
210.28957533836365,-400000.0625,-8682.0595703125,-3066.639892578125,-400000.0625,-13133.8603515625,-400000.0625,5035.68994140625,-400000.0625
210.29454350471497,-400000.0625,-8637.0498046875,-3027.489990234375,-400000.0625,-13089.51953125,-400000.0625,5054.240234375,-400000.0625
210.29455184936523,-400000.0625,-8651.5,-3040.64990234375,-400000.0625,-13103.5302734375,-400000.0625,5034.06982421875,-400000.0625
210.29455590248108,-400000.0625,-8676.8203125,-3053.949951171875,-400000.0625,-13131.91015625,-400000.0625,5005.97998046875,-400000.0625
210.29455971717834,-400000.0625,-8684.919921875,-3050.89990234375,-400000.0625,-13135.009765625,-400000.0625,4988.33984375,-400000.0625
210.29456329345703,-400000.0625,-8654.259765625,-3020.47998046875,-400000.0625,-13113.3095703125,-400000.0625,5001.93017578125,-400000.0625
210.2945671081543,-400000.0625,-8620.740234375,-2987.340087890625,-400000.0625,-13080.599609375,-400000.0625,5020.2900390625,-400000.0625
210.29457306861877,-400000.0625,-8630.3701171875,-2992.010009765625,-400000.0625,-13092.330078125,-400000.0625,4992.009765625,-400000.0625
210.29457712173462,-400000.0625,-8661.9404296875,-3012.89990234375,-400000.0625,-13123.080078125,-400000.0625,4968.97998046875,-400000.0625
210.2945806980133,-400000.0625,-8672.5703125,-3014.989990234375,-400000.0625,-13129.4296875,-400000.0625,4957.14990234375,-400000.0625
210.294584274292,-400000.0625,-8643.099609375,-2987.0,-400000.0625,-13100.5302734375,-400000.0625,4971.169921875,-400000.0625
210.2992868423462,-400000.0625,-8617.16015625,-2965.1201171875,-400000.0625,-13071.009765625,-400000.0625,4997.64013671875,-400000.0625
210.2992959022522,-400000.0625,-8632.51953125,-2977.7099609375,-400000.0625,-13090.7998046875,-400000.0625,4990.47998046875,-400000.0625
210.29930114746094,-400000.0625,-8650.5400390625,-2996.72998046875,-400000.0625,-13122.75,-400000.0625,4967.06982421875,-400000.0625
210.29930520057678,-400000.0625,-8661.990234375,-3008.27001953125,-400000.0625,-13128.1396484375,-400000.0625,4949.669921875,-400000.0625
210.3643958568573,-400000.0625,-8644.6796875,-2987.18994140625,-400000.0625,-13101.8203125,-400000.0625,4975.1298828125,-400000.0625
210.37416458129883,-400000.0625,-8614.8701171875,-2958.159912109375,-400000.0625,-13073.0595703125,-400000.0625,5001.97021484375,-400000.0625
210.37885785102844,-400000.0625,-8629.990234375,-2973.840087890625,-400000.0625,-13091.759765625,-400000.0625,4987.85986328125,-400000.0625
210.3788661956787,-400000.0625,-8664.6103515625,-3001.260009765625,-400000.0625,-13122.9404296875,-400000.0625,4957.14990234375,-400000.0625
210.37887048721313,-400000.0625,-8672.5703125,-3014.330078125,-400000.0625,-13135.009765625,-400000.0625,4949.56982421875,-400000.0625
210.37887406349182,-400000.0625,-8638.4296875,-2982.330078125,-400000.0625,-13109.0703125,-400000.0625,4979.60986328125,-400000.0625
210.3788776397705,-400000.0625,-8608.0595703125,-2953.719970703125,-400000.0625,-13081.3603515625,-400000.0625,5012.080078125,-400000.0625
210.3788812160492,-400000.0625,-8624.3603515625,-2972.169921875,-400000.0625,-13092.66015625,-400000.0625,4996.43994140625,-400000.0625
210.37888479232788,-400000.0625,-8652.5498046875,-2995.780029296875,-400000.0625,-13119.2197265625,-400000.0625,4963.10986328125,-400000.0625
210.37888836860657,-400000.0625,-8660.599609375,-3005.5,-400000.0625,-13134.8095703125,-400000.0625,4956.33984375,-400000.0625
210.37889218330383,-400000.0625,-8642.009765625,-2982.570068359375,-400000.0625,-13109.58984375,-400000.0625,4974.509765625,-400000.0625
210.37889575958252,-400000.0625,-8620.41015625,-2963.02001953125,-400000.0625,-13083.080078125,-400000.0625,5003.7900390625,-400000.0625
210.3788993358612,-400000.0625,-8631.4697265625,-2977.510009765625,-400000.0625,-13097.2900390625,-400000.0625,4984.56982421875,-400000.0625
210.37890338897705,-400000.0625,-8658.26953125,-3005.550048828125,-400000.0625,-13123.7998046875,-400000.0625,4956.9599609375,-400000.0625
210.3789074420929,-400000.0625,-8668.759765625,-3010.75,-400000.0625,-13129.5703125,-400000.0625,4952.56982421875,-400000.0625
210.37891149520874,-400000.0625,-8642.009765625,-2984.3798828125,-400000.0625,-13107.6396484375,-400000.0625,4971.740234375,-400000.0625
210.4091362953186,-400000.0625,-8617.2099609375,-2963.639892578125,-400000.0625,-13087.5595703125,-400000.0625,4999.02001953125,-400000.0625
210.41454076766968,-400000.0625,-8634.51953125,-2978.800048828125,-400000.0625,-13102.33984375,-400000.0625,4985.7099609375,-400000.0625
210.41927695274353,-400000.0625,-8661.83984375,-3007.219970703125,-400000.0625,-13133.8095703125,-400000.0625,4963.58984375,-400000.0625
210.41928625106812,-400000.0625,-8667.1796875,-3012.510009765625,-400000.0625,-13145.5,-400000.0625,4956.8701171875,-400000.0625
210.41929173469543,-400000.0625,-8641.009765625,-2991.010009765625,-400000.0625,-13115.9296875,-400000.0625,4975.31982421875,-400000.0625
210.41929626464844,-400000.0625,-8615.0703125,-2963.780029296875,-400000.0625,-13084.83984375,-400000.0625,4996.43994140625,-400000.0625
210.4193000793457,-400000.0625,-8629.509765625,-2975.510009765625,-400000.0625,-13095.669921875,-400000.0625,4983.85009765625,-400000.0625
210.41930413246155,-400000.0625,-8656.3603515625,-3002.68994140625,-400000.0625,-13125.0400390625,-400000.0625,4958.2001953125,-400000.0625
210.4193081855774,-400000.0625,-8671.1396484375,-3018.239990234375,-400000.0625,-13143.830078125,-400000.0625,4951.2900390625,-400000.0625
210.41931247711182,-400000.0625,-8650.830078125,-2998.159912109375,-400000.0625,-13117.9296875,-400000.0625,4975.56005859375,-400000.0625
210.41931653022766,-400000.0625,-8620.6904296875,-2967.1201171875,-400000.0625,-13082.8896484375,-400000.0625,5002.97998046875,-400000.0625
210.4193205833435,-400000.0625,-8633.51953125,-2982.469970703125,-400000.0625,-13097.5703125,-400000.0625,4988.0,-400000.0625
210.4193263053894,-400000.0625,-8655.98046875,-3002.1201171875,-400000.0625,-13124.3203125,-400000.0625,4959.5400390625,-400000.0625
210.41933035850525,-400000.0625,-8661.7001953125,-3003.68994140625,-400000.0625,-13134.9599609375,-400000.0625,4948.14013671875,-400000.0625
210.4193344116211,-400000.0625,-8641.33984375,-2985.719970703125,-400000.0625,-13109.490234375,-400000.0625,4972.97998046875,-400000.0625
210.41933798789978,-400000.0625,-8614.58984375,-2961.489990234375,-400000.0625,-13085.1796875,-400000.0625,5004.4501953125,-400000.0625
210.46905541419983,-400000.0625,-8623.5498046875,-2974.3701171875,-400000.0625,-13106.2998046875,-400000.0625,4982.56982421875,-400000.0625
210.47842574119568,-400000.0625,-8649.490234375,-3003.070068359375,-400000.0625,-13129.8603515625,-400000.0625,4955.91015625,-400000.0625
210.48627281188965,-400000.0625,-8658.3603515625,-3010.1298828125,-400000.0625,-13136.580078125,-400000.0625,4946.18017578125,-400000.0625
210.49165415763855,-400000.0625,-8637.9501953125,-2986.050048828125,-400000.0625,-13112.01953125,-400000.0625,4972.41015625,-400000.0625
210.49613213539124,-400000.0625,-8614.6796875,-2959.25,-400000.0625,-13083.599609375,-400000.0625,4996.43994140625,-400000.0625
210.49614000320435,-400000.0625,-8614.6396484375,-2967.02001953125,-400000.0625,-13095.8095703125,-400000.0625,4990.0498046875,-400000.0625
210.4961440563202,-400000.0625,-8641.2001953125,-2991.389892578125,-400000.0625,-13122.080078125,-400000.0625,4965.35009765625,-400000.0625
210.49614810943604,-400000.0625,-8655.8798828125,-3002.97998046875,-400000.0625,-13130.7099609375,-400000.0625,4950.9501953125,-400000.0625
210.49615263938904,-400000.0625,-8632.9501953125,-2981.6201171875,-400000.0625,-13101.2001953125,-400000.0625,4974.18017578125,-400000.0625
210.49615693092346,-400000.0625,-8607.9599609375,-2956.10009765625,-400000.0625,-13075.400390625,-400000.0625,5004.97998046875,-400000.0625
210.4961609840393,-400000.0625,-8618.98046875,-2969.5,-400000.0625,-13096.8603515625,-400000.0625,4989.0498046875,-400000.0625
210.49616503715515,-400000.0625,-8644.6796875,-2996.8701171875,-400000.0625,-13127.51953125,-400000.0625,4956.6298828125,-400000.0625
210.49616885185242,-400000.0625,-8656.0703125,-3005.080078125,-400000.0625,-13135.009765625,-400000.0625,4955.009765625,-400000.0625
210.49617314338684,-400000.0625,-8633.4697265625,-2980.419921875,-400000.0625,-13103.5302734375,-400000.0625,4977.31982421875,-400000.0625
210.4961769580841,-400000.0625,-8606.4296875,-2956.9599609375,-400000.0625,-13072.1103515625,-400000.0625,4997.43994140625,-400000.0625
210.49618101119995,-400000.0625,-8625.990234375,-2970.64990234375,-400000.0625,-13095.7099609375,-400000.0625,4982.22998046875,-400000.0625
210.57382225990295,-400000.0625,-8644.8203125,-2989.820068359375,-400000.0625,-13126.08984375,-400000.0625,4969.4501953125,-400000.0625
210.58510184288025,-400000.0625,-8648.58984375,-2994.389892578125,-400000.0625,-13129.8095703125,-400000.0625,4959.490234375,-400000.0625
210.58983945846558,-400000.0625,-8612.4404296875,-2965.780029296875,-400000.0625,-13096.240234375,-400000.0625,4972.31982421875,-400000.0625
210.58984804153442,-400000.0625,-8585.2197265625,-2939.800048828125,-400000.0625,-13067.6796875,-400000.0625,4996.009765625,-400000.0625
210.58985233306885,-400000.0625,-8603.759765625,-2948.47998046875,-400000.0625,-13086.4599609375,-400000.0625,4975.64990234375,-400000.0625
210.58985710144043,-400000.0625,-8625.1298828125,-2965.260009765625,-400000.0625,-13115.0302734375,-400000.0625,4944.7099609375,-400000.0625
210.58986115455627,-400000.0625,-8634.1904296875,-2966.60009765625,-400000.0625,-13123.5595703125,-400000.0625,4938.7900390625,-400000.0625
210.58986568450928,-400000.0625,-8613.6796875,-2943.1298828125,-400000.0625,-13097.0,-400000.0625,4952.9599609375,-400000.0625
210.5898699760437,-400000.0625,-8589.9404296875,-2917.719970703125,-400000.0625,-13070.6298828125,-400000.0625,4977.419921875,-400000.0625
210.58987522125244,-400000.0625,-8609.6298828125,-2931.68994140625,-400000.0625,-13084.2197265625,-400000.0625,4956.52978515625,-400000.0625
210.58987951278687,-400000.0625,-8631.2802734375,-2955.8701171875,-400000.0625,-13109.349609375,-400000.0625,4927.16015625,-400000.0625
210.5898838043213,-400000.0625,-8638.0,-2967.360107421875,-400000.0625,-13122.1796875,-400000.0625,4922.580078125,-400000.0625
210.5898883342743,-400000.0625,-8621.3095703125,-2948.050048828125,-400000.0625,-13095.48046875,-400000.0625,4944.990234375,-400000.0625
210.58989262580872,-400000.0625,-8616.0703125,-2921.389892578125,-400000.0625,-13064.8203125,-400000.0625,4979.990234375,-400000.0625
210.58989667892456,-400000.0625,-8666.419921875,-2906.469970703125,-400000.0625,-13067.5302734375,-400000.0625,4980.0400390625,-400000.0625
210.58990097045898,-400000.0625,-8680.490234375,-2932.260009765625,-400000.0625,-13102.4404296875,-400000.0625,4949.18994140625,-400000.0625
210.60682821273804,-400000.0625,-8670.4296875,-2965.31005859375,-400000.0625,-13122.8896484375,-400000.0625,4924.580078125,-400000.0625
210.6126368045807,-400000.0625,-8674.8095703125,-2936.93994140625,-400000.0625,-13091.990234375,-400000.0625,4938.35986328125,-400000.0625
210.61745834350586,-400000.0625,-8635.1904296875,-2915.530029296875,-400000.0625,-13056.4697265625,-400000.0625,4972.509765625,-400000.0625
210.6174669265747,-400000.0625,-8657.7900390625,-2937.360107421875,-400000.0625,-13068.76953125,-400000.0625,4938.97998046875,-400000.0625
210.6174726486206,-400000.0625,-8693.0302734375,-2959.25,-400000.0625,-13088.5595703125,-400000.0625,4915.52001953125,-400000.0625
210.6174774169922,-400000.0625,-8714.2001953125,-2960.72998046875,-400000.0625,-13090.7099609375,-400000.0625,4912.89990234375,-400000.0625
210.6174817085266,-400000.0625,-8729.26953125,-2945.280029296875,-400000.0625,-13057.1396484375,-400000.0625,4936.83984375,-400000.0625
210.61748600006104,-400000.0625,-8727.41015625,-2931.449951171875,-400000.0625,-13019.0400390625,-400000.0625,4946.419921875,-400000.0625
210.61749053001404,-400000.0625,-8757.7802734375,-2963.72998046875,-400000.0625,-13021.419921875,-400000.0625,4913.85986328125,-400000.0625
210.61749482154846,-400000.0625,-8809.1396484375,-3004.64990234375,-400000.0625,-13041.5498046875,-400000.0625,4878.56982421875,-400000.0625
210.6174988746643,-400000.0625,-8851.4296875,-3015.760009765625,-400000.0625,-13034.9697265625,-400000.0625,4860.64013671875,-400000.0625
210.61750292778015,-400000.0625,-8856.5400390625,-2994.159912109375,-400000.0625,-12995.099609375,-400000.0625,4877.9501953125,-400000.0625
210.617506980896,-400000.0625,-8858.6298828125,-2972.64990234375,-400000.0625,-12960.6298828125,-400000.0625,4904.18017578125,-400000.0625
210.61751103401184,-400000.0625,-8877.900390625,-3005.699951171875,-400000.0625,-12976.599609375,-400000.0625,4870.31982421875,-400000.0625
210.61751508712769,-400000.0625,-8923.7197265625,-3044.4599609375,-400000.0625,-12997.7197265625,-400000.0625,4824.97021484375,-400000.0625
210.61751914024353,-400000.0625,-8968.349609375,-3050.89990234375,-400000.0625,-13002.490234375,-400000.0625,4814.52978515625,-400000.0625
210.66330242156982,-400000.0625,-8960.2001953125,-3016.659912109375,-400000.0625,-12969.7802734375,-400000.0625,4852.6298828125,-400000.0625
210.6694016456604,-400000.0625,-8936.9296875,-2999.2099609375,-400000.0625,-12935.259765625,-400000.0625,4868.89013671875,-400000.0625
210.67491579055786,-400000.0625,-8960.8203125,-3031.5400390625,-400000.0625,-12950.51953125,-400000.0625,4840.18017578125,-400000.0625
210.68573260307312,-400000.0625,-8999.8701171875,-3051.949951171875,-400000.0625,-12971.4501953125,-400000.0625,4819.68017578125,-400000.0625
210.6917314529419,-400000.0625,-9032.4404296875,-3062.679931640625,-400000.0625,-12978.599609375,-400000.0625,4804.330078125,-400000.0625
210.69710326194763,-400000.0625,-9024.33984375,-3045.080078125,-400000.0625,-12949.5595703125,-400000.0625,4821.25,-400000.0625
210.7030086517334,-400000.0625,-9021.1396484375,-3013.0400390625,-400000.0625,-12921.6201171875,-400000.0625,4853.25,-400000.0625
210.7086570262909,-400000.0625,-9047.2197265625,-3029.72998046875,-400000.0625,-12935.400390625,-400000.0625,4843.759765625,-400000.0625
210.71452164649963,-400000.0625,-9068.9697265625,-3066.02001953125,-400000.0625,-12954.4296875,-400000.0625,4803.31982421875,-400000.0625
210.72041654586792,-400000.0625,-9091.08984375,-3081.179931640625,-400000.0625,-12965.2998046875,-400000.0625,4789.02001953125,-400000.0625
210.72637152671814,-400000.0625,-9075.6396484375,-3065.06005859375,-400000.0625,-12942.98046875,-400000.0625,4804.0400390625,-400000.0625
210.73259687423706,-400000.0625,-9054.9501953125,-3032.489990234375,-400000.0625,-12911.849609375,-400000.0625,4834.83984375,-400000.0625
210.7379081249237,-400000.0625,-9078.740234375,-3044.840087890625,-400000.0625,-12926.8701171875,-400000.0625,4821.97021484375,-400000.0625
210.74341011047363,-400000.0625,-9120.66015625,-3068.449951171875,-400000.0625,-12949.7998046875,-400000.0625,4804.0400390625,-400000.0625
210.7489411830902,-400000.0625,-9122.419921875,-3076.409912109375,-400000.0625,-12958.4296875,-400000.0625,4798.7001953125,-400000.0625
210.75449466705322,-400000.0625,-9096.7197265625,-3066.639892578125,-400000.0625,-12933.7802734375,-400000.0625,4803.31982421875,-400000.0625
210.75974798202515,-400000.0625,-9089.1796875,-3051.81005859375,-400000.0625,-12908.0302734375,-400000.0625,4819.490234375,-400000.0625
210.76485323905945,-400000.0625,-9110.5,-3063.010009765625,-400000.0625,-12923.33984375,-400000.0625,4803.31982421875,-400000.0625
210.77049565315247,-400000.0625,-9158.1796875,-3070.969970703125,-400000.0625,-12945.3701171875,-400000.0625,4785.10986328125,-400000.0625
210.77560949325562,-400000.0625,-9164.9501953125,-3098.919921875,-400000.0625,-12960.240234375,-400000.0625,4773.669921875,-400000.0625
210.78567838668823,-400000.0625,-9135.91015625,-3087.85009765625,-400000.0625,-12940.98046875,-400000.0625,4787.830078125,-400000.0625
210.79155921936035,-400000.0625,-9105.01953125,-3055.2900390625,-400000.0625,-12906.1201171875,-400000.0625,4816.52978515625,-400000.0625
210.79671621322632,-400000.0625,-9120.0400390625,-3063.110107421875,-400000.0625,-12918.4697265625,-400000.0625,4801.4599609375,-400000.0625
210.80237221717834,-400000.0625,-9156.990234375,-3083.0400390625,-400000.0625,-12940.169921875,-400000.0625,4773.85986328125,-400000.0625
210.80749320983887,-400000.0625,-9179.01953125,-3089.47998046875,-400000.0625,-12953.240234375,-400000.0625,4761.1201171875,-400000.0625
210.81293845176697,-400000.0625,-9161.5703125,-3057.3798828125,-400000.0625,-12931.400390625,-400000.0625,4792.740234375,-400000.0625
210.81813383102417,-400000.0625,-9122.419921875,-3040.080078125,-400000.0625,-12903.98046875,-400000.0625,4820.43994140625,-400000.0625
210.82330989837646,-400000.0625,-9130.2900390625,-3056.340087890625,-400000.0625,-12914.7099609375,-400000.0625,4779.81982421875,-400000.0625
210.82840824127197,-400000.0625,-9158.7998046875,-3076.97998046875,-400000.0625,-12944.599609375,-400000.0625,4752.8701171875,-400000.0625
210.83376455307007,-400000.0625,-9170.4404296875,-3075.889892578125,-400000.0625,-12954.900390625,-400000.0625,4741.56982421875,-400000.0625
210.8387315273285,-400000.0625,-9148.2197265625,-3051.18994140625,-400000.0625,-12922.3798828125,-400000.0625,4763.509765625,-400000.0625
210.83873915672302,-400000.0625,-9138.7802734375,-3025.8701171875,-400000.0625,-12899.830078125,-400000.0625,4784.10986328125,-400000.0625
210.8387451171875,-400000.0625,-9155.7001953125,-3037.070068359375,-400000.0625,-12922.48046875,-400000.0625,4771.08984375,-400000.0625
210.83874893188477,-400000.0625,-9184.169921875,-3042.7900390625,-400000.0625,-12942.83984375,-400000.0625,4750.68017578125,-400000.0625
210.83875274658203,-400000.0625,-9173.58984375,-3044.840087890625,-400000.0625,-12948.1298828125,-400000.0625,4719.39990234375,-400000.0625
210.8387565612793,-400000.0625,-9157.0400390625,-3013.89990234375,-400000.0625,-12922.150390625,-400000.0625,4733.47021484375,-400000.0625
210.83876037597656,-400000.0625,-9117.650390625,-2983.52001953125,-400000.0625,-12895.009765625,-400000.0625,4781.6298828125,-400000.0625
210.83876419067383,-400000.0625,-9133.2001953125,-3006.60009765625,-400000.0625,-12918.2802734375,-400000.0625,4750.43994140625,-400000.0625
210.8387680053711,-400000.0625,-9157.419921875,-3024.239990234375,-400000.0625,-12945.509765625,-400000.0625,4709.580078125,-400000.0625
210.84400987625122,-400000.0625,-9167.91015625,-3026.340087890625,-400000.0625,-12956.240234375,-400000.0625,4700.89990234375,-400000.0625
210.84920287132263,-400000.0625,-9138.0595703125,-2987.10009765625,-400000.0625,-12921.1904296875,-400000.0625,4722.97998046875,-400000.0625
210.85401248931885,-400000.0625,-9119.6103515625,-2950.239990234375,-400000.0625,-12889.3896484375,-400000.0625,4753.5400390625,-400000.0625
210.85402059555054,-400000.0625,-9132.580078125,-2938.4599609375,-400000.0625,-12906.740234375,-400000.0625,4744.43017578125,-400000.0625
210.85402512550354,-400000.0625,-9127.4697265625,-2947.3798828125,-400000.0625,-12929.919921875,-400000.0625,4718.97021484375,-400000.0625
210.8540289402008,-400000.0625,-9114.1201171875,-2963.590087890625,-400000.0625,-12937.8798828125,-400000.0625,4693.31982421875,-400000.0625
210.85403299331665,-400000.0625,-9098.9599609375,-2935.550048828125,-400000.0625,-12916.0400390625,-400000.0625,4697.31982421875,-400000.0625
210.8540370464325,-400000.0625,-9069.0595703125,-2891.830078125,-400000.0625,-12889.5302734375,-400000.0625,4719.8798828125,-400000.0625
210.85404086112976,-400000.0625,-9070.58984375,-2890.6298828125,-400000.0625,-12897.919921875,-400000.0625,4708.669921875,-400000.0625
210.8656666278839,-400000.0625,-9083.6103515625,-2905.080078125,-400000.0625,-12924.76953125,-400000.0625,4683.16015625,-400000.0625
210.87089204788208,-400000.0625,-9083.419921875,-2901.97998046875,-400000.0625,-12947.8896484375,-400000.0625,4666.66015625,-400000.0625
210.87582445144653,-400000.0625,-9056.3798828125,-2867.169921875,-400000.0625,-12928.6796875,-400000.0625,4691.93994140625,-400000.0625
210.88020825386047,-400000.0625,-9010.7001953125,-2823.02001953125,-400000.0625,-12893.76953125,-400000.0625,4724.06982421875,-400000.0625
210.88511991500854,-400000.0625,-9011.3203125,-2827.219970703125,-400000.0625,-12906.650390625,-400000.0625,4709.669921875,-400000.0625
210.8851282596588,-400000.0625,-9027.7197265625,-2837.7099609375,-400000.0625,-12939.740234375,-400000.0625,4681.02001953125,-400000.0625
210.88513255119324,-400000.0625,-9024.669921875,-2838.280029296875,-400000.0625,-12952.66015625,-400000.0625,4672.9599609375,-400000.0625
210.8851363658905,-400000.0625,-8970.1201171875,-2797.219970703125,-400000.0625,-12920.8095703125,-400000.0625,4699.18017578125,-400000.0625
210.88514018058777,-400000.0625,-8934.1201171875,-2762.4599609375,-400000.0625,-12891.6298828125,-400000.0625,4726.35986328125,-400000.0625
210.88514399528503,-400000.0625,-8953.5703125,-2775.47998046875,-400000.0625,-12913.23046875,-400000.0625,4711.06005859375,-400000.0625
210.88514804840088,-400000.0625,-8988.240234375,-2791.360107421875,-400000.0625,-12944.0302734375,-400000.0625,4672.580078125,-400000.0625
210.88515162467957,-400000.0625,-8994.8701171875,-2799.610107421875,-400000.0625,-12950.7099609375,-400000.0625,4662.7099609375,-400000.0625
210.88515615463257,-400000.0625,-8953.1396484375,-2789.68994140625,-400000.0625,-12927.9599609375,-400000.0625,4692.97998046875,-400000.0625
210.8851602077484,-400000.0625,-8914.419921875,-2764.75,-400000.0625,-12911.3701171875,-400000.0625,4710.009765625,-400000.0625
210.88516402244568,-400000.0625,-8942.41015625,-2783.35009765625,-400000.0625,-12931.5400390625,-400000.0625,4694.1298828125,-400000.0625
210.88516807556152,-400000.0625,-8971.2197265625,-2816.77001953125,-400000.0625,-12956.48046875,-400000.0625,4672.6201171875,-400000.0625
210.94955372810364,-400000.0625,-8971.740234375,-2834.080078125,-400000.0625,-12964.8203125,-400000.0625,4662.419921875,-400000.0625
210.95506072044373,-400000.0625,-8942.9404296875,-2817.820068359375,-400000.0625,-12938.8798828125,-400000.0625,4687.35986328125,-400000.0625
210.96033430099487,-400000.0625,-8911.23046875,-2794.27001953125,-400000.0625,-12909.0302734375,-400000.0625,4722.830078125,-400000.0625
210.9653844833374,-400000.0625,-8928.349609375,-2821.919921875,-400000.0625,-12923.48046875,-400000.0625,4712.72998046875,-400000.0625
210.9705057144165,-400000.0625,-8947.23046875,-2852.5400390625,-400000.0625,-12953.330078125,-400000.0625,4696.60986328125,-400000.0625
210.9758586883545,-400000.0625,-8945.2802734375,-2871.469970703125,-400000.0625,-12976.1201171875,-400000.0625,4695.56005859375,-400000.0625
210.98586773872375,-400000.0625,-8906.080078125,-2861.070068359375,-400000.0625,-12952.2802734375,-400000.0625,4724.64990234375,-400000.0625
210.99098110198975,-400000.0625,-8871.990234375,-2849.909912109375,-400000.0625,-12919.8603515625,-400000.0625,4753.72998046875,-400000.0625
210.99588918685913,-400000.0625,-8873.849609375,-2873.659912109375,-400000.0625,-12941.3603515625,-400000.0625,4750.6298828125,-400000.0625
210.99589800834656,-400000.0625,-8892.919921875,-2916.6201171875,-400000.0625,-12978.41015625,-400000.0625,4735.85009765625,-400000.0625
210.99590301513672,-400000.0625,-8894.01953125,-2941.469970703125,-400000.0625,-12992.48046875,-400000.0625,4733.22998046875,-400000.0625
210.99590730667114,-400000.0625,-8854.91015625,-2931.639892578125,-400000.0625,-12968.349609375,-400000.0625,4767.89990234375,-400000.0625
210.995911359787,-400000.0625,-8815.48046875,-2916.239990234375,-400000.0625,-12936.9296875,-400000.0625,4810.81005859375,-400000.0625
210.99591517448425,-400000.0625,-8819.2998046875,-2944.989990234375,-400000.0625,-12955.8095703125,-400000.0625,4808.85986328125,-400000.0625
210.99591994285583,-400000.0625,-8828.830078125,-2980.179931640625,-400000.0625,-12993.150390625,-400000.0625,4802.60986328125,-400000.0625
210.9959237575531,-400000.0625,-8830.830078125,-3006.1201171875,-400000.0625,-13011.41015625,-400000.0625,4805.990234375,-400000.0625
210.99592900276184,-400000.0625,-8794.169921875,-2992.489990234375,-400000.0625,-12994.33984375,-400000.0625,4842.0,-400000.0625
210.99593305587769,-400000.0625,-8747.48046875,-2976.469970703125,-400000.0625,-12975.26953125,-400000.0625,4882.3798828125,-400000.0625
210.9959373474121,-400000.0625,-8745.240234375,-2997.969970703125,-400000.0625,-12996.25,-400000.0625,4881.91015625,-400000.0625
210.99594140052795,-400000.0625,-8759.5498046875,-3027.389892578125,-400000.0625,-13027.7197265625,-400000.0625,4872.75,-400000.0625
210.99594521522522,-400000.0625,-8753.8701171875,-3043.27001953125,-400000.0625,-13047.7900390625,-400000.0625,4875.14013671875,-400000.0625
210.99594926834106,-400000.0625,-8719.400390625,-3020.0,-400000.0625,-13022.849609375,-400000.0625,4911.56982421875,-400000.0625
210.9959533214569,-400000.0625,-8683.9697265625,-3000.5,-400000.0625,-13000.3896484375,-400000.0625,4945.990234375,-400000.0625
210.99595737457275,-400000.0625,-8678.6298828125,-3016.570068359375,-400000.0625,-13028.0498046875,-400000.0625,4945.52001953125,-400000.0625
210.99596190452576,-400000.0625,-8693.5498046875,-3043.320068359375,-400000.0625,-13061.6201171875,-400000.0625,4927.919921875,-400000.0625
210.99596619606018,-400000.0625,-8691.7900390625,-3053.050048828125,-400000.0625,-13079.740234375,-400000.0625,4926.39990234375,-400000.0625
210.9959704875946,-400000.0625,-8649.7802734375,-3025.010009765625,-400000.0625,-13062.2900390625,-400000.0625,4954.72021484375,-400000.0625
210.99597430229187,-400000.0625,-8615.6904296875,-2998.639892578125,-400000.0625,-13036.58984375,-400000.0625,4991.9599609375,-400000.0625
210.9959785938263,-400000.0625,-8620.6396484375,-3007.93994140625,-400000.0625,-13048.509765625,-400000.0625,4978.22998046875,-400000.0625
210.99598240852356,-400000.0625,-8637.7197265625,-3023.10009765625,-400000.0625,-13079.4501953125,-400000.0625,4952.52978515625,-400000.0625
210.99598622322083,-400000.0625,-8639.669921875,-3033.39990234375,-400000.0625,-13095.900390625,-400000.0625,4946.52001953125,-400000.0625
210.9959900379181,-400000.0625,-8603.5703125,-3004.889892578125,-400000.0625,-13070.7802734375,-400000.0625,4981.7099609375,-400000.0625
211.04554343223572,-400000.0625,-8573.099609375,-2975.419921875,-400000.0625,-13048.2197265625,-400000.0625,5006.27001953125,-400000.0625
211.05140709877014,-400000.0625,-8583.3603515625,-2981.7099609375,-400000.0625,-13066.33984375,-400000.0625,4991.43994140625,-400000.0625
211.05639457702637,-400000.0625,-8601.48046875,-3004.219970703125,-400000.0625,-13096.0498046875,-400000.0625,4969.64990234375,-400000.0625
211.05640244483948,-400000.0625,-8608.150390625,-3014.760009765625,-400000.0625,-13111.3095703125,-400000.0625,4963.5400390625,-400000.0625
211.05640721321106,-400000.0625,-8583.01953125,-2992.25,-400000.0625,-13092.900390625,-400000.0625,4989.81982421875,-400000.0625
211.05641174316406,-400000.0625,-8550.6904296875,-2961.830078125,-400000.0625,-13068.0595703125,-400000.0625,5014.08984375,-400000.0625
211.06169295310974,-400000.0625,-8558.7998046875,-2973.3701171875,-400000.0625,-13077.1201171875,-400000.0625,5000.93017578125,-400000.0625
211.06676054000854,-400000.0625,-8578.1103515625,-2995.969970703125,-400000.0625,-13103.33984375,-400000.0625,4978.419921875,-400000.0625
211.0721139907837,-400000.0625,-8588.509765625,-3006.64990234375,-400000.0625,-13123.66015625,-400000.0625,4970.740234375,-400000.0625
211.07724905014038,-400000.0625,-8563.5703125,-2985.719970703125,-400000.0625,-13100.580078125,-400000.0625,4998.97021484375,-400000.0625
211.08747959136963,-400000.0625,-8527.08984375,-2950.47998046875,-400000.0625,-13067.490234375,-400000.0625,5020.240234375,-400000.0625
211.09303259849548,-400000.0625,-8536.5302734375,-2957.199951171875,-400000.0625,-13086.26953125,-400000.0625,5008.97998046875,-400000.0625
211.09809517860413,-400000.0625,-8566.9501953125,-2984.52001953125,-400000.0625,-13112.169921875,-400000.0625,4986.47998046875,-400000.0625
211.10365438461304,-400000.0625,-8579.6796875,-2994.820068359375,-400000.0625,-13119.080078125,-400000.0625,4973.83984375,-400000.0625
211.10880708694458,-400000.0625,-8557.26953125,-2972.360107421875,-400000.0625,-13102.099609375,-400000.0625,5001.259765625,-400000.0625
211.1140546798706,-400000.0625,-8524.75,-2942.280029296875,-400000.0625,-13077.8798828125,-400000.0625,5033.02001953125,-400000.0625
211.1194770336151,-400000.0625,-8535.0,-2953.580078125,-400000.0625,-13089.990234375,-400000.0625,5017.330078125,-400000.0625
211.12458181381226,-400000.0625,-8566.48046875,-2980.570068359375,-400000.0625,-13116.4599609375,-400000.0625,4995.39013671875,-400000.0625
211.12981176376343,-400000.0625,-8570.91015625,-2986.14990234375,-400000.0625,-13130.0498046875,-400000.0625,4983.14013671875,-400000.0625
211.13493657112122,-400000.0625,-8535.8203125,-2955.14990234375,-400000.0625,-13102.8203125,-400000.0625,5004.5,-400000.0625
211.1404163837433,-400000.0625,-8506.2998046875,-2925.679931640625,-400000.0625,-13071.16015625,-400000.0625,5034.35009765625,-400000.0625
211.14549589157104,-400000.0625,-8521.26953125,-2941.75,-400000.0625,-13086.8896484375,-400000.0625,5024.47998046875,-400000.0625
211.1510353088379,-400000.0625,-8543.400390625,-2963.68994140625,-400000.0625,-13111.3095703125,-400000.0625,5000.8798828125,-400000.0625
211.15613317489624,-400000.0625,-8558.9404296875,-2973.080078125,-400000.0625,-13126.330078125,-400000.0625,4984.56982421875,-400000.0625
211.1618161201477,-400000.0625,-8538.490234375,-2955.719970703125,-400000.0625,-13101.91015625,-400000.0625,5002.64013671875,-400000.0625
211.16697001457214,-400000.0625,-8507.8701171875,-2927.590087890625,-400000.0625,-13073.0595703125,-400000.0625,5033.259765625,-400000.0625
211.17247414588928,-400000.0625,-8518.41015625,-2936.219970703125,-400000.0625,-13082.3203125,-400000.0625,5020.08984375,-400000.0625
211.17754817008972,-400000.0625,-8546.830078125,-2962.449951171875,-400000.0625,-13109.5400390625,-400000.0625,4995.25,-400000.0625
211.18903493881226,-400000.0625,-8565.8095703125,-2976.989990234375,-400000.0625,-13131.8095703125,-400000.0625,4985.14013671875,-400000.0625
211.19452905654907,-400000.0625,-8544.5400390625,-2956.25,-400000.0625,-13105.580078125,-400000.0625,5003.2099609375,-400000.0625
211.19987559318542,-400000.0625,-8517.740234375,-2925.39990234375,-400000.0625,-13076.6904296875,-400000.0625,5030.68017578125,-400000.0625
211.20476388931274,-400000.0625,-8532.48046875,-2937.56005859375,-400000.0625,-13092.6103515625,-400000.0625,5014.27978515625,-400000.0625
211.20477032661438,-400000.0625,-8554.9404296875,-2960.010009765625,-400000.0625,-13117.41015625,-400000.0625,4993.39013671875,-400000.0625
211.20477628707886,-400000.0625,-8569.76953125,-2971.60009765625,-400000.0625,-13133.4296875,-400000.0625,4981.66015625,-400000.0625
211.20478010177612,-400000.0625,-8542.73046875,-2947.139892578125,-400000.0625,-13105.0595703125,-400000.0625,5009.3701171875,-400000.0625
211.20478415489197,-400000.0625,-8513.58984375,-2921.8701171875,-400000.0625,-13072.4404296875,-400000.0625,5038.35986328125,-400000.0625
211.2047884464264,-400000.0625,-8525.900390625,-2938.4599609375,-400000.0625,-13085.3203125,-400000.0625,5023.33984375,-400000.0625
211.2047917842865,-400000.0625,-8547.349609375,-2960.8701171875,-400000.0625,-13108.5400390625,-400000.0625,4994.580078125,-400000.0625
211.20479559898376,-400000.0625,-8558.080078125,-2968.360107421875,-400000.0625,-13127.2802734375,-400000.0625,4982.3798828125,-400000.0625
211.20479941368103,-400000.0625,-8537.48046875,-2946.760009765625,-400000.0625,-13106.8203125,-400000.0625,5009.83984375,-400000.0625
211.2048261165619,-400000.0625,-8516.8798828125,-2923.35009765625,-400000.0625,-13078.2099609375,-400000.0625,5035.830078125,-400000.0625
211.20482969284058,-400000.0625,-8530.51953125,-2937.889892578125,-400000.0625,-13092.4697265625,-400000.0625,5017.0,-400000.0625
211.20483350753784,-400000.0625,-8556.5595703125,-2964.260009765625,-400000.0625,-13124.23046875,-400000.0625,4995.009765625,-400000.0625
211.20483708381653,-400000.0625,-8569.91015625,-2977.610107421875,-400000.0625,-13137.6298828125,-400000.0625,4981.66015625,-400000.0625
211.20484066009521,-400000.0625,-8539.76953125,-2951.239990234375,-400000.0625,-13104.76953125,-400000.0625,5007.31982421875,-400000.0625
211.2048442363739,-400000.0625,-8515.8798828125,-2927.02001953125,-400000.0625,-13076.400390625,-400000.0625,5030.5400390625,-400000.0625
211.2048478126526,-400000.0625,-8529.330078125,-2940.93994140625,-400000.0625,-13096.759765625,-400000.0625,5013.7001953125,-400000.0625
211.20485138893127,-400000.0625,-8552.41015625,-2967.31005859375,-400000.0625,-13126.7998046875,-400000.0625,4993.39013671875,-400000.0625
211.24667620658875,-400000.0625,-8564.2802734375,-2980.280029296875,-400000.0625,-13136.76953125,-400000.0625,4980.56005859375,-400000.0625
211.25302171707153,-400000.0625,-8536.48046875,-2951.18994140625,-400000.0625,-13101.6298828125,-400000.0625,5002.2099609375,-400000.0625
211.25821614265442,-400000.0625,-8515.0703125,-2928.31005859375,-400000.0625,-13076.9697265625,-400000.0625,5034.39990234375,-400000.0625
211.26310062408447,-400000.0625,-8529.849609375,-2940.510009765625,-400000.0625,-13096.51953125,-400000.0625,5013.60986328125,-400000.0625
211.263108253479,-400000.0625,-8552.8896484375,-2960.159912109375,-400000.0625,-13119.599609375,-400000.0625,4984.27978515625,-400000.0625
211.26311326026917,-400000.0625,-8561.23046875,-2973.75,-400000.0625,-13136.6298828125,-400000.0625,4975.75,-400000.0625
211.263117313385,-400000.0625,-8536.8603515625,-2952.389892578125,-400000.0625,-13102.8203125,-400000.0625,5001.35009765625,-400000.0625
211.26312112808228,-400000.0625,-8513.2099609375,-2924.6298828125,-400000.0625,-13073.0595703125,-400000.0625,5029.43994140625,-400000.0625
211.26312494277954,-400000.0625,-8526.2802734375,-2938.409912109375,-400000.0625,-13094.0,-400000.0625,5015.56005859375,-400000.0625
211.2631287574768,-400000.0625,-8551.0703125,-2958.580078125,-400000.0625,-13122.419921875,-400000.0625,4986.72021484375,-400000.0625
211.2631323337555,-400000.0625,-8558.849609375,-2967.409912109375,-400000.0625,-13134.1904296875,-400000.0625,4975.18017578125,-400000.0625
211.26313614845276,-400000.0625,-8540.25,-2952.47998046875,-400000.0625,-13108.73046875,-400000.0625,4995.2998046875,-400000.0625
211.26313972473145,-400000.0625,-8511.9296875,-2919.9599609375,-400000.0625,-13080.6904296875,-400000.0625,5026.0498046875,-400000.0625
211.2631437778473,-400000.0625,-8526.23046875,-2934.070068359375,-400000.0625,-13093.1904296875,-400000.0625,5016.3798828125,-400000.0625
211.26314783096313,-400000.0625,-8549.169921875,-2955.9599609375,-400000.0625,-13118.4599609375,-400000.0625,4991.47998046875,-400000.0625
211.26315188407898,-400000.0625,-8564.849609375,-2969.840087890625,-400000.0625,-13129.4697265625,-400000.0625,4980.419921875,-400000.0625
211.30527544021606,-400000.0625,-8542.25,-2947.760009765625,-400000.0625,-13102.2900390625,-400000.0625,5005.83984375,-400000.0625
211.31547474861145,-400000.0625,-8515.1201171875,-2923.6298828125,-400000.0625,-13086.75,-400000.0625,5032.68017578125,-400000.0625
211.32093906402588,-400000.0625,-8525.3203125,-2933.360107421875,-400000.0625,-13095.5703125,-400000.0625,5021.0498046875,-400000.0625
211.3258867263794,-400000.0625,-8552.41015625,-2955.14990234375,-400000.0625,-13118.98046875,-400000.0625,4996.43994140625,-400000.0625
211.32589435577393,-400000.0625,-8562.1396484375,-2968.260009765625,-400000.0625,-13132.0498046875,-400000.0625,4983.43017578125,-400000.0625
211.32589888572693,-400000.0625,-8537.48046875,-2949.570068359375,-400000.0625,-13103.580078125,-400000.0625,5000.77978515625,-400000.0625
211.32590317726135,-400000.0625,-8511.0703125,-2932.360107421875,-400000.0625,-13075.6904296875,-400000.0625,5024.39013671875,-400000.0625
211.32590675354004,-400000.0625,-8550.0302734375,-2951.9599609375,-400000.0625,-13091.849609375,-400000.0625,5009.509765625,-400000.0625
211.32591080665588,-400000.0625,-8573.4404296875,-2960.010009765625,-400000.0625,-13117.4599609375,-400000.0625,4988.3798828125,-400000.0625
211.3259153366089,-400000.0625,-8574.76953125,-2980.0400390625,-400000.0625,-13127.2802734375,-400000.0625,4979.31982421875,-400000.0625
211.32591915130615,-400000.0625,-8555.990234375,-2955.199951171875,-400000.0625,-13108.7802734375,-400000.0625,5001.93017578125,-400000.0625
211.325923204422,-400000.0625,-8528.3798828125,-2924.72998046875,-400000.0625,-13080.98046875,-400000.0625,5026.77001953125,-400000.0625
211.32592749595642,-400000.0625,-8533.5302734375,-2953.719970703125,-400000.0625,-13091.7998046875,-400000.0625,5012.47021484375,-400000.0625
211.3259313106537,-400000.0625,-8578.6396484375,-2966.169921875,-400000.0625,-13115.8798828125,-400000.0625,4983.85009765625,-400000.0625
211.32593512535095,-400000.0625,-8587.169921875,-2983.52001953125,-400000.0625,-13139.5400390625,-400000.0625,4971.5498046875,-400000.0625
211.32593870162964,-400000.0625,-8552.8896484375,-2980.800048828125,-400000.0625,-13115.650390625,-400000.0625,5000.06982421875,-400000.0625
211.3727331161499,-400000.0625,-8532.0,-2929.159912109375,-400000.0625,-13084.080078125,-400000.0625,5023.85986328125,-400000.0625
211.3782660961151,-400000.0625,-8542.16015625,-2927.070068359375,-400000.0625,-13093.6201171875,-400000.0625,5010.18017578125,-400000.0625
211.3835551738739,-400000.0625,-8566.51953125,-2961.449951171875,-400000.0625,-13112.400390625,-400000.0625,4991.81982421875,-400000.0625
211.38852667808533,-400000.0625,-8584.41015625,-2987.0,-400000.0625,-13127.419921875,-400000.0625,4974.64990234375,-400000.0625
211.38853549957275,-400000.0625,-8551.5498046875,-2961.489990234375,-400000.0625,-13107.8701171875,-400000.0625,4999.35009765625,-400000.0625
211.38854002952576,-400000.0625,-8515.1201171875,-2955.47998046875,-400000.0625,-13073.9697265625,-400000.0625,5018.52001953125,-400000.0625
211.38854432106018,-400000.0625,-8552.41015625,-2947.139892578125,-400000.0625,-13086.1298828125,-400000.0625,5014.990234375,-400000.0625
211.38854789733887,-400000.0625,-8563.900390625,-2948.860107421875,-400000.0625,-13117.98046875,-400000.0625,4993.580078125,-400000.0625
211.3885519504547,-400000.0625,-8576.8203125,-2966.260009765625,-400000.0625,-13131.7197265625,-400000.0625,4982.0400390625,-400000.0625
211.38855576515198,-400000.0625,-8557.849609375,-2950.050048828125,-400000.0625,-13106.2998046875,-400000.0625,5004.35986328125,-400000.0625
211.38855934143066,-400000.0625,-8527.7998046875,-2921.719970703125,-400000.0625,-13072.73046875,-400000.0625,5031.2998046875,-400000.0625
211.3936324119568,-400000.0625,-8533.33984375,-2932.68994140625,-400000.0625,-13086.23046875,-400000.0625,5017.47021484375,-400000.0625
211.39856004714966,-400000.0625,-8561.900390625,-2958.110107421875,-400000.0625,-13120.080078125,-400000.0625,4992.2900390625,-400000.0625
211.3985686302185,-400000.0625,-8578.58984375,-2975.080078125,-400000.0625,-13133.6201171875,-400000.0625,4977.0400390625,-400000.0625
211.39857363700867,-400000.0625,-8555.4599609375,-2955.010009765625,-400000.0625,-13106.0595703125,-400000.0625,4996.43994140625,-400000.0625
211.3985776901245,-400000.0625,-8532.240234375,-2931.7900390625,-400000.0625,-13080.2197265625,-400000.0625,5023.3798828125,-400000.0625
211.4294056892395,-400000.0625,-8549.169921875,-2947.139892578125,-400000.0625,-13090.7998046875,-400000.0625,5010.93994140625,-400000.0625
211.43900108337402,-400000.0625,-8572.8701171875,-2969.929931640625,-400000.0625,-13123.9404296875,-400000.0625,4984.08984375,-400000.0625
211.44394421577454,-400000.0625,-8561.330078125,-2967.449951171875,-400000.0625,-13131.8095703125,-400000.0625,4969.41015625,-400000.0625
211.44395232200623,-400000.0625,-8517.83984375,-2939.27001953125,-400000.0625,-13103.4404296875,-400000.0625,5001.97021484375,-400000.0625
211.4439570903778,-400000.0625,-8485.0302734375,-2912.330078125,-400000.0625,-13084.83984375,-400000.0625,5034.919921875,-400000.0625
211.44396114349365,-400000.0625,-8478.9296875,-2913.280029296875,-400000.0625,-13101.099609375,-400000.0625,5025.43994140625,-400000.0625
211.44396471977234,-400000.0625,-8475.16015625,-2923.5400390625,-400000.0625,-13126.330078125,-400000.0625,5006.5,-400000.0625
211.44396901130676,-400000.0625,-8456.990234375,-2924.43994140625,-400000.0625,-13141.919921875,-400000.0625,4997.97021484375,-400000.0625
211.44397377967834,-400000.0625,-8419.4697265625,-2899.31005859375,-400000.0625,-13130.759765625,-400000.0625,5036.740234375,-400000.0625
211.4439775943756,-400000.0625,-8373.7900390625,-2862.8798828125,-400000.0625,-13105.8701171875,-400000.0625,5063.009765625,-400000.0625
211.44398093223572,-400000.0625,-8354.0,-2857.639892578125,-400000.0625,-13114.3095703125,-400000.0625,5060.580078125,-400000.0625
211.44398498535156,-400000.0625,-8357.8095703125,-2871.469970703125,-400000.0625,-13141.16015625,-400000.0625,5048.509765625,-400000.0625
211.44398856163025,-400000.0625,-8340.41015625,-2865.1201171875,-400000.0625,-13153.98046875,-400000.0625,5037.5,-400000.0625
211.44399213790894,-400000.0625,-8305.599609375,-2838.7099609375,-400000.0625,-13137.4404296875,-400000.0625,5068.02001953125,-400000.0625
211.44399571418762,-400000.0625,-8262.830078125,-2799.320068359375,-400000.0625,-13114.01953125,-400000.0625,5099.009765625,-400000.0625
211.4439995288849,-400000.0625,-8244.4697265625,-2792.219970703125,-400000.0625,-13120.7001953125,-400000.0625,5094.10009765625,-400000.0625
211.49747943878174,-400000.0625,-8244.4697265625,-2800.179931640625,-400000.0625,-13147.4501953125,-400000.0625,5075.8798828125,-400000.0625
211.50348711013794,-400000.0625,-8248.5703125,-2806.429931640625,-400000.0625,-13168.150390625,-400000.0625,5063.8701171875,-400000.0625
211.50850892066956,-400000.0625,-8213.1904296875,-2775.18994140625,-400000.0625,-13148.8798828125,-400000.0625,5099.43994140625,-400000.0625
211.51381850242615,-400000.0625,-8169.56005859375,-2741.909912109375,-400000.0625,-13123.1298828125,-400000.0625,5142.1201171875,-400000.0625
211.51931238174438,-400000.0625,-8163.740234375,-2738.050048828125,-400000.0625,-13127.66015625,-400000.0625,5129.52978515625,-400000.0625
211.5244026184082,-400000.0625,-8174.3701171875,-2749.25,-400000.0625,-13154.26953125,-400000.0625,5114.56005859375,-400000.0625
211.52959299087524,-400000.0625,-8184.580078125,-2762.75,-400000.0625,-13177.58984375,-400000.0625,5110.68994140625,-400000.0625
211.538893699646,-400000.0625,-8151.580078125,-2737.090087890625,-400000.0625,-13147.7802734375,-400000.0625,5136.81982421875,-400000.0625
211.54403495788574,-400000.0625,-8115.6298828125,-2703.47998046875,-400000.0625,-13113.9296875,-400000.0625,5161.0498046875,-400000.0625
211.54936265945435,-400000.0625,-8120.8701171875,-2712.300048828125,-400000.0625,-13133.099609375,-400000.0625,5159.330078125,-400000.0625
211.5545871257782,-400000.0625,-8133.83984375,-2726.75,-400000.0625,-13163.6201171875,-400000.0625,5140.5400390625,-400000.0625
211.5599856376648,-400000.0625,-8140.08984375,-2731.56005859375,-400000.0625,-13174.1103515625,-400000.0625,5130.669921875,-400000.0625
211.56523609161377,-400000.0625,-8117.52978515625,-2711.9599609375,-400000.0625,-13148.2099609375,-400000.0625,5147.83984375,-400000.0625
211.57079482078552,-400000.0625,-8083.009765625,-2678.969970703125,-400000.0625,-13124.7998046875,-400000.0625,5177.740234375,-400000.0625
211.57581114768982,-400000.0625,-8094.169921875,-2685.169921875,-400000.0625,-13134.7197265625,-400000.0625,5174.919921875,-400000.0625
211.5819387435913,-400000.0625,-8119.009765625,-2709.9599609375,-400000.0625,-13155.83984375,-400000.0625,5146.83984375,-400000.0625
211.58700609207153,-400000.0625,-8130.7900390625,-2722.449951171875,-400000.0625,-13171.009765625,-400000.0625,5133.81982421875,-400000.0625
211.5922429561615,-400000.0625,-8109.89990234375,-2698.56005859375,-400000.0625,-13147.58984375,-400000.0625,5157.85009765625,-400000.0625
211.59720039367676,-400000.0625,-8083.68017578125,-2674.679931640625,-400000.0625,-13117.169921875,-400000.0625,5184.31982421875,-400000.0625
211.59720826148987,-400000.0625,-8094.02978515625,-2684.02001953125,-400000.0625,-13132.0498046875,-400000.0625,5170.2998046875,-400000.0625
211.5972125530243,-400000.0625,-8116.52978515625,-2704.239990234375,-400000.0625,-13158.509765625,-400000.0625,5148.60009765625,-400000.0625
211.59721684455872,-400000.0625,-8130.93017578125,-2718.39990234375,-400000.0625,-13174.8701171875,-400000.0625,5140.10986328125,-400000.0625
211.59722065925598,-400000.0625,-8113.9599609375,-2698.330078125,-400000.0625,-13149.6904296875,-400000.0625,5157.7099609375,-400000.0625
211.59722447395325,-400000.0625,-8094.35986328125,-2677.5400390625,-400000.0625,-13117.169921875,-400000.0625,5175.39990234375,-400000.0625
211.59722876548767,-400000.0625,-8103.419921875,-2687.60009765625,-400000.0625,-13122.23046875,-400000.0625,5170.6298828125,-400000.0625
211.59723281860352,-400000.0625,-8129.64990234375,-2710.6298828125,-400000.0625,-13149.01953125,-400000.0625,5150.83984375,-400000.0625
211.59723663330078,-400000.0625,-8142.419921875,-2720.7900390625,-400000.0625,-13172.490234375,-400000.0625,5134.8701171875,-400000.0625
211.59724116325378,-400000.0625,-8119.10986328125,-2698.989990234375,-400000.0625,-13151.83984375,-400000.0625,5156.47021484375,-400000.0625
211.59724521636963,-400000.0625,-8095.93017578125,-2677.5400390625,-400000.0625,-13123.419921875,-400000.0625,5184.31982421875,-400000.0625
211.59724879264832,-400000.0625,-8106.27978515625,-2687.97998046875,-400000.0625,-13133.9599609375,-400000.0625,5175.5400390625,-400000.0625
211.60302829742432,-400000.0625,-8126.93017578125,-2706.050048828125,-400000.0625,-13156.650390625,-400000.0625,5146.64990234375,-400000.0625
211.60807633399963,-400000.0625,-8142.22998046875,-2719.830078125,-400000.0625,-13170.91015625,-400000.0625,5130.2001953125,-400000.0625
211.67802357673645,-400000.0625,-8120.25,-2700.3798828125,-400000.0625,-13151.5,-400000.0625,5156.9501953125,-400000.0625
211.6878900527954,-400000.0625,-8096.02978515625,-2672.340087890625,-400000.0625,-13123.2802734375,-400000.0625,5181.83984375,-400000.0625
211.69363617897034,-400000.0625,-8102.89013671875,-2677.77001953125,-400000.0625,-13131.91015625,-400000.0625,5169.81982421875,-400000.0625
211.6989231109619,-400000.0625,-8126.31005859375,-2706.0,-400000.0625,-13158.0400390625,-400000.0625,5152.27001953125,-400000.0625
211.70416522026062,-400000.0625,-8142.0400390625,-2717.35009765625,-400000.0625,-13172.2001953125,-400000.0625,5139.490234375,-400000.0625
211.70944476127625,-400000.0625,-8121.2099609375,-2697.75,-400000.0625,-13147.5498046875,-400000.0625,5153.1298828125,-400000.0625
211.71443963050842,-400000.0625,-8100.31982421875,-2676.25,-400000.0625,-13119.8896484375,-400000.0625,5175.5,-400000.0625
211.7144477367401,-400000.0625,-8109.89990234375,-2681.8798828125,-400000.0625,-13128.23046875,-400000.0625,5159.66015625,-400000.0625
211.71985507011414,-400000.0625,-8125.16015625,-2703.2900390625,-400000.0625,-13151.599609375,-400000.0625,5151.60986328125,-400000.0625
211.7252905368805,-400000.0625,-8137.419921875,-2717.260009765625,-400000.0625,-13167.0,-400000.0625,5129.6201171875,-400000.0625
211.73076057434082,-400000.0625,-8121.8701171875,-2700.85009765625,-400000.0625,-13144.349609375,-400000.0625,5156.52001953125,-400000.0625
211.73605942726135,-400000.0625,-8102.080078125,-2677.110107421875,-400000.0625,-13121.8896484375,-400000.0625,5178.830078125,-400000.0625
211.74132251739502,-400000.0625,-8110.0498046875,-2683.449951171875,-400000.0625,-13135.8603515625,-400000.0625,5165.240234375,-400000.0625
211.74618244171143,-400000.0625,-8134.56005859375,-2707.10009765625,-400000.0625,-13160.66015625,-400000.0625,5145.259765625,-400000.0625
211.74618911743164,-400000.0625,-8143.330078125,-2716.8798828125,-400000.0625,-13169.33984375,-400000.0625,5130.240234375,-400000.0625
211.74619340896606,-400000.0625,-8121.16015625,-2697.0400390625,-400000.0625,-13145.3095703125,-400000.0625,5157.7099609375,-400000.0625
211.74619698524475,-400000.0625,-8099.83984375,-2677.489990234375,-400000.0625,-13121.419921875,-400000.0625,5187.990234375,-400000.0625
211.74620079994202,-400000.0625,-8109.27978515625,-2684.929931640625,-400000.0625,-13131.91015625,-400000.0625,5164.43017578125,-400000.0625
211.7462043762207,-400000.0625,-8131.41015625,-2709.340087890625,-400000.0625,-13157.419921875,-400000.0625,5142.02001953125,-400000.0625
211.74620819091797,-400000.0625,-8140.66015625,-2722.5,-400000.0625,-13173.4404296875,-400000.0625,5139.35009765625,-400000.0625
211.74621200561523,-400000.0625,-8121.919921875,-2701.7099609375,-400000.0625,-13150.5498046875,-400000.0625,5152.990234375,-400000.0625
211.7462158203125,-400000.0625,-8098.75,-2680.72998046875,-400000.0625,-13126.1396484375,-400000.0625,5178.64013671875,-400000.0625
211.7462193965912,-400000.0625,-8106.85009765625,-2684.360107421875,-400000.0625,-13131.9501953125,-400000.0625,5157.3798828125,-400000.0625
211.74622344970703,-400000.0625,-8121.830078125,-2699.0400390625,-400000.0625,-13159.1298828125,-400000.0625,5137.68017578125,-400000.0625
211.7462272644043,-400000.0625,-8122.5400390625,-2710.909912109375,-400000.0625,-13176.16015625,-400000.0625,5144.7900390625,-400000.0625
211.74623084068298,-400000.0625,-8099.27001953125,-2690.510009765625,-400000.0625,-13154.080078125,-400000.0625,5173.02001953125,-400000.0625
211.74623441696167,-400000.0625,-8075.9501953125,-2669.2900390625,-400000.0625,-13131.1396484375,-400000.0625,5191.85009765625,-400000.0625
211.74623799324036,-400000.0625,-8072.330078125,-2665.89990234375,-400000.0625,-13142.8701171875,-400000.0625,5179.830078125,-400000.0625
211.74624156951904,-400000.0625,-8082.72021484375,-2683.070068359375,-400000.0625,-13165.2802734375,-400000.0625,5165.0498046875,-400000.0625
211.74624514579773,-400000.0625,-8088.2998046875,-2696.7099609375,-400000.0625,-13174.8701171875,-400000.0625,5163.33984375,-400000.0625
211.74624872207642,-400000.0625,-8072.66015625,-2685.070068359375,-400000.0625,-13163.6201171875,-400000.0625,5180.68994140625,-400000.0625
211.7462522983551,-400000.0625,-8053.830078125,-2664.570068359375,-400000.0625,-13139.8203125,-400000.0625,5203.2001953125,-400000.0625
211.75702619552612,-400000.0625,-8058.97998046875,-2670.570068359375,-400000.0625,-13143.6396484375,-400000.0625,5192.0400390625,-400000.0625
211.76289868354797,-400000.0625,-8083.490234375,-2692.800048828125,-400000.0625,-13164.08984375,-400000.0625,5165.77001953125,-400000.0625
211.76808214187622,-400000.0625,-8096.4599609375,-2707.14990234375,-400000.0625,-13179.58984375,-400000.0625,5158.56982421875,-400000.0625
211.77341032028198,-400000.0625,-8073.6201171875,-2689.080078125,-400000.0625,-13161.0400390625,-400000.0625,5175.16015625,-400000.0625
211.77835631370544,-400000.0625,-8049.919921875,-2664.52001953125,-400000.0625,-13136.8203125,-400000.0625,5195.27978515625,-400000.0625
211.78389859199524,-400000.0625,-8059.06982421875,-2672.050048828125,-400000.0625,-13141.5400390625,-400000.0625,5185.18017578125,-400000.0625
211.78934407234192,-400000.0625,-8069.9501953125,-2684.39990234375,-400000.0625,-13161.759765625,-400000.0625,5182.7900390625,-400000.0625
211.79451179504395,-400000.0625,-8084.8701171875,-2697.89990234375,-400000.0625,-13173.580078125,-400000.0625,5164.85986328125,-400000.0625
211.8000431060791,-400000.0625,-8074.56982421875,-2688.070068359375,-400000.0625,-13157.990234375,-400000.0625,5178.259765625,-400000.0625
211.8054003715515,-400000.0625,-8048.77001953125,-2667.949951171875,-400000.0625,-13135.5302734375,-400000.0625,5193.6201171875,-400000.0625
211.8109576702118,-400000.0625,-8046.91015625,-2670.2900390625,-400000.0625,-13142.2998046875,-400000.0625,5199.580078125,-400000.0625
211.81659054756165,-400000.0625,-8069.3701171875,-2681.780029296875,-400000.0625,-13159.75,-400000.0625,5185.3701171875,-400000.0625
211.8223135471344,-400000.0625,-8086.16015625,-2699.659912109375,-400000.0625,-13178.4501953125,-400000.0625,5162.0498046875,-400000.0625
211.8272795677185,-400000.0625,-8064.3701171875,-2685.97998046875,-400000.0625,-13162.2802734375,-400000.0625,5185.56005859375,-400000.0625
211.82728743553162,-400000.0625,-8043.18994140625,-2660.889892578125,-400000.0625,-13130.9501953125,-400000.0625,5208.58984375,-400000.0625
211.82729196548462,-400000.0625,-8044.6298828125,-2665.469970703125,-400000.0625,-13132.7197265625,-400000.0625,5190.22998046875,-400000.0625
211.82729578018188,-400000.0625,-8056.830078125,-2676.8701171875,-400000.0625,-13152.599609375,-400000.0625,5185.7998046875,-400000.0625
211.82729959487915,-400000.0625,-8074.6201171875,-2695.1298828125,-400000.0625,-13171.580078125,-400000.0625,5167.91015625,-400000.0625
211.82730340957642,-400000.0625,-8062.7900390625,-2676.199951171875,-400000.0625,-13154.7900390625,-400000.0625,5175.31005859375,-400000.0625
211.8273069858551,-400000.0625,-8037.9501953125,-2654.889892578125,-400000.0625,-13128.23046875,-400000.0625,5201.6298828125,-400000.0625
211.82731080055237,-400000.0625,-8043.6201171875,-2661.320068359375,-400000.0625,-13137.2900390625,-400000.0625,5199.6201171875,-400000.0625
211.82731437683105,-400000.0625,-8059.60009765625,-2674.47998046875,-400000.0625,-13152.1201171875,-400000.0625,5185.509765625,-400000.0625
211.82731819152832,-400000.0625,-8071.3798828125,-2685.739990234375,-400000.0625,-13160.51953125,-400000.0625,5177.1201171875,-400000.0625
211.83318877220154,-400000.0625,-8048.43994140625,-2671.669921875,-400000.0625,-13143.4501953125,-400000.0625,5187.509765625,-400000.0625
211.83847188949585,-400000.0625,-8036.27978515625,-2659.64990234375,-400000.0625,-13128.08984375,-400000.0625,5202.6298828125,-400000.0625
211.84384536743164,-400000.0625,-8038.66015625,-2659.75,-400000.0625,-13136.669921875,-400000.0625,5205.35009765625,-400000.0625
211.8492832183838,-400000.0625,-8049.77978515625,-2671.340087890625,-400000.0625,-13154.0302734375,-400000.0625,5188.85009765625,-400000.0625
211.85497665405273,-400000.0625,-8060.5498046875,-2682.070068359375,-400000.0625,-13168.8095703125,-400000.0625,5174.58984375,-400000.0625
211.86082887649536,-400000.0625,-8044.81982421875,-2667.6201171875,-400000.0625,-13150.41015625,-400000.0625,5192.27978515625,-400000.0625
211.8659098148346,-400000.0625,-8021.16015625,-2644.969970703125,-400000.0625,-13131.240234375,-400000.0625,5202.81982421875,-400000.0625
211.87115287780762,-400000.0625,-8028.22021484375,-2649.159912109375,-400000.0625,-13134.91015625,-400000.0625,5206.009765625,-400000.0625
211.87620759010315,-400000.0625,-8044.77001953125,-2662.75,-400000.0625,-13148.259765625,-400000.0625,5186.31982421875,-400000.0625
211.88207149505615,-400000.0625,-8060.64990234375,-2679.300048828125,-400000.0625,-13161.990234375,-400000.0625,5173.35009765625,-400000.0625
211.8927264213562,-400000.0625,-8042.91015625,-2668.090087890625,-400000.0625,-13148.3603515625,-400000.0625,5187.509765625,-400000.0625
211.89839696884155,-400000.0625,-8029.509765625,-2648.159912109375,-400000.0625,-13130.4296875,-400000.0625,5209.02001953125,-400000.0625
211.90412878990173,-400000.0625,-8035.56982421875,-2652.840087890625,-400000.0625,-13137.6796875,-400000.0625,5207.830078125,-400000.0625
211.90944075584412,-400000.0625,-8046.9599609375,-2668.429931640625,-400000.0625,-13156.8896484375,-400000.0625,5183.02978515625,-400000.0625
211.91458773612976,-400000.0625,-8055.02001953125,-2678.780029296875,-400000.0625,-13170.3896484375,-400000.0625,5182.22021484375,-400000.0625
211.9202389717102,-400000.0625,-8046.72021484375,-2668.239990234375,-400000.0625,-13154.3203125,-400000.0625,5191.85009765625,-400000.0625
211.92524313926697,-400000.0625,-8030.83984375,-2650.449951171875,-400000.0625,-13127.51953125,-400000.0625,5196.6201171875,-400000.0625
211.93066310882568,-400000.0625,-8034.52001953125,-2654.739990234375,-400000.0625,-13139.2998046875,-400000.0625,5204.10986328125,-400000.0625
211.9357283115387,-400000.0625,-8053.97021484375,-2675.10009765625,-400000.0625,-13163.1904296875,-400000.0625,5186.64990234375,-400000.0625
211.94136953353882,-400000.0625,-8070.56982421875,-2692.4599609375,-400000.0625,-13177.919921875,-400000.0625,5165.72021484375,-400000.0625
211.9463655948639,-400000.0625,-8054.4501953125,-2676.6298828125,-400000.0625,-13154.2197265625,-400000.0625,5172.009765625,-400000.0625
211.94637250900269,-400000.0625,-8029.27001953125,-2650.929931640625,-400000.0625,-13128.5703125,-400000.0625,5208.2998046875,-400000.0625
211.952064037323,-400000.0625,-8033.18017578125,-2653.070068359375,-400000.0625,-13144.7802734375,-400000.0625,5199.6201171875,-400000.0625
211.9573736190796,-400000.0625,-8060.06982421875,-2678.820068359375,-400000.0625,-13166.240234375,-400000.0625,5182.31005859375,-400000.0625
211.9631142616272,-400000.0625,-8076.52978515625,-2695.93994140625,-400000.0625,-13179.6396484375,-400000.0625,5166.43994140625,-400000.0625
211.96846532821655,-400000.0625,-8050.490234375,-2666.760009765625,-400000.0625,-13154.7001953125,-400000.0625,5189.89990234375,-400000.0625
211.97393250465393,-400000.0625,-8031.22998046875,-2652.5,-400000.0625,-13132.5302734375,-400000.0625,5211.64013671875,-400000.0625
211.9793360233307,-400000.0625,-8037.9501953125,-2660.080078125,-400000.0625,-13136.009765625,-400000.0625,5197.72021484375,-400000.0625
211.98471331596375,-400000.0625,-8054.5400390625,-2676.820068359375,-400000.0625,-13156.990234375,-400000.0625,5180.7900390625,-400000.0625
211.99513697624207,-400000.0625,-8084.490234375,-2698.85009765625,-400000.0625,-13174.76953125,-400000.0625,5158.7099609375,-400000.0625
212.000896692276,-400000.0625,-8060.41015625,-2678.489990234375,-400000.0625,-13164.240234375,-400000.0625,5182.02978515625,-400000.0625
212.00605487823486,-400000.0625,-8030.3701171875,-2651.7900390625,-400000.0625,-13132.8603515625,-400000.0625,5207.5400390625,-400000.0625
212.01178908348083,-400000.0625,-8037.14013671875,-2654.510009765625,-400000.0625,-13126.990234375,-400000.0625,5201.72021484375,-400000.0625
212.01704216003418,-400000.0625,-8058.41015625,-2679.679931640625,-400000.0625,-13157.419921875,-400000.0625,5181.02978515625,-400000.0625
212.02270936965942,-400000.0625,-8082.14990234375,-2700.570068359375,-400000.0625,-13170.8603515625,-400000.0625,5159.66015625,-400000.0625
212.02777409553528,-400000.0625,-8061.89013671875,-2680.159912109375,-400000.0625,-13146.6904296875,-400000.0625,5174.2099609375,-400000.0625
212.03341698646545,-400000.0625,-8039.7099609375,-2655.60009765625,-400000.0625,-13119.5595703125,-400000.0625,5191.9501953125,-400000.0625
212.03860521316528,-400000.0625,-8048.919921875,-2662.3701171875,-400000.0625,-13130.3798828125,-400000.0625,5190.0400390625,-400000.0625
212.04392457008362,-400000.0625,-8069.7998046875,-2684.639892578125,-400000.0625,-13166.8603515625,-400000.0625,5174.2099609375,-400000.0625
212.04899096488953,-400000.0625,-8087.06005859375,-2704.239990234375,-400000.0625,-13180.2099609375,-400000.0625,5150.4599609375,-400000.0625
212.05448007583618,-400000.0625,-8063.4599609375,-2684.39990234375,-400000.0625,-13152.0302734375,-400000.0625,5163.85986328125,-400000.0625
212.05959916114807,-400000.0625,-8032.31982421875,-2656.27001953125,-400000.0625,-13120.6103515625,-400000.0625,5197.56982421875,-400000.0625
212.06466460227966,-400000.0625,-8040.330078125,-2660.320068359375,-400000.0625,-13125.51953125,-400000.0625,5191.0400390625,-400000.0625
212.0698802471161,-400000.0625,-8062.41015625,-2684.159912109375,-400000.0625,-13155.0302734375,-400000.0625,5165.9599609375,-400000.0625
212.07493948936462,-400000.0625,-8082.25,-2703.0,-400000.0625,-13176.1103515625,-400000.0625,5157.47021484375,-400000.0625
212.0797085762024,-400000.0625,-8059.97998046875,-2680.72998046875,-400000.0625,-13153.41015625,-400000.0625,5177.77978515625,-400000.0625
212.07971572875977,-400000.0625,-8029.89013671875,-2651.260009765625,-400000.0625,-13127.2802734375,-400000.0625,5199.47998046875,-400000.0625
212.07972025871277,-400000.0625,-8040.3798828125,-2658.989990234375,-400000.0625,-13133.8603515625,-400000.0625,5199.0,-400000.0625
212.0797243118286,-400000.0625,-8064.3701171875,-2684.739990234375,-400000.0625,-13156.7001953125,-400000.0625,5169.009765625,-400000.0625
212.07972812652588,-400000.0625,-8082.43994140625,-2702.280029296875,-400000.0625,-13174.25,-400000.0625,5145.93017578125,-400000.0625
212.07973217964172,-400000.0625,-8057.64013671875,-2676.199951171875,-400000.0625,-13150.9296875,-400000.0625,5173.490234375,-400000.0625
212.0797357559204,-400000.0625,-8035.3701171875,-2656.7900390625,-400000.0625,-13122.9404296875,-400000.0625,5195.52001953125,-400000.0625
212.0797393321991,-400000.0625,-8043.43017578125,-2663.56005859375,-400000.0625,-13141.1103515625,-400000.0625,5185.41015625,-400000.0625
212.07974314689636,-400000.0625,-8068.66015625,-2688.1201171875,-400000.0625,-13175.0595703125,-400000.0625,5162.52978515625,-400000.0625
212.07974696159363,-400000.0625,-8086.77978515625,-2704.429931640625,-400000.0625,-13181.7802734375,-400000.0625,5141.31005859375,-400000.0625
212.07975053787231,-400000.0625,-8065.89013671875,-2682.639892578125,-400000.0625,-13147.3095703125,-400000.0625,5171.43994140625,-400000.0625
212.079754114151,-400000.0625,-8037.56982421875,-2655.93994140625,-400000.0625,-13122.509765625,-400000.0625,5197.330078125,-400000.0625
212.08053874969482,-400000.0625,-8047.68017578125,-2663.7099609375,-400000.0625,-13129.669921875,-400000.0625,5186.75,-400000.0625
212.08593940734863,-400000.0625,-8069.7998046875,-2688.070068359375,-400000.0625,-13161.0400390625,-400000.0625,5163.43017578125,-400000.0625
212.0956928730011,-400000.0625,-8084.43994140625,-2702.330078125,-400000.0625,-13177.9697265625,-400000.0625,5148.41015625,-400000.0625
212.10119032859802,-400000.0625,-8064.22021484375,-2682.159912109375,-400000.0625,-13158.6103515625,-400000.0625,5175.35009765625,-400000.0625
212.10637259483337,-400000.0625,-8033.0400390625,-2652.8798828125,-400000.0625,-13125.849609375,-400000.0625,5200.009765625,-400000.0625
212.1117582321167,-400000.0625,-8044.2900390625,-2666.860107421875,-400000.0625,-13132.0498046875,-400000.0625,5185.7998046875,-400000.0625
212.1168749332428,-400000.0625,-8072.9501953125,-2694.080078125,-400000.0625,-13160.0400390625,-400000.0625,5164.18994140625,-400000.0625
212.12219309806824,-400000.0625,-8097.31982421875,-2712.820068359375,-400000.0625,-13169.9599609375,-400000.0625,5137.02001953125,-400000.0625
212.12711381912231,-400000.0625,-8069.27978515625,-2684.639892578125,-400000.0625,-13145.6396484375,-400000.0625,5166.580078125,-400000.0625
212.127121925354,-400000.0625,-8035.14013671875,-2655.4599609375,-400000.0625,-13112.169921875,-400000.0625,5200.43017578125,-400000.0625
212.127126455307,-400000.0625,-8040.72021484375,-2665.949951171875,-400000.0625,-13121.4599609375,-400000.0625,5191.27978515625,-400000.0625
212.12713050842285,-400000.0625,-8065.3701171875,-2688.030029296875,-400000.0625,-13150.41015625,-400000.0625,5169.06005859375,-400000.0625
212.1271345615387,-400000.0625,-8090.77978515625,-2712.489990234375,-400000.0625,-13182.259765625,-400000.0625,5148.169921875,-400000.0625
212.12713837623596,-400000.0625,-8068.7099609375,-2688.360107421875,-400000.0625,-13155.7998046875,-400000.0625,5164.0498046875,-400000.0625
212.12714195251465,-400000.0625,-8037.56982421875,-2656.97998046875,-400000.0625,-13123.7001953125,-400000.0625,5189.7099609375,-400000.0625
212.12714624404907,-400000.0625,-8047.2001953125,-2668.909912109375,-400000.0625,-13128.23046875,-400000.0625,5178.97998046875,-400000.0625
212.13323593139648,-400000.0625,-8070.7998046875,-2695.93994140625,-400000.0625,-13159.6103515625,-400000.0625,5156.56982421875,-400000.0625
212.13860535621643,-400000.0625,-8086.25,-2708.909912109375,-400000.0625,-13177.73046875,-400000.0625,5141.4501953125,-400000.0625
212.1438753604889,-400000.0625,-8067.22998046875,-2687.7900390625,-400000.0625,-13153.169921875,-400000.0625,5165.43017578125,-400000.0625
212.14891743659973,-400000.0625,-8045.009765625,-2665.81005859375,-400000.0625,-13112.830078125,-400000.0625,5193.419921875,-400000.0625
212.15409445762634,-400000.0625,-8055.259765625,-2672.239990234375,-400000.0625,-13120.4599609375,-400000.0625,5180.740234375,-400000.0625
212.15926909446716,-400000.0625,-8088.72998046875,-2702.139892578125,-400000.0625,-13150.3095703125,-400000.0625,5150.93994140625,-400000.0625
212.16437101364136,-400000.0625,-8113.39013671875,-2718.8798828125,-400000.0625,-13167.0,-400000.0625,5139.490234375,-400000.0625
212.16983342170715,-400000.0625,-8091.740234375,-2687.550048828125,-400000.0625,-13142.5400390625,-400000.0625,5169.72998046875,-400000.0625
212.17494654655457,-400000.0625,-8073.89990234375,-2643.199951171875,-400000.0625,-13112.740234375,-400000.0625,5201.669921875,-400000.0625
212.1807086467743,-400000.0625,-8086.39990234375,-2644.679931640625,-400000.0625,-13123.2802734375,-400000.0625,5196.3798828125,-400000.0625
212.1860740184784,-400000.0625,-8124.64013671875,-2692.3701171875,-400000.0625,-13154.1298828125,-400000.0625,5158.330078125,-400000.0625
212.19613075256348,-400000.0625,-8150.2001953125,-2722.169921875,-400000.0625,-13167.669921875,-400000.0625,5123.89990234375,-400000.0625
212.20147371292114,-400000.0625,-8115.77001953125,-2702.280029296875,-400000.0625,-13143.01953125,-400000.0625,5159.6201171875,-400000.0625
212.20658779144287,-400000.0625,-8095.89013671875,-2681.830078125,-400000.0625,-13111.0703125,-400000.0625,5162.2900390625,-400000.0625
212.2121546268463,-400000.0625,-8102.509765625,-2692.030029296875,-400000.0625,-13104.8203125,-400000.0625,5143.39990234375,-400000.0625
212.21728205680847,-400000.0625,-8108.14013671875,-2708.909912109375,-400000.0625,-13128.330078125,-400000.0625,5126.240234375,-400000.0625
212.22281122207642,-400000.0625,-8131.4599609375,-2738.949951171875,-400000.0625,-13133.7197265625,-400000.0625,5093.9599609375,-400000.0625
212.22803330421448,-400000.0625,-8148.18994140625,-2744.6298828125,-400000.0625,-13097.759765625,-400000.0625,5099.2001953125,-400000.0625
212.2335364818573,-400000.0625,-8161.35986328125,-2735.330078125,-400000.0625,-13037.2998046875,-400000.0625,5093.72021484375,-400000.0625
212.23878264427185,-400000.0625,-8231.830078125,-2772.52001953125,-400000.0625,-13038.349609375,-400000.0625,5058.9599609375,-400000.0625
212.24453234672546,-400000.0625,-8315.0400390625,-2820.489990234375,-400000.0625,-13047.5498046875,-400000.0625,5012.93994140625,-400000.0625
212.25003290176392,-400000.0625,-8385.23046875,-2858.68994140625,-400000.0625,-13054.7998046875,-400000.0625,4977.93994140625,-400000.0625
212.2551076412201,-400000.0625,-8390.6201171875,-2847.47998046875,-400000.0625,-13015.2197265625,-400000.0625,4990.39013671875,-400000.0625
212.26064038276672,-400000.0625,-8417.1298828125,-2839.89990234375,-400000.0625,-12980.080078125,-400000.0625,5002.4501953125,-400000.0625
212.26610946655273,-400000.0625,-8476.4501953125,-2874.179931640625,-400000.0625,-12992.9599609375,-400000.0625,4979.47021484375,-400000.0625
212.27168655395508,-400000.0625,-8546.3095703125,-2920.6298828125,-400000.0625,-13019.419921875,-400000.0625,4946.419921875,-400000.0625
212.276673078537,-400000.0625,-8598.1396484375,-2943.610107421875,-400000.0625,-13025.91015625,-400000.0625,4932.1201171875,-400000.0625
212.27668118476868,-400000.0625,-8604.91015625,-2930.2099609375,-400000.0625,-12992.0498046875,-400000.0625,4956.14990234375,-400000.0625
212.27668571472168,-400000.0625,-8606.48046875,-2907.56005859375,-400000.0625,-12957.91015625,-400000.0625,4972.7900390625,-400000.0625
212.2766900062561,-400000.0625,-8642.6298828125,-2925.35009765625,-400000.0625,-12970.1201171875,-400000.0625,4954.72021484375,-400000.0625
212.2766935825348,-400000.0625,-8692.0703125,-2970.64990234375,-400000.0625,-13001.6298828125,-400000.0625,4918.580078125,-400000.0625
212.28206253051758,-400000.0625,-8724.169921875,-2996.110107421875,-400000.0625,-13026.669921875,-400000.0625,4899.7900390625,-400000.0625
212.2871220111847,-400000.0625,-8688.5,-2969.739990234375,-400000.0625,-13007.4501953125,-400000.0625,4928.72998046875,-400000.0625
212.29702806472778,-400000.0625,-8656.2197265625,-2946.18994140625,-400000.0625,-12981.26953125,-400000.0625,4964.77978515625,-400000.0625
212.30257320404053,-400000.0625,-8662.6103515625,-2966.260009765625,-400000.0625,-13003.2099609375,-400000.0625,4950.14013671875,-400000.0625
212.30771660804749,-400000.0625,-8686.259765625,-2999.8798828125,-400000.0625,-13035.2998046875,-400000.0625,4917.52978515625,-400000.0625
212.3132791519165,-400000.0625,-8700.1298828125,-3023.530029296875,-400000.0625,-13055.2802734375,-400000.0625,4886.580078125,-400000.0625
212.31845235824585,-400000.0625,-8666.7099609375,-2998.2099609375,-400000.0625,-13037.16015625,-400000.0625,4912.22998046875,-400000.0625
212.32383108139038,-400000.0625,-8628.4599609375,-2974.219970703125,-400000.0625,-13014.83984375,-400000.0625,4948.6201171875,-400000.0625
212.32930970191956,-400000.0625,-8623.599609375,-2982.52001953125,-400000.0625,-13028.7197265625,-400000.0625,4937.60009765625,-400000.0625
212.33463406562805,-400000.0625,-8647.349609375,-3019.239990234375,-400000.0625,-13068.2998046875,-400000.0625,4911.56982421875,-400000.0625
212.33994913101196,-400000.0625,-8657.8896484375,-3033.159912109375,-400000.0625,-13092.6103515625,-400000.0625,4893.35009765625,-400000.0625
212.34503173828125,-400000.0625,-8628.9404296875,-3010.1298828125,-400000.0625,-13064.0498046875,-400000.0625,4914.9501953125,-400000.0625
212.3505928516388,-400000.0625,-8590.1298828125,-2977.22998046875,-400000.0625,-13041.5498046875,-400000.0625,4949.47021484375,-400000.0625
212.35577011108398,-400000.0625,-8589.080078125,-2990.909912109375,-400000.0625,-13051.8896484375,-400000.0625,4943.1298828125,-400000.0625
212.36130046844482,-400000.0625,-8622.26953125,-3021.6201171875,-400000.0625,-13091.1796875,-400000.0625,4914.27978515625,-400000.0625
212.36648273468018,-400000.0625,-8629.75,-3038.7900390625,-400000.0625,-13108.9697265625,-400000.0625,4895.2099609375,-400000.0625
212.37185335159302,-400000.0625,-8598.1396484375,-3009.610107421875,-400000.0625,-13089.849609375,-400000.0625,4930.4501953125,-400000.0625
212.3769142627716,-400000.0625,-8553.080078125,-2970.030029296875,-400000.0625,-13062.2900390625,-400000.0625,4965.06982421875,-400000.0625
212.38274335861206,-400000.0625,-8551.3095703125,-2975.889892578125,-400000.0625,-13078.6396484375,-400000.0625,4958.6298828125,-400000.0625
212.3877866268158,-400000.0625,-8573.25,-3009.510009765625,-400000.0625,-13116.7900390625,-400000.0625,4925.39013671875,-400000.0625
212.39905548095703,-400000.0625,-8580.5400390625,-3018.239990234375,-400000.0625,-13142.2998046875,-400000.0625,4910.18017578125,-400000.0625
212.40464210510254,-400000.0625,-8552.7001953125,-2992.580078125,-400000.0625,-13112.740234375,-400000.0625,4938.080078125,-400000.0625
212.41025567054749,-400000.0625,-8515.169921875,-2955.530029296875,-400000.0625,-13074.58984375,-400000.0625,4978.7099609375,-400000.0625
212.41592979431152,-400000.0625,-8513.7900390625,-2959.35009765625,-400000.0625,-13085.8896484375,-400000.0625,4968.5,-400000.0625
212.4218647480011,-400000.0625,-8532.8603515625,-2982.7099609375,-400000.0625,-13121.509765625,-400000.0625,4943.990234375,-400000.0625
212.42712807655334,-400000.0625,-8543.9697265625,-2994.06005859375,-400000.0625,-13135.2900390625,-400000.0625,4926.16015625,-400000.0625
212.43322801589966,-400000.0625,-8514.7900390625,-2969.070068359375,-400000.0625,-13109.490234375,-400000.0625,4953.77001953125,-400000.0625
212.4384994506836,-400000.0625,-8478.4501953125,-2935.60009765625,-400000.0625,-13087.080078125,-400000.0625,4994.81982421875,-400000.0625
212.44413113594055,-400000.0625,-8484.8896484375,-2941.3701171875,-400000.0625,-13098.3798828125,-400000.0625,4986.56982421875,-400000.0625
212.45004796981812,-400000.0625,-8511.6396484375,-2970.97998046875,-400000.0625,-13135.33984375,-400000.0625,4954.81982421875,-400000.0625
212.4553735256195,-400000.0625,-8527.419921875,-2987.81005859375,-400000.0625,-13156.1796875,-400000.0625,4935.93017578125,-400000.0625
212.4613552093506,-400000.0625,-8496.0,-2955.909912109375,-400000.0625,-13124.900390625,-400000.0625,4954.10009765625,-400000.0625
212.46658730506897,-400000.0625,-8465.099609375,-2930.550048828125,-400000.0625,-13092.330078125,-400000.0625,4997.77978515625,-400000.0625
212.47199177742004,-400000.0625,-8469.8701171875,-2936.320068359375,-400000.0625,-13098.1904296875,-400000.0625,4992.39013671875,-400000.0625
212.47882318496704,-400000.0625,-8500.0,-2962.159912109375,-400000.0625,-13131.0,-400000.0625,4960.58984375,-400000.0625
212.487610578537,-400000.0625,-8519.509765625,-2981.85009765625,-400000.0625,-13149.6396484375,-400000.0625,4947.330078125,-400000.0625
212.49372100830078,-400000.0625,-8490.990234375,-2954.10009765625,-400000.0625,-13119.5595703125,-400000.0625,4964.10986328125,-400000.0625
212.50466227531433,-400000.0625,-8456.900390625,-2921.43994140625,-400000.0625,-13095.7099609375,-400000.0625,5004.35986328125,-400000.0625
212.5098524093628,-400000.0625,-8465.8603515625,-2928.260009765625,-400000.0625,-13106.73046875,-400000.0625,4997.68017578125,-400000.0625
212.51497745513916,-400000.0625,-8493.900390625,-2953.820068359375,-400000.0625,-13135.3896484375,-400000.0625,4965.830078125,-400000.0625
212.5199966430664,-400000.0625,-8513.740234375,-2971.60009765625,-400000.0625,-13161.7099609375,-400000.0625,4948.759765625,-400000.0625
212.5249080657959,-400000.0625,-8491.08984375,-2953.010009765625,-400000.0625,-13133.6201171875,-400000.0625,4971.02978515625,-400000.0625
212.5249161720276,-400000.0625,-8462.5302734375,-2925.300048828125,-400000.0625,-13097.240234375,-400000.0625,5000.2099609375,-400000.0625
212.5249207019806,-400000.0625,-8472.7802734375,-2931.070068359375,-400000.0625,-13104.6298828125,-400000.0625,4993.43994140625,-400000.0625
212.52492499351501,-400000.0625,-8502.48046875,-2959.06005859375,-400000.0625,-13134.7197265625,-400000.0625,4963.64013671875,-400000.0625
212.52492880821228,-400000.0625,-8521.3203125,-2976.3701171875,-400000.0625,-13160.330078125,-400000.0625,4941.1298828125,-400000.0625
212.52493238449097,-400000.0625,-8495.330078125,-2955.389892578125,-400000.0625,-13131.0498046875,-400000.0625,4970.5,-400000.0625
212.52493596076965,-400000.0625,-8457.1796875,-2916.860107421875,-400000.0625,-13098.9599609375,-400000.0625,5012.89013671875,-400000.0625
212.52493953704834,-400000.0625,-8480.0703125,-2933.7900390625,-400000.0625,-13109.9697265625,-400000.0625,4981.18017578125,-400000.0625
212.5249433517456,-400000.0625,-8528.08984375,-2969.60009765625,-400000.0625,-13144.7802734375,-400000.0625,4947.85009765625,-400000.0625
212.5249469280243,-400000.0625,-8537.48046875,-2982.090087890625,-400000.0625,-13159.3203125,-400000.0625,4938.02978515625,-400000.0625
212.52495074272156,-400000.0625,-8507.7802734375,-2955.719970703125,-400000.0625,-13122.66015625,-400000.0625,4961.919921875,-400000.0625
212.5249547958374,-400000.0625,-8486.080078125,-2939.419921875,-400000.0625,-13097.6201171875,-400000.0625,4993.52978515625,-400000.0625
212.52495956420898,-400000.0625,-8508.6396484375,-2952.0,-400000.0625,-13109.2099609375,-400000.0625,4981.759765625,-400000.0625
212.52496337890625,-400000.0625,-8545.259765625,-2981.949951171875,-400000.0625,-13130.1396484375,-400000.0625,4950.81005859375,-400000.0625
212.52496719360352,-400000.0625,-8562.1796875,-2997.72998046875,-400000.0625,-13151.9296875,-400000.0625,4932.35986328125,-400000.0625
212.52497100830078,-400000.0625,-8533.91015625,-2972.699951171875,-400000.0625,-13118.9404296875,-400000.0625,4962.77978515625,-400000.0625
212.52497506141663,-400000.0625,-8510.6396484375,-2947.81005859375,-400000.0625,-13083.650390625,-400000.0625,4989.33984375,-400000.0625
212.5249788761139,-400000.0625,-8539.6298828125,-2968.5,-400000.0625,-13110.8798828125,-400000.0625,4974.75,-400000.0625
212.52498245239258,-400000.0625,-8565.6201171875,-2994.489990234375,-400000.0625,-13137.6796875,-400000.0625,4935.89013671875,-400000.0625
212.52498650550842,-400000.0625,-8580.4501953125,-3011.3701171875,-400000.0625,-13153.650390625,-400000.0625,4924.10986328125,-400000.0625
212.5249900817871,-400000.0625,-8553.509765625,-2986.340087890625,-400000.0625,-13129.330078125,-400000.0625,4951.2900390625,-400000.0625
212.52499437332153,-400000.0625,-8516.5498046875,-2952.0,-400000.0625,-13093.900390625,-400000.0625,4982.08984375,-400000.0625
212.5249981880188,-400000.0625,-8525.3701171875,-2962.679931640625,-400000.0625,-13102.490234375,-400000.0625,4985.669921875,-400000.0625
212.52500176429749,-400000.0625,-8551.9296875,-2994.25,-400000.0625,-13140.4404296875,-400000.0625,4951.18994140625,-400000.0625
212.52500534057617,-400000.0625,-8573.7197265625,-3014.280029296875,-400000.0625,-13160.75,-400000.0625,4929.8798828125,-400000.0625
212.52992224693298,-400000.0625,-8551.3603515625,-2986.050048828125,-400000.0625,-13120.509765625,-400000.0625,4952.47998046875,-400000.0625
212.52993178367615,-400000.0625,-8517.9296875,-2952.719970703125,-400000.0625,-13090.330078125,-400000.0625,4992.52978515625,-400000.0625
212.5299367904663,-400000.0625,-8523.7998046875,-2956.679931640625,-400000.0625,-13104.150390625,-400000.0625,4985.0,-400000.0625
212.5299413204193,-400000.0625,-8559.3203125,-2987.81005859375,-400000.0625,-13135.7197265625,-400000.0625,4955.240234375,-400000.0625
212.52994561195374,-400000.0625,-8585.740234375,-3014.85009765625,-400000.0625,-13156.1796875,-400000.0625,4932.4501953125,-400000.0625
212.52994966506958,-400000.0625,-8561.1396484375,-2989.14990234375,-400000.0625,-13126.1396484375,-400000.0625,4953.0498046875,-400000.0625
212.52995371818542,-400000.0625,-8530.0,-2958.820068359375,-400000.0625,-13096.8603515625,-400000.0625,4990.85986328125,-400000.0625
212.52995777130127,-400000.0625,-8539.0595703125,-2964.2099609375,-400000.0625,-13103.919921875,-400000.0625,4985.3798828125,-400000.0625
212.5299620628357,-400000.0625,-8561.7998046875,-2989.860107421875,-400000.0625,-13138.6298828125,-400000.0625,4960.58984375,-400000.0625
212.52996611595154,-400000.0625,-8577.400390625,-3005.60009765625,-400000.0625,-13158.3701171875,-400000.0625,4940.27001953125,-400000.0625
212.5299699306488,-400000.0625,-8549.830078125,-2980.419921875,-400000.0625,-13126.4697265625,-400000.0625,4962.2099609375,-400000.0625
212.52997374534607,-400000.0625,-8529.23046875,-2958.010009765625,-400000.0625,-13095.4296875,-400000.0625,4988.81005859375,-400000.0625
212.52997756004333,-400000.0625,-8535.4296875,-2965.39990234375,-400000.0625,-13099.7197265625,-400000.0625,4977.1298828125,-400000.0625
212.52998113632202,-400000.0625,-8557.509765625,-2992.199951171875,-400000.0625,-13134.8095703125,-400000.0625,4959.2001953125,-400000.0625
212.52998518943787,-400000.0625,-8579.830078125,-3013.989990234375,-400000.0625,-13161.330078125,-400000.0625,4940.3701171875,-400000.0625
212.5848925113678,-400000.0625,-8556.650390625,-2989.47998046875,-400000.0625,-13134.580078125,-400000.0625,4961.39990234375,-400000.0625
212.5904564857483,-400000.0625,-8529.5703125,-2961.5400390625,-400000.0625,-13099.9599609375,-400000.0625,4980.85009765625,-400000.0625
212.59535717964172,-400000.0625,-8537.33984375,-2966.739990234375,-400000.0625,-13095.9501953125,-400000.0625,4984.14013671875,-400000.0625
212.5995373725891,-400000.0625,-8558.080078125,-2990.909912109375,-400000.0625,-13131.2900390625,-400000.0625,4957.10009765625,-400000.0625
212.60444355010986,-400000.0625,-8576.8701171875,-3009.27001953125,-400000.0625,-13156.3701171875,-400000.0625,4945.7998046875,-400000.0625
212.60445261001587,-400000.0625,-8559.7998046875,-2992.530029296875,-400000.0625,-13131.5703125,-400000.0625,4970.93017578125,-400000.0625
212.60445713996887,-400000.0625,-8531.2900390625,-2964.929931640625,-400000.0625,-13098.8603515625,-400000.0625,4993.2001953125,-400000.0625
212.60446190834045,-400000.0625,-8535.48046875,-2965.159912109375,-400000.0625,-13106.16015625,-400000.0625,4995.10986328125,-400000.0625
212.60446572303772,-400000.0625,-8559.900390625,-2991.6298828125,-400000.0625,-13136.7197265625,-400000.0625,4973.1298828125,-400000.0625
212.60447001457214,-400000.0625,-8574.8701171875,-3007.97998046875,-400000.0625,-13152.4599609375,-400000.0625,4944.93994140625,-400000.0625
212.60447359085083,-400000.0625,-8555.75,-2989.389892578125,-400000.0625,-13129.0,-400000.0625,4966.5,-400000.0625
212.60447716712952,-400000.0625,-8536.3896484375,-2963.8798828125,-400000.0625,-13098.76953125,-400000.0625,4987.18994140625,-400000.0625
212.60448098182678,-400000.0625,-8539.2998046875,-2969.27001953125,-400000.0625,-13111.830078125,-400000.0625,4981.330078125,-400000.0625
212.60448479652405,-400000.0625,-8579.2998046875,-3000.02001953125,-400000.0625,-13139.6796875,-400000.0625,4951.14013671875,-400000.0625
212.6044886112213,-400000.0625,-8598.330078125,-3019.050048828125,-400000.0625,-13159.23046875,-400000.0625,4937.27001953125,-400000.0625
212.60449242591858,-400000.0625,-8573.2900390625,-3010.85009765625,-400000.0625,-13136.2001953125,-400000.0625,4977.080078125,-400000.0625
212.65910649299622,-400000.0625,-8553.0302734375,-2996.72998046875,-400000.0625,-13103.33984375,-400000.0625,5008.080078125,-400000.0625
212.66454315185547,-400000.0625,-8569.6201171875,-3012.419921875,-400000.0625,-13113.6904296875,-400000.0625,4998.72998046875,-400000.0625
212.66922116279602,-400000.0625,-8594.6103515625,-3041.409912109375,-400000.0625,-13142.6396484375,-400000.0625,4973.56005859375,-400000.0625
212.66922974586487,-400000.0625,-8615.9697265625,-3071.169921875,-400000.0625,-13161.759765625,-400000.0625,4963.2099609375,-400000.0625
212.66923451423645,-400000.0625,-8596.3701171875,-3053.52001953125,-400000.0625,-13135.7197265625,-400000.0625,4998.4501953125,-400000.0625
212.6692385673523,-400000.0625,-8577.8701171875,-3035.39990234375,-400000.0625,-13102.2900390625,-400000.0625,5023.52978515625,-400000.0625
212.66924214363098,-400000.0625,-8581.4501953125,-3044.3701171875,-400000.0625,-13109.400390625,-400000.0625,5022.240234375,-400000.0625
212.66924595832825,-400000.0625,-8604.0,-3066.35009765625,-400000.0625,-13139.919921875,-400000.0625,4992.68017578125,-400000.0625
212.66936445236206,-400000.0625,-8619.7900390625,-3086.570068359375,-400000.0625,-13159.08984375,-400000.0625,4970.27001953125,-400000.0625
212.6693685054779,-400000.0625,-8596.9501953125,-3063.77001953125,-400000.0625,-13133.8603515625,-400000.0625,4996.2001953125,-400000.0625
212.66937232017517,-400000.0625,-8571.9599609375,-3040.5,-400000.0625,-13107.2099609375,-400000.0625,5023.91015625,-400000.0625
212.66937589645386,-400000.0625,-8573.4404296875,-3042.030029296875,-400000.0625,-13109.490234375,-400000.0625,5020.330078125,-400000.0625
212.66937971115112,-400000.0625,-8596.66015625,-3065.35009765625,-400000.0625,-13130.0,-400000.0625,5002.4501953125,-400000.0625
212.6693835258484,-400000.0625,-8618.0703125,-3088.239990234375,-400000.0625,-13152.4599609375,-400000.0625,4984.81005859375,-400000.0625
212.66938710212708,-400000.0625,-8598.66015625,-3069.070068359375,-400000.0625,-13142.16015625,-400000.0625,5008.83984375,-400000.0625
212.6693902015686,-400000.0625,-8573.76953125,-3042.219970703125,-400000.0625,-13106.919921875,-400000.0625,5032.35009765625,-400000.0625
212.7152214050293,-400000.0625,-8577.6796875,-3045.93994140625,-400000.0625,-13103.73046875,-400000.0625,5025.580078125,-400000.0625
212.7246277332306,-400000.0625,-8605.6201171875,-3067.679931640625,-400000.0625,-13124.849609375,-400000.0625,4994.5400390625,-400000.0625
212.7293679714203,-400000.0625,-8622.7001953125,-3080.889892578125,-400000.0625,-13142.6396484375,-400000.0625,4979.52001953125,-400000.0625
212.72937607765198,-400000.0625,-8595.900390625,-3057.81005859375,-400000.0625,-13116.650390625,-400000.0625,5001.8798828125,-400000.0625
212.72938108444214,-400000.0625,-8569.0,-3030.830078125,-400000.0625,-13094.9501953125,-400000.0625,5034.4501953125,-400000.0625
212.72938513755798,-400000.0625,-8578.73046875,-3038.070068359375,-400000.0625,-13111.740234375,-400000.0625,5025.669921875,-400000.0625
212.72938871383667,-400000.0625,-8600.6201171875,-3058.580078125,-400000.0625,-13138.150390625,-400000.0625,5004.22021484375,-400000.0625
212.72939252853394,-400000.0625,-8625.650390625,-3079.610107421875,-400000.0625,-13157.0400390625,-400000.0625,4982.14013671875,-400000.0625
212.72939658164978,-400000.0625,-8605.8203125,-3059.43994140625,-400000.0625,-13122.23046875,-400000.0625,4996.81982421875,-400000.0625
212.72940039634705,-400000.0625,-8583.1201171875,-3040.080078125,-400000.0625,-13099.0498046875,-400000.0625,5027.52978515625,-400000.0625
212.72940373420715,-400000.0625,-8587.169921875,-3046.85009765625,-400000.0625,-13105.349609375,-400000.0625,5022.9599609375,-400000.0625
212.72940754890442,-400000.0625,-8613.16015625,-3069.639892578125,-400000.0625,-13129.0498046875,-400000.0625,5002.39990234375,-400000.0625
212.7294111251831,-400000.0625,-8624.75,-3079.989990234375,-400000.0625,-13154.4599609375,-400000.0625,4983.18994140625,-400000.0625
212.7294147014618,-400000.0625,-8602.9501953125,-3058.719970703125,-400000.0625,-13133.7197265625,-400000.0625,5006.83984375,-400000.0625
212.72941827774048,-400000.0625,-8578.16015625,-3032.780029296875,-400000.0625,-13101.2001953125,-400000.0625,5029.25,-400000.0625
212.72942185401917,-400000.0625,-8583.740234375,-3035.5,-400000.0625,-13105.2001953125,-400000.0625,5025.580078125,-400000.0625
212.7801549434662,-400000.0625,-8606.5302734375,-3057.719970703125,-400000.0625,-13125.2802734375,-400000.0625,5002.7900390625,-400000.0625
212.78633403778076,-400000.0625,-8624.98046875,-3076.93994140625,-400000.0625,-13145.01953125,-400000.0625,4977.75,-400000.0625
212.79120349884033,-400000.0625,-8612.009765625,-3058.6201171875,-400000.0625,-13124.849609375,-400000.0625,4999.2998046875,-400000.0625
212.79121232032776,-400000.0625,-8581.259765625,-3031.5400390625,-400000.0625,-13096.0498046875,-400000.0625,5030.10986328125,-400000.0625
212.7912163734436,-400000.0625,-8587.1201171875,-3035.260009765625,-400000.0625,-13102.91015625,-400000.0625,5019.14013671875,-400000.0625
212.79122018814087,-400000.0625,-8617.0703125,-3061.2900390625,-400000.0625,-13131.2900390625,-400000.0625,4998.16015625,-400000.0625
212.79122400283813,-400000.0625,-8632.2802734375,-3078.27001953125,-400000.0625,-13149.7900390625,-400000.0625,4983.6201171875,-400000.0625
212.7912278175354,-400000.0625,-8613.73046875,-3056.570068359375,-400000.0625,-13127.849609375,-400000.0625,5003.740234375,-400000.0625
212.7912313938141,-400000.0625,-8588.650390625,-3031.25,-400000.0625,-13099.91015625,-400000.0625,5033.02001953125,-400000.0625
212.79123497009277,-400000.0625,-8591.509765625,-3033.110107421875,-400000.0625,-13098.0498046875,-400000.0625,5024.580078125,-400000.0625
212.79123854637146,-400000.0625,-8614.1103515625,-3056.429931640625,-400000.0625,-13122.990234375,-400000.0625,5000.72998046875,-400000.0625
212.79124212265015,-400000.0625,-8635.0498046875,-3077.97998046875,-400000.0625,-13147.8798828125,-400000.0625,4982.27978515625,-400000.0625
212.79124760627747,-400000.0625,-8613.2099609375,-3058.77001953125,-400000.0625,-13128.66015625,-400000.0625,5008.169921875,-400000.0625
212.79125142097473,-400000.0625,-8581.259765625,-3030.35009765625,-400000.0625,-13101.76953125,-400000.0625,5029.2998046875,-400000.0625
212.79125499725342,-400000.0625,-8586.98046875,-3033.449951171875,-400000.0625,-13103.25,-400000.0625,5031.009765625,-400000.0625
212.7912585735321,-400000.0625,-8616.2099609375,-3062.010009765625,-400000.0625,-13128.330078125,-400000.0625,5003.41015625,-400000.0625
212.84679985046387,-400000.0625,-8635.900390625,-3082.85009765625,-400000.0625,-13147.3095703125,-400000.0625,4978.56005859375,-400000.0625
212.85646390914917,-400000.0625,-8610.8701171875,-3058.239990234375,-400000.0625,-13127.08984375,-400000.0625,5007.35986328125,-400000.0625
212.86133289337158,-400000.0625,-8582.5,-3030.110107421875,-400000.0625,-13094.8603515625,-400000.0625,5035.4501953125,-400000.0625
212.86134099960327,-400000.0625,-8584.3603515625,-3029.919921875,-400000.0625,-13099.7197265625,-400000.0625,5034.97021484375,-400000.0625
212.8613452911377,-400000.0625,-8614.4501953125,-3052.659912109375,-400000.0625,-13132.5703125,-400000.0625,5006.41015625,-400000.0625
212.86134934425354,-400000.0625,-8636.5703125,-3073.449951171875,-400000.0625,-13146.9296875,-400000.0625,4986.72021484375,-400000.0625
212.8613531589508,-400000.0625,-8617.9296875,-3050.85009765625,-400000.0625,-13125.1796875,-400000.0625,5010.509765625,-400000.0625
212.8613567352295,-400000.0625,-8600.5703125,-3028.72998046875,-400000.0625,-13107.5400390625,-400000.0625,5034.10986328125,-400000.0625
