time,ch1,ch2,ch3,ch4,ch5
timestamp,ch7,ch2,ch3,ch5,is_pause
timestamp,ch7,ch2,ch3,ch5,is_pause
timestamp,ch7,ch2,ch3,ch5,is_pause
timestamp,ch7,ch2,ch3,ch5,is_pause
0.05292797088623047,-400000.0625,-8068.85009765625,-2255.43994140625,-400000.0625,-12994.0,-400000.0625,5550.52978515625,-400000.0625
0.052996158599853516,-400000.0625,-8031.509765625,-2215.860107421875,-400000.0625,-12957.1904296875,-400000.0625,5592.5400390625,-400000.0625
0.05300402641296387,-400000.0625,-7825.419921875,-2010.1500244140625,-400000.0625,-12760.16015625,-400000.0625,5803.72998046875,-400000.0625
0.0530087947845459,-400000.0625,-7730.2001953125,-1915.219970703125,-400000.0625,-12663.509765625,-400000.0625,5899.240234375,-400000.0625
0.05301499366760254,-400000.0625,-7890.60986328125,-2077.199951171875,-400000.0625,-12816.0,-400000.0625,5735.58984375,-400000.0625
0.053019046783447266,-400000.0625,-8070.0400390625,-2257.919921875,-400000.0625,-12990.3798828125,-400000.0625,5553.47998046875,-400000.0625
0.05302286148071289,-400000.0625,-8028.990234375,-2215.77001953125,-400000.0625,-12958.150390625,-400000.0625,5594.97021484375,-400000.0625
0.05302619934082031,-400000.0625,-7821.509765625,-2010.5400390625,-400000.0625,-12756.400390625,-400000.0625,5806.39990234375,-400000.0625
0.053029775619506836,-400000.0625,-7729.47998046875,-1917.97998046875,-400000.0625,-12663.75,-400000.0625,5903.85986328125,-400000.0625
0.05303311347961426,-400000.0625,-7885.27001953125,-2072.949951171875,-400000.0625,-12814.6201171875,-400000.0625,5741.4501953125,-400000.0625
0.05303668975830078,-400000.0625,-8065.02978515625,-2251.10009765625,-400000.0625,-12986.23046875,-400000.0625,5558.97021484375,-400000.0625
0.0530400276184082,-400000.0625,-8027.64990234375,-2211.760009765625,-400000.0625,-12949.23046875,-400000.0625,5603.41015625,-400000.0625
0.05304360389709473,-400000.0625,-7825.3798828125,-2010.3900146484375,-400000.0625,-12756.2998046875,-400000.0625,5815.169921875,-400000.0625
0.05304718017578125,-400000.0625,-7733.8701171875,-1919.1700439453125,-400000.0625,-12663.9404296875,-400000.0625,5905.919921875,-400000.0625
0.05305075645446777,-400000.0625,-7891.990234375,-2077.6298828125,-400000.0625,-12814.8603515625,-400000.0625,5736.64013671875,-400000.0625
0.053054094314575195,-400000.0625,-8068.0400390625,-2251.429931640625,-400000.0625,-12986.759765625,-400000.0625,5554.580078125,-400000.0625
timestamp,ch7,ch2,ch3,ch5,is_pause
timestamp,ch7,ch2,ch3,ch5,is_pause
timestamp,ch7,ch2,ch3,ch5,is_pause
timestamp,ch7,ch2,ch3,ch5,is_pause
timestamp,ch7,ch2,ch3,ch5,is_pause
0.11374735832214355,-400000.0625,-8027.080078125,-2211.18994140625,-400000.0625,-12948.2802734375,-400000.0625,5594.68017578125,-400000.0625
0.11387848854064941,-400000.0625,-7827.7099609375,-2012.43994140625,-400000.0625,-12750.9599609375,-400000.0625,5801.14990234375,-400000.0625
0.1138923168182373,-400000.0625,-7734.16015625,-1918.8399658203125,-400000.0625,-12659.26953125,-400000.0625,5898.6201171875,-400000.0625
0.11389636993408203,-400000.0625,-7890.7998046875,-2076.340087890625,-400000.0625,-12813.6201171875,-400000.0625,5733.97021484375,-400000.0625
0.11389994621276855,-400000.0625,-8062.4599609375,-2250.14990234375,-400000.0625,-12982.7998046875,-400000.0625,5554.490234375,-400000.0625
timestamp,ch7,ch2,ch3,ch5,is_pause
0.1184077262878418,-400000.0625,-8024.35986328125,-2210.669921875,-400000.0625,-12951.23046875,-400000.0625,5599.169921875,-400000.0625
0.1184699535369873,-400000.0625,-7826.3798828125,-2008.06005859375,-400000.0625,-12755.009765625,-400000.0625,5809.31005859375,-400000.0625
0.11847543716430664,-400000.0625,-7729.47998046875,-1914.31005859375,-400000.0625,-12658.7900390625,-400000.0625,5905.580078125,-400000.0625
0.11848020553588867,-400000.0625,-7892.990234375,-2076.530029296875,-400000.0625,-12812.4697265625,-400000.0625,5740.31005859375,-400000.0625
0.1184840202331543,-400000.0625,-8073.56982421875,-2254.06005859375,-400000.0625,-12986.6103515625,-400000.0625,5551.72021484375,-400000.0625
0.11848783493041992,-400000.0625,-8028.41015625,-2208.760009765625,-400000.0625,-12945.3701171875,-400000.0625,5595.10986328125,-400000.0625
0.11849164962768555,-400000.0625,-7823.7998046875,-2004.9599609375,-400000.0625,-12751.76953125,-400000.0625,5809.740234375,-400000.0625
0.11849522590637207,-400000.0625,-7735.77978515625,-1916.3599853515625,-400000.0625,-12667.7099609375,-400000.0625,5906.14990234375,-400000.0625
0.1184990406036377,-400000.0625,-7901.18994140625,-2079.6298828125,-400000.0625,-12816.1904296875,-400000.0625,5738.8798828125,-400000.0625
0.11850357055664062,-400000.0625,-8075.91015625,-2253.530029296875,-400000.0625,-12984.4697265625,-400000.0625,5555.919921875,-400000.0625
0.11850690841674805,-400000.0625,-8031.7998046875,-2208.469970703125,-400000.0625,-12949.23046875,-400000.0625,5602.64990234375,-400000.0625
timestamp,ch7,ch2,ch3,ch5,is_pause
timestamp,ch7,ch2,ch3,ch5,is_pause
timestamp,ch7,ch2,ch3,ch5,is_pause
timestamp,ch7,ch2,ch3,ch5,is_pause
0.17053794860839844,-400000.0625,-7831.6201171875,-2009.3900146484375,-400000.0625,-12758.5400390625,-400000.0625,5812.06982421875,-400000.0625
0.17060017585754395,-400000.0625,-7739.8798828125,-1921.4200439453125,-400000.0625,-12663.8896484375,-400000.0625,5902.33984375,-400000.0625
0.17060565948486328,-400000.0625,-7897.18994140625,-2078.340087890625,-400000.0625,-12818.240234375,-400000.0625,5734.919921875,-400000.0625
0.1706099510192871,-400000.0625,-8077.669921875,-2259.110107421875,-400000.0625,-12991.8095703125,-400000.0625,5553.14990234375,-400000.0625
0.17061352729797363,-400000.0625,-8030.990234375,-2211.6201171875,-400000.0625,-12946.419921875,-400000.0625,5597.5400390625,-400000.0625
0.17061734199523926,-400000.0625,-7828.330078125,-2010.1500244140625,-400000.0625,-12758.5400390625,-400000.0625,5806.68994140625,-400000.0625
0.17062091827392578,-400000.0625,-7740.31005859375,-1920.989990234375,-400000.0625,-12666.990234375,-400000.0625,5904.9599609375,-400000.0625
0.1706252098083496,-400000.0625,-7903.81982421875,-2083.159912109375,-400000.0625,-12822.2998046875,-400000.0625,5738.2099609375,-400000.0625
0.17062878608703613,-400000.0625,-8081.06005859375,-2258.489990234375,-400000.0625,-12994.33984375,-400000.0625,5554.72021484375,-400000.0625
0.17063212394714355,-400000.0625,-8036.18994140625,-2213.10009765625,-400000.0625,-12954.900390625,-400000.0625,5596.77978515625,-400000.0625
0.17063570022583008,-400000.0625,-7837.2998046875,-2013.25,-400000.0625,-12757.1103515625,-400000.0625,5804.77978515625,-400000.0625
0.1706392765045166,-400000.0625,-7748.22021484375,-1922.4200439453125,-400000.0625,-12665.3203125,-400000.0625,5895.759765625,-400000.0625
0.17064285278320312,-400000.0625,-7908.77001953125,-2084.110107421875,-400000.0625,-12816.0,-400000.0625,5731.9599609375,-400000.0625
0.1706538200378418,-400000.0625,-8080.52978515625,-2255.14990234375,-400000.0625,-12987.2802734375,-400000.0625,5553.77001953125,-400000.0625
0.17065763473510742,-400000.0625,-8034.60986328125,-2210.050048828125,-400000.0625,-12945.26953125,-400000.0625,5597.5400390625,-400000.0625
0.17066121101379395,-400000.0625,-7831.47998046875,-2009.25,-400000.0625,-12750.150390625,-400000.0625,5802.97021484375,-400000.0625
timestamp,ch7,ch2,ch3,ch5,is_pause
timestamp,ch7,ch2,ch3,ch5,is_pause
timestamp,ch7,ch2,ch3,ch5,is_pause
timestamp,ch7,ch2,ch3,ch5,is_pause
timestamp,ch7,ch2,ch3,ch5,is_pause
0.23058557510375977,-400000.0625,-7743.83984375,-1924.22998046875,-400000.0625,-12666.26953125,-400000.0625,5896.27978515625,-400000.0625
timestamp,ch7,ch2,ch3,ch5,is_pause
0.2334587574005127,-400000.0625,-7906.43994140625,-2085.300048828125,-400000.0625,-12823.0595703125,-400000.0625,5731.2998046875,-400000.0625
0.23347115516662598,-400000.0625,-8076.56982421875,-2253.8701171875,-400000.0625,-12989.9501953125,-400000.0625,5551.009765625,-400000.0625
0.233475923538208,-400000.0625,-8035.7099609375,-2212.760009765625,-400000.0625,-12948.990234375,-400000.0625,5593.68017578125,-400000.0625
0.23347997665405273,-400000.0625,-7838.43994140625,-2014.9200439453125,-400000.0625,-12756.1103515625,-400000.0625,5798.39013671875,-400000.0625
0.23348402976989746,-400000.0625,-7751.31982421875,-1927.18994140625,-400000.0625,-12673.669921875,-400000.0625,5893.27978515625,-400000.0625
0.23348784446716309,-400000.0625,-7902.52978515625,-2081.25,-400000.0625,-12822.2001953125,-400000.0625,5733.009765625,-400000.0625
0.2334916591644287,-400000.0625,-8079.10009765625,-2255.199951171875,-400000.0625,-12994.240234375,-400000.0625,5552.85986328125,-400000.0625
0.23349523544311523,-400000.0625,-8044.39013671875,-2219.25,-400000.0625,-12954.900390625,-400000.0625,5595.16015625,-400000.0625
0.23350095748901367,-400000.0625,-7845.830078125,-2021.739990234375,-400000.0625,-12761.169921875,-400000.0625,5801.009765625,-400000.0625
0.2335045337677002,-400000.0625,-7756.7099609375,-1932.47998046875,-400000.0625,-12674.0498046875,-400000.0625,5890.27001953125,-400000.0625
0.23351311683654785,-400000.0625,-7917.31005859375,-2092.080078125,-400000.0625,-12824.9697265625,-400000.0625,5727.91015625,-400000.0625
0.23351669311523438,-400000.0625,-8086.25,-2262.449951171875,-400000.0625,-12990.91015625,-400000.0625,5551.77001953125,-400000.0625
0.2335202693939209,-400000.0625,-8037.759765625,-2214.81005859375,-400000.0625,-12949.2802734375,-400000.0625,5600.5,-400000.0625
0.23352384567260742,-400000.0625,-7834.580078125,-2012.5899658203125,-400000.0625,-12754.6298828125,-400000.0625,5810.93017578125,-400000.0625
0.23352718353271484,-400000.0625,-7747.60009765625,-1927.9000244140625,-400000.0625,-12673.1904296875,-400000.0625,5903.580078125,-400000.0625
timestamp,ch7,ch2,ch3,ch5,is_pause
timestamp,ch7,ch2,ch3,ch5,is_pause
timestamp,ch7,ch2,ch3,ch5,is_pause
timestamp,ch7,ch2,ch3,ch5,is_pause
timestamp,ch7,ch2,ch3,ch5,is_pause
timestamp,ch7,ch2,ch3,ch5,is_pause
timestamp,ch7,ch2,ch3,ch5,is_pause
timestamp,ch7,ch2,ch3,ch5,is_pause
timestamp,ch7,ch2,ch3,ch5,is_pause
timestamp,ch7,ch2,ch3,ch5,is_pause
0.3567070960998535,-400000.0625,-7909.009765625,-2091.68994140625,-400000.0625,-12823.1103515625,-400000.0625,5733.6298828125,-400000.0625
timestamp,ch7,ch2,ch3,ch5,is_pause
0.3685016632080078,-400000.0625,-8080.9599609375,-2260.39990234375,-400000.0625,-12988.6201171875,-400000.0625,5553.52978515625,-400000.0625
0.37295079231262207,-400000.0625,-8036.9501953125,-2218.340087890625,-400000.0625,-12953.5703125,-400000.0625,5601.31005859375,-400000.0625
0.3729572296142578,-400000.0625,-7840.2099609375,-2023.97998046875,-400000.0625,-12761.5498046875,-400000.0625,5805.5400390625,-400000.0625
0.37296128273010254,-400000.0625,-7752.990234375,-1935.8199462890625,-400000.0625,-12677.6201171875,-400000.0625,5895.56982421875,-400000.0625
0.37296509742736816,-400000.0625,-7914.93017578125,-2095.030029296875,-400000.0625,-12831.4501953125,-400000.0625,5728.580078125,-400000.0625
0.3729686737060547,-400000.0625,-8084.5400390625,-2265.219970703125,-400000.0625,-12992.099609375,-400000.0625,5553.91015625,-400000.0625
0.3729720115661621,-400000.0625,-8038.47021484375,-2217.340087890625,-400000.0625,-12951.08984375,-400000.0625,5603.4599609375,-400000.0625
0.3729836940765381,-400000.0625,-7835.47998046875,-2016.260009765625,-400000.0625,-12756.919921875,-400000.0625,5809.35986328125,-400000.0625
0.3729872703552246,-400000.0625,-7750.85009765625,-1929.81005859375,-400000.0625,-12671.23046875,-400000.0625,5896.89990234375,-400000.0625
0.37299084663391113,-400000.0625,-7915.4501953125,-2090.070068359375,-400000.0625,-12832.259765625,-400000.0625,5734.830078125,-400000.0625
0.37299466133117676,-400000.0625,-8089.2099609375,-2262.8798828125,-400000.0625,-13000.4404296875,-400000.0625,5551.81982421875,-400000.0625
0.3729977607727051,-400000.0625,-8044.669921875,-2219.43994140625,-400000.0625,-12958.7197265625,-400000.0625,5598.2099609375,-400000.0625
0.3730018138885498,-400000.0625,-7844.4501953125,-2017.8299560546875,-400000.0625,-12759.8798828125,-400000.0625,5803.43994140625,-400000.0625
0.37300658226013184,-400000.0625,-7759.759765625,-1933.8599853515625,-400000.0625,-12674.2900390625,-400000.0625,5891.1298828125,-400000.0625
0.37300992012023926,-400000.0625,-7920.89013671875,-2096.27001953125,-400000.0625,-12834.5498046875,-400000.0625,5723.9501953125,-400000.0625
0.3730134963989258,-400000.0625,-8090.06982421875,-2267.60009765625,-400000.0625,-13004.1103515625,-400000.0625,5546.89990234375,-400000.0625
0.3730170726776123,-400000.0625,-8044.81982421875,-2218.530029296875,-400000.0625,-12961.009765625,-400000.0625,5594.25,-400000.0625
0.37302064895629883,-400000.0625,-7847.2099609375,-2020.1700439453125,-400000.0625,-12766.98046875,-400000.0625,5801.580078125,-400000.0625
0.37302422523498535,-400000.0625,-7758.6201171875,-1934.9599609375,-400000.0625,-12681.0595703125,-400000.0625,5890.22998046875,-400000.0625
0.3730275630950928,-400000.0625,-7917.830078125,-2092.27001953125,-400000.0625,-12830.4501953125,-400000.0625,5725.91015625,-400000.0625
0.3730311393737793,-400000.0625,-8090.2099609375,-2264.97998046875,-400000.0625,-13001.009765625,-400000.0625,5548.3798828125,-400000.0625
0.3730354309082031,-400000.0625,-8054.10986328125,-2223.679931640625,-400000.0625,-12959.8203125,-400000.0625,5590.580078125,-400000.0625
0.37303900718688965,-400000.0625,-7867.43017578125,-2030.22998046875,-400000.0625,-12768.3701171875,-400000.0625,5789.60986328125,-400000.0625
0.37304234504699707,-400000.0625,-7788.0400390625,-1944.449951171875,-400000.0625,-12681.2900390625,-400000.0625,5877.64013671875,-400000.0625
0.3730459213256836,-400000.0625,-7939.85986328125,-2098.659912109375,-400000.0625,-12828.0703125,-400000.0625,5716.89990234375,-400000.0625
0.3730494976043701,-400000.0625,-8104.47021484375,-2268.219970703125,-400000.0625,-12988.6201171875,-400000.0625,5534.7900390625,-400000.0625
0.37305283546447754,-400000.0625,-8078.6201171875,-2230.219970703125,-400000.0625,-12940.2197265625,-400000.0625,5571.080078125,-400000.0625
0.37305617332458496,-400000.0625,-7886.35986328125,-2034.3800048828125,-400000.0625,-12742.1904296875,-400000.0625,5765.14990234375,-400000.0625
0.3730597496032715,-400000.0625,-7805.68017578125,-1952.5999755859375,-400000.0625,-12646.76953125,-400000.0625,5839.6298828125,-400000.0625
0.3730630874633789,-400000.0625,-7980.5400390625,-2120.8798828125,-400000.0625,-12798.740234375,-400000.0625,5662.490234375,-400000.0625
0.37306666374206543,-400000.0625,-8163.31005859375,-2296.02001953125,-400000.0625,-12965.349609375,-400000.0625,5479.72021484375,-400000.0625
timestamp,ch7,ch2,ch3,ch5,is_pause
timestamp,ch7,ch2,ch3,ch5,is_pause
timestamp,ch7,ch2,ch3,ch5,is_pause
timestamp,ch7,ch2,ch3,ch5,is_pause
timestamp,ch7,ch2,ch3,ch5,is_pause
timestamp,ch7,ch2,ch3,ch5,is_pause
0.436309814453125,-400000.0625,-8121.919921875,-2244.52001953125,-400000.0625,-12928.009765625,-400000.0625,5527.16015625,-400000.0625
0.44092679023742676,-400000.0625,-7927.990234375,-2049.39990234375,-400000.0625,-12723.259765625,-400000.0625,5726.39013671875,-400000.0625
0.4409339427947998,-400000.0625,-7859.27978515625,-1974.06005859375,-400000.0625,-12643.48046875,-400000.0625,5806.8798828125,-400000.0625
0.44093942642211914,-400000.0625,-8022.35986328125,-2134.56005859375,-400000.0625,-12800.740234375,-400000.0625,5632.93017578125,-400000.0625
0.44094371795654297,-400000.0625,-8192.58984375,-2301.7900390625,-400000.0625,-12964.6796875,-400000.0625,5450.2998046875,-400000.0625
0.4409472942352295,-400000.0625,-8146.240234375,-2254.9599609375,-400000.0625,-12919.9501953125,-400000.0625,5495.02001953125,-400000.0625
0.440950870513916,-400000.0625,-7949.77978515625,-2052.5,-400000.0625,-12724.2099609375,-400000.0625,5702.97021484375,-400000.0625
0.44095444679260254,-400000.0625,-7861.89990234375,-1965.18994140625,-400000.0625,-12636.6201171875,-400000.0625,5792.18994140625,-400000.0625
0.44095778465270996,-400000.0625,-8033.22998046875,-2133.56005859375,-400000.0625,-12806.7998046875,-400000.0625,5621.14990234375,-400000.0625
0.4409613609313965,-400000.0625,-8206.6103515625,-2304.64990234375,-400000.0625,-12968.01953125,-400000.0625,5440.240234375,-400000.0625
0.440964937210083,-400000.0625,-8150.47998046875,-2250.669921875,-400000.0625,-12914.51953125,-400000.0625,5494.35986328125,-400000.0625
0.44096827507019043,-400000.0625,-7952.7900390625,-2050.300048828125,-400000.0625,-12724.1103515625,-400000.0625,5696.8701171875,-400000.0625
0.44097185134887695,-400000.0625,-7875.97021484375,-1970.239990234375,-400000.0625,-12642.8095703125,-400000.0625,5784.22998046875,-400000.0625
0.4409754276275635,-400000.0625,-8040.52001953125,-2134.610107421875,-400000.0625,-12806.75,-400000.0625,5616.85986328125,-400000.0625
0.4409787654876709,-400000.0625,-8205.41015625,-2299.39990234375,-400000.0625,-12969.349609375,-400000.0625,5440.66015625,-400000.0625
0.4409823417663574,-400000.0625,-8153.490234375,-2247.47998046875,-400000.0625,-12922.9599609375,-400000.0625,5492.740234375,-400000.0625
timestamp,ch7,ch2,ch3,ch5,is_pause
timestamp,ch7,ch2,ch3,ch5,is_pause
timestamp,ch7,ch2,ch3,ch5,is_pause
timestamp,ch7,ch2,ch3,ch5,is_pause
0.49068522453308105,-400000.0625,-7954.35986328125,-2049.489990234375,-400000.0625,-12726.6396484375,-400000.0625,5702.39990234375,-400000.0625
timestamp,ch7,ch2,ch3,ch5,is_pause
0.5019664764404297,-400000.0625,-7868.43017578125,-1964.18994140625,-400000.0625,-12651.25,-400000.0625,5791.81005859375,-400000.0625
0.5065014362335205,-400000.0625,-8034.47021484375,-2128.699951171875,-400000.0625,-12818.150390625,-400000.0625,5619.10009765625,-400000.0625
0.5065090656280518,-400000.0625,-8209.51953125,-2301.260009765625,-400000.0625,-12982.0400390625,-400000.0625,5443.0498046875,-400000.0625
0.5065133571624756,-400000.0625,-8151.39013671875,-2246.7099609375,-400000.0625,-12932.830078125,-400000.0625,5496.68994140625,-400000.0625
0.5065171718597412,-400000.0625,-7947.8798828125,-2046.6300048828125,-400000.0625,-12728.6904296875,-400000.0625,5708.080078125,-400000.0625
0.5065209865570068,-400000.0625,-7862.47021484375,-1959.7099609375,-400000.0625,-12651.400390625,-400000.0625,5797.580078125,-400000.0625
0.5065248012542725,-400000.0625,-8024.5498046875,-2122.260009765625,-400000.0625,-12815.1904296875,-400000.0625,5627.81982421875,-400000.0625
0.506528377532959,-400000.0625,-8197.8798828125,-2292.199951171875,-400000.0625,-12982.0400390625,-400000.0625,5451.009765625,-400000.0625
0.5065324306488037,-400000.0625,-8146.52978515625,-2240.610107421875,-400000.0625,-12929.9697265625,-400000.0625,5505.1298828125,-400000.0625
0.5065360069274902,-400000.0625,-7943.919921875,-2036.7099609375,-400000.0625,-12735.3203125,-400000.0625,5718.759765625,-400000.0625
0.5065398216247559,-400000.0625,-7861.7099609375,-1954.030029296875,-400000.0625,-12648.2001953125,-400000.0625,5800.43994140625,-400000.0625
0.5065474510192871,-400000.0625,-8025.02978515625,-2118.39990234375,-400000.0625,-12805.0302734375,-400000.0625,5629.68017578125,-400000.0625
0.5065512657165527,-400000.0625,-8197.259765625,-2291.72998046875,-400000.0625,-12980.26953125,-400000.0625,5449.10009765625,-400000.0625
0.506556510925293,-400000.0625,-8148.240234375,-2241.56005859375,-400000.0625,-12935.9296875,-400000.0625,5500.93994140625,-400000.0625
0.5065605640411377,-400000.0625,-7944.919921875,-2036.8599853515625,-400000.0625,-12735.26953125,-400000.0625,5717.66015625,-400000.0625
timestamp,ch7,ch2,ch3,ch5,is_pause
timestamp,ch7,ch2,ch3,ch5,is_pause
timestamp,ch7,ch2,ch3,ch5,is_pause
timestamp,ch7,ch2,ch3,ch5,is_pause
timestamp,ch7,ch2,ch3,ch5,is_pause
0.5617620944976807,-400000.0625,-7861.9501953125,-1954.510009765625,-400000.0625,-12653.0703125,-400000.0625,5807.2099609375,-400000.0625
timestamp,ch7,ch2,ch3,ch5,is_pause
0.5684587955474854,-400000.0625,-8027.02978515625,-2119.159912109375,-400000.0625,-12809.7998046875,-400000.0625,5632.31005859375,-400000.0625
0.5724539756774902,-400000.0625,-8193.6796875,-2288.909912109375,-400000.0625,-12979.9404296875,-400000.0625,5457.2099609375,-400000.0625
0.5724613666534424,-400000.0625,-8144.81005859375,-2239.659912109375,-400000.0625,-12940.0302734375,-400000.0625,5511.89990234375,-400000.0625
0.5724654197692871,-400000.0625,-7938.81982421875,-2035.5699462890625,-400000.0625,-12733.3203125,-400000.0625,5720.43017578125,-400000.0625
0.5724694728851318,-400000.0625,-7851.22021484375,-1949.6400146484375,-400000.0625,-12647.1103515625,-400000.0625,5806.5400390625,-400000.0625
0.5724730491638184,-400000.0625,-8021.8798828125,-2116.06005859375,-400000.0625,-12816.3798828125,-400000.0625,5635.31005859375,-400000.0625
0.572476863861084,-400000.0625,-8196.9697265625,-2287.47998046875,-400000.0625,-12987.9501953125,-400000.0625,5458.1201171875,-400000.0625
0.5724802017211914,-400000.0625,-8142.27978515625,-2233.360107421875,-400000.0625,-12934.5,-400000.0625,5510.9501953125,-400000.0625
0.572484016418457,-400000.0625,-7939.85986328125,-2033.469970703125,-400000.0625,-12737.6103515625,-400000.0625,5718.990234375,-400000.0625
0.5724873542785645,-400000.0625,-7854.64990234375,-1951.0699462890625,-400000.0625,-12654.2099609375,-400000.0625,5803.97021484375,-400000.0625
0.5724911689758301,-400000.0625,-8023.5498046875,-2118.2099609375,-400000.0625,-12819.009765625,-400000.0625,5629.830078125,-400000.0625
0.572498083114624,-400000.0625,-8195.01953125,-2288.010009765625,-400000.0625,-12985.0400390625,-400000.0625,5452.10986328125,-400000.0625
0.5725018978118896,-400000.0625,-8135.60986328125,-2229.7900390625,-400000.0625,-12932.5400390625,-400000.0625,5512.2900390625,-400000.0625
0.5725054740905762,-400000.0625,-7930.3798828125,-2025.8900146484375,-400000.0625,-12733.080078125,-400000.0625,5724.10009765625,-400000.0625
0.5725102424621582,-400000.0625,-7849.64990234375,-1945.8299560546875,-400000.0625,-12647.009765625,-400000.0625,5808.5400390625,-400000.0625
timestamp,ch7,ch2,ch3,ch5,is_pause
timestamp,ch7,ch2,ch3,ch5,is_pause
timestamp,ch7,ch2,ch3,ch5,is_pause
timestamp,ch7,ch2,ch3,ch5,is_pause
timestamp,ch7,ch2,ch3,ch5,is_pause
0.6281332969665527,-400000.0625,-8018.35009765625,-2113.9599609375,-400000.0625,-12825.5400390625,-400000.0625,5634.830078125,-400000.0625
timestamp,ch7,ch2,ch3,ch5,is_pause
0.6390841007232666,-400000.0625,-8193.4501953125,-2286.6298828125,-400000.0625,-12989.0498046875,-400000.0625,5456.64013671875,-400000.0625
0.6431899070739746,-400000.0625,-8132.5498046875,-2225.969970703125,-400000.0625,-12929.6298828125,-400000.0625,5516.580078125,-400000.0625
0.6431984901428223,-400000.0625,-7927.3701171875,-2021.8900146484375,-400000.0625,-12735.6103515625,-400000.0625,5729.490234375,-400000.0625
0.6432027816772461,-400000.0625,-7851.7900390625,-1946.6400146484375,-400000.0625,-12658.0302734375,-400000.0625,5808.68994140625,-400000.0625
0.6432068347930908,-400000.0625,-8018.8798828125,-2113.43994140625,-400000.0625,-12819.580078125,-400000.0625,5633.64013671875,-400000.0625
0.6432106494903564,-400000.0625,-8187.72021484375,-2283.18994140625,-400000.0625,-12981.4599609375,-400000.0625,5459.35986328125,-400000.0625
0.643214225769043,-400000.0625,-8135.83984375,-2228.639892578125,-400000.0625,-12931.7802734375,-400000.0625,5516.2001953125,-400000.0625
0.6432197093963623,-400000.0625,-7928.7998046875,-2023.219970703125,-400000.0625,-12733.8896484375,-400000.0625,5728.77001953125,-400000.0625
0.6432232856750488,-400000.0625,-7843.77978515625,-1940.6800537109375,-400000.0625,-12653.8798828125,-400000.0625,5813.89013671875,-400000.0625
0.6432268619537354,-400000.0625,-8016.77978515625,-2116.389892578125,-400000.0625,-12817.1904296875,-400000.0625,5634.259765625,-400000.0625
0.643230676651001,-400000.0625,-8190.81982421875,-2289.6298828125,-400000.0625,-12987.9501953125,-400000.0625,5454.25,-400000.0625
0.6432342529296875,-400000.0625,-8126.8798828125,-2226.02001953125,-400000.0625,-12931.2099609375,-400000.0625,5517.52978515625,-400000.0625
0.643237829208374,-400000.0625,-7921.5498046875,-2020.0699462890625,-400000.0625,-12727.4501953125,-400000.0625,5730.919921875,-400000.0625
0.6432416439056396,-400000.0625,-7844.1201171875,-1943.1600341796875,-400000.0625,-12651.7802734375,-400000.0625,5811.97998046875,-400000.0625
0.6432452201843262,-400000.0625,-8016.58984375,-2115.06005859375,-400000.0625,-12820.8701171875,-400000.0625,5636.740234375,-400000.0625
timestamp,ch7,ch2,ch3,ch5,is_pause
timestamp,ch7,ch2,ch3,ch5,is_pause
timestamp,ch7,ch2,ch3,ch5,is_pause
timestamp,ch7,ch2,ch3,ch5,is_pause
timestamp,ch7,ch2,ch3,ch5,is_pause
0.7049334049224854,-400000.0625,-8189.35009765625,-2287.580078125,-400000.0625,-12989.08984375,-400000.0625,5458.8798828125,-400000.0625
timestamp,ch7,ch2,ch3,ch5,is_pause
0.7110745906829834,-400000.0625,-8136.27001953125,-2234.699951171875,-400000.0625,-12938.0703125,-400000.0625,5514.18994140625,-400000.0625
0.7154276371002197,-400000.0625,-7931.18994140625,-2031.6099853515625,-400000.0625,-12736.66015625,-400000.0625,5726.52978515625,-400000.0625
0.7154355049133301,-400000.0625,-7850.97998046875,-1953.4100341796875,-400000.0625,-12657.01953125,-400000.0625,5809.16015625,-400000.0625
0.715440034866333,-400000.0625,-8020.39990234375,-2122.830078125,-400000.0625,-12818.2900390625,-400000.0625,5634.4501953125,-400000.0625
0.7154443264007568,-400000.0625,-8188.43994140625,-2292.35009765625,-400000.0625,-12993.4296875,-400000.0625,5458.64013671875,-400000.0625
0.7157340049743652,-400000.0625,-8127.58984375,-2233.080078125,-400000.0625,-12943.080078125,-400000.0625,5522.2998046875,-400000.0625
0.7157378196716309,-400000.0625,-7924.64990234375,-2029.3199462890625,-400000.0625,-12742.2802734375,-400000.0625,5733.06005859375,-400000.0625
0.7157413959503174,-400000.0625,-7844.97021484375,-1951.0699462890625,-400000.0625,-12661.740234375,-400000.0625,5813.02978515625,-400000.0625
0.715745210647583,-400000.0625,-8017.10986328125,-2122.739990234375,-400000.0625,-12831.830078125,-400000.0625,5634.97998046875,-400000.0625
0.715749979019165,-400000.0625,-8183.669921875,-2289.14990234375,-400000.0625,-12994.8603515625,-400000.0625,5461.97998046875,-400000.0625
0.7157537937164307,-400000.0625,-8125.77978515625,-2232.219970703125,-400000.0625,-12936.9296875,-400000.0625,5519.2001953125,-400000.0625
0.7157573699951172,-400000.0625,-7924.41015625,-2032.6099853515625,-400000.0625,-12738.51953125,-400000.0625,5730.2998046875,-400000.0625
0.7157623767852783,-400000.0625,-7843.5,-1953.4100341796875,-400000.0625,-12664.650390625,-400000.0625,5809.31005859375,-400000.0625
0.715766429901123,-400000.0625,-8013.6298828125,-2122.739990234375,-400000.0625,-12829.6904296875,-400000.0625,5632.16015625,-400000.0625
0.7157700061798096,-400000.0625,-8179.9501953125,-2290.340087890625,-400000.0625,-12991.7197265625,-400000.0625,5459.39990234375,-400000.0625
timestamp,ch7,ch2,ch3,ch5,is_pause
timestamp,ch7,ch2,ch3,ch5,is_pause
timestamp,ch7,ch2,ch3,ch5,is_pause
timestamp,ch7,ch2,ch3,ch5,is_pause
0.7617568969726562,-400000.0625,-8120.77978515625,-2230.5,-400000.0625,-12931.919921875,-400000.0625,5520.68017578125,-400000.0625
timestamp,ch7,ch2,ch3,ch5,is_pause
0.7716007232666016,-400000.0625,-7923.83984375,-2030.7099609375,-400000.0625,-12740.1796875,-400000.0625,5727.669921875,-400000.0625
0.7756001949310303,-400000.0625,-7848.740234375,-1958.56005859375,-400000.0625,-12664.0302734375,-400000.0625,5802.490234375,-400000.0625
0.7756078243255615,-400000.0625,-8017.490234375,-2129.510009765625,-400000.0625,-12827.7802734375,-400000.0625,5628.81982421875,-400000.0625
0.7756118774414062,-400000.0625,-8185.0498046875,-2295.780029296875,-400000.0625,-12996.25,-400000.0625,5453.2099609375,-400000.0625
0.775615930557251,-400000.0625,-8127.169921875,-2236.4599609375,-400000.0625,-12938.9296875,-400000.0625,5516.9599609375,-400000.0625
0.7756197452545166,-400000.0625,-7923.89013671875,-2032.52001953125,-400000.0625,-12742.849609375,-400000.0625,5728.81982421875,-400000.0625
0.7756233215332031,-400000.0625,-7838.5400390625,-1951.8900146484375,-400000.0625,-12663.9404296875,-400000.0625,5808.259765625,-400000.0625
0.7756268978118896,-400000.0625,-8012.81982421875,-2122.35009765625,-400000.0625,-12827.0595703125,-400000.0625,5632.1201171875,-400000.0625
0.7756304740905762,-400000.0625,-8188.6298828125,-2292.43994140625,-400000.0625,-13003.4501953125,-400000.0625,5454.35009765625,-400000.0625
0.7756340503692627,-400000.0625,-8142.6201171875,-2233.409912109375,-400000.0625,-12950.0400390625,-400000.0625,5514.6201171875,-400000.0625
0.7756376266479492,-400000.0625,-7946.06005859375,-2031.22998046875,-400000.0625,-12749.2900390625,-400000.0625,5724.33984375,-400000.0625
0.7756409645080566,-400000.0625,-7846.64013671875,-1941.300048828125,-400000.0625,-12661.740234375,-400000.0625,5803.16015625,-400000.0625
0.7756445407867432,-400000.0625,-8003.240234375,-2104.949951171875,-400000.0625,-12820.91015625,-400000.0625,5615.08984375,-400000.0625
0.7756483554840088,-400000.0625,-8178.0,-2272.080078125,-400000.0625,-12991.9501953125,-400000.0625,5435.52001953125,-400000.0625
0.7756521701812744,-400000.0625,-8112.72021484375,-2203.659912109375,-400000.0625,-12928.2998046875,-400000.0625,5493.8798828125,-400000.0625
timestamp,ch7,ch2,ch3,ch5,is_pause
timestamp,ch7,ch2,ch3,ch5,is_pause
timestamp,ch7,ch2,ch3,ch5,is_pause
0.8091957569122314,-400000.0625,-7903.85986328125,-1992.989990234375,-400000.0625,-12725.3095703125,-400000.0625,5697.8701171875,-400000.0625
timestamp,ch7,ch2,ch3,ch5,is_pause
0.8183362483978271,-400000.0625,-7835.25,-1910.449951171875,-400000.0625,-12648.2998046875,-400000.0625,5771.2099609375,-400000.0625
0.8229005336761475,-400000.0625,-8005.240234375,-2073.18994140625,-400000.0625,-12814.4296875,-400000.0625,5590.33984375,-400000.0625
0.8229098320007324,-400000.0625,-8166.22021484375,-2235.889892578125,-400000.0625,-12984.5595703125,-400000.0625,5412.91015625,-400000.0625
0.8229146003723145,-400000.0625,-8103.60986328125,-2171.7099609375,-400000.0625,-12928.009765625,-400000.0625,5472.7099609375,-400000.0625
0.8229188919067383,-400000.0625,-7906.33984375,-1968.6700439453125,-400000.0625,-12728.3095703125,-400000.0625,5681.18017578125,-400000.0625
0.822922945022583,-400000.0625,-7829.47998046875,-1891.800048828125,-400000.0625,-12651.490234375,-400000.0625,5755.52001953125,-400000.0625
0.8229267597198486,-400000.0625,-8005.43017578125,-2064.7099609375,-400000.0625,-12821.6298828125,-400000.0625,5575.509765625,-400000.0625
0.822932243347168,-400000.0625,-8172.419921875,-2230.1201171875,-400000.0625,-12984.66015625,-400000.0625,5404.47021484375,-400000.0625
0.8229362964630127,-400000.0625,-8107.419921875,-2168.3701171875,-400000.0625,-12924.2900390625,-400000.0625,5472.85009765625,-400000.0625
0.8229403495788574,-400000.0625,-7901.91015625,-1962.469970703125,-400000.0625,-12728.5498046875,-400000.0625,5684.330078125,-400000.0625
0.822944164276123,-400000.0625,-7826.89990234375,-1889.0400390625,-400000.0625,-12658.3095703125,-400000.0625,5763.580078125,-400000.0625
0.8229479789733887,-400000.0625,-7996.22998046875,-2061.64990234375,-400000.0625,-12826.490234375,-400000.0625,5585.6201171875,-400000.0625
0.8229520320892334,-400000.0625,-8163.5,-2230.449951171875,-400000.0625,-12980.1298828125,-400000.0625,5410.81005859375,-400000.0625
0.822955846786499,-400000.0625,-8101.75,-2167.93994140625,-400000.0625,-12928.490234375,-400000.0625,5473.9501953125,-400000.0625
0.8229644298553467,-400000.0625,-7900.330078125,-1965.7099609375,-400000.0625,-12734.6103515625,-400000.0625,5683.14013671875,-400000.0625
timestamp,ch7,ch2,ch3,ch5,is_pause
timestamp,ch7,ch2,ch3,ch5,is_pause
timestamp,ch7,ch2,ch3,ch5,is_pause
timestamp,ch7,ch2,ch3,ch5,is_pause
timestamp,ch7,ch2,ch3,ch5,is_pause
0.8780534267425537,-400000.0625,-7822.22998046875,-1890.989990234375,-400000.0625,-12665.4599609375,-400000.0625,5764.2900390625,-400000.0625
timestamp,ch7,ch2,ch3,ch5,is_pause
0.8885746002197266,-400000.0625,-7987.740234375,-2057.889892578125,-400000.0625,-12823.8701171875,-400000.0625,5589.009765625,-400000.0625
0.892845869064331,-400000.0625,-8157.2099609375,-2227.590087890625,-400000.0625,-12987.4697265625,-400000.0625,5417.39990234375,-400000.0625
0.8928542137145996,-400000.0625,-8098.64990234375,-2167.56005859375,-400000.0625,-12935.9697265625,-400000.0625,5478.52978515625,-400000.0625
0.8928589820861816,-400000.0625,-7895.0400390625,-1963.3299560546875,-400000.0625,-12736.0400390625,-400000.0625,5690.580078125,-400000.0625
0.8928632736206055,-400000.0625,-7816.509765625,-1888.469970703125,-400000.0625,-12660.4599609375,-400000.0625,5769.43994140625,-400000.0625
0.8928673267364502,-400000.0625,-7985.77978515625,-2056.219970703125,-400000.0625,-12826.6796875,-400000.0625,5589.77001953125,-400000.0625
0.8928713798522949,-400000.0625,-8151.81982421875,-2219.110107421875,-400000.0625,-12986.1396484375,-400000.0625,5422.259765625,-400000.0625
0.8928754329681396,-400000.0625,-8084.6298828125,-2155.969970703125,-400000.0625,-12930.5400390625,-400000.0625,5486.6298828125,-400000.0625
0.8928792476654053,-400000.0625,-7885.080078125,-1958.8499755859375,-400000.0625,-12736.419921875,-400000.0625,5685.3798828125,-400000.0625
0.89288330078125,-400000.0625,-7820.22998046875,-1887.6099853515625,-400000.0625,-12660.4599609375,-400000.0625,5754.759765625,-400000.0625
0.8928868770599365,-400000.0625,-8004.3798828125,-2060.56005859375,-400000.0625,-12826.830078125,-400000.0625,5595.02001953125,-400000.0625
0.8928906917572021,-400000.0625,-8175.56005859375,-2210.860107421875,-400000.0625,-12981.5595703125,-400000.0625,5435.85009765625,-400000.0625
0.8928978443145752,-400000.0625,-8128.5498046875,-2131.56005859375,-400000.0625,-12922.48046875,-400000.0625,5480.47998046875,-400000.0625
0.8929049968719482,-400000.0625,-7923.7900390625,-1944.68994140625,-400000.0625,-12726.740234375,-400000.0625,5681.7998046875,-400000.0625
0.892909049987793,-400000.0625,-7861.6201171875,-1874.9200439453125,-400000.0625,-12651.9697265625,-400000.0625,5782.64990234375,-400000.0625
timestamp,ch7,ch2,ch3,ch5,is_pause
timestamp,ch7,ch2,ch3,ch5,is_pause
timestamp,ch7,ch2,ch3,ch5,is_pause
timestamp,ch7,ch2,ch3,ch5,is_pause
0.935044527053833,-400000.0625,-8051.10986328125,-2103.419921875,-400000.0625,-12821.009765625,-400000.0625,5515.0,-400000.0625
0.9424326419830322,-400000.0625,-8181.3798828125,-2211.6201171875,-400000.0625,-12963.580078125,-400000.0625,5365.0400390625,-400000.0625
timestamp,ch7,ch2,ch3,ch5,is_pause
0.9475893974304199,-400000.0625,-8119.2001953125,-2178.340087890625,-400000.0625,-12903.740234375,-400000.0625,5403.330078125,-400000.0625
0.9525711536407471,-400000.0625,-7940.52978515625,-2148.489990234375,-400000.0625,-12697.509765625,-400000.0625,5695.06005859375,-400000.0625
0.9525799751281738,-400000.0625,-7828.330078125,-1922.989990234375,-400000.0625,-12631.3701171875,-400000.0625,5804.919921875,-400000.0625
0.9525859355926514,-400000.0625,-8086.830078125,-2051.929931640625,-400000.0625,-12776.330078125,-400000.0625,5551.009765625,-400000.0625
0.9525902271270752,-400000.0625,-8347.1796875,-2277.659912109375,-400000.0625,-12907.0302734375,-400000.0625,5344.2998046875,-400000.0625
0.9525940418243408,-400000.0625,-8367.9697265625,-2278.22998046875,-400000.0625,-12824.349609375,-400000.0625,5391.02978515625,-400000.0625
0.9525983333587646,-400000.0625,-8136.7001953125,-2101.179931640625,-400000.0625,-12605.7197265625,-400000.0625,5594.77978515625,-400000.0625
0.9526021480560303,-400000.0625,-7998.89990234375,-2044.3399658203125,-400000.0625,-12542.919921875,-400000.0625,5605.1298828125,-400000.0625
0.9570188522338867,-400000.0625,-8253.8603515625,-2226.02001953125,-400000.0625,-12673.0,-400000.0625,5512.52001953125,-400000.0625
0.9570271968841553,-400000.0625,-8459.6201171875,-2295.489990234375,-400000.0625,-12804.0302734375,-400000.0625,5366.85009765625,-400000.0625
0.9570329189300537,-400000.0625,-8421.1396484375,-2213.050048828125,-400000.0625,-12742.9501953125,-400000.0625,5416.16015625,-400000.0625
0.9570369720458984,-400000.0625,-8229.349609375,-2052.02001953125,-400000.0625,-12546.4501953125,-400000.0625,5548.47998046875,-400000.0625
0.9570410251617432,-400000.0625,-8081.2900390625,-1982.550048828125,-400000.0625,-12494.1796875,-400000.0625,5687.43017578125,-400000.0625
0.9570455551147461,-400000.0625,-8249.1904296875,-2131.3701171875,-400000.0625,-12637.3798828125,-400000.0625,5530.169921875,-400000.0625
timestamp,ch7,ch2,ch3,ch5,is_pause
timestamp,ch7,ch2,ch3,ch5,is_pause
timestamp,ch7,ch2,ch3,ch5,is_pause
timestamp,ch7,ch2,ch3,ch5,is_pause
timestamp,ch7,ch2,ch3,ch5,is_pause
timestamp,ch7,ch2,ch3,ch5,is_pause
timestamp,ch7,ch2,ch3,ch5,is_pause
timestamp,ch7,ch2,ch3,ch5,is_pause
timestamp,ch7,ch2,ch3,ch5,is_pause
1.0598318576812744,-400000.0625,-8417.080078125,-2254.300048828125,-400000.0625,-12768.599609375,-400000.0625,5351.259765625,-400000.0625
timestamp,ch7,ch2,ch3,ch5,is_pause
1.0742568969726562,-400000.0625,-8333.6396484375,-2178.0,-400000.0625,-12707.0400390625,-400000.0625,5457.68994140625,-400000.0625
1.0795180797576904,-400000.0625,-8144.43017578125,-1945.8299560546875,-400000.0625,-12509.400390625,-400000.0625,5666.72998046875,-400000.0625
timestamp,ch7,ch2,ch3,ch5,is_pause
1.085392951965332,-400000.0625,-8143.27978515625,-1887.27001953125,-400000.0625,-12435.76953125,-400000.0625,5733.81982421875,-400000.0625
1.0902502536773682,-400000.0625,-8182.81005859375,-2061.27001953125,-400000.0625,-12596.6103515625,-400000.0625,5529.830078125,-400000.0625
1.0902578830718994,-400000.0625,-8350.75,-2211.6201171875,-400000.0625,-12744.9501953125,-400000.0625,5356.97998046875,-400000.0625
1.0902626514434814,-400000.0625,-8277.23046875,-2128.739990234375,-400000.0625,-12662.080078125,-400000.0625,5448.8701171875,-400000.0625
1.0902705192565918,-400000.0625,-8083.14990234375,-1914.68994140625,-400000.0625,-12458.990234375,-400000.0625,5658.39013671875,-400000.0625
1.0902745723724365,-400000.0625,-7980.009765625,-1847.510009765625,-400000.0625,-12376.599609375,-400000.0625,5730.2998046875,-400000.0625
1.0902783870697021,-400000.0625,-8135.1298828125,-2018.4000244140625,-400000.0625,-12542.25,-400000.0625,5553.68017578125,-400000.0625
1.0902822017669678,-400000.0625,-8284.1396484375,-2175.669921875,-400000.0625,-12701.6103515625,-400000.0625,5380.10986328125,-400000.0625
1.0902860164642334,-400000.0625,-8188.72998046875,-2094.699951171875,-400000.0625,-12625.0302734375,-400000.0625,5445.77001953125,-400000.0625
1.090289831161499,-400000.0625,-7958.080078125,-1885.75,-400000.0625,-12419.3203125,-400000.0625,5651.6201171875,-400000.0625
1.0902934074401855,-400000.0625,-7871.490234375,-1808.31005859375,-400000.0625,-12349.419921875,-400000.0625,5720.18994140625,-400000.0625
1.0902976989746094,-400000.0625,-8032.3701171875,-1978.9200439453125,-400000.0625,-12529.08984375,-400000.0625,5541.56005859375,-400000.0625
1.090301513671875,-400000.0625,-8176.330078125,-2142.330078125,-400000.0625,-12697.26953125,-400000.0625,5372.330078125,-400000.0625
timestamp,ch7,ch2,ch3,ch5,is_pause
timestamp,ch7,ch2,ch3,ch5,is_pause
timestamp,ch7,ch2,ch3,ch5,is_pause
1.1199626922607422,-400000.0625,-8089.64013671875,-2064.419921875,-400000.0625,-12622.41015625,-400000.0625,5438.85009765625,-400000.0625
1.1272671222686768,-400000.0625,-7877.68017578125,-1856.989990234375,-400000.0625,-12424.1796875,-400000.0625,5655.14990234375,-400000.0625
timestamp,ch7,ch2,ch3,ch5,is_pause
1.133049488067627,-400000.0625,-7789.18017578125,-1780.1300048828125,-400000.0625,-12366.580078125,-400000.0625,5734.35009765625,-400000.0625
1.1383178234100342,-400000.0625,-7945.16015625,-1950.449951171875,-400000.0625,-12538.0498046875,-400000.0625,5556.490234375,-400000.0625
timestamp,ch7,ch2,ch3,ch5,is_pause
1.1442077159881592,-400000.0625,-8095.1201171875,-2116.780029296875,-400000.0625,-12701.26953125,-400000.0625,5388.8798828125,-400000.0625
1.1493687629699707,-400000.0625,-8010.91015625,-2046.72998046875,-400000.0625,-12643.76953125,-400000.0625,5464.7900390625,-400000.0625
timestamp,ch7,ch2,ch3,ch5,is_pause
1.1551194190979004,-400000.0625,-7788.330078125,-1841.739990234375,-400000.0625,-12461.3798828125,-400000.0625,5680.85009765625,-400000.0625
timestamp,ch7,ch2,ch3,ch5,is_pause
1.166640043258667,-400000.0625,-7702.2998046875,-1772.3599853515625,-400000.0625,-12401.6796875,-400000.0625,5759.33984375,-400000.0625
1.1764042377471924,-400000.0625,-7867.9599609375,-1947.5899658203125,-400000.0625,-12580.009765625,-400000.0625,5577.47021484375,-400000.0625
timestamp,ch7,ch2,ch3,ch5,is_pause
1.1824657917022705,-400000.0625,-8027.1298828125,-2114.6298828125,-400000.0625,-12749.009765625,-400000.0625,5400.1298828125,-400000.0625
1.187988042831421,-400000.0625,-7952.06982421875,-2044.489990234375,-400000.0625,-12684.4404296875,-400000.0625,5474.14013671875,-400000.0625
timestamp,ch7,ch2,ch3,ch5,is_pause
1.1944324970245361,-400000.0625,-7740.2099609375,-1842.68994140625,-400000.0625,-12500.6201171875,-400000.0625,5685.27978515625,-400000.0625
1.2001776695251465,-400000.0625,-7669.77978515625,-1784.3699951171875,-400000.0625,-12444.2099609375,-400000.0625,5751.27978515625,-400000.0625
timestamp,ch7,ch2,ch3,ch5,is_pause
1.2060904502868652,-400000.0625,-7844.97021484375,-1967.050048828125,-400000.0625,-12626.740234375,-400000.0625,5567.4599609375,-400000.0625
1.2108533382415771,-400000.0625,-8000.08984375,-2126.030029296875,-400000.0625,-12802.7001953125,-400000.0625,5408.14013671875,-400000.0625
1.2108640670776367,-400000.0625,-7910.68017578125,-2043.9200439453125,-400000.0625,-12742.4296875,-400000.0625,5494.4501953125,-400000.0625
1.2108690738677979,-400000.0625,-7698.2998046875,-1839.8800048828125,-400000.0625,-12553.740234375,-400000.0625,5706.4501953125,-400000.0625
1.2108736038208008,-400000.0625,-7640.080078125,-1786.949951171875,-400000.0625,-12505.7197265625,-400000.0625,5770.5400390625,-400000.0625
1.2108776569366455,-400000.0625,-7810.06982421875,-1959.989990234375,-400000.0625,-12680.2001953125,-400000.0625,5594.06005859375,-400000.0625
1.2108922004699707,-400000.0625,-7971.14013671875,-2117.35009765625,-400000.0625,-12839.9404296875,-400000.0625,5430.7900390625,-400000.0625
1.2108967304229736,-400000.0625,-7902.0,-2043.199951171875,-400000.0625,-12776.1904296875,-400000.0625,5509.330078125,-400000.0625
1.210902214050293,-400000.0625,-7695.06005859375,-1841.5,-400000.0625,-12592.7900390625,-400000.0625,5722.43017578125,-400000.0625
1.2109065055847168,-400000.0625,-7616.47021484375,-1769.780029296875,-400000.0625,-12540.6796875,-400000.0625,5800.06005859375,-400000.0625
1.2109127044677734,-400000.0625,-7781.31982421875,-1939.72998046875,-400000.0625,-12717.5302734375,-400000.0625,5623.009765625,-400000.0625
1.2109193801879883,-400000.0625,-7939.33984375,-2101.989990234375,-400000.0625,-12878.3203125,-400000.0625,5452.35009765625,-400000.0625
1.210925579071045,-400000.0625,-7866.52978515625,-2031.6600341796875,-400000.0625,-12815.099609375,-400000.0625,5525.16015625,-400000.0625
1.2109324932098389,-400000.0625,-7662.25,-1831.47998046875,-400000.0625,-12630.0302734375,-400000.0625,5737.10986328125,-400000.0625
1.2109375,-400000.0625,-7591.2001953125,-1764.199951171875,-400000.0625,-12571.0498046875,-400000.0625,5809.77978515625,-400000.0625
1.2109427452087402,-400000.0625,-7756.18994140625,-1936.1500244140625,-400000.0625,-12745.1904296875,-400000.0625,5637.22021484375,-400000.0625
1.210946798324585,-400000.0625,-7909.16015625,-2093.360107421875,-400000.0625,-12905.41015625,-400000.0625,5479.14990234375,-400000.0625
1.2109529972076416,-400000.0625,-7835.25,-2021.5999755859375,-400000.0625,-12838.080078125,-400000.0625,5553.2001953125,-400000.0625
1.2109572887420654,-400000.0625,-7640.22021484375,-1826.52001953125,-400000.0625,-12649.9697265625,-400000.0625,5760.240234375,-400000.0625
1.2109782695770264,-400000.0625,-7574.27001953125,-1768.8299560546875,-400000.0625,-12592.169921875,-400000.0625,5830.3798828125,-400000.0625
1.2109909057617188,-400000.0625,-7739.5,-1935.9100341796875,-400000.0625,-12761.169921875,-400000.0625,5651.3798828125,-400000.0625
1.2109954357147217,-400000.0625,-7893.75,-2083.02001953125,-400000.0625,-12916.6103515625,-400000.0625,5492.39990234375,-400000.0625
1.2110021114349365,-400000.0625,-7828.27978515625,-2014.489990234375,-400000.0625,-12849.2802734375,-400000.0625,5558.490234375,-400000.0625
1.2110085487365723,-400000.0625,-7633.259765625,-1821.1800537109375,-400000.0625,-12656.9296875,-400000.0625,5775.8798828125,-400000.0625
1.211014986038208,-400000.0625,-7573.64990234375,-1748.1800537109375,-400000.0625,-12593.7998046875,-400000.0625,5850.35986328125,-400000.0625
1.2110199928283691,-400000.0625,-7767.25,-1929.8599853515625,-400000.0625,-12761.830078125,-400000.0625,5658.33984375,-400000.0625
1.2110254764556885,-400000.0625,-7942.52978515625,-2071.18994140625,-400000.0625,-12905.0302734375,-400000.0625,5489.25,-400000.0625
1.2110304832458496,-400000.0625,-7837.490234375,-1997.9000244140625,-400000.0625,-12844.66015625,-400000.0625,5589.91015625,-400000.0625
1.2110369205474854,-400000.0625,-7673.02978515625,-1797.6300048828125,-400000.0625,-12646.25,-400000.0625,5794.14013671875,-400000.0625
1.211042881011963,-400000.0625,-7602.740234375,-1754.81005859375,-400000.0625,-12578.580078125,-400000.0625,5837.10986328125,-400000.0625
1.2110486030578613,-400000.0625,-7802.919921875,-1948.4000244140625,-400000.0625,-12748.580078125,-400000.0625,5636.169921875,-400000.0625
1.211057424545288,-400000.0625,-7975.9599609375,-2086.449951171875,-400000.0625,-12899.7802734375,-400000.0625,5458.35986328125,-400000.0625
1.2110648155212402,-400000.0625,-7977.9599609375,-2053.97998046875,-400000.0625,-12801.26953125,-400000.0625,5473.18994140625,-400000.0625
1.211071491241455,-400000.0625,-7762.580078125,-1907.300048828125,-400000.0625,-12607.8603515625,-400000.0625,5703.64013671875,-400000.0625
1.2110812664031982,-400000.0625,-7697.2001953125,-1813.3199462890625,-400000.0625,-12539.2900390625,-400000.0625,5811.8798828125,-400000.0625
timestamp,ch7,ch2,ch3,ch5,is_pause
timestamp,ch7,ch2,ch3,ch5,is_pause
timestamp,ch7,ch2,ch3,ch5,is_pause
timestamp,ch7,ch2,ch3,ch5,is_pause
timestamp,ch7,ch2,ch3,ch5,is_pause
1.2621102333068848,-400000.0625,-7948.919921875,-2049.159912109375,-400000.0625,-12683.8203125,-400000.0625,5589.52978515625,-400000.0625
1.2677133083343506,-400000.0625,-8065.419921875,-2238.93994140625,-400000.0625,-12813.1904296875,-400000.0625,5391.02978515625,-400000.0625
timestamp,ch7,ch2,ch3,ch5,is_pause
1.2781898975372314,-400000.0625,-8059.5,-2190.780029296875,-400000.0625,-12710.0498046875,-400000.0625,5438.27978515625,-400000.0625
1.2830915451049805,-400000.0625,-7884.5498046875,-1973.8199462890625,-400000.0625,-12517.4501953125,-400000.0625,5616.0,-400000.0625
1.283099889755249,-400000.0625,-7869.6298828125,-1887.27001953125,-400000.0625,-12442.7802734375,-400000.0625,5779.5498046875,-400000.0625
1.283104419708252,-400000.0625,-8016.6298828125,-2071.570068359375,-400000.0625,-12612.2998046875,-400000.0625,5603.22021484375,-400000.0625
1.2831084728240967,-400000.0625,-8170.18017578125,-2209.89990234375,-400000.0625,-12766.169921875,-400000.0625,5420.64013671875,-400000.0625
1.2831125259399414,-400000.0625,-8124.2099609375,-2146.199951171875,-400000.0625,-12689.5,-400000.0625,5494.740234375,-400000.0625
1.283116102218628,-400000.0625,-7933.0,-1943.1099853515625,-400000.0625,-12476.400390625,-400000.0625,5698.8701171875,-400000.0625
1.2831199169158936,-400000.0625,-7864.330078125,-1885.6099853515625,-400000.0625,-12402.1103515625,-400000.0625,5772.06982421875,-400000.0625
1.2831237316131592,-400000.0625,-8034.18017578125,-2061.56005859375,-400000.0625,-12568.3798828125,-400000.0625,5575.3701171875,-400000.0625
1.2831273078918457,-400000.0625,-8212.900390625,-2236.179931640625,-400000.0625,-12720.16015625,-400000.0625,5388.830078125,-400000.0625
1.2831392288208008,-400000.0625,-8146.240234375,-2174.0400390625,-400000.0625,-12646.3896484375,-400000.0625,5463.83984375,-400000.0625
1.2831430435180664,-400000.0625,-7909.5400390625,-2028.989990234375,-400000.0625,-12438.6298828125,-400000.0625,5692.2001953125,-400000.0625
1.2831470966339111,-400000.0625,-7875.5400390625,-1864.239990234375,-400000.0625,-12390.1904296875,-400000.0625,5770.77978515625,-400000.0625
1.2831511497497559,-400000.0625,-8029.18017578125,-2041.8599853515625,-400000.0625,-12556.1298828125,-400000.0625,5581.08984375,-400000.0625
timestamp,ch7,ch2,ch3,ch5,is_pause
timestamp,ch7,ch2,ch3,ch5,is_pause
timestamp,ch7,ch2,ch3,ch5,is_pause
timestamp,ch7,ch2,ch3,ch5,is_pause
1.3296113014221191,-400000.0625,-8140.0400390625,-2205.56005859375,-400000.0625,-12704.7099609375,-400000.0625,5421.77978515625,-400000.0625
timestamp,ch7,ch2,ch3,ch5,is_pause
1.3373723030090332,-400000.0625,-8056.35986328125,-2141.330078125,-400000.0625,-12633.1796875,-400000.0625,5487.58984375,-400000.0625
1.3418760299682617,-400000.0625,-7835.2001953125,-1937.719970703125,-400000.0625,-12429.0,-400000.0625,5694.490234375,-400000.0625
1.3418843746185303,-400000.0625,-7743.22021484375,-1864.6700439453125,-400000.0625,-12364.3896484375,-400000.0625,5764.81982421875,-400000.0625
1.3418889045715332,-400000.0625,-7882.31005859375,-2032.22998046875,-400000.0625,-12542.2998046875,-400000.0625,5585.669921875,-400000.0625
1.341893196105957,-400000.0625,-8007.14990234375,-2182.8701171875,-400000.0625,-12704.1796875,-400000.0625,5418.97021484375,-400000.0625
1.3418972492218018,-400000.0625,-7914.72998046875,-2107.0,-400000.0625,-12635.5703125,-400000.0625,5497.31005859375,-400000.0625
1.3419010639190674,-400000.0625,-7688.56982421875,-1899.530029296875,-400000.0625,-12450.2197265625,-400000.0625,5710.75,-400000.0625
1.3419053554534912,-400000.0625,-7597.16015625,-1833.300048828125,-400000.0625,-12392.240234375,-400000.0625,5780.35986328125,-400000.0625
1.3419146537780762,-400000.0625,-7752.93994140625,-2015.0699462890625,-400000.0625,-12569.330078125,-400000.0625,5597.02001953125,-400000.0625
1.3419189453125,-400000.0625,-7894.47021484375,-2176.6201171875,-400000.0625,-12736.1796875,-400000.0625,5431.64990234375,-400000.0625
1.3419229984283447,-400000.0625,-7807.35009765625,-2102.659912109375,-400000.0625,-12682.490234375,-400000.0625,5516.10009765625,-400000.0625
1.3419268131256104,-400000.0625,-7593.2001953125,-1892.0899658203125,-400000.0625,-12480.2099609375,-400000.0625,5737.5,-400000.0625
1.341930627822876,-400000.0625,-7521.72998046875,-1825.6199951171875,-400000.0625,-12424.66015625,-400000.0625,5803.77978515625,-400000.0625
1.3419346809387207,-400000.0625,-7695.2900390625,-2007.06005859375,-400000.0625,-12616.73046875,-400000.0625,5616.0498046875,-400000.0625
1.3419387340545654,-400000.0625,-7860.18017578125,-2171.56005859375,-400000.0625,-12782.4296875,-400000.0625,5453.10986328125,-400000.0625
timestamp,ch7,ch2,ch3,ch5,is_pause
timestamp,ch7,ch2,ch3,ch5,is_pause
timestamp,ch7,ch2,ch3,ch5,is_pause
timestamp,ch7,ch2,ch3,ch5,is_pause
1.3893938064575195,-400000.0625,-7785.60986328125,-2092.169921875,-400000.0625,-12723.0703125,-400000.0625,5537.7998046875,-400000.0625
timestamp,ch7,ch2,ch3,ch5,is_pause
1.4026727676391602,-400000.0625,-7580.9501953125,-1886.699951171875,-400000.0625,-12529.4697265625,-400000.0625,5749.60986328125,-400000.0625
timestamp,ch7,ch2,ch3,ch5,is_pause
1.4080629348754883,-400000.0625,-7516.33984375,-1825.6199951171875,-400000.0625,-12470.580078125,-400000.0625,5816.83984375,-400000.0625
1.4140198230743408,-400000.0625,-7694.580078125,-2005.1500244140625,-400000.0625,-12652.73046875,-400000.0625,5629.58984375,-400000.0625
1.4188213348388672,-400000.0625,-7851.64990234375,-2164.93994140625,-400000.0625,-12812.759765625,-400000.0625,5462.93017578125,-400000.0625
1.4188292026519775,-400000.0625,-7770.97021484375,-2083.489990234375,-400000.0625,-12747.9599609375,-400000.0625,5550.52978515625,-400000.0625
1.4188411235809326,-400000.0625,-7569.35986328125,-1876.8299560546875,-400000.0625,-12550.4501953125,-400000.0625,5765.490234375,-400000.0625
1.4188454151153564,-400000.0625,-7500.4599609375,-1810.5999755859375,-400000.0625,-12494.7099609375,-400000.0625,5836.6298828125,-400000.0625
1.418849229812622,-400000.0625,-7680.27001953125,-1995.1300048828125,-400000.0625,-12686.2099609375,-400000.0625,5646.7998046875,-400000.0625
1.4188532829284668,-400000.0625,-7838.43994140625,-2158.02001953125,-400000.0625,-12851.0,-400000.0625,5481.52978515625,-400000.0625
1.4188570976257324,-400000.0625,-7750.7001953125,-2076.14990234375,-400000.0625,-12777.51953125,-400000.0625,5572.64990234375,-400000.0625
1.4188611507415771,-400000.0625,-7544.7099609375,-1862.1400146484375,-400000.0625,-12584.400390625,-400000.0625,5789.81005859375,-400000.0625
1.4188647270202637,-400000.0625,-7487.009765625,-1806.550048828125,-400000.0625,-12527.419921875,-400000.0625,5851.89013671875,-400000.0625
1.4188685417175293,-400000.0625,-7661.52978515625,-1983.5999755859375,-400000.0625,-12715.150390625,-400000.0625,5661.490234375,-400000.0625
1.4188728332519531,-400000.0625,-7821.509765625,-2141.669921875,-400000.0625,-12877.419921875,-400000.0625,5500.60009765625,-400000.0625
1.4188766479492188,-400000.0625,-7749.990234375,-2059.320068359375,-400000.0625,-12796.3603515625,-400000.0625,5584.2900390625,-400000.0625
timestamp,ch7,ch2,ch3,ch5,is_pause
timestamp,ch7,ch2,ch3,ch5,is_pause
timestamp,ch7,ch2,ch3,ch5,is_pause
timestamp,ch7,ch2,ch3,ch5,is_pause
timestamp,ch7,ch2,ch3,ch5,is_pause
1.4732933044433594,-400000.0625,-7540.93994140625,-1853.989990234375,-400000.0625,-12596.75,-400000.0625,5801.009765625,-400000.0625
timestamp,ch7,ch2,ch3,ch5,is_pause
1.482487678527832,-400000.0625,-7475.85009765625,-1794.8599853515625,-400000.0625,-12545.349609375,-400000.0625,5867.39013671875,-400000.0625
1.4876151084899902,-400000.0625,-7658.2001953125,-1981.780029296875,-400000.0625,-12727.3095703125,-400000.0625,5673.1201171875,-400000.0625
timestamp,ch7,ch2,ch3,ch5,is_pause
1.4929239749908447,-400000.0625,-7815.27001953125,-2150.06005859375,-400000.0625,-12881.900390625,-400000.0625,5500.75,-400000.0625
timestamp,ch7,ch2,ch3,ch5,is_pause
1.5042107105255127,-400000.0625,-7729.39013671875,-2055.7900390625,-400000.0625,-12810.08984375,-400000.0625,5598.31005859375,-400000.0625
1.5094263553619385,-400000.0625,-7525.77978515625,-1845.6500244140625,-400000.0625,-12616.73046875,-400000.0625,5812.7900390625,-400000.0625
1.5145840644836426,-400000.0625,-7469.0400390625,-1788.81005859375,-400000.0625,-12560.0400390625,-400000.0625,5869.43994140625,-400000.0625
timestamp,ch7,ch2,ch3,ch5,is_pause
1.520341157913208,-400000.0625,-7654.47998046875,-1977.489990234375,-400000.0625,-12741.8095703125,-400000.0625,5676.080078125,-400000.0625
1.5253381729125977,-400000.0625,-7805.8701171875,-2140.239990234375,-400000.0625,-12902.6396484375,-400000.0625,5513.72021484375,-400000.0625
1.5253467559814453,-400000.0625,-7720.759765625,-2048.25,-400000.0625,-12819.6298828125,-400000.0625,5604.89013671875,-400000.0625
timestamp,ch7,ch2,ch3,ch5,is_pause
1.5318543910980225,-400000.0625,-7530.06982421875,-1838.260009765625,-400000.0625,-12621.5,-400000.0625,5822.9501953125,-400000.0625
1.5364797115325928,-400000.0625,-7463.4599609375,-1782.8499755859375,-400000.0625,-12570.8095703125,-400000.0625,5881.93017578125,-400000.0625
1.5364882946014404,-400000.0625,-7637.93017578125,-1968.18994140625,-400000.0625,-12752.009765625,-400000.0625,5687.52001953125,-400000.0625
1.5364928245544434,-400000.0625,-7793.7099609375,-2125.260009765625,-400000.0625,-12902.259765625,-400000.0625,5522.6298828125,-400000.0625
1.536496877670288,-400000.0625,-7706.740234375,-2043.6800537109375,-400000.0625,-12822.490234375,-400000.0625,5606.83984375,-400000.0625
1.536501169204712,-400000.0625,-7502.3701171875,-1838.489990234375,-400000.0625,-12621.6904296875,-400000.0625,5817.93994140625,-400000.0625
1.5365052223205566,-400000.0625,-7457.830078125,-1778.75,-400000.0625,-12566.66015625,-400000.0625,5875.64013671875,-400000.0625
1.5365092754364014,-400000.0625,-7643.41015625,-1972.3900146484375,-400000.0625,-12757.259765625,-400000.0625,5680.990234375,-400000.0625
1.5365216732025146,-400000.0625,-7797.2900390625,-2131.27001953125,-400000.0625,-12906.26953125,-400000.0625,5520.25,-400000.0625
1.5365257263183594,-400000.0625,-7709.22021484375,-2042.8699951171875,-400000.0625,-12825.73046875,-400000.0625,5609.75,-400000.0625
1.536529541015625,-400000.0625,-7504.85009765625,-1839.5400390625,-400000.0625,-12631.0400390625,-400000.0625,5824.7099609375,-400000.0625
1.5365335941314697,-400000.0625,-7455.39990234375,-1789.949951171875,-400000.0625,-12578.76953125,-400000.0625,5878.8798828125,-400000.0625
1.5365374088287354,-400000.0625,-7633.35009765625,-1973.43994140625,-400000.0625,-12764.650390625,-400000.0625,5685.9501953125,-400000.0625
1.53654146194458,-400000.0625,-7792.27978515625,-2134.659912109375,-400000.0625,-12918.1904296875,-400000.0625,5520.68017578125,-400000.0625
1.5365450382232666,-400000.0625,-7711.509765625,-2052.68994140625,-400000.0625,-12832.8798828125,-400000.0625,5604.64990234375,-400000.0625
1.5365490913391113,-400000.0625,-7509.0400390625,-1845.6500244140625,-400000.0625,-12634.990234375,-400000.0625,5820.419921875,-400000.0625
1.536552906036377,-400000.0625,-7454.68017578125,-1790.5699462890625,-400000.0625,-12582.6396484375,-400000.0625,5876.830078125,-400000.0625
1.5365581512451172,-400000.0625,-7636.830078125,-1976.5400390625,-400000.0625,-12769.26953125,-400000.0625,5681.08984375,-400000.0625
1.5365619659423828,-400000.0625,-7790.27978515625,-2132.85009765625,-400000.0625,-12924.7197265625,-400000.0625,5522.490234375,-400000.0625
1.5365660190582275,-400000.0625,-7710.169921875,-2050.72998046875,-400000.0625,-12854.6298828125,-400000.0625,5611.47021484375,-400000.0625
1.536569595336914,-400000.0625,-7516.10009765625,-1851.56005859375,-400000.0625,-12653.4501953125,-400000.0625,5819.3701171875,-400000.0625
1.5365736484527588,-400000.0625,-7466.89013671875,-1799.43994140625,-400000.0625,-12600.1796875,-400000.0625,5875.10986328125,-400000.0625
timestamp,ch7,ch2,ch3,ch5,is_pause
timestamp,ch7,ch2,ch3,ch5,is_pause
timestamp,ch7,ch2,ch3,ch5,is_pause
timestamp,ch7,ch2,ch3,ch5,is_pause
1.5835204124450684,-400000.0625,-7649.60986328125,-1985.4100341796875,-400000.0625,-12776.5703125,-400000.0625,5682.85009765625,-400000.0625
timestamp,ch7,ch2,ch3,ch5,is_pause
1.5961647033691406,-400000.0625,-7802.2001953125,-2141.2900390625,-400000.0625,-12937.01953125,-400000.0625,5519.77001953125,-400000.0625
timestamp,ch7,ch2,ch3,ch5,is_pause
1.6071968078613281,-400000.0625,-7717.509765625,-2054.639892578125,-400000.0625,-12857.76953125,-400000.0625,5610.0400390625,-400000.0625
1.6122896671295166,-400000.0625,-7518.009765625,-1853.0799560546875,-400000.0625,-12657.6396484375,-400000.0625,5819.080078125,-400000.0625
timestamp,ch7,ch2,ch3,ch5,is_pause
1.6178596019744873,-400000.0625,-7465.31982421875,-1798.72998046875,-400000.0625,-12605.0498046875,-400000.0625,5874.58984375,-400000.0625
1.6225028038024902,-400000.0625,-7651.27978515625,-1991.219970703125,-400000.0625,-12794.9296875,-400000.0625,5679.7001953125,-400000.0625
1.6225111484527588,-400000.0625,-7807.02001953125,-2149.6298828125,-400000.0625,-12945.75,-400000.0625,5513.81005859375,-400000.0625
1.62251615524292,-400000.0625,-7726.9599609375,-2063.469970703125,-400000.0625,-12860.8701171875,-400000.0625,5601.31005859375,-400000.0625
1.6225428581237793,-400000.0625,-7523.25,-1854.8499755859375,-400000.0625,-12663.41015625,-400000.0625,5817.1298828125,-400000.0625
1.6225473880767822,-400000.0625,-7476.759765625,-1806.0699462890625,-400000.0625,-12611.009765625,-400000.0625,5871.81982421875,-400000.0625
1.622551679611206,-400000.0625,-7666.4501953125,-1997.5699462890625,-400000.0625,-12802.5498046875,-400000.0625,5674.02978515625,-400000.0625
1.6225557327270508,-400000.0625,-7817.7001953125,-2154.300048828125,-400000.0625,-12952.1904296875,-400000.0625,5505.60986328125,-400000.0625
1.6225595474243164,-400000.0625,-7726.43017578125,-2066.330078125,-400000.0625,-12865.349609375,-400000.0625,5598.16015625,-400000.0625
1.622570514678955,-400000.0625,-7529.93017578125,-1864.3399658203125,-400000.0625,-12671.6201171875,-400000.0625,5812.35986328125,-400000.0625
1.6225745677947998,-400000.0625,-7482.85986328125,-1815.75,-400000.0625,-12623.5,-400000.0625,5865.85986328125,-400000.0625
1.6225786209106445,-400000.0625,-7670.68994140625,-2009.199951171875,-400000.0625,-12806.75,-400000.0625,5667.2099609375,-400000.0625
timestamp,ch7,ch2,ch3,ch5,is_pause
timestamp,ch7,ch2,ch3,ch5,is_pause
1.6406793594360352,-400000.0625,-7819.31982421875,-2162.169921875,-400000.0625,-12950.7099609375,-400000.0625,5509.419921875,-400000.0625
1.647343635559082,-400000.0625,-7731.009765625,-2070.0,-400000.0625,-12870.3603515625,-400000.0625,5601.5498046875,-400000.0625
timestamp,ch7,ch2,ch3,ch5,is_pause
1.6526479721069336,-400000.0625,-7536.97998046875,-1867.25,-400000.0625,-12669.5595703125,-400000.0625,5812.5498046875,-400000.0625
1.6578435897827148,-400000.0625,-7487.5400390625,-1820.52001953125,-400000.0625,-12620.259765625,-400000.0625,5864.91015625,-400000.0625
1.6631534099578857,-400000.0625,-7681.509765625,-2012.300048828125,-400000.0625,-12818.1904296875,-400000.0625,5661.919921875,-400000.0625
timestamp,ch7,ch2,ch3,ch5,is_pause
1.6695637702941895,-400000.0625,-7842.72998046875,-2166.56005859375,-400000.0625,-12969.73046875,-400000.0625,5497.64990234375,-400000.0625
1.6740717887878418,-400000.0625,-7744.89013671875,-2068.81005859375,-400000.0625,-12873.599609375,-400000.0625,5588.10009765625,-400000.0625
1.6740796566009521,-400000.0625,-7527.02001953125,-1852.3699951171875,-400000.0625,-12668.75,-400000.0625,5798.0498046875,-400000.0625
1.674084186553955,-400000.0625,-7474.27978515625,-1796.5799560546875,-400000.0625,-12617.4501953125,-400000.0625,5841.2099609375,-400000.0625
1.674088478088379,-400000.0625,-7659.669921875,-1975.8699951171875,-400000.0625,-12801.599609375,-400000.0625,5634.97998046875,-400000.0625
1.6740922927856445,-400000.0625,-7802.39013671875,-2114.340087890625,-400000.0625,-12951.1396484375,-400000.0625,5475.27978515625,-400000.0625
1.6741044521331787,-400000.0625,-7703.39990234375,-2010.3900146484375,-400000.0625,-12860.2001953125,-400000.0625,5561.02001953125,-400000.0625
1.6741085052490234,-400000.0625,-7501.02978515625,-1797.6300048828125,-400000.0625,-12665.9404296875,-400000.0625,5764.9599609375,-400000.0625
1.674112319946289,-400000.0625,-7465.080078125,-1746.75,-400000.0625,-12617.4501953125,-400000.0625,5808.97021484375,-400000.0625
1.674116849899292,-400000.0625,-7648.66015625,-1921.3699951171875,-400000.0625,-12792.6796875,-400000.0625,5607.27001953125,-400000.0625
1.6741206645965576,-400000.0625,-7799.43994140625,-2068.139892578125,-400000.0625,-12946.26953125,-400000.0625,5447.25,-400000.0625
timestamp,ch7,ch2,ch3,ch5,is_pause
timestamp,ch7,ch2,ch3,ch5,is_pause
timestamp,ch7,ch2,ch3,ch5,is_pause
1.708554744720459,-400000.0625,-7712.1298828125,-1976.6800537109375,-400000.0625,-12857.76953125,-400000.0625,5538.080078125,-400000.0625
timestamp,ch7,ch2,ch3,ch5,is_pause
1.7224550247192383,-400000.0625,-7514.81005859375,-1772.2099609375,-400000.0625,-12656.01953125,-400000.0625,5741.35986328125,-400000.0625
timestamp,ch7,ch2,ch3,ch5,is_pause
1.729320764541626,-400000.0625,-7469.56005859375,-1728.010009765625,-400000.0625,-12607.5302734375,-400000.0625,5786.93994140625,-400000.0625
1.7343683242797852,-400000.0625,-7650.22998046875,-1911.9300537109375,-400000.0625,-12795.9697265625,-400000.0625,5598.97021484375,-400000.0625
timestamp,ch7,ch2,ch3,ch5,is_pause
1.7400236129760742,-400000.0625,-7794.10009765625,-2057.360107421875,-400000.0625,-12941.509765625,-400000.0625,5451.97021484375,-400000.0625
1.7450294494628906,-400000.0625,-7702.06982421875,-1963.8499755859375,-400000.0625,-12847.1396484375,-400000.0625,5546.6201171875,-400000.0625
timestamp,ch7,ch2,ch3,ch5,is_pause
1.75162935256958,-400000.0625,-7517.85986328125,-1776.5,-400000.0625,-12665.26953125,-400000.0625,5742.8798828125,-400000.0625
1.756897211074829,-400000.0625,-7483.2001953125,-1737.8299560546875,-400000.0625,-12622.830078125,-400000.0625,5782.080078125,-400000.0625
timestamp,ch7,ch2,ch3,ch5,is_pause
1.767808437347412,-400000.0625,-7651.27978515625,-1908.5899658203125,-400000.0625,-12786.099609375,-400000.0625,5601.31005859375,-400000.0625
1.7727575302124023,-400000.0625,-7784.3701171875,-2045.1099853515625,-400000.0625,-12917.0,-400000.0625,5462.35986328125,-400000.0625
1.7727651596069336,-400000.0625,-7707.5498046875,-1962.52001953125,-400000.0625,-12838.7001953125,-400000.0625,5546.330078125,-400000.0625
1.7727699279785156,-400000.0625,-7535.27001953125,-1784.9000244140625,-400000.0625,-12674.8603515625,-400000.0625,5725.0498046875,-400000.0625
1.7727744579315186,-400000.0625,-7498.93017578125,-1749.6600341796875,-400000.0625,-12640.2900390625,-400000.0625,5765.39013671875,-400000.0625
1.7727785110473633,-400000.0625,-7651.85009765625,-1906.010009765625,-400000.0625,-12788.8203125,-400000.0625,5603.31005859375,-400000.0625
1.772782325744629,-400000.0625,-7765.68017578125,-2019.449951171875,-400000.0625,-12898.9697265625,-400000.0625,5482.10009765625,-400000.0625
1.7727863788604736,-400000.0625,-7705.5498046875,-1955.93994140625,-400000.0625,-12838.509765625,-400000.0625,5551.580078125,-400000.0625
1.7727901935577393,-400000.0625,-7598.68994140625,-1846.4100341796875,-400000.0625,-12731.509765625,-400000.0625,5668.77978515625,-400000.0625
1.7727940082550049,-400000.0625,-7592.5400390625,-1838.9200439453125,-400000.0625,-12718.73046875,-400000.0625,5678.85009765625,-400000.0625
1.7727985382080078,-400000.0625,-7638.22021484375,-1886.8399658203125,-400000.0625,-12773.6103515625,-400000.0625,5630.830078125,-400000.0625
1.7728023529052734,-400000.0625,-7667.02001953125,-1914.1700439453125,-400000.0625,-12797.98046875,-400000.0625,5603.89013671875,-400000.0625
1.772806167602539,-400000.0625,-7660.9599609375,-1907.43994140625,-400000.0625,-12793.01953125,-400000.0625,5611.31982421875,-400000.0625
1.7728145122528076,-400000.0625,-7650.22998046875,-1897.6700439453125,-400000.0625,-12781.33984375,-400000.0625,5618.85986328125,-400000.0625
timestamp,ch7,ch2,ch3,ch5,is_pause
1.7805585861206055,-400000.0625,-7645.75,-1890.280029296875,-400000.0625,-12760.6904296875,-400000.0625,5627.2001953125,-400000.0625
1.7856812477111816,-400000.0625,-7657.580078125,-1898.5799560546875,-400000.0625,-12781.33984375,-400000.0625,5615.759765625,-400000.0625
timestamp,ch7,ch2,ch3,ch5,is_pause
1.7915666103363037,-400000.0625,-7668.97021484375,-1907.969970703125,-400000.0625,-12799.7900390625,-400000.0625,5601.7900390625,-400000.0625
1.7971265316009521,-400000.0625,-7674.22021484375,-1909.300048828125,-400000.0625,-12791.1103515625,-400000.0625,5606.509765625,-400000.0625
timestamp,ch7,ch2,ch3,ch5,is_pause
1.8027944564819336,-400000.0625,-7667.8798828125,-1903.719970703125,-400000.0625,-12781.7197265625,-400000.0625,5609.22998046875,-400000.0625
1.807762622833252,-400000.0625,-7661.10986328125,-1900.530029296875,-400000.0625,-12772.080078125,-400000.0625,5611.7099609375,-400000.0625
1.8077709674835205,-400000.0625,-7672.64013671875,-1908.5400390625,-400000.0625,-12783.2900390625,-400000.0625,5604.1201171875,-400000.0625
1.8077757358551025,-400000.0625,-7681.18017578125,-1913.260009765625,-400000.0625,-12795.7802734375,-400000.0625,5597.39990234375,-400000.0625
1.8077800273895264,-400000.0625,-7675.93017578125,-1911.2099609375,-400000.0625,-12799.599609375,-400000.0625,5601.5498046875,-400000.0625
1.807784080505371,-400000.0625,-7672.60009765625,-1908.6400146484375,-400000.0625,-12787.76953125,-400000.0625,5606.1298828125,-400000.0625
timestamp,ch7,ch2,ch3,ch5,is_pause
timestamp,ch7,ch2,ch3,ch5,is_pause
timestamp,ch7,ch2,ch3,ch5,is_pause
1.8362503051757812,-400000.0625,-7665.43994140625,-1902.6300048828125,-400000.0625,-12774.9501953125,-400000.0625,5613.18017578125,-400000.0625
1.8468372821807861,-400000.0625,-7674.97998046875,-1908.25,-400000.0625,-12787.6796875,-400000.0625,5606.22021484375,-400000.0625
timestamp,ch7,ch2,ch3,ch5,is_pause
1.852644920349121,-400000.0625,-7684.47021484375,-1913.8800048828125,-400000.0625,-12798.169921875,-400000.0625,5605.169921875,-400000.0625
1.8573811054229736,-400000.0625,-7680.990234375,-1916.3599853515625,-400000.0625,-12800.26953125,-400000.0625,5609.419921875,-400000.0625
1.8573901653289795,-400000.0625,-7677.83984375,-1914.31005859375,-400000.0625,-12791.9697265625,-400000.0625,5610.75,-400000.0625
1.8573949337005615,-400000.0625,-7667.490234375,-1904.06005859375,-400000.0625,-12777.51953125,-400000.0625,5617.81005859375,-400000.0625
1.8573992252349854,-400000.0625,-7672.8798828125,-1909.449951171875,-400000.0625,-12789.6796875,-400000.0625,5614.47021484375,-400000.0625
1.85740327835083,-400000.0625,-7683.990234375,-1917.4100341796875,-400000.0625,-12802.0302734375,-400000.0625,5607.93994140625,-400000.0625
1.8574073314666748,-400000.0625,-7685.08984375,-1919.7900390625,-400000.0625,-12797.259765625,-400000.0625,5610.85009765625,-400000.0625
1.8574111461639404,-400000.0625,-7683.990234375,-1921.219970703125,-400000.0625,-12790.009765625,-400000.0625,5614.9501953125,-400000.0625
1.8574151992797852,-400000.0625,-7671.169921875,-1909.3499755859375,-400000.0625,-12779.759765625,-400000.0625,5625.9599609375,-400000.0625
1.8574190139770508,-400000.0625,-7677.64990234375,-1911.1199951171875,-400000.0625,-12787.150390625,-400000.0625,5620.18994140625,-400000.0625
1.8574228286743164,-400000.0625,-7683.08984375,-1913.8800048828125,-400000.0625,-12796.8798828125,-400000.0625,5612.27978515625,-400000.0625
1.857426643371582,-400000.0625,-7683.47021484375,-1913.97998046875,-400000.0625,-12798.740234375,-400000.0625,5608.56005859375,-400000.0625
1.8574306964874268,-400000.0625,-7687.14013671875,-1915.3599853515625,-400000.0625,-12789.1103515625,-400000.0625,5608.7001953125,-400000.0625
1.8574347496032715,-400000.0625,-7680.66015625,-1907.9200439453125,-400000.0625,-12778.3798828125,-400000.0625,5617.2900390625,-400000.0625
timestamp,ch7,ch2,ch3,ch5,is_pause
timestamp,ch7,ch2,ch3,ch5,is_pause
timestamp,ch7,ch2,ch3,ch5,is_pause
timestamp,ch7,ch2,ch3,ch5,is_pause
1.8959546089172363,-400000.0625,-7681.56005859375,-1910.02001953125,-400000.0625,-12792.919921875,-400000.0625,5617.0498046875,-400000.0625
1.9039859771728516,-400000.0625,-7689.669921875,-1915.4100341796875,-400000.0625,-12796.740234375,-400000.0625,5613.14013671875,-400000.0625
timestamp,ch7,ch2,ch3,ch5,is_pause
1.9098618030548096,-400000.0625,-7691.18994140625,-1915.0699462890625,-400000.0625,-12789.8203125,-400000.0625,5613.419921875,-400000.0625
1.9147846698760986,-400000.0625,-7691.10009765625,-1915.68994140625,-400000.0625,-12788.6298828125,-400000.0625,5610.3701171875,-400000.0625
1.9148101806640625,-400000.0625,-7675.7001953125,-1905.1099853515625,-400000.0625,-12775.08984375,-400000.0625,5617.2900390625,-400000.0625
1.91481614112854,-400000.0625,-7685.66015625,-1911.02001953125,-400000.0625,-12783.0498046875,-400000.0625,5613.56982421875,-400000.0625
1.9148216247558594,-400000.0625,-7698.25,-1916.3599853515625,-400000.0625,-12791.349609375,-400000.0625,5600.41015625,-400000.0625
1.9148476123809814,-400000.0625,-7700.35009765625,-1918.699951171875,-400000.0625,-12795.58984375,-400000.0625,5600.02001953125,-400000.0625
1.9148530960083008,-400000.0625,-7701.919921875,-1928.18994140625,-400000.0625,-12798.01953125,-400000.0625,5612.3701171875,-400000.0625
1.9148571491241455,-400000.0625,-7693.81982421875,-1925.6600341796875,-400000.0625,-12780.2900390625,-400000.0625,5628.009765625,-400000.0625
1.9148612022399902,-400000.0625,-7696.33984375,-1927.949951171875,-400000.0625,-12786.490234375,-400000.0625,5625.6298828125,-400000.0625
1.9148650169372559,-400000.0625,-7704.35009765625,-1938.199951171875,-400000.0625,-12799.83984375,-400000.0625,5628.2998046875,-400000.0625
1.9148690700531006,-400000.0625,-7705.16015625,-1947.02001953125,-400000.0625,-12802.9404296875,-400000.0625,5628.25,-400000.0625
timestamp,ch7,ch2,ch3,ch5,is_pause
1.920257568359375,-400000.0625,-7706.1201171875,-1954.4100341796875,-400000.0625,-12804.990234375,-400000.0625,5625.43994140625,-400000.0625
1.9250702857971191,-400000.0625,-7698.25,-1952.0799560546875,-400000.0625,-12790.2998046875,-400000.0625,5636.259765625,-400000.0625
1.9250788688659668,-400000.0625,-7699.77978515625,-1957.510009765625,-400000.0625,-12796.3095703125,-400000.0625,5632.1201171875,-400000.0625
timestamp,ch7,ch2,ch3,ch5,is_pause
timestamp,ch7,ch2,ch3,ch5,is_pause
timestamp,ch7,ch2,ch3,ch5,is_pause
1.9643237590789795,-400000.0625,-7703.10986328125,-1959.75,-400000.0625,-12806.3203125,-400000.0625,5629.77978515625,-400000.0625
timestamp,ch7,ch2,ch3,ch5,is_pause
1.976278305053711,-400000.0625,-7707.259765625,-1963.0,-400000.0625,-12808.6103515625,-400000.0625,5627.35009765625,-400000.0625
timestamp,ch7,ch2,ch3,ch5,is_pause
1.9825100898742676,-400000.0625,-7710.169921875,-1968.5699462890625,-400000.0625,-12801.98046875,-400000.0625,5622.85986328125,-400000.0625
timestamp,ch7,ch2,ch3,ch5,is_pause
1.9922223091125488,-400000.0625,-7700.919921875,-1961.5699462890625,-400000.0625,-12789.8701171875,-400000.0625,5630.2998046875,-400000.0625
1.998394250869751,-400000.0625,-7700.77978515625,-1960.1800537109375,-400000.0625,-12797.2099609375,-400000.0625,5634.2099609375,-400000.0625
2.0029296875,-400000.0625,-7707.740234375,-1961.989990234375,-400000.0625,-12806.9404296875,-400000.0625,5631.919921875,-400000.0625
2.0029380321502686,-400000.0625,-7711.27001953125,-1964.18994140625,-400000.0625,-12805.509765625,-400000.0625,5631.830078125,-400000.0625
2.002943754196167,-400000.0625,-7708.60009765625,-1964.0899658203125,-400000.0625,-12806.3701171875,-400000.0625,5628.6298828125,-400000.0625
2.0029478073120117,-400000.0625,-7700.06005859375,-1954.219970703125,-400000.0625,-12800.5498046875,-400000.0625,5640.169921875,-400000.0625
2.0029518604278564,-400000.0625,-7699.77978515625,-1954.8399658203125,-400000.0625,-12801.2197265625,-400000.0625,5638.97998046875,-400000.0625
2.002955675125122,-400000.0625,-7704.259765625,-1957.6099853515625,-400000.0625,-12804.080078125,-400000.0625,5633.5498046875,-400000.0625
2.0029594898223877,-400000.0625,-7707.8798828125,-1963.22998046875,-400000.0625,-12806.990234375,-400000.0625,5631.10986328125,-400000.0625
2.00297212600708,-400000.0625,-7714.89013671875,-1969.239990234375,-400000.0625,-12808.2802734375,-400000.0625,5626.81982421875,-400000.0625
2.0029759407043457,-400000.0625,-7710.93017578125,-1963.0400390625,-400000.0625,-12801.7001953125,-400000.0625,5635.93017578125,-400000.0625
2.0029799938201904,-400000.0625,-7709.7900390625,-1961.1400146484375,-400000.0625,-12805.83984375,-400000.0625,5639.83984375,-400000.0625
2.002983808517456,-400000.0625,-7710.83984375,-1961.989990234375,-400000.0625,-12809.7998046875,-400000.0625,5637.7900390625,-400000.0625
timestamp,ch7,ch2,ch3,ch5,is_pause
timestamp,ch7,ch2,ch3,ch5,is_pause
2.0240864753723145,-400000.0625,-7713.64990234375,-1963.0,-400000.0625,-12806.7001953125,-400000.0625,5636.7900390625,-400000.0625
timestamp,ch7,ch2,ch3,ch5,is_pause
2.0314126014709473,-400000.0625,-7716.75,-1965.8599853515625,-400000.0625,-12806.509765625,-400000.0625,5632.77978515625,-400000.0625
2.036278486251831,-400000.0625,-7699.68017578125,-1950.8399658203125,-400000.0625,-12793.6396484375,-400000.0625,5648.60986328125,-400000.0625
2.0362870693206787,-400000.0625,-7695.72021484375,-1949.5,-400000.0625,-12802.080078125,-400000.0625,5649.9501953125,-400000.0625
2.03629207611084,-400000.0625,-7703.4501953125,-1956.4200439453125,-400000.0625,-12805.5595703125,-400000.0625,5640.080078125,-400000.0625
2.0362966060638428,-400000.0625,-7713.3701171875,-1962.22998046875,-400000.0625,-12800.9296875,-400000.0625,5637.60009765625,-400000.0625
2.0363008975982666,-400000.0625,-7715.27001953125,-1965.3800048828125,-400000.0625,-12806.5595703125,-400000.0625,5633.4501953125,-400000.0625
2.0363049507141113,-400000.0625,-7707.02001953125,-1958.1300048828125,-400000.0625,-12796.6904296875,-400000.0625,5642.64990234375,-400000.0625
2.036310911178589,-400000.0625,-7707.97998046875,-1959.3699951171875,-400000.0625,-12799.599609375,-400000.0625,5646.0400390625,-400000.0625
2.0363152027130127,-400000.0625,-7712.1298828125,-1962.469970703125,-400000.0625,-12810.7099609375,-400000.0625,5639.509765625,-400000.0625
2.0363245010375977,-400000.0625,-7719.0400390625,-1968.5699462890625,-400000.0625,-12814.4296875,-400000.0625,5634.58984375,-400000.0625
2.0363287925720215,-400000.0625,-7724.6201171875,-1974.43994140625,-400000.0625,-12808.2802734375,-400000.0625,5631.68994140625,-400000.0625
2.036332845687866,-400000.0625,-7707.169921875,-1958.8900146484375,-400000.0625,-12800.5,-400000.0625,5644.419921875,-400000.0625
2.036336898803711,-400000.0625,-7701.77978515625,-1954.6500244140625,-400000.0625,-12810.759765625,-400000.0625,5641.60009765625,-400000.0625
2.0363407135009766,-400000.0625,-7713.7998046875,-1964.3800048828125,-400000.0625,-12810.7998046875,-400000.0625,5636.5,-400000.0625
2.0363450050354004,-400000.0625,-7716.7998046875,-1968.3399658203125,-400000.0625,-12809.6103515625,-400000.0625,5632.68994140625,-400000.0625
timestamp,ch7,ch2,ch3,ch5,is_pause
timestamp,ch7,ch2,ch3,ch5,is_pause
timestamp,ch7,ch2,ch3,ch5,is_pause
timestamp,ch7,ch2,ch3,ch5,is_pause
timestamp,ch7,ch2,ch3,ch5,is_pause
2.0925238132476807,-400000.0625,-7717.60986328125,-1972.5799560546875,-400000.0625,-12818.3896484375,-400000.0625,5630.39990234375,-400000.0625
timestamp,ch7,ch2,ch3,ch5,is_pause
2.1071691513061523,-400000.0625,-7711.93994140625,-1964.9000244140625,-400000.0625,-12813.08984375,-400000.0625,5641.83984375,-400000.0625
2.111976146697998,-400000.0625,-7712.83984375,-1958.6600341796875,-400000.0625,-12810.2802734375,-400000.0625,5639.35986328125,-400000.0625
2.1119863986968994,-400000.0625,-7718.22998046875,-1965.8599853515625,-400000.0625,-12816.33984375,-400000.0625,5633.830078125,-400000.0625
2.1119911670684814,-400000.0625,-7721.0400390625,-1969.530029296875,-400000.0625,-12816.0498046875,-400000.0625,5633.1201171875,-400000.0625
2.1119954586029053,-400000.0625,-7725.9501953125,-1975.3499755859375,-400000.0625,-12815.2900390625,-400000.0625,5627.68017578125,-400000.0625
2.111999273300171,-400000.0625,-7711.7001953125,-1963.22998046875,-400000.0625,-12803.41015625,-400000.0625,5638.1201171875,-400000.0625
2.1120128631591797,-400000.0625,-7708.1201171875,-1958.989990234375,-400000.0625,-12806.509765625,-400000.0625,5635.2099609375,-400000.0625
2.1120169162750244,-400000.0625,-7713.7001953125,-1962.760009765625,-400000.0625,-12811.9501953125,-400000.0625,5634.5498046875,-400000.0625
2.11202073097229,-400000.0625,-7717.22998046875,-1965.0,-400000.0625,-12812.900390625,-400000.0625,5632.31005859375,-400000.0625
2.1120247840881348,-400000.0625,-7726.14990234375,-1975.3499755859375,-400000.0625,-12819.240234375,-400000.0625,5622.10009765625,-400000.0625
2.1120285987854004,-400000.0625,-7720.81005859375,-1971.3399658203125,-400000.0625,-12815.8603515625,-400000.0625,5628.2998046875,-400000.0625
2.112032413482666,-400000.0625,-7723.3798828125,-1974.199951171875,-400000.0625,-12818.6201171875,-400000.0625,5635.31005859375,-400000.0625
2.11203670501709,-400000.0625,-7735.77978515625,-1988.219970703125,-400000.0625,-12823.5400390625,-400000.0625,5643.080078125,-400000.0625
2.1120405197143555,-400000.0625,-7734.06005859375,-1994.6600341796875,-400000.0625,-12826.400390625,-400000.0625,5644.7001953125,-400000.0625
2.112044334411621,-400000.0625,-7732.490234375,-2006.010009765625,-400000.0625,-12820.5302734375,-400000.0625,5641.41015625,-400000.0625
timestamp,ch7,ch2,ch3,ch5,is_pause
timestamp,ch7,ch2,ch3,ch5,is_pause
timestamp,ch7,ch2,ch3,ch5,is_pause
timestamp,ch7,ch2,ch3,ch5,is_pause
timestamp,ch7,ch2,ch3,ch5,is_pause
timestamp,ch7,ch2,ch3,ch5,is_pause
timestamp,ch7,ch2,ch3,ch5,is_pause
2.18819522857666,-400000.0625,-7724.330078125,-2002.760009765625,-400000.0625,-12810.0400390625,-400000.0625,5658.43994140625,-400000.0625
2.1964001655578613,-400000.0625,-7729.6298828125,-2014.5899658203125,-400000.0625,-12818.6201171875,-400000.0625,5668.4501953125,-400000.0625
timestamp,ch7,ch2,ch3,ch5,is_pause
2.207813262939453,-400000.0625,-7735.35009765625,-2027.8499755859375,-400000.0625,-12826.830078125,-400000.0625,5665.97021484375,-400000.0625
timestamp,ch7,ch2,ch3,ch5,is_pause
2.214698553085327,-400000.0625,-7734.16015625,-2033.0899658203125,-400000.0625,-12822.009765625,-400000.0625,5668.35009765625,-400000.0625
2.220040798187256,-400000.0625,-7737.830078125,-2042.1500244140625,-400000.0625,-12830.3095703125,-400000.0625,5669.7900390625,-400000.0625
timestamp,ch7,ch2,ch3,ch5,is_pause
2.22638201713562,-400000.0625,-7725.0498046875,-2033.0400390625,-400000.0625,-12816.5703125,-400000.0625,5677.7001953125,-400000.0625
2.2316629886627197,-400000.0625,-7719.60986328125,-2030.1800537109375,-400000.0625,-12815.759765625,-400000.0625,5683.3798828125,-400000.0625
timestamp,ch7,ch2,ch3,ch5,is_pause
2.2376041412353516,-400000.0625,-7728.14990234375,-2039.719970703125,-400000.0625,-12835.3095703125,-400000.0625,5677.1298828125,-400000.0625
2.2424585819244385,-400000.0625,-7731.009765625,-2042.719970703125,-400000.0625,-12836.740234375,-400000.0625,5675.35986328125,-400000.0625
2.2424662113189697,-400000.0625,-7730.81982421875,-2046.25,-400000.0625,-12829.6904296875,-400000.0625,5671.4501953125,-400000.0625
2.2424709796905518,-400000.0625,-7719.14013671875,-2036.3299560546875,-400000.0625,-12815.8095703125,-400000.0625,5680.0400390625,-400000.0625
2.2424750328063965,-400000.0625,-7722.85986328125,-2038.3399658203125,-400000.0625,-12826.490234375,-400000.0625,5682.14013671875,-400000.0625
2.242478847503662,-400000.0625,-7727.33984375,-2041.2900390625,-400000.0625,-12835.740234375,-400000.0625,5680.93994140625,-400000.0625
2.242482900619507,-400000.0625,-7728.33984375,-2039.6199951171875,-400000.0625,-12833.41015625,-400000.0625,5676.89013671875,-400000.0625
2.2424869537353516,-400000.0625,-7726.669921875,-2040.5799560546875,-400000.0625,-12825.8701171875,-400000.0625,5677.31982421875,-400000.0625
2.2424910068511963,-400000.0625,-7719.14013671875,-2035.5699462890625,-400000.0625,-12813.8603515625,-400000.0625,5685.6201171875,-400000.0625
2.24249529838562,-400000.0625,-7726.0498046875,-2036.6199951171875,-400000.0625,-12824.9697265625,-400000.0625,5679.080078125,-400000.0625
2.242500066757202,-400000.0625,-7731.9599609375,-2043.43994140625,-400000.0625,-12832.1201171875,-400000.0625,5671.97998046875,-400000.0625
2.2425038814544678,-400000.0625,-7730.33984375,-2043.719970703125,-400000.0625,-12827.73046875,-400000.0625,5675.89013671875,-400000.0625
2.2425148487091064,-400000.0625,-7733.8701171875,-2043.6300048828125,-400000.0625,-12823.6796875,-400000.0625,5676.7900390625,-400000.0625
2.242518663406372,-400000.0625,-7729.14990234375,-2038.0999755859375,-400000.0625,-12820.099609375,-400000.0625,5683.990234375,-400000.0625
2.242522716522217,-400000.0625,-7730.72021484375,-2040.9599609375,-400000.0625,-12825.2001953125,-400000.0625,5682.0400390625,-400000.0625
2.2425267696380615,-400000.0625,-7735.5400390625,-2046.300048828125,-400000.0625,-12833.98046875,-400000.0625,5676.56005859375,-400000.0625
2.242530345916748,-400000.0625,-7739.16015625,-2047.72998046875,-400000.0625,-12826.1103515625,-400000.0625,5678.56005859375,-400000.0625
2.2425341606140137,-400000.0625,-7738.72998046875,-2049.590087890625,-400000.0625,-12833.1201171875,-400000.0625,5674.97998046875,-400000.0625
2.2425379753112793,-400000.0625,-7727.33984375,-2040.8199462890625,-400000.0625,-12827.4501953125,-400000.0625,5682.759765625,-400000.0625
2.242541551589966,-400000.0625,-7730.81982421875,-2042.1500244140625,-400000.0625,-12826.5400390625,-400000.0625,5677.22021484375,-400000.0625
2.2425453662872314,-400000.0625,-7744.64990234375,-2051.5400390625,-400000.0625,-12835.3095703125,-400000.0625,5668.4501953125,-400000.0625
2.242548942565918,-400000.0625,-7751.27978515625,-2055.68994140625,-400000.0625,-12834.8798828125,-400000.0625,5667.35009765625,-400000.0625
2.2425527572631836,-400000.0625,-7752.60986328125,-2054.639892578125,-400000.0625,-12827.919921875,-400000.0625,5664.16015625,-400000.0625
2.242556571960449,-400000.0625,-7744.27001953125,-2044.25,-400000.0625,-12815.1396484375,-400000.0625,5678.080078125,-400000.0625
2.242560386657715,-400000.0625,-7745.89013671875,-2051.1201171875,-400000.0625,-12827.2099609375,-400000.0625,5674.4599609375,-400000.0625
timestamp,ch7,ch2,ch3,ch5,is_pause
timestamp,ch7,ch2,ch3,ch5,is_pause
timestamp,ch7,ch2,ch3,ch5,is_pause
2.2812275886535645,-400000.0625,-7754.419921875,-2058.93994140625,-400000.0625,-12850.1904296875,-400000.0625,5670.35986328125,-400000.0625
timestamp,ch7,ch2,ch3,ch5,is_pause
2.287853717803955,-400000.0625,-7755.47021484375,-2061.610107421875,-400000.0625,-12852.3798828125,-400000.0625,5670.4501953125,-400000.0625
2.2925546169281006,-400000.0625,-7747.27001953125,-2056.030029296875,-400000.0625,-12821.150390625,-400000.0625,5667.58984375,-400000.0625
2.292562961578369,-400000.0625,-7741.35986328125,-2049.72998046875,-400000.0625,-12809.5595703125,-400000.0625,5675.1298828125,-400000.0625
2.292567729949951,-400000.0625,-7751.3701171875,-2061.3701171875,-400000.0625,-12830.58984375,-400000.0625,5660.9599609375,-400000.0625
2.292571783065796,-400000.0625,-7770.490234375,-2074.860107421875,-400000.0625,-12839.509765625,-400000.0625,5644.990234375,-400000.0625
2.2925760746002197,-400000.0625,-7771.58984375,-2060.93994140625,-400000.0625,-12835.5,-400000.0625,5658.77001953125,-400000.0625
2.2925798892974854,-400000.0625,-7774.4501953125,-2064.179931640625,-400000.0625,-12829.9697265625,-400000.0625,5665.2099609375,-400000.0625
2.292583703994751,-400000.0625,-7772.4501953125,-2060.75,-400000.0625,-12825.8203125,-400000.0625,5665.259765625,-400000.0625
2.2925877571105957,-400000.0625,-7797.10009765625,-2075.2900390625,-400000.0625,-12834.83984375,-400000.0625,5644.18017578125,-400000.0625
2.2925915718078613,-400000.0625,-7838.81982421875,-2082.43994140625,-400000.0625,-12850.8095703125,-400000.0625,5630.58984375,-400000.0625
2.292598009109497,-400000.0625,-7875.72998046875,-2075.0,-400000.0625,-12849.669921875,-400000.0625,5627.06005859375,-400000.0625
2.2926018238067627,-400000.0625,-7865.14013671875,-2117.489990234375,-400000.0625,-12842.23046875,-400000.0625,5559.58984375,-400000.0625
2.2926056385040283,-400000.0625,-7860.08984375,-2096.75,-400000.0625,-12839.509765625,-400000.0625,5601.06982421875,-400000.0625
2.2926158905029297,-400000.0625,-7860.08984375,-2147.719970703125,-400000.0625,-12849.5703125,-400000.0625,5565.740234375,-400000.0625
2.2926199436187744,-400000.0625,-7923.3701171875,-2186.72998046875,-400000.0625,-12835.2197265625,-400000.0625,5563.68994140625,-400000.0625
timestamp,ch7,ch2,ch3,ch5,is_pause
timestamp,ch7,ch2,ch3,ch5,is_pause
timestamp,ch7,ch2,ch3,ch5,is_pause
timestamp,ch7,ch2,ch3,ch5,is_pause
2.3422281742095947,-400000.0625,-7932.08984375,-2200.080078125,-400000.0625,-12821.3896484375,-400000.0625,5528.64013671875,-400000.0625
timestamp,ch7,ch2,ch3,ch5,is_pause
2.3582348823547363,-400000.0625,-7912.58984375,-2317.139892578125,-400000.0625,-12829.7802734375,-400000.0625,5533.740234375,-400000.0625
timestamp,ch7,ch2,ch3,ch5,is_pause
2.3639273643493652,-400000.0625,-7991.83984375,-2186.8701171875,-400000.0625,-12780.48046875,-400000.0625,5566.169921875,-400000.0625
2.3696625232696533,-400000.0625,-7995.64990234375,-2218.679931640625,-400000.0625,-12741.1396484375,-400000.0625,5489.97021484375,-400000.0625
timestamp,ch7,ch2,ch3,ch5,is_pause
2.375457763671875,-400000.0625,-7970.6201171875,-2252.010009765625,-400000.0625,-12754.2001953125,-400000.0625,5468.080078125,-400000.0625
2.380502462387085,-400000.0625,-8147.43017578125,-2225.260009765625,-400000.0625,-12679.150390625,-400000.0625,5504.75,-400000.0625
timestamp,ch7,ch2,ch3,ch5,is_pause
2.386320114135742,-400000.0625,-8165.64990234375,-2275.89990234375,-400000.0625,-12665.650390625,-400000.0625,5555.77001953125,-400000.0625
2.3909363746643066,-400000.0625,-7995.4599609375,-2214.77001953125,-400000.0625,-12692.6396484375,-400000.0625,5497.02978515625,-400000.0625
2.390944480895996,-400000.0625,-8035.330078125,-2111.010009765625,-400000.0625,-12658.41015625,-400000.0625,5607.60986328125,-400000.0625
2.390949010848999,-400000.0625,-8023.31005859375,-2140.81005859375,-400000.0625,-12642.8603515625,-400000.0625,5596.77978515625,-400000.0625
2.390953540802002,-400000.0625,-8048.25,-2180.47998046875,-400000.0625,-12620.6904296875,-400000.0625,5547.0,-400000.0625
2.3909573554992676,-400000.0625,-7983.06982421875,-2118.679931640625,-400000.0625,-12590.8896484375,-400000.0625,5579.6201171875,-400000.0625
2.3909685611724854,-400000.0625,-7860.85009765625,-2107.719970703125,-400000.0625,-12587.740234375,-400000.0625,5698.2001953125,-400000.0625
2.390972375869751,-400000.0625,-7967.759765625,-1982.68994140625,-400000.0625,-12550.5498046875,-400000.0625,5699.72998046875,-400000.0625
2.3909761905670166,-400000.0625,-7894.60986328125,-1912.8800048828125,-400000.0625,-12492.6103515625,-400000.0625,5655.9599609375,-400000.0625
2.3909804821014404,-400000.0625,-7906.580078125,-1973.6800537109375,-400000.0625,-12450.98046875,-400000.0625,5784.4599609375,-400000.0625
timestamp,ch7,ch2,ch3,ch5,is_pause
timestamp,ch7,ch2,ch3,ch5,is_pause
2.4083781242370605,-400000.0625,-7856.080078125,-2001.949951171875,-400000.0625,-12383.0302734375,-400000.0625,5774.93017578125,-400000.0625
2.414555311203003,-400000.0625,-7908.5400390625,-1805.02001953125,-400000.0625,-12250.849609375,-400000.0625,5722.52001953125,-400000.0625
timestamp,ch7,ch2,ch3,ch5,is_pause
2.419976234436035,-400000.0625,-7677.56005859375,-1711.1800537109375,-400000.0625,-12075.6201171875,-400000.0625,5833.81982421875,-400000.0625
2.4248297214508057,-400000.0625,-7584.14013671875,-1675.800048828125,-400000.0625,-11853.080078125,-400000.0625,5960.66015625,-400000.0625
2.4248383045196533,-400000.0625,-7608.22021484375,-1680.949951171875,-400000.0625,-11554.1904296875,-400000.0625,5949.4501953125,-400000.0625
2.4248430728912354,-400000.0625,-7553.2900390625,-1608.6600341796875,-400000.0625,-11185.7900390625,-400000.0625,5947.02001953125,-400000.0625
2.42484712600708,-400000.0625,-7485.06005859375,-1454.4000244140625,-400000.0625,-10708.0498046875,-400000.0625,5957.509765625,-400000.0625
2.424851417541504,-400000.0625,-7420.97021484375,-1438.050048828125,-400000.0625,-10170.7900390625,-400000.0625,6013.25,-400000.0625
2.4248552322387695,-400000.0625,-7299.81005859375,-1330.280029296875,-400000.0625,-9604.9296875,-400000.0625,6099.1298828125,-400000.0625
2.4248664379119873,-400000.0625,-7210.490234375,-1304.43994140625,-400000.0625,-9028.009765625,-400000.0625,6101.31982421875,-400000.0625
2.424870729446411,-400000.0625,-7182.89013671875,-1297.3299560546875,-400000.0625,-8450.7001953125,-400000.0625,6090.5498046875,-400000.0625
2.4248745441436768,-400000.0625,-7023.52978515625,-1232.3399658203125,-400000.0625,-7896.52001953125,-400000.0625,6120.009765625,-400000.0625
2.4248783588409424,-400000.0625,-6853.43994140625,-1158.050048828125,-400000.0625,-7355.830078125,-400000.0625,6172.93994140625,-400000.0625
2.424882411956787,-400000.0625,-6653.7900390625,-1104.4000244140625,-400000.0625,-6859.58984375,-400000.0625,6196.64013671875,-400000.0625
2.424886703491211,-400000.0625,-6433.10986328125,-1092.6199951171875,-400000.0625,-6422.0400390625,-400000.0625,6190.43994140625,-400000.0625
2.4248905181884766,-400000.0625,-6190.25,-1102.300048828125,-400000.0625,-6020.35986328125,-400000.0625,6166.41015625,-400000.0625
timestamp,ch7,ch2,ch3,ch5,is_pause
timestamp,ch7,ch2,ch3,ch5,is_pause
timestamp,ch7,ch2,ch3,ch5,is_pause
timestamp,ch7,ch2,ch3,ch5,is_pause
2.475311517715454,-400000.0625,-5824.0400390625,-1087.050048828125,-400000.0625,-5649.18994140625,-400000.0625,6181.0,-400000.0625
timestamp,ch7,ch2,ch3,ch5,is_pause
timestamp,ch7,ch2,ch3,ch5,is_pause
2.4937057495117188,-400000.0625,-5383.77978515625,-1069.3599853515625,-400000.0625,-5342.009765625,-400000.0625,6191.68017578125,-400000.0625
2.4998395442962646,-400000.0625,-5042.93994140625,-1070.260009765625,-400000.0625,-5094.39013671875,-400000.0625,6185.68017578125,-400000.0625
2.5046041011810303,-400000.0625,-4851.2900390625,-1089.6199951171875,-400000.0625,-4897.259765625,-400000.0625,6173.3701171875,-400000.0625
2.504612684249878,-400000.0625,-4779.39013671875,-1102.260009765625,-400000.0625,-4738.89990234375,-400000.0625,6168.7001953125,-400000.0625
2.504617214202881,-400000.0625,-4781.91015625,-1106.31005859375,-400000.0625,-4617.64013671875,-400000.0625,6180.3798828125,-400000.0625
2.5046215057373047,-400000.0625,-4858.2998046875,-1124.1400146484375,-400000.0625,-4557.89990234375,-400000.0625,6176.85009765625,-400000.0625
2.5046255588531494,-400000.0625,-4988.240234375,-1140.5,-400000.0625,-4535.47998046875,-400000.0625,6177.3798828125,-400000.0625
2.5046298503875732,-400000.0625,-5147.5498046875,-1158.0,-400000.0625,-4543.97021484375,-400000.0625,6179.0,-400000.0625
2.504633665084839,-400000.0625,-5326.31982421875,-1174.02001953125,-400000.0625,-4588.93994140625,-400000.0625,6181.9599609375,-400000.0625
2.5046374797821045,-400000.0625,-5503.1298828125,-1181.8399658203125,-400000.0625,-4675.72021484375,-400000.0625,6181.52978515625,-400000.0625
2.50464129447937,-400000.0625,-5681.89990234375,-1189.0899658203125,-400000.0625,-4789.16015625,-400000.0625,6184.240234375,-400000.0625
2.504645347595215,-400000.0625,-5842.5,-1189.949951171875,-400000.0625,-4937.60009765625,-400000.0625,6193.77978515625,-400000.0625
2.5046491622924805,-400000.0625,-5987.02978515625,-1191.0,-400000.0625,-5114.509765625,-400000.0625,6194.39990234375,-400000.0625
2.504652976989746,-400000.0625,-6133.41015625,-1210.4000244140625,-400000.0625,-5338.10009765625,-400000.0625,6180.18994140625,-400000.0625
2.504657030105591,-400000.0625,-6246.9501953125,-1211.8299560546875,-400000.0625,-5600.8798828125,-400000.0625,6186.68017578125,-400000.0625
timestamp,ch7,ch2,ch3,ch5,is_pause
timestamp,ch7,ch2,ch3,ch5,is_pause
timestamp,ch7,ch2,ch3,ch5,is_pause
timestamp,ch7,ch2,ch3,ch5,is_pause
timestamp,ch7,ch2,ch3,ch5,is_pause
2.5623977184295654,-400000.0625,-6346.31982421875,-1209.739990234375,-400000.0625,-5890.89013671875,-400000.0625,6193.830078125,-400000.0625
timestamp,ch7,ch2,ch3,ch5,is_pause
2.572706937789917,-400000.0625,-6422.0400390625,-1195.719970703125,-400000.0625,-6193.5400390625,-400000.0625,6209.52001953125,-400000.0625
2.5786516666412354,-400000.0625,-6478.68994140625,-1179.4100341796875,-400000.0625,-6503.06005859375,-400000.0625,6226.97021484375,-400000.0625
timestamp,ch7,ch2,ch3,ch5,is_pause
2.5899603366851807,-400000.0625,-6557.60986328125,-1197.6700439453125,-400000.0625,-6834.83984375,-400000.0625,6209.990234375,-400000.0625
timestamp,ch7,ch2,ch3,ch5,is_pause
2.5970702171325684,-400000.0625,-6628.0400390625,-1207.1099853515625,-400000.0625,-7153.7998046875,-400000.0625,6196.58984375,-400000.0625
2.6022679805755615,-400000.0625,-6679.14990234375,-1202.6300048828125,-400000.0625,-7458.64013671875,-400000.0625,6198.60009765625,-400000.0625
timestamp,ch7,ch2,ch3,ch5,is_pause
2.608232259750366,-400000.0625,-6710.47998046875,-1192.3299560546875,-400000.0625,-7756.0400390625,-400000.0625,6211.0400390625,-400000.0625
2.613556385040283,-400000.0625,-6737.759765625,-1184.6500244140625,-400000.0625,-8030.3701171875,-400000.0625,6222.06005859375,-400000.0625
timestamp,ch7,ch2,ch3,ch5,is_pause
2.6194489002227783,-400000.0625,-6788.10986328125,-1202.6300048828125,-400000.0625,-8297.6396484375,-400000.0625,6203.41015625,-400000.0625
2.624251365661621,-400000.0625,-6826.4501953125,-1211.739990234375,-400000.0625,-8541.58984375,-400000.0625,6195.35986328125,-400000.0625
2.6242594718933105,-400000.0625,-6847.9501953125,-1208.9300537109375,-400000.0625,-8760.0703125,-400000.0625,6197.97998046875,-400000.0625
2.624264717102051,-400000.0625,-6849.10009765625,-1196.4300537109375,-400000.0625,-8961.2001953125,-400000.0625,6208.56005859375,-400000.0625
2.6242687702178955,-400000.0625,-6847.81005859375,-1186.9000244140625,-400000.0625,-9147.98046875,-400000.0625,6223.81982421875,-400000.0625
2.6242733001708984,-400000.0625,-6865.169921875,-1191.3299560546875,-400000.0625,-9329.83984375,-400000.0625,6220.9599609375,-400000.0625
2.6242775917053223,-400000.0625,-6873.18017578125,-1185.989990234375,-400000.0625,-9484.9599609375,-400000.0625,6218.0,-400000.0625
2.624282121658325,-400000.0625,-6875.330078125,-1181.550048828125,-400000.0625,-9641.0302734375,-400000.0625,6224.10986328125,-400000.0625
2.6242902278900146,-400000.0625,-6874.31982421875,-1176.5,-400000.0625,-9778.4501953125,-400000.0625,6229.5400390625,-400000.0625
2.6242942810058594,-400000.0625,-6881.669921875,-1186.469970703125,-400000.0625,-9897.08984375,-400000.0625,6219.81982421875,-400000.0625
2.624298572540283,-400000.0625,-6909.89990234375,-1181.8399658203125,-400000.0625,-10018.16015625,-400000.0625,6214.08984375,-400000.0625
2.624302387237549,-400000.0625,-6915.240234375,-1179.550048828125,-400000.0625,-10127.58984375,-400000.0625,6218.580078125,-400000.0625
2.624310255050659,-400000.0625,-6916.14013671875,-1187.3699951171875,-400000.0625,-10229.7802734375,-400000.0625,6198.1201171875,-400000.0625
2.624314308166504,-400000.0625,-6945.31982421875,-1171.2099609375,-400000.0625,-10315.75,-400000.0625,6207.47021484375,-400000.0625
2.6243183612823486,-400000.0625,-6960.009765625,-1252.75,-400000.0625,-10394.5302734375,-400000.0625,6168.990234375,-400000.0625
2.6243221759796143,-400000.0625,-6971.35986328125,-1178.5999755859375,-400000.0625,-10486.26953125,-400000.0625,6172.93994140625,-400000.0625
2.624326229095459,-400000.0625,-6950.56982421875,-1149.1300048828125,-400000.0625,-10524.080078125,-400000.0625,6221.81982421875,-400000.0625
2.6243302822113037,-400000.0625,-6961.35009765625,-1225.760009765625,-400000.0625,-10591.8896484375,-400000.0625,6198.8798828125,-400000.0625
2.6243340969085693,-400000.0625,-6997.35009765625,-1283.31005859375,-400000.0625,-10676.580078125,-400000.0625,6149.81982421875,-400000.0625
2.624338150024414,-400000.0625,-6970.06982421875,-1213.97998046875,-400000.0625,-10741.3798828125,-400000.0625,6149.669921875,-400000.0625
2.6243419647216797,-400000.0625,-7104.8701171875,-1175.0699462890625,-400000.0625,-10733.3203125,-400000.0625,6149.009765625,-400000.0625
2.6243457794189453,-400000.0625,-6955.43017578125,-1184.989990234375,-400000.0625,-10775.6201171875,-400000.0625,6202.97998046875,-400000.0625
2.624349594116211,-400000.0625,-6936.02978515625,-1205.969970703125,-400000.0625,-10784.7197265625,-400000.0625,6201.509765625,-400000.0625
2.624354839324951,-400000.0625,-7034.25,-1206.5899658203125,-400000.0625,-10787.2001953125,-400000.0625,6163.5498046875,-400000.0625
timestamp,ch7,ch2,ch3,ch5,is_pause
timestamp,ch7,ch2,ch3,ch5,is_pause
timestamp,ch7,ch2,ch3,ch5,is_pause
timestamp,ch7,ch2,ch3,ch5,is_pause
timestamp,ch7,ch2,ch3,ch5,is_pause
2.686687707901001,-400000.0625,-7006.1201171875,-1357.75,-400000.0625,-10801.98046875,-400000.0625,6111.33984375,-400000.0625
timestamp,ch7,ch2,ch3,ch5,is_pause
timestamp,ch7,ch2,ch3,ch5,is_pause
2.7037816047668457,-400000.0625,-7157.7099609375,-1230.0999755859375,-400000.0625,-10802.599609375,-400000.0625,6134.7001953125,-400000.0625
2.7092173099517822,-400000.0625,-6985.52001953125,-1128.77001953125,-400000.0625,-10777.1396484375,-400000.0625,6181.33984375,-400000.0625
timestamp,ch7,ch2,ch3,ch5,is_pause
2.7157304286956787,-400000.0625,-6899.8798828125,-1142.0699462890625,-400000.0625,-10728.3095703125,-400000.0625,6197.7900390625,-400000.0625
2.7211978435516357,-400000.0625,-6872.27001953125,-1190.6099853515625,-400000.0625,-10694.1201171875,-400000.0625,6154.10986328125,-400000.0625
timestamp,ch7,ch2,ch3,ch5,is_pause
2.7271342277526855,-400000.0625,-6875.330078125,-1209.4000244140625,-400000.0625,-10615.01953125,-400000.0625,6158.5400390625,-400000.0625
2.733003616333008,-400000.0625,-6844.81005859375,-1121.9000244140625,-400000.0625,-10516.5,-400000.0625,6238.1298828125,-400000.0625
2.7377312183380127,-400000.0625,-6776.0,-1124.1400146484375,-400000.0625,-10415.650390625,-400000.0625,6238.3701171875,-400000.0625
2.737739086151123,-400000.0625,-6744.72021484375,-997.969970703125,-400000.0625,-10284.9501953125,-400000.0625,6271.7900390625,-400000.0625
2.737743616104126,-400000.0625,-6525.89990234375,-959.5399780273438,-400000.0625,-10106.08984375,-400000.0625,6315.7099609375,-400000.0625
2.73774790763855,-400000.0625,-6424.52001953125,-969.9299926757812,-400000.0625,-9878.6396484375,-400000.0625,6332.490234375,-400000.0625
2.7377517223358154,-400000.0625,-6376.93017578125,-983.3300170898438,-400000.0625,-9630.400390625,-400000.0625,6339.740234375,-400000.0625
2.7377641201019287,-400000.0625,-6312.22998046875,-958.25,-400000.0625,-9363.509765625,-400000.0625,6335.740234375,-400000.0625
2.7377684116363525,-400000.0625,-6201.35986328125,-977.3699951171875,-400000.0625,-9118.509765625,-400000.0625,6312.31982421875,-400000.0625
2.7377729415893555,-400000.0625,-6021.31005859375,-925.1599731445312,-400000.0625,-8877.6103515625,-400000.0625,6318.18994140625,-400000.0625
2.7377769947052,-400000.0625,-5720.0,-902.4099731445312,-400000.0625,-8639.150390625,-400000.0625,6372.5,-400000.0625
2.737780809402466,-400000.0625,-5405.7099609375,-896.9299926757812,-400000.0625,-8434.8701171875,-400000.0625,6395.77001953125,-400000.0625
2.737786293029785,-400000.0625,-4945.08984375,-959.969970703125,-400000.0625,-8257.2001953125,-400000.0625,6348.31982421875,-400000.0625
2.737790107727051,-400000.0625,-4567.0,-848.9600219726562,-400000.0625,-8077.43017578125,-400000.0625,6412.169921875,-400000.0625
2.7377939224243164,-400000.0625,-4305.7001953125,-808.1900024414062,-400000.0625,-7899.9501953125,-400000.0625,6414.7998046875,-400000.0625
2.737797975540161,-400000.0625,-4024.93994140625,-833.0800170898438,-400000.0625,-7752.47021484375,-400000.0625,6421.27978515625,-400000.0625
2.7378015518188477,-400000.0625,-3804.39990234375,-841.52001953125,-400000.0625,-7634.02001953125,-400000.0625,6412.169921875,-400000.0625
2.7378053665161133,-400000.0625,-3617.860107421875,-820.4000244140625,-400000.0625,-7523.35009765625,-400000.0625,6429.14990234375,-400000.0625
2.737809181213379,-400000.0625,-3492.739990234375,-809.0499877929688,-400000.0625,-7451.2001953125,-400000.0625,6435.10986328125,-400000.0625
2.7378129959106445,-400000.0625,-3404.429931640625,-816.72998046875,-400000.0625,-7407.3798828125,-400000.0625,6416.27001953125,-400000.0625
2.7378170490264893,-400000.0625,-3329.330078125,-812.0499877929688,-400000.0625,-7345.2998046875,-400000.0625,6416.0400390625,-400000.0625
2.7378244400024414,-400000.0625,-3287.889892578125,-808.4299926757812,-400000.0625,-7327.56005859375,-400000.0625,6413.509765625,-400000.0625
2.7378287315368652,-400000.0625,-3314.5400390625,-805.6199951171875,-400000.0625,-7322.7900390625,-400000.0625,6416.75,-400000.0625
2.737833023071289,-400000.0625,-3421.2099609375,-822.4000244140625,-400000.0625,-7363.080078125,-400000.0625,6403.77978515625,-400000.0625
2.737837791442871,-400000.0625,-3572.1298828125,-841.0,-400000.0625,-7420.16015625,-400000.0625,6395.91015625,-400000.0625
2.737841844558716,-400000.0625,-3732.969970703125,-846.530029296875,-400000.0625,-7471.27978515625,-400000.0625,6399.06005859375,-400000.0625
2.7378456592559814,-400000.0625,-3929.89990234375,-868.4199829101562,-400000.0625,-7554.9599609375,-400000.0625,6387.330078125,-400000.0625
timestamp,ch7,ch2,ch3,ch5,is_pause
timestamp,ch7,ch2,ch3,ch5,is_pause
timestamp,ch7,ch2,ch3,ch5,is_pause
timestamp,ch7,ch2,ch3,ch5,is_pause
timestamp,ch7,ch2,ch3,ch5,is_pause
timestamp,ch7,ch2,ch3,ch5,is_pause
timestamp,ch7,ch2,ch3,ch5,is_pause
2.81288743019104,-400000.0625,-4143.240234375,-877.6699829101562,-400000.0625,-7643.89013671875,-400000.0625,6377.60009765625,-400000.0625
timestamp,ch7,ch2,ch3,ch5,is_pause
2.8278210163116455,-400000.0625,-4381.93994140625,-900.1300048828125,-400000.0625,-7796.9599609375,-400000.0625,6359.52978515625,-400000.0625
2.8335351943969727,-400000.0625,-4625.4599609375,-928.3499755859375,-400000.0625,-7979.97021484375,-400000.0625,6338.02001953125,-400000.0625
timestamp,ch7,ch2,ch3,ch5,is_pause
timestamp,ch7,ch2,ch3,ch5,is_pause
2.9341065883636475,-400000.0625,-6435.43994140625,-1086.8599853515625,-400000.0625,-11074.8798828125,-400000.0625,6232.31005859375,-400000.0625
3.116759777069092,-400000.0625,-6714.14990234375,-1191.949951171875,-400000.0625,-11699.33984375,-400000.0625,6155.490234375,-400000.0625
3.1778650283813477,-400000.0625,-6824.10986328125,-1276.300048828125,-400000.0625,-11850.0703125,-400000.0625,6060.7001953125,-400000.0625
3.238377809524536,-400000.0625,-6876.990234375,-1312.300048828125,-400000.0625,-11918.740234375,-400000.0625,6022.41015625,-400000.0625
3.3143792152404785,-400000.0625,-6934.7900390625,-1358.8399658203125,-400000.0625,-11967.9501953125,-400000.0625,6010.91015625,-400000.0625
3.3694381713867188,-400000.0625,-6982.52001953125,-1409.199951171875,-400000.0625,-12002.0400390625,-400000.0625,5993.89013671875,-400000.0625
3.5115456581115723,-400000.0625,-7113.169921875,-1537.510009765625,-400000.0625,-12118.4404296875,-400000.0625,5926.89990234375,-400000.0625
3.5626423358917236,-400000.0625,-7143.35986328125,-1563.5999755859375,-400000.0625,-12152.2900390625,-400000.0625,5915.5498046875,-400000.0625
3.6777093410491943,-400000.0625,-7164.91015625,-1586.9599609375,-400000.0625,-12162.8798828125,-400000.0625,5899.330078125,-400000.0625
3.764204263687134,-400000.0625,-7233.72021484375,-1656.3399658203125,-400000.0625,-12203.169921875,-400000.0625,5859.759765625,-400000.0625
4.044549942016602,-400000.0625,-7343.0498046875,-1763.300048828125,-400000.0625,-12236.01953125,-400000.0625,5820.7998046875,-400000.0625
4.070443391799927,-400000.0625,-7363.3701171875,-1780.8399658203125,-400000.0625,-12241.83984375,-400000.0625,5808.16015625,-400000.0625
4.274730920791626,-400000.0625,-7420.68017578125,-1840.449951171875,-400000.0625,-12279.7001953125,-400000.0625,5771.10986328125,-400000.0625
4.46529746055603,-400000.0625,-7476.43017578125,-1911.449951171875,-400000.0625,-12299.490234375,-400000.0625,5775.1201171875,-400000.0625
4.591942548751831,-400000.0625,-7490.2099609375,-1929.760009765625,-400000.0625,-12289.0498046875,-400000.0625,5783.89013671875,-400000.0625
4.7781054973602295,-400000.0625,-7559.16015625,-1989.3599853515625,-400000.0625,-12314.6103515625,-400000.0625,5750.1298828125,-400000.0625
4.840418338775635,-400000.0625,-7573.509765625,-2001.8599853515625,-400000.0625,-12322.08984375,-400000.0625,5735.58984375,-400000.0625
5.1369640827178955,-400000.0625,-7571.169921875,-2000.949951171875,-400000.0625,-12289.8095703125,-400000.0625,5767.009765625,-400000.0625
5.1578898429870605,-400000.0625,-7588.43994140625,-2019.449951171875,-400000.0625,-12312.0302734375,-400000.0625,5753.66015625,-400000.0625
5.3112993240356445,-400000.0625,-7680.3701171875,-2248.139892578125,-400000.0625,-12339.3603515625,-400000.0625,5922.990234375,-400000.0625
5.366870403289795,-400000.0625,-7745.41015625,-2226.449951171875,-400000.0625,-12333.919921875,-400000.0625,5949.06982421875,-400000.0625
5.5032243728637695,-400000.0625,-7772.830078125,-2317.18994140625,-400000.0625,-12369.919921875,-400000.0625,5901.9599609375,-400000.0625
5.550462484359741,-400000.0625,-7727.0,-2278.419921875,-400000.0625,-12357.900390625,-400000.0625,5925.47021484375,-400000.0625
5.605400085449219,-400000.0625,-7708.8798828125,-2262.449951171875,-400000.0625,-12339.8798828125,-400000.0625,5942.77001953125,-400000.0625
5.669275522232056,-400000.0625,-7726.2900390625,-2270.93994140625,-400000.0625,-12351.3701171875,-400000.0625,5923.56005859375,-400000.0625
5.8125269412994385,-400000.0625,-7757.3798828125,-2312.0400390625,-400000.0625,-12379.599609375,-400000.0625,5892.56005859375,-400000.0625
5.871607303619385,-400000.0625,-7740.31005859375,-2286.820068359375,-400000.0625,-12357.759765625,-400000.0625,5899.330078125,-400000.0625
6.116628170013428,-400000.0625,-7797.77001953125,-2343.419921875,-400000.0625,-12386.66015625,-400000.0625,5867.6201171875,-400000.0625
6.216597080230713,-400000.0625,-7782.7900390625,-2332.969970703125,-400000.0625,-12373.400390625,-400000.0625,5883.02978515625,-400000.0625
6.3785529136657715,-400000.0625,-7942.06005859375,-2405.550048828125,-400000.0625,-12372.919921875,-400000.0625,5773.740234375,-400000.0625
6.718452215194702,-400000.0625,-7788.52001953125,-2372.1201171875,-400000.0625,-12409.2099609375,-400000.0625,5843.16015625,-400000.0625
6.7776641845703125,-400000.0625,-7769.6298828125,-2356.719970703125,-400000.0625,-12398.91015625,-400000.0625,5842.919921875,-400000.0625
6.889564037322998,-400000.0625,-7774.31005859375,-2355.389892578125,-400000.0625,-12395.3798828125,-400000.0625,5851.4599609375,-400000.0625
7.160984992980957,-400000.0625,-7687.89990234375,-2184.679931640625,-400000.0625,-12370.5400390625,-400000.0625,5678.75,-400000.0625
7.281137466430664,-400000.0625,-7724.72021484375,-2172.659912109375,-400000.0625,-12384.26953125,-400000.0625,5632.93017578125,-400000.0625
7.53161358833313,-400000.0625,-7703.8798828125,-2144.18994140625,-400000.0625,-12357.4296875,-400000.0625,5668.830078125,-400000.0625
7.596812009811401,-400000.0625,-7736.39990234375,-2166.699951171875,-400000.0625,-12386.1298828125,-400000.0625,5638.97998046875,-400000.0625
7.7392778396606445,-400000.0625,-7684.56982421875,-1949.68994140625,-400000.0625,-12380.8896484375,-400000.0625,5473.81005859375,-400000.0625
7.784294605255127,-400000.0625,-7677.22021484375,-1938.1500244140625,-400000.0625,-12354.759765625,-400000.0625,5493.1201171875,-400000.0625
7.929097414016724,-400000.0625,-7749.080078125,-2200.93994140625,-400000.0625,-12394.7197265625,-400000.0625,5612.0400390625,-400000.0625
7.973454236984253,-400000.0625,-7783.3701171875,-2227.159912109375,-400000.0625,-12428.1396484375,-400000.0625,5596.06982421875,-400000.0625
8.127451419830322,-400000.0625,-7793.47998046875,-2227.830078125,-400000.0625,-12416.26953125,-400000.0625,5596.35009765625,-400000.0625
8.165288209915161,-400000.0625,-7828.669921875,-2206.659912109375,-400000.0625,-12352.23046875,-400000.0625,5607.509765625,-400000.0625
8.232502937316895,-400000.0625,-7816.1201171875,-2216.47998046875,-400000.0625,-12403.8203125,-400000.0625,5593.2099609375,-400000.0625
8.31529188156128,-400000.0625,-7840.72998046875,-2241.22998046875,-400000.0625,-12428.759765625,-400000.0625,5577.7998046875,-400000.0625
8.493977785110474,-400000.0625,-7815.89013671875,-2233.60009765625,-400000.0625,-12417.26953125,-400000.0625,5599.4501953125,-400000.0625
8.577844381332397,-400000.0625,-7722.89990234375,-2011.489990234375,-400000.0625,-12389.849609375,-400000.0625,5465.56005859375,-400000.0625
8.626911878585815,-400000.0625,-7758.669921875,-1992.75,-400000.0625,-12420.75,-400000.0625,5430.509765625,-400000.0625
8.681839942932129,-400000.0625,-7745.4599609375,-1984.7900390625,-400000.0625,-12413.7900390625,-400000.0625,5442.14013671875,-400000.0625
9.013326406478882,-400000.0625,-7769.8701171875,-1962.280029296875,-400000.0625,-12407.400390625,-400000.0625,5441.56982421875,-400000.0625
9.068178415298462,-400000.0625,-7766.52978515625,-1956.1800537109375,-400000.0625,-12382.3203125,-400000.0625,5459.5,-400000.0625
9.172930479049683,-400000.0625,-7747.97998046875,-1934.1500244140625,-400000.0625,-12372.4501953125,-400000.0625,5474.330078125,-400000.0625
9.194273471832275,-400000.0625,-7804.2001953125,-1995.3699951171875,-400000.0625,-12432.0498046875,-400000.0625,5417.919921875,-400000.0625
9.261032104492188,-400000.0625,-7798.9599609375,-1988.97998046875,-400000.0625,-12418.3701171875,-400000.0625,5435.27978515625,-400000.0625
9.394328355789185,-400000.0625,-7758.0,-1946.1199951171875,-400000.0625,-12387.08984375,-400000.0625,5456.39990234375,-400000.0625
9.544457912445068,-400000.0625,-7797.91015625,-1981.2099609375,-400000.0625,-12416.83984375,-400000.0625,5421.5400390625,-400000.0625
9.639747619628906,-400000.0625,-7921.7900390625,-2256.919921875,-400000.0625,-12435.7197265625,-400000.0625,5605.60009765625,-400000.0625
9.706825971603394,-400000.0625,-8187.68017578125,-2458.909912109375,-400000.0625,-12305.7900390625,-400000.0625,5583.759765625,-400000.0625
9.830765724182129,-400000.0625,-8116.77001953125,-2547.31005859375,-400000.0625,-12445.400390625,-400000.0625,5686.9501953125,-400000.0625
10.0293128490448,-400000.0625,-8048.10986328125,-2495.719970703125,-400000.0625,-12449.599609375,-400000.0625,5736.72998046875,-400000.0625
10.224488735198975,-400000.0625,-8080.580078125,-2535.8701171875,-400000.0625,-12487.599609375,-400000.0625,5713.990234375,-400000.0625
10.356889724731445,-400000.0625,-7859.0400390625,-2299.31005859375,-400000.0625,-12461.3798828125,-400000.0625,5636.5,-400000.0625
10.414454698562622,-400000.0625,-7838.2001953125,-2279.469970703125,-400000.0625,-12432.6201171875,-400000.0625,5647.9501953125,-400000.0625
10.470874786376953,-400000.0625,-7813.4501953125,-2238.320068359375,-400000.0625,-12452.169921875,-400000.0625,5611.52001953125,-400000.0625
10.53705644607544,-400000.0625,-7842.16015625,-2247.860107421875,-400000.0625,-12474.8203125,-400000.0625,5591.919921875,-400000.0625
10.66179347038269,-400000.0625,-7843.919921875,-2244.0400390625,-400000.0625,-12463.1904296875,-400000.0625,5608.02978515625,-400000.0625
10.679045915603638,-400000.0625,-7833.33984375,-2237.989990234375,-400000.0625,-12441.9697265625,-400000.0625,5639.27001953125,-400000.0625
10.729982137680054,-400000.0625,-7830.81005859375,-2246.52001953125,-400000.0625,-12439.4404296875,-400000.0625,5649.9501953125,-400000.0625
10.859314680099487,-400000.0625,-7886.60009765625,-2305.169921875,-400000.0625,-12493.2802734375,-400000.0625,5592.5400390625,-400000.0625
timestamp,ch7,ch2,ch3,ch5,is_pause
11.015540838241577,-400000.0625,-7830.91015625,-2235.60009765625,-400000.0625,-12430.6201171875,-400000.0625,5620.77001953125,-400000.0625
11.024848937988281,-400000.0625,-7832.10009765625,-2235.989990234375,-400000.0625,-12431.6201171875,-400000.0625,5615.52001953125,-400000.0625
11.029261827468872,-400000.0625,-7868.580078125,-2267.739990234375,-400000.0625,-12466.6201171875,-400000.0625,5580.27978515625,-400000.0625
11.029269218444824,-400000.0625,-7888.7900390625,-2286.860107421875,-400000.0625,-12489.7998046875,-400000.0625,5558.2099609375,-400000.0625
11.029273509979248,-400000.0625,-7855.27001953125,-2257.679931640625,-400000.0625,-12457.7998046875,-400000.0625,5583.0,-400000.0625
11.029277086257935,-400000.0625,-7832.47998046875,-2237.27001953125,-400000.0625,-12432.099609375,-400000.0625,5616.0498046875,-400000.0625
11.0292809009552,-400000.0625,-7839.16015625,-2242.139892578125,-400000.0625,-12435.7197265625,-400000.0625,5620.77001953125,-400000.0625
11.029284954071045,-400000.0625,-7868.39013671875,-2271.219970703125,-400000.0625,-12469.4404296875,-400000.0625,5584.18994140625,-400000.0625
11.029288530349731,-400000.0625,-7880.93017578125,-2280.6201171875,-400000.0625,-12486.5498046875,-400000.0625,5568.31005859375,-400000.0625
11.029292106628418,-400000.0625,-7854.41015625,-2255.72998046875,-400000.0625,-12456.9404296875,-400000.0625,5598.58984375,-400000.0625
11.029296159744263,-400000.0625,-7834.47998046875,-2234.030029296875,-400000.0625,-12424.7099609375,-400000.0625,5621.72021484375,-400000.0625
11.02929973602295,-400000.0625,-7835.52978515625,-2236.93994140625,-400000.0625,-12434.33984375,-400000.0625,5619.0498046875,-400000.0625
11.029303312301636,-400000.0625,-7871.68017578125,-2270.409912109375,-400000.0625,-12470.76953125,-400000.0625,5592.919921875,-400000.0625
11.029306888580322,-400000.0625,-7887.4599609375,-2286.239990234375,-400000.0625,-12490.9404296875,-400000.0625,5576.7998046875,-400000.0625
11.029310941696167,-400000.0625,-7859.7099609375,-2259.780029296875,-400000.0625,-12459.4697265625,-400000.0625,5600.06982421875,-400000.0625
11.029314517974854,-400000.0625,-7833.2001953125,-2232.169921875,-400000.0625,-12428.48046875,-400000.0625,5622.6298828125,-400000.0625
11.046587467193604,-400000.0625,-7834.10009765625,-2232.5,-400000.0625,-12432.8603515625,-400000.0625,5625.25,-400000.0625
11.051632165908813,-400000.0625,-7870.52978515625,-2269.510009765625,-400000.0625,-12466.2900390625,-400000.0625,5595.2099609375,-400000.0625
11.055931329727173,-400000.0625,-7885.27001953125,-2283.860107421875,-400000.0625,-12485.2197265625,-400000.0625,5581.7099609375,-400000.0625
11.055938005447388,-400000.0625,-7855.509765625,-2258.5400390625,-400000.0625,-12456.990234375,-400000.0625,5609.93994140625,-400000.0625
11.055942058563232,-400000.0625,-7831.77001953125,-2233.550048828125,-400000.0625,-12428.6201171875,-400000.0625,5633.5,-400000.0625
11.055945873260498,-400000.0625,-7840.490234375,-2239.989990234375,-400000.0625,-12434.4404296875,-400000.0625,5628.6298828125,-400000.0625
11.0559561252594,-400000.0625,-7871.580078125,-2270.510009765625,-400000.0625,-12470.5302734375,-400000.0625,5598.259765625,-400000.0625
11.055959701538086,-400000.0625,-7893.0400390625,-2290.5400390625,-400000.0625,-12486.599609375,-400000.0625,5581.18994140625,-400000.0625
11.055963516235352,-400000.0625,-7867.72021484375,-2269.320068359375,-400000.0625,-12461.330078125,-400000.0625,5607.18017578125,-400000.0625
11.055967330932617,-400000.0625,-7842.77978515625,-2244.139892578125,-400000.0625,-12438.0595703125,-400000.0625,5626.580078125,-400000.0625
11.055970907211304,-400000.0625,-7845.31005859375,-2249.2900390625,-400000.0625,-12437.73046875,-400000.0625,5623.9599609375,-400000.0625
11.05597472190857,-400000.0625,-7878.10986328125,-2284.719970703125,-400000.0625,-12473.1103515625,-400000.0625,5592.25,-400000.0625
11.055978298187256,-400000.0625,-7893.27978515625,-2301.030029296875,-400000.0625,-12491.7998046875,-400000.0625,5576.1298828125,-400000.0625
11.055981874465942,-400000.0625,-7863.89990234375,-2273.080078125,-400000.0625,-12460.330078125,-400000.0625,5604.080078125,-400000.0625
11.055986404418945,-400000.0625,-7836.2998046875,-2247.669921875,-400000.0625,-12429.099609375,-400000.0625,5631.4501953125,-400000.0625
11.055990219116211,-400000.0625,-7852.27001953125,-2255.6298828125,-400000.0625,-12435.0595703125,-400000.0625,5629.06005859375,-400000.0625
11.111412763595581,-400000.0625,-7886.1201171875,-2289.489990234375,-400000.0625,-12472.2998046875,-400000.0625,5593.2099609375,-400000.0625
11.116379261016846,-400000.0625,-7902.0,-2308.0400390625,-400000.0625,-12492.08984375,-400000.0625,5573.7001953125,-400000.0625
11.1209557056427,-400000.0625,-7868.0,-2279.7099609375,-400000.0625,-12463.2900390625,-400000.0625,5601.60009765625,-400000.0625
11.125282287597656,-400000.0625,-7841.2099609375,-2253.47998046875,-400000.0625,-12435.5302734375,-400000.0625,5628.8701171875,-400000.0625
11.125289678573608,-400000.0625,-7851.7900390625,-2260.070068359375,-400000.0625,-12436.4404296875,-400000.0625,5619.81005859375,-400000.0625
11.125293731689453,-400000.0625,-7881.2099609375,-2291.489990234375,-400000.0625,-12471.76953125,-400000.0625,5582.81005859375,-400000.0625
11.125298500061035,-400000.0625,-7895.7998046875,-2308.22998046875,-400000.0625,-12488.2197265625,-400000.0625,5567.64990234375,-400000.0625
11.1253023147583,-400000.0625,-7875.25,-2280.949951171875,-400000.0625,-12456.509765625,-400000.0625,5588.91015625,-400000.0625
11.125306367874146,-400000.0625,-7854.990234375,-2263.68994140625,-400000.0625,-12439.58984375,-400000.0625,5624.2001953125,-400000.0625
11.125311136245728,-400000.0625,-7858.47021484375,-2277.419921875,-400000.0625,-12447.6904296875,-400000.0625,5637.740234375,-400000.0625
11.125314712524414,-400000.0625,-7890.02978515625,-2317.10009765625,-400000.0625,-12476.73046875,-400000.0625,5609.509765625,-400000.0625
11.1253182888031,-400000.0625,-7912.64013671875,-2342.27001953125,-400000.0625,-12500.33984375,-400000.0625,5597.740234375,-400000.0625
11.125328063964844,-400000.0625,-7888.31982421875,-2324.14990234375,-400000.0625,-12473.6298828125,-400000.0625,5628.16015625,-400000.0625
