time,ch1,ch2,ch3,ch4,ch5,ch6,ch7,ch8
129.8494758605957,-400000.0625,-1503.4200439453125,-2083.780029296875,-400000.0625,-6003.7099609375,-400000.0625,-15377.240234375,-400000.0625
129.85978507995605,-400000.0625,-1547.3399658203125,-2125.169921875,-400000.0625,-6040.240234375,-400000.0625,-15419.6796875,-400000.0625
129.87194681167603,-400000.0625,-1649.0899658203125,-2217.25,-400000.0625,-6135.080078125,-400000.0625,-15519.099609375,-400000.0625
129.88380551338196,-400000.0625,-1672.93994140625,-2236.3701171875,-400000.0625,-6157.39990234375,-400000.0625,-15543.7998046875,-400000.0625
129.8973524570465,-400000.0625,-1585.8199462890625,-2155.110107421875,-400000.0625,-6079.2001953125,-400000.0625,-15458.6796875,-400000.0625
129.90965723991394,-400000.0625,-1506.52001953125,-2085.780029296875,-400000.0625,-5999.419921875,-400000.0625,-15384.2900390625,-400000.0625
129.92133903503418,-400000.0625,-1543.52001953125,-2126.169921875,-400000.0625,-6036.330078125,-400000.0625,-15421.8701171875,-400000.0625
129.95588779449463,-400000.0625,-1650.760009765625,-2221.159912109375,-400000.0625,-6138.75,-400000.0625,-15523.0498046875,-400000.0625
129.9664237499237,-400000.0625,-1676.27001953125,-2235.889892578125,-400000.0625,-6158.97021484375,-400000.0625,-15548.2802734375,-400000.0625
129.9776222705841,-400000.0625,-1586.2900390625,-2155.300048828125,-400000.0625,-6080.91015625,-400000.0625,-15460.73046875,-400000.0625
129.98743534088135,-400000.0625,-1507.0899658203125,-2085.02001953125,-400000.0625,-6004.14013671875,-400000.0625,-15383.2900390625,-400000.0625
129.9971888065338,-400000.0625,-1545.3800048828125,-2124.1201171875,-400000.0625,-6036.66015625,-400000.0625,-15423.6796875,-400000.0625
130.00858449935913,-400000.0625,-1647.0400390625,-2217.25,-400000.0625,-6135.27001953125,-400000.0625,-15522.2001953125,-400000.0625
130.0187680721283,-400000.0625,-1672.3199462890625,-2236.179931640625,-400000.0625,-6159.8798828125,-400000.0625,-15545.080078125,-400000.0625
130.02666997909546,-400000.0625,-1589.489990234375,-2159.449951171875,-400000.0625,-6076.10009765625,-400000.0625,-15466.2197265625,-400000.0625
130.05973291397095,-400000.0625,-1508.52001953125,-2090.97998046875,-400000.0625,-6004.18994140625,-400000.0625,-15388.6796875,-400000.0625
130.07402753829956,-400000.0625,-1543.3800048828125,-2131.320068359375,-400000.0625,-6042.10009765625,-400000.0625,-15425.830078125,-400000.0625
130.08435893058777,-400000.0625,-1652.1500244140625,-2226.68994140625,-400000.0625,-6136.89013671875,-400000.0625,-15526.8701171875,-400000.0625
130.09238743782043,-400000.0625,-1676.6600341796875,-2242.139892578125,-400000.0625,-6157.2998046875,-400000.0625,-15551.08984375,-400000.0625
130.10461354255676,-400000.0625,-1588.5400390625,-2162.080078125,-400000.0625,-6075.91015625,-400000.0625,-15462.73046875,-400000.0625
130.11449694633484,-400000.0625,-1507.8499755859375,-2093.739990234375,-400000.0625,-6006.580078125,-400000.0625,-15382.8203125,-400000.0625
130.12315130233765,-400000.0625,-1545.3800048828125,-2130.840087890625,-400000.0625,-6042.10009765625,-400000.0625,-15422.6796875,-400000.0625
130.1387209892273,-400000.0625,-1650.4300537109375,-2225.110107421875,-400000.0625,-6136.60986328125,-400000.0625,-15525.6796875,-400000.0625
130.1704385280609,-400000.0625,-1674.3699951171875,-2242.52001953125,-400000.0625,-6159.5400390625,-400000.0625,-15550.4697265625,-400000.0625
130.18194937705994,-400000.0625,-1583.5799560546875,-2156.02001953125,-400000.0625,-6077.39013671875,-400000.0625,-15464.259765625,-400000.0625
130.1899971961975,-400000.0625,-1502.75,-2085.639892578125,-400000.0625,-6001.08984375,-400000.0625,-15387.4404296875,-400000.0625
130.20638132095337,-400000.0625,-1542.9000244140625,-2127.60009765625,-400000.0625,-6039.81005859375,-400000.0625,-15422.009765625,-400000.0625
130.2164282798767,-400000.0625,-1645.6099853515625,-2220.489990234375,-400000.0625,-6137.56005859375,-400000.0625,-15523.33984375,-400000.0625
130.23009657859802,-400000.0625,-1671.219970703125,-2237.610107421875,-400000.0625,-6159.1201171875,-400000.0625,-15547.5595703125,-400000.0625
130.24218130111694,-400000.0625,-1583.47998046875,-2157.35009765625,-400000.0625,-6073.669921875,-400000.0625,-15464.740234375,-400000.0625
130.2744596004486,-400000.0625,-1503.6600341796875,-2089.070068359375,-400000.0625,-6001.330078125,-400000.0625,-15385.2001953125,-400000.0625
130.28496313095093,-400000.0625,-1542.280029296875,-2131.699951171875,-400000.0625,-6037.89990234375,-400000.0625,-15424.0595703125,-400000.0625
130.29374194145203,-400000.0625,-1648.0899658203125,-2222.35009765625,-400000.0625,-6134.60986328125,-400000.0625,-15528.25,-400000.0625
130.30843877792358,-400000.0625,-1677.56005859375,-2241.419921875,-400000.0625,-6160.2099609375,-400000.0625,-15552.330078125,-400000.0625
130.31944394111633,-400000.0625,-1590.300048828125,-2163.27001953125,-400000.0625,-6081.10986328125,-400000.0625,-15463.6396484375,-400000.0625
130.32739329338074,-400000.0625,-1504.9000244140625,-2091.1201171875,-400000.0625,-6003.47998046875,-400000.0625,-15388.16015625,-400000.0625
130.33871150016785,-400000.0625,-1539.9000244140625,-2128.4599609375,-400000.0625,-6034.419921875,-400000.0625,-15424.400390625,-400000.0625
130.35122919082642,-400000.0625,-1648.239990234375,-2226.72998046875,-400000.0625,-6134.7998046875,-400000.0625,-15524.580078125,-400000.0625
130.38394141197205,-400000.0625,-1674.699951171875,-2244.0400390625,-400000.0625,-6159.93017578125,-400000.0625,-15551.1396484375,-400000.0625
130.39258813858032,-400000.0625,-1588.9599609375,-2161.360107421875,-400000.0625,-6083.919921875,-400000.0625,-15472.509765625,-400000.0625
130.4051055908203,-400000.0625,-1510.0999755859375,-2097.800048828125,-400000.0625,-6006.47998046875,-400000.0625,-15396.0703125,-400000.0625
130.41545152664185,-400000.0625,-1549.3399658203125,-2136.0400390625,-400000.0625,-6041.33984375,-400000.0625,-15428.400390625,-400000.0625
130.42382979393005,-400000.0625,-1651.2900390625,-2226.929931640625,-400000.0625,-6137.31982421875,-400000.0625,-15529.5400390625,-400000.0625
130.43338751792908,-400000.0625,-1672.5999755859375,-2245.949951171875,-400000.0625,-6160.830078125,-400000.0625,-15557.4296875,-400000.0625
130.44892239570618,-400000.0625,-1593.6400146484375,-2168.75,-400000.0625,-6086.68017578125,-400000.0625,-15474.8896484375,-400000.0625
130.45870399475098,-400000.0625,-1511.1400146484375,-2096.219970703125,-400000.0625,-6013.68017578125,-400000.0625,-15393.9296875,-400000.0625
130.50014233589172,-400000.0625,-1544.5699462890625,-2131.64990234375,-400000.0625,-6041.85986328125,-400000.0625,-15429.58984375,-400000.0625
130.5124876499176,-400000.0625,-1649.5699462890625,-2224.969970703125,-400000.0625,-6133.509765625,-400000.0625,-15531.16015625,-400000.0625
130.5320086479187,-400000.0625,-1679.280029296875,-2245.139892578125,-400000.0625,-6159.02001953125,-400000.0625,-15560.099609375,-400000.0625
130.54572820663452,-400000.0625,-1592.300048828125,-2165.320068359375,-400000.0625,-6081.2001953125,-400000.0625,-15475.6103515625,-400000.0625
130.55848836898804,-400000.0625,-1507.22998046875,-2092.360107421875,-400000.0625,-6007.240234375,-400000.0625,-15395.98046875,-400000.0625
130.5718822479248,-400000.0625,-1541.8499755859375,-2127.31005859375,-400000.0625,-6037.759765625,-400000.0625,-15431.2197265625,-400000.0625
130.61491203308105,-400000.0625,-1647.9000244140625,-2224.110107421875,-400000.0625,-6135.66015625,-400000.0625,-15531.58984375,-400000.0625
130.62414383888245,-400000.0625,-1674.8399658203125,-2243.81005859375,-400000.0625,-6158.5400390625,-400000.0625,-15557.6201171875,-400000.0625
130.63857221603394,-400000.0625,-1590.6800537109375,-2163.550048828125,-400000.0625,-6079.6298828125,-400000.0625,-15476.75,-400000.0625
130.65059685707092,-400000.0625,-1509.050048828125,-2091.260009765625,-400000.0625,-6006.10009765625,-400000.0625,-15395.2099609375,-400000.0625
130.66329288482666,-400000.0625,-1541.22998046875,-2125.5,-400000.0625,-6037.14013671875,-400000.0625,-15428.8798828125,-400000.0625
130.6768078804016,-400000.0625,-1644.6600341796875,-2220.820068359375,-400000.0625,-6136.60986328125,-400000.0625,-15532.2099609375,-400000.0625
130.71367263793945,-400000.0625,-1674.3199462890625,-2241.610107421875,-400000.0625,-6165.080078125,-400000.0625,-15556.240234375,-400000.0625
130.72609734535217,-400000.0625,-1588.77001953125,-2161.360107421875,-400000.0625,-6084.009765625,-400000.0625,-15473.8896484375,-400000.0625
130.73801946640015,-400000.0625,-1508.1400146484375,-2093.840087890625,-400000.0625,-6008.43994140625,-400000.0625,-15396.98046875,-400000.0625
130.75088238716125,-400000.0625,-1540.8499755859375,-2128.550048828125,-400000.0625,-6040.81005859375,-400000.0625,-15429.98046875,-400000.0625
130.76082301139832,-400000.0625,-1645.5699462890625,-2220.340087890625,-400000.0625,-6137.75,-400000.0625,-15529.5400390625,-400000.0625
130.77418208122253,-400000.0625,-1670.4599609375,-2239.280029296875,-400000.0625,-6164.35986328125,-400000.0625,-15557.2001953125,-400000.0625
130.7859981060028,-400000.0625,-1585.3900146484375,-2158.97998046875,-400000.0625,-6082.39013671875,-400000.0625,-15472.599609375,-400000.0625
130.82298946380615,-400000.0625,-1502.3699951171875,-2087.830078125,-400000.0625,-6009.8701171875,-400000.0625,-15391.6396484375,-400000.0625
130.83504104614258,-400000.0625,-1539.9000244140625,-2126.409912109375,-400000.0625,-6041.6201171875,-400000.0625,-15426.01953125,-400000.0625
130.85296988487244,-400000.0625,-1643.75,-2220.06005859375,-400000.0625,-6134.990234375,-400000.0625,-15529.349609375,-400000.0625
130.87105345726013,-400000.0625,-1671.97998046875,-2238.85009765625,-400000.0625,-6160.58984375,-400000.0625,-15558.91015625,-400000.0625
130.88511157035828,-400000.0625,-1587.719970703125,-2161.1201171875,-400000.0625,-6084.16015625,-400000.0625,-15474.23046875,-400000.0625
130.9013795852661,-400000.0625,-1501.1800537109375,-2086.449951171875,-400000.0625,-6005.240234375,-400000.0625,-15390.25,-400000.0625
130.94778180122375,-400000.0625,-1533.3699951171875,-2120.830078125,-400000.0625,-6035.60986328125,-400000.0625,-15425.400390625,-400000.0625
130.95823669433594,-400000.0625,-1635.0699462890625,-2212.330078125,-400000.0625,-6133.18017578125,-400000.0625,-15526.580078125,-400000.0625
130.9725661277771,-400000.0625,-1667.97998046875,-2234.889892578125,-400000.0625,-6164.93017578125,-400000.0625,-15552.759765625,-400000.0625
130.98589420318604,-400000.0625,-1583.77001953125,-2155.780029296875,-400000.0625,-6084.16015625,-400000.0625,-15473.080078125,-400000.0625
130.99708318710327,-400000.0625,-1499.3199462890625,-2084.5400390625,-400000.0625,-6005.85986328125,-400000.0625,-15392.259765625,-400000.0625
131.01565384864807,-400000.0625,-1530.030029296875,-2120.35009765625,-400000.0625,-6038.240234375,-400000.0625,-15426.2099609375,-400000.0625
131.05533289909363,-400000.0625,-1635.739990234375,-2214.340087890625,-400000.0625,-6133.56005859375,-400000.0625,-15528.8701171875,-400000.0625
131.0673508644104,-400000.0625,-1667.8299560546875,-2237.219970703125,-400000.0625,-6160.58984375,-400000.0625,-15555.2900390625,-400000.0625
131.08072113990784,-400000.0625,-1582.3800048828125,-2157.070068359375,-400000.0625,-6082.009765625,-400000.0625,-15474.0400390625,-400000.0625
131.09049201011658,-400000.0625,-1495.8900146484375,-2081.25,-400000.0625,-6005.3798828125,-400000.0625,-15390.830078125,-400000.0625
131.10253524780273,-400000.0625,-1528.9300537109375,-2118.679931640625,-400000.0625,-6040.3798828125,-400000.0625,-15426.7802734375,-400000.0625
131.11537885665894,-400000.0625,-1637.0799560546875,-2213.81005859375,-400000.0625,-6136.1298828125,-400000.0625,-15529.1103515625,-400000.0625
131.12406015396118,-400000.0625,-1667.9300537109375,-2239.280029296875,-400000.0625,-6162.22021484375,-400000.0625,-15557.150390625,-400000.0625
131.16453170776367,-400000.0625,-1586.3900146484375,-2160.219970703125,-400000.0625,-6083.68017578125,-400000.0625,-15473.83984375,-400000.0625
131.17516708374023,-400000.0625,-1498.93994140625,-2084.72998046875,-400000.0625,-6003.47998046875,-400000.0625,-15390.4501953125,-400000.0625
131.18659806251526,-400000.0625,-1527.4000244140625,-2118.02001953125,-400000.0625,-6034.7099609375,-400000.0625,-15423.8701171875,-400000.0625
131.19651865959167,-400000.0625,-1632.97998046875,-2211.89990234375,-400000.0625,-6132.64990234375,-400000.0625,-15528.16015625,-400000.0625
131.20757699012756,-400000.0625,-1665.8800048828125,-2234.7900390625,-400000.0625,-6159.8798828125,-400000.0625,-15557.8603515625,-400000.0625
131.21845149993896,-400000.0625,-1585.6700439453125,-2158.8798828125,-400000.0625,-6082.72998046875,-400000.0625,-15476.7998046875,-400000.0625
131.2266595363617,-400000.0625,-1499.75,-2084.590087890625,-400000.0625,-6003.91015625,-400000.0625,-15395.8798828125,-400000.0625
131.25970268249512,-400000.0625,-1527.5999755859375,-2117.199951171875,-400000.0625,-6034.22998046875,-400000.0625,-15427.2099609375,-400000.0625
131.272367477417,-400000.0625,-1633.02001953125,-2212.239990234375,-400000.0625,-6131.35986328125,-400000.0625,-15530.919921875,-400000.0625
131.28445506095886,-400000.0625,-1664.1600341796875,-2234.169921875,-400000.0625,-6164.64990234375,-400000.0625,-15563.0595703125,-400000.0625
131.2926468849182,-400000.0625,-1582.3800048828125,-2155.72998046875,-400000.0625,-6086.39990234375,-400000.0625,-15480.5703125,-400000.0625
131.30658268928528,-400000.0625,-1498.4599609375,-2082.6298828125,-400000.0625,-6004.52001953125,-400000.0625,-15397.0302734375,-400000.0625
131.3177387714386,-400000.0625,-1531.3599853515625,-2119.5400390625,-400000.0625,-6034.419921875,-400000.0625,-15429.830078125,-400000.0625
131.32636165618896,-400000.0625,-1641.0799560546875,-2218.679931640625,-400000.0625,-6134.93994140625,-400000.0625,-15534.0703125,-400000.0625
131.34176898002625,-400000.0625,-1671.27001953125,-2241.0400390625,-400000.0625,-6161.64013671875,-400000.0625,-15566.259765625,-400000.0625
131.38172054290771,-400000.0625,-1586.8699951171875,-2161.409912109375,-400000.0625,-6086.2099609375,-400000.0625,-15483.91015625,-400000.0625
131.3910448551178,-400000.0625,-1499.75,-2087.02001953125,-400000.0625,-6004.0498046875,-400000.0625,-15399.080078125,-400000.0625
131.40328741073608,-400000.0625,-1533.989990234375,-2120.919921875,-400000.0625,-6036.759765625,-400000.0625,-15434.169921875,-400000.0625
131.41488003730774,-400000.0625,-1638.6500244140625,-2214.719970703125,-400000.0625,-6131.75,-400000.0625,-15536.740234375,-400000.0625
131.4232053756714,-400000.0625,-1669.31005859375,-2238.889892578125,-400000.0625,-6159.93017578125,-400000.0625,-15564.73046875,-400000.0625
131.43273997306824,-400000.0625,-1586.25,-2164.4599609375,-400000.0625,-6085.2099609375,-400000.0625,-15481.0400390625,-400000.0625
131.44347667694092,-400000.0625,-1505.6600341796875,-2093.320068359375,-400000.0625,-6010.6298828125,-400000.0625,-15399.5498046875,-400000.0625
131.5179841518402,-400000.0625,-1539.1400146484375,-2128.409912109375,-400000.0625,-6039.0,-400000.0625,-15432.169921875,-400000.0625
131.53326630592346,-400000.0625,-1642.800048828125,-2223.02001953125,-400000.0625,-6136.3701171875,-400000.0625,-15538.650390625,-400000.0625
131.54886388778687,-400000.0625,-1677.1800537109375,-2245.6201171875,-400000.0625,-6165.93017578125,-400000.0625,-15568.01953125,-400000.0625
131.58610439300537,-400000.0625,-1591.8699951171875,-2166.610107421875,-400000.0625,-6087.35009765625,-400000.0625,-15486.33984375,-400000.0625
131.59829759597778,-400000.0625,-1501.93994140625,-2090.449951171875,-400000.0625,-6008.240234375,-400000.0625,-15401.5595703125,-400000.0625
131.6098563671112,-400000.0625,-1529.9300537109375,-2121.02001953125,-400000.0625,-6035.419921875,-400000.0625,-15435.0302734375,-400000.0625
131.61976265907288,-400000.0625,-1638.8399658203125,-2218.010009765625,-400000.0625,-6131.1298828125,-400000.0625,-15538.169921875,-400000.0625
131.62922501564026,-400000.0625,-1676.22998046875,-2241.659912109375,-400000.0625,-6160.77978515625,-400000.0625,-15566.5400390625,-400000.0625
131.64209055900574,-400000.0625,-1590.010009765625,-2164.1298828125,-400000.0625,-6086.35009765625,-400000.0625,-15480.419921875,-400000.0625
131.65406942367554,-400000.0625,-1499.93994140625,-2089.739990234375,-400000.0625,-6004.9501953125,-400000.0625,-15398.7900390625,-400000.0625
131.69235563278198,-400000.0625,-1533.219970703125,-2123.8798828125,-400000.0625,-6033.52001953125,-400000.0625,-15433.650390625,-400000.0625
131.70795559883118,-400000.0625,-1641.4599609375,-2222.300048828125,-400000.0625,-6137.85009765625,-400000.0625,-15535.4501953125,-400000.0625
131.71840977668762,-400000.0625,-1672.699951171875,-2246.89990234375,-400000.0625,-6165.93017578125,-400000.0625,-15566.490234375,-400000.0625
131.72643041610718,-400000.0625,-1591.300048828125,-2168.320068359375,-400000.0625,-6083.919921875,-400000.0625,-15490.2998046875,-400000.0625
131.7389214038849,-400000.0625,-1505.0400390625,-2091.1201171875,-400000.0625,-6002.6201171875,-400000.0625,-15405.9404296875,-400000.0625
131.7501654624939,-400000.0625,-1534.4599609375,-2124.260009765625,-400000.0625,-6031.60986328125,-400000.0625,-15434.169921875,-400000.0625
131.759348154068,-400000.0625,-1637.3199462890625,-2218.10009765625,-400000.0625,-6128.93017578125,-400000.0625,-15536.8798828125,-400000.0625
131.79396295547485,-400000.0625,-1671.8399658203125,-2243.570068359375,-400000.0625,-6162.06982421875,-400000.0625,-15568.9296875,-400000.0625
131.80615854263306,-400000.0625,-1589.780029296875,-2164.27001953125,-400000.0625,-6084.97021484375,-400000.0625,-15488.240234375,-400000.0625
131.81699657440186,-400000.0625,-1502.0799560546875,-2087.969970703125,-400000.0625,-6003.0498046875,-400000.0625,-15404.8896484375,-400000.0625
131.82718992233276,-400000.0625,-1534.4100341796875,-2122.260009765625,-400000.0625,-6034.60986328125,-400000.0625,-15434.7900390625,-400000.0625
131.8407952785492,-400000.0625,-1635.68994140625,-2213.6201171875,-400000.0625,-6131.75,-400000.0625,-15537.169921875,-400000.0625
131.85255026817322,-400000.0625,-1669.5,-2237.179931640625,-400000.0625,-6157.58984375,-400000.0625,-15570.5498046875,-400000.0625
131.86310482025146,-400000.0625,-1588.199951171875,-2160.169921875,-400000.0625,-6081.43994140625,-400000.0625,-15490.0595703125,-400000.0625
131.89517331123352,-400000.0625,-1502.280029296875,-2087.2099609375,-400000.0625,-6006.6201171875,-400000.0625,-15407.1796875,-400000.0625
131.90669059753418,-400000.0625,-1532.510009765625,-2117.969970703125,-400000.0625,-6033.56005859375,-400000.0625,-15438.2197265625,-400000.0625
131.9173126220703,-400000.0625,-1636.1700439453125,-2210.330078125,-400000.0625,-6127.68994140625,-400000.0625,-15540.169921875,-400000.0625
131.92580819129944,-400000.0625,-1669.739990234375,-2237.27001953125,-400000.0625,-6161.06982421875,-400000.0625,-15571.98046875,-400000.0625
131.9370596408844,-400000.0625,-1587.25,-2159.260009765625,-400000.0625,-6086.2998046875,-400000.0625,-15492.8701171875,-400000.0625
131.9526870250702,-400000.0625,-1500.8499755859375,-2084.830078125,-400000.0625,-6004.0498046875,-400000.0625,-15410.6201171875,-400000.0625
131.9629156589508,-400000.0625,-1530.9300537109375,-2117.969970703125,-400000.0625,-6031.18017578125,-400000.0625,-15439.23046875,-400000.0625
131.97384762763977,-400000.0625,-1636.1199951171875,-2212.18994140625,-400000.0625,-6129.7900390625,-400000.0625,-15543.5595703125,-400000.0625
132.00835371017456,-400000.0625,-1669.6500244140625,-2236.60009765625,-400000.0625,-6160.740234375,-400000.0625,-15573.5,-400000.0625
132.01999592781067,-400000.0625,-1586.06005859375,-2157.8798828125,-400000.0625,-6085.10986328125,-400000.0625,-15494.16015625,-400000.0625
132.02969622612,-400000.0625,-1500.56005859375,-2083.25,-400000.0625,-6004.2900390625,-400000.0625,-15406.990234375,-400000.0625
132.03994488716125,-400000.0625,-1531.699951171875,-2117.820068359375,-400000.0625,-6031.080078125,-400000.0625,-15438.0302734375,-400000.0625
132.05269694328308,-400000.0625,-1634.550048828125,-2210.949951171875,-400000.0625,-6128.5498046875,-400000.0625,-15543.7998046875,-400000.0625
132.0607271194458,-400000.0625,-1670.6500244140625,-2235.93994140625,-400000.0625,-6159.1201171875,-400000.0625,-15574.5498046875,-400000.0625
132.07223343849182,-400000.0625,-1587.6800537109375,-2157.830078125,-400000.0625,-6081.52978515625,-400000.0625,-15490.150390625,-400000.0625
132.08426809310913,-400000.0625,-1496.1199951171875,-2080.389892578125,-400000.0625,-5998.7998046875,-400000.0625,-15406.08984375,-400000.0625
132.12042474746704,-400000.0625,-1525.2099609375,-2111.239990234375,-400000.0625,-6029.64990234375,-400000.0625,-15438.8896484375,-400000.0625
132.12990307807922,-400000.0625,-1632.8800048828125,-2209.760009765625,-400000.0625,-6130.83984375,-400000.0625,-15537.4501953125,-400000.0625
132.14154481887817,-400000.0625,-1667.02001953125,-2236.60009765625,-400000.0625,-6161.8798828125,-400000.0625,-15568.3095703125,-400000.0625
132.15372395515442,-400000.0625,-1583.2900390625,-2158.360107421875,-400000.0625,-6085.25,-400000.0625,-15492.9697265625,-400000.0625
132.16325664520264,-400000.0625,-1497.4599609375,-2081.8701171875,-400000.0625,-6001.330078125,-400000.0625,-15409.8095703125,-400000.0625
132.17412900924683,-400000.0625,-1525.449951171875,-2114.489990234375,-400000.0625,-6026.7900390625,-400000.0625,-15438.6103515625,-400000.0625
132.18481302261353,-400000.0625,-1627.6800537109375,-2206.85009765625,-400000.0625,-6123.5,-400000.0625,-15541.4599609375,-400000.0625
132.21552658081055,-400000.0625,-1664.8299560546875,-2233.4599609375,-400000.0625,-6159.740234375,-400000.0625,-15577.990234375,-400000.0625
132.22390627861023,-400000.0625,-1584.6300048828125,-2160.360107421875,-400000.0625,-6091.2099609375,-400000.0625,-15496.5400390625,-400000.0625
132.23594045639038,-400000.0625,-1494.5,-2084.780029296875,-400000.0625,-6007.6201171875,-400000.0625,-15405.849609375,-400000.0625
132.24547171592712,-400000.0625,-1520.43994140625,-2112.43994140625,-400000.0625,-6028.60986328125,-400000.0625,-15434.0302734375,-400000.0625
132.25505447387695,-400000.0625,-1624.25,-2206.75,-400000.0625,-6128.4501953125,-400000.0625,-15538.41015625,-400000.0625
132.26680970191956,-400000.0625,-1664.8299560546875,-2234.64990234375,-400000.0625,-6161.259765625,-400000.0625,-15572.2197265625,-400000.0625
132.27808928489685,-400000.0625,-1584.3900146484375,-2160.60009765625,-400000.0625,-6083.10986328125,-400000.0625,-15496.4501953125,-400000.0625
132.28695678710938,-400000.0625,-1493.7900390625,-2083.2099609375,-400000.0625,-6002.0498046875,-400000.0625,-15412.6201171875,-400000.0625
132.31937766075134,-400000.0625,-1520.489990234375,-2111.580078125,-400000.0625,-6030.60986328125,-400000.0625,-15440.6103515625,-400000.0625
132.3277268409729,-400000.0625,-1627.4000244140625,-2207.179931640625,-400000.0625,-6130.02978515625,-400000.0625,-15542.83984375,-400000.0625
132.34719514846802,-400000.0625,-1664.68994140625,-2235.27001953125,-400000.0625,-6162.06982421875,-400000.0625,-15578.7001953125,-400000.0625
132.3560130596161,-400000.0625,-1585.199951171875,-2161.260009765625,-400000.0625,-6089.64013671875,-400000.0625,-15502.259765625,-400000.0625
132.36515712738037,-400000.0625,-1496.3599853515625,-2086.31005859375,-400000.0625,-6011.2001953125,-400000.0625,-15416.7197265625,-400000.0625
132.37697505950928,-400000.0625,-1519.3900146484375,-2114.110107421875,-400000.0625,-6034.419921875,-400000.0625,-15445.330078125,-400000.0625
132.38840079307556,-400000.0625,-1629.260009765625,-2207.989990234375,-400000.0625,-6130.02978515625,-400000.0625,-15545.3203125,-400000.0625
132.42098331451416,-400000.0625,-1665.4000244140625,-2233.030029296875,-400000.0625,-6163.68994140625,-400000.0625,-15577.4599609375,-400000.0625
132.43104195594788,-400000.0625,-1578.4300537109375,-2154.489990234375,-400000.0625,-6084.43994140625,-400000.0625,-15497.5,-400000.0625
132.44185853004456,-400000.0625,-1486.8699951171875,-2078.06005859375,-400000.0625,-5999.3798828125,-400000.0625,-15411.7099609375,-400000.0625
132.45252084732056,-400000.0625,-1516.530029296875,-2108.669921875,-400000.0625,-6030.7001953125,-400000.0625,-15438.7998046875,-400000.0625
132.4608449935913,-400000.0625,-1623.77001953125,-2206.090087890625,-400000.0625,-6130.080078125,-400000.0625,-15540.8896484375,-400000.0625
132.47588658332825,-400000.0625,-1660.6300048828125,-2233.929931640625,-400000.0625,-6162.5,-400000.0625,-15578.5595703125,-400000.0625
132.48569345474243,-400000.0625,-1581.760009765625,-2157.8798828125,-400000.0625,-6087.2998046875,-400000.0625,-15502.0302734375,-400000.0625
132.49341297149658,-400000.0625,-1491.7900390625,-2081.389892578125,-400000.0625,-6003.43017578125,-400000.0625,-15416.1904296875,-400000.0625
132.524986743927,-400000.0625,-1520.8199462890625,-2111.47998046875,-400000.0625,-6023.97998046875,-400000.0625,-15443.08984375,-400000.0625
132.53575444221497,-400000.0625,-1625.010009765625,-2206.800048828125,-400000.0625,-6123.830078125,-400000.0625,-15545.8896484375,-400000.0625
132.5461301803589,-400000.0625,-1662.2099609375,-2233.550048828125,-400000.0625,-6162.4501953125,-400000.0625,-15579.26953125,-400000.0625
132.55432057380676,-400000.0625,-1580.81005859375,-2158.260009765625,-400000.0625,-6086.25,-400000.0625,-15498.400390625,-400000.0625
132.56385207176208,-400000.0625,-1494.550048828125,-2083.35009765625,-400000.0625,-6004.3798828125,-400000.0625,-15414.0,-400000.0625
132.57566142082214,-400000.0625,-1520.3499755859375,-2112.669921875,-400000.0625,-6026.5498046875,-400000.0625,-15443.3701171875,-400000.0625
132.58736991882324,-400000.0625,-1625.6300048828125,-2204.85009765625,-400000.0625,-6119.68017578125,-400000.0625,-15546.2802734375,-400000.0625
132.59757280349731,-400000.0625,-1665.449951171875,-2233.409912109375,-400000.0625,-6159.1201171875,-400000.0625,-15578.990234375,-400000.0625
132.62750339508057,-400000.0625,-1586.8699951171875,-2159.2099609375,-400000.0625,-6089.740234375,-400000.0625,-15498.58984375,-400000.0625
132.640127658844,-400000.0625,-1497.030029296875,-2080.919921875,-400000.0625,-6002.52001953125,-400000.0625,-15411.6201171875,-400000.0625
132.65266585350037,-400000.0625,-1521.969970703125,-2108.909912109375,-400000.0625,-6023.1201171875,-400000.0625,-15436.7900390625,-400000.0625
132.66446232795715,-400000.0625,-1625.25,-2205.469970703125,-400000.0625,-6126.4501953125,-400000.0625,-15540.599609375,-400000.0625
132.67608284950256,-400000.0625,-1665.8299560546875,-2235.60009765625,-400000.0625,-6163.68994140625,-400000.0625,-15576.98046875,-400000.0625
132.68686771392822,-400000.0625,-1590.5899658203125,-2163.320068359375,-400000.0625,-6083.81982421875,-400000.0625,-15503.98046875,-400000.0625
132.6966118812561,-400000.0625,-1498.5999755859375,-2084.39990234375,-400000.0625,-6002.759765625,-400000.0625,-15419.490234375,-400000.0625
132.70853471755981,-400000.0625,-1526.2099609375,-2113.77001953125,-400000.0625,-6029.02978515625,-400000.0625,-15442.9501953125,-400000.0625
132.7412028312683,-400000.0625,-1631.1600341796875,-2206.85009765625,-400000.0625,-6126.4501953125,-400000.0625,-15547.330078125,-400000.0625
132.75628423690796,-400000.0625,-1670.68994140625,-2234.840087890625,-400000.0625,-6158.16015625,-400000.0625,-15586.0,-400000.0625
132.7676558494568,-400000.0625,-1594.5,-2161.929931640625,-400000.0625,-6083.16015625,-400000.0625,-15505.8896484375,-400000.0625
132.77866291999817,-400000.0625,-1503.6600341796875,-2086.2099609375,-400000.0625,-6001.08984375,-400000.0625,-15418.48046875,-400000.0625
132.78928542137146,-400000.0625,-1529.739990234375,-2116.489990234375,-400000.0625,-6026.7900390625,-400000.0625,-15443.6103515625,-400000.0625
132.80283498764038,-400000.0625,-1637.4100341796875,-2214.429931640625,-400000.0625,-6127.8798828125,-400000.0625,-15546.5595703125,-400000.0625
132.81432056427002,-400000.0625,-1676.0400390625,-2241.330078125,-400000.0625,-6166.02978515625,-400000.0625,-15582.66015625,-400000.0625
132.8507239818573,-400000.0625,-1595.739990234375,-2165.27001953125,-400000.0625,-6090.58984375,-400000.0625,-15505.0302734375,-400000.0625
132.8601474761963,-400000.0625,-1504.56005859375,-2088.639892578125,-400000.0625,-6005.0,-400000.0625,-15417.3896484375,-400000.0625
132.87201499938965,-400000.0625,-1529.68994140625,-2118.25,-400000.0625,-6022.7900390625,-400000.0625,-15441.7099609375,-400000.0625
132.88327598571777,-400000.0625,-1634.68994140625,-2211.3798828125,-400000.0625,-6120.72998046875,-400000.0625,-15545.8896484375,-400000.0625
132.89226245880127,-400000.0625,-1674.4599609375,-2242.610107421875,-400000.0625,-6157.8798828125,-400000.0625,-15585.3798828125,-400000.0625
132.9031183719635,-400000.0625,-1599.9300537109375,-2171.659912109375,-400000.0625,-6090.740234375,-400000.0625,-15507.8896484375,-400000.0625
132.914057970047,-400000.0625,-1509.7099609375,-2091.60009765625,-400000.0625,-6011.10986328125,-400000.0625,-15420.009765625,-400000.0625
132.92321181297302,-400000.0625,-1532.27001953125,-2119.489990234375,-400000.0625,-6032.18017578125,-400000.0625,-15445.7099609375,-400000.0625
132.96106719970703,-400000.0625,-1637.219970703125,-2215.389892578125,-400000.0625,-6122.2998046875,-400000.0625,-15554.5302734375,-400000.0625
132.97296667099,-400000.0625,-1678.510009765625,-2245.570068359375,-400000.0625,-6158.68994140625,-400000.0625,-15593.580078125,-400000.0625
132.98473358154297,-400000.0625,-1598.9300537109375,-2170.85009765625,-400000.0625,-6086.830078125,-400000.0625,-15515.0,-400000.0625
132.9934344291687,-400000.0625,-1503.4200439453125,-2087.969970703125,-400000.0625,-6002.47021484375,-400000.0625,-15426.73046875,-400000.0625
133.00540018081665,-400000.0625,-1524.5400390625,-2112.010009765625,-400000.0625,-6025.22021484375,-400000.0625,-15451.6201171875,-400000.0625
133.0153295993805,-400000.0625,-1632.1700439453125,-2206.139892578125,-400000.0625,-6121.72998046875,-400000.0625,-15554.91015625,-400000.0625
133.02469992637634,-400000.0625,-1678.0899658203125,-2241.090087890625,-400000.0625,-6164.93017578125,-400000.0625,-15592.76953125,-400000.0625
133.06355118751526,-400000.0625,-1595.9300537109375,-2165.64990234375,-400000.0625,-6090.830078125,-400000.0625,-15511.849609375,-400000.0625
133.07465720176697,-400000.0625,-1503.52001953125,-2088.830078125,-400000.0625,-6004.669921875,-400000.0625,-15425.2998046875,-400000.0625
133.08485960960388,-400000.0625,-1529.8800048828125,-2116.969970703125,-400000.0625,-6026.22021484375,-400000.0625,-15448.5703125,-400000.0625
133.09323692321777,-400000.0625,-1633.449951171875,-2210.7099609375,-400000.0625,-6122.97021484375,-400000.0625,-15549.2802734375,-400000.0625
133.10662746429443,-400000.0625,-1672.6500244140625,-2240.179931640625,-400000.0625,-6159.35009765625,-400000.0625,-15588.759765625,-400000.0625
133.1163284778595,-400000.0625,-1595.31005859375,-2165.989990234375,-400000.0625,-6087.10986328125,-400000.0625,-15514.66015625,-400000.0625
133.1251049041748,-400000.0625,-1503.9000244140625,-2087.830078125,-400000.0625,-6005.52978515625,-400000.0625,-15424.919921875,-400000.0625
133.16063809394836,-400000.0625,-1526.449951171875,-2113.820068359375,-400000.0625,-6024.5,-400000.0625,-15447.8603515625,-400000.0625
133.17273235321045,-400000.0625,-1632.8299560546875,-2208.659912109375,-400000.0625,-6118.580078125,-400000.0625,-15548.330078125,-400000.0625
133.1852512359619,-400000.0625,-1678.1800537109375,-2243.139892578125,-400000.0625,-6160.58984375,-400000.0625,-15591.1904296875,-400000.0625
133.19571948051453,-400000.0625,-1599.4100341796875,-2167.800048828125,-400000.0625,-6088.10986328125,-400000.0625,-15514.5703125,-400000.0625
133.2077615261078,-400000.0625,-1506.1400146484375,-2087.68994140625,-400000.0625,-6001.56982421875,-400000.0625,-15424.58984375,-400000.0625
133.21853160858154,-400000.0625,-1524.4000244140625,-2111.820068359375,-400000.0625,-6028.22021484375,-400000.0625,-15448.51953125,-400000.0625
133.22770309448242,-400000.0625,-1626.5899658203125,-2205.320068359375,-400000.0625,-6124.5,-400000.0625,-15550.419921875,-400000.0625
133.2704679965973,-400000.0625,-1671.7900390625,-2236.93994140625,-400000.0625,-6157.919921875,-400000.0625,-15591.0,-400000.0625
133.2849678993225,-400000.0625,-1592.02001953125,-2162.31005859375,-400000.0625,-6085.97021484375,-400000.0625,-15514.759765625,-400000.0625
133.2941930294037,-400000.0625,-1500.8499755859375,-2083.919921875,-400000.0625,-6001.3798828125,-400000.0625,-15426.490234375,-400000.0625
133.31029391288757,-400000.0625,-1524.969970703125,-2112.77001953125,-400000.0625,-6023.60009765625,-400000.0625,-15449.3798828125,-400000.0625
133.32228779792786,-400000.0625,-1631.260009765625,-2208.419921875,-400000.0625,-6118.5400390625,-400000.0625,-15553.669921875,-400000.0625
133.33335614204407,-400000.0625,-1671.8900146484375,-2240.7099609375,-400000.0625,-6157.919921875,-400000.0625,-15594.150390625,-400000.0625
133.3762812614441,-400000.0625,-1592.1099853515625,-2167.030029296875,-400000.0625,-6090.68994140625,-400000.0625,-15510.509765625,-400000.0625
133.39078378677368,-400000.0625,-1501.469970703125,-2086.260009765625,-400000.0625,-6008.669921875,-400000.0625,-15418.8203125,-400000.0625
133.40528345108032,-400000.0625,-1519.25,-2109.6201171875,-400000.0625,-6022.169921875,-400000.0625,-15442.08984375,-400000.0625
133.4186773300171,-400000.0625,-1623.3399658203125,-2203.659912109375,-400000.0625,-6120.5400390625,-400000.0625,-15544.26953125,-400000.0625
133.43010544776917,-400000.0625,-1667.9300537109375,-2237.27001953125,-400000.0625,-6161.830078125,-400000.0625,-15587.3798828125,-400000.0625
133.44965481758118,-400000.0625,-1592.02001953125,-2165.1298828125,-400000.0625,-6091.64013671875,-400000.0625,-15515.419921875,-400000.0625
133.49326848983765,-400000.0625,-1500.699951171875,-2086.159912109375,-400000.0625,-6006.81005859375,-400000.0625,-15422.6796875,-400000.0625
133.50831723213196,-400000.0625,-1523.0699462890625,-2114.340087890625,-400000.0625,-6026.35986328125,-400000.0625,-15441.9404296875,-400000.0625
133.52166867256165,-400000.0625,-1627.489990234375,-2208.659912109375,-400000.0625,-6120.490234375,-400000.0625,-15545.080078125,-400000.0625
133.54338598251343,-400000.0625,-1670.7900390625,-2242.139892578125,-400000.0625,-6161.68994140625,-400000.0625,-15588.6201171875,-400000.0625
133.56441116333008,-400000.0625,-1592.6800537109375,-2168.610107421875,-400000.0625,-6091.5,-400000.0625,-15512.51953125,-400000.0625
133.60896730422974,-400000.0625,-1502.3699951171875,-2087.830078125,-400000.0625,-6004.2900390625,-400000.0625,-15427.4501953125,-400000.0625
133.62521314620972,-400000.0625,-1528.0699462890625,-2115.300048828125,-400000.0625,-6026.22021484375,-400000.0625,-15449.099609375,-400000.0625
133.6410994529724,-400000.0625,-1632.8800048828125,-2211.429931640625,-400000.0625,-6124.830078125,-400000.0625,-15550.5703125,-400000.0625
133.66086745262146,-400000.0625,-1675.4200439453125,-2245.0,-400000.0625,-6163.41015625,-400000.0625,-15598.2001953125,-400000.0625
133.68231630325317,-400000.0625,-1597.97998046875,-2168.75,-400000.0625,-6091.06982421875,-400000.0625,-15518.0,-400000.0625
133.78187584877014,-400000.0625,-1505.5699462890625,-2087.070068359375,-400000.0625,-6004.43017578125,-400000.0625,-15427.3095703125,-400000.0625
133.7923460006714,-400000.0625,-1525.8299560546875,-2111.719970703125,-400000.0625,-6025.740234375,-400000.0625,-15449.1396484375,-400000.0625
133.84170269966125,-400000.0625,-1629.3499755859375,-2204.469970703125,-400000.0625,-6123.02001953125,-400000.0625,-15552.1396484375,-400000.0625
133.85876893997192,-400000.0625,-1676.4200439453125,-2237.610107421875,-400000.0625,-6163.60009765625,-400000.0625,-15596.2998046875,-400000.0625
133.87245154380798,-400000.0625,-1598.550048828125,-2166.080078125,-400000.0625,-6093.35986328125,-400000.0625,-15519.91015625,-400000.0625
133.8886797428131,-400000.0625,-1508.4300537109375,-2088.5,-400000.0625,-6006.72021484375,-400000.0625,-15429.0703125,-400000.0625
133.90282917022705,-400000.0625,-1530.219970703125,-2109.580078125,-400000.0625,-6018.4501953125,-400000.0625,-15450.8095703125,-400000.0625
133.95277857780457,-400000.0625,-1633.9300537109375,-2206.179931640625,-400000.0625,-6119.68017578125,-400000.0625,-15552.51953125,-400000.0625
133.96793627738953,-400000.0625,-1680.6600341796875,-2245.090087890625,-400000.0625,-6166.31982421875,-400000.0625,-15594.2001953125,-400000.0625
133.98263263702393,-400000.0625,-1605.8900146484375,-2175.18994140625,-400000.0625,-6090.5,-400000.0625,-15518.6201171875,-400000.0625
133.99373531341553,-400000.0625,-1508.81005859375,-2091.840087890625,-400000.0625,-6004.56982421875,-400000.0625,-15428.58984375,-400000.0625
134.01252841949463,-400000.0625,-1528.5999755859375,-2114.6298828125,-400000.0625,-6031.18017578125,-400000.0625,-15449.6201171875,-400000.0625
134.05156564712524,-400000.0625,-1636.7900390625,-2213.050048828125,-400000.0625,-6128.93017578125,-400000.0625,-15552.4697265625,-400000.0625
134.06277918815613,-400000.0625,-1681.4200439453125,-2249.10009765625,-400000.0625,-6167.080078125,-400000.0625,-15596.4404296875,-400000.0625
134.0766818523407,-400000.0625,-1602.030029296875,-2172.280029296875,-400000.0625,-6090.2099609375,-400000.0625,-15523.48046875,-400000.0625
134.09031534194946,-400000.0625,-1510.81005859375,-2093.60009765625,-400000.0625,-6005.3798828125,-400000.0625,-15433.169921875,-400000.0625
134.10227608680725,-400000.0625,-1531.1700439453125,-2117.06005859375,-400000.0625,-6026.22021484375,-400000.0625,-15448.669921875,-400000.0625
134.11530590057373,-400000.0625,-1636.550048828125,-2213.719970703125,-400000.0625,-6123.10986328125,-400000.0625,-15552.1396484375,-400000.0625
134.15125608444214,-400000.0625,-1678.6099853515625,-2247.719970703125,-400000.0625,-6167.509765625,-400000.0625,-15593.8603515625,-400000.0625
134.16062211990356,-400000.0625,-1602.550048828125,-2173.81005859375,-400000.0625,-6099.60986328125,-400000.0625,-15520.6201171875,-400000.0625
134.17330503463745,-400000.0625,-1511.0999755859375,-2094.1298828125,-400000.0625,-6012.8701171875,-400000.0625,-15431.0703125,-400000.0625
134.18573713302612,-400000.0625,-1528.4100341796875,-2117.110107421875,-400000.0625,-6027.56005859375,-400000.0625,-15450.91015625,-400000.0625
134.1995186805725,-400000.0625,-1635.8900146484375,-2211.429931640625,-400000.0625,-6115.8701171875,-400000.0625,-15553.330078125,-400000.0625
134.21346855163574,-400000.0625,-1677.3699951171875,-2246.18994140625,-400000.0625,-6162.740234375,-400000.0625,-15595.9599609375,-400000.0625
134.2224359512329,-400000.0625,-1599.97998046875,-2174.0,-400000.0625,-6096.64990234375,-400000.0625,-15521.240234375,-400000.0625
134.26458597183228,-400000.0625,-1507.469970703125,-2092.080078125,-400000.0625,-6008.77001953125,-400000.0625,-15434.5498046875,-400000.0625
134.2807080745697,-400000.0625,-1529.219970703125,-2117.43994140625,-400000.0625,-6024.7001953125,-400000.0625,-15455.580078125,-400000.0625
134.29051566123962,-400000.0625,-1634.219970703125,-2210.469970703125,-400000.0625,-6126.8798828125,-400000.0625,-15556.76953125,-400000.0625
134.3070273399353,-400000.0625,-1680.1400146484375,-2248.0,-400000.0625,-6169.080078125,-400000.0625,-15598.919921875,-400000.0625
134.31812405586243,-400000.0625,-1605.4599609375,-2178.909912109375,-400000.0625,-6093.7900390625,-400000.0625,-15527.4404296875,-400000.0625
134.32898831367493,-400000.0625,-1514.5799560546875,-2098.989990234375,-400000.0625,-6006.2900390625,-400000.0625,-15438.26953125,-400000.0625
134.36361837387085,-400000.0625,-1530.739990234375,-2119.35009765625,-400000.0625,-6025.27001953125,-400000.0625,-15456.76953125,-400000.0625
134.37753438949585,-400000.0625,-1630.449951171875,-2213.81005859375,-400000.0625,-6119.58984375,-400000.0625,-15558.76953125,-400000.0625
134.38689732551575,-400000.0625,-1676.8900146484375,-2248.139892578125,-400000.0625,-6160.1201171875,-400000.0625,-15601.1103515625,-400000.0625
134.39715671539307,-400000.0625,-1597.739990234375,-2174.139892578125,-400000.0625,-6093.35986328125,-400000.0625,-15526.0595703125,-400000.0625
134.41287112236023,-400000.0625,-1505.949951171875,-2091.1201171875,-400000.0625,-6008.91015625,-400000.0625,-15434.740234375,-400000.0625
134.42292070388794,-400000.0625,-1527.6400146484375,-2114.77001953125,-400000.0625,-6023.5,-400000.0625,-15454.3896484375,-400000.0625
134.43426060676575,-400000.0625,-1628.8299560546875,-2208.81005859375,-400000.0625,-6117.009765625,-400000.0625,-15556.0,-400000.0625
134.47020936012268,-400000.0625,-1671.3599853515625,-2240.179931640625,-400000.0625,-6159.68994140625,-400000.0625,-15596.009765625,-400000.0625
134.4822449684143,-400000.0625,-1597.68994140625,-2171.7099609375,-400000.0625,-6093.22021484375,-400000.0625,-15523.009765625,-400000.0625
134.49131178855896,-400000.0625,-1504.760009765625,-2091.840087890625,-400000.0625,-6008.33984375,-400000.0625,-15434.650390625,-400000.0625
134.50279903411865,-400000.0625,-1524.02001953125,-2112.580078125,-400000.0625,-6024.1201171875,-400000.0625,-15453.099609375,-400000.0625
134.51443076133728,-400000.0625,-1623.6300048828125,-2202.75,-400000.0625,-6121.39990234375,-400000.0625,-15555.91015625,-400000.0625
134.52425026893616,-400000.0625,-1669.6500244140625,-2238.85009765625,-400000.0625,-6167.02978515625,-400000.0625,-15598.8701171875,-400000.0625
134.53548288345337,-400000.0625,-1598.3599853515625,-2169.699951171875,-400000.0625,-6097.60009765625,-400000.0625,-15525.2998046875,-400000.0625
134.5665910243988,-400000.0625,-1506.3299560546875,-2089.070068359375,-400000.0625,-6006.6201171875,-400000.0625,-15437.080078125,-400000.0625
134.5770173072815,-400000.0625,-1526.02001953125,-2113.6298828125,-400000.0625,-6020.740234375,-400000.0625,-15456.4404296875,-400000.0625
134.58688926696777,-400000.0625,-1632.449951171875,-2210.669921875,-400000.0625,-6117.14990234375,-400000.0625,-15558.3896484375,-400000.0625
134.59691643714905,-400000.0625,-1678.9000244140625,-2246.0,-400000.0625,-6164.83984375,-400000.0625,-15601.4501953125,-400000.0625
134.60837841033936,-400000.0625,-1601.31005859375,-2173.85009765625,-400000.0625,-6102.7099609375,-400000.0625,-15527.8701171875,-400000.0625
134.61771154403687,-400000.0625,-1505.6099853515625,-2090.97998046875,-400000.0625,-6013.2001953125,-400000.0625,-15434.7900390625,-400000.0625
134.62697768211365,-400000.0625,-1522.6400146484375,-2111.010009765625,-400000.0625,-6022.64013671875,-400000.0625,-15456.4404296875,-400000.0625
134.64026141166687,-400000.0625,-1626.43994140625,-2204.85009765625,-400000.0625,-6118.81982421875,-400000.0625,-15560.91015625,-400000.0625
134.67865562438965,-400000.0625,-1674.75,-2245.3798828125,-400000.0625,-6161.97998046875,-400000.0625,-15604.740234375,-400000.0625
134.68810606002808,-400000.0625,-1600.219970703125,-2173.280029296875,-400000.0625,-6090.16015625,-400000.0625,-15530.7802734375,-400000.0625
134.698144197464,-400000.0625,-1504.56005859375,-2091.97998046875,-400000.0625,-6004.3798828125,-400000.0625,-15439.7001953125,-400000.0625
134.7106544971466,-400000.0625,-1521.8299560546875,-2111.580078125,-400000.0625,-6024.7001953125,-400000.0625,-15457.2001953125,-400000.0625
134.72149920463562,-400000.0625,-1621.43994140625,-2203.27001953125,-400000.0625,-6121.72998046875,-400000.0625,-15558.3896484375,-400000.0625
134.73585200309753,-400000.0625,-1668.8800048828125,-2241.659912109375,-400000.0625,-6167.31982421875,-400000.0625,-15601.9697265625,-400000.0625
134.7476327419281,-400000.0625,-1595.550048828125,-2171.330078125,-400000.0625,-6098.60009765625,-400000.0625,-15529.490234375,-400000.0625
134.78057980537415,-400000.0625,-1497.4599609375,-2087.639892578125,-400000.0625,-6004.0498046875,-400000.0625,-15438.1796875,-400000.0625
134.7918243408203,-400000.0625,-1518.5799560546875,-2110.820068359375,-400000.0625,-6017.72998046875,-400000.0625,-15452.91015625,-400000.0625
134.80678296089172,-400000.0625,-1623.8199462890625,-2208.610107421875,-400000.0625,-6119.2001953125,-400000.0625,-15556.8603515625,-400000.0625
134.81959104537964,-400000.0625,-1677.6099853515625,-2249.2900390625,-400000.0625,-6168.080078125,-400000.0625,-15600.7802734375,-400000.0625
134.83378911018372,-400000.0625,-1601.1199951171875,-2177.909912109375,-400000.0625,-6099.31982421875,-400000.0625,-15526.76953125,-400000.0625
134.85929226875305,-400000.0625,-1562.31005859375,-2173.610107421875,-400000.0625,-6017.02001953125,-400000.0625,-15679.3603515625,-400000.0625
134.85992288589478,-400000.0625,-1494.1199951171875,-2114.9599609375,-400000.0625,-5949.68994140625,-400000.0625,-15613.83984375,-400000.0625
134.8599832057953,-400000.0625,-1549.050048828125,-2168.56005859375,-400000.0625,-5996.1298828125,-400000.0625,-15665.25,-400000.0625
134.85999536514282,-400000.0625,-1653.6199951171875,-2260.159912109375,-400000.0625,-6093.06982421875,-400000.0625,-15765.33984375,-400000.0625
134.86000299453735,-400000.0625,-1662.6400146484375,-2261.5,-400000.0625,-6102.419921875,-400000.0625,-15770.0595703125,-400000.0625
134.8600103855133,-400000.0625,-1568.3699951171875,-2174.429931640625,-400000.0625,-6011.77001953125,-400000.0625,-15681.169921875,-400000.0625
134.8600172996521,-400000.0625,-1496.8900146484375,-2115.919921875,-400000.0625,-5946.8798828125,-400000.0625,-15615.0400390625,-400000.0625
134.8600242137909,-400000.0625,-1550.719970703125,-2169.510009765625,-400000.0625,-5993.31982421875,-400000.0625,-15665.6298828125,-400000.0625
134.8600308895111,-400000.0625,-1658.3900146484375,-2263.97998046875,-400000.0625,-6091.2099609375,-400000.0625,-15768.150390625,-400000.0625
134.86003732681274,-400000.0625,-1664.8800048828125,-2265.97998046875,-400000.0625,-6101.22998046875,-400000.0625,-15776.830078125,-400000.0625
134.86004376411438,-400000.0625,-1567.7900390625,-2176.7099609375,-400000.0625,-6014.68017578125,-400000.0625,-15683.990234375,-400000.0625
134.86005067825317,-400000.0625,-1496.3599853515625,-2116.590087890625,-400000.0625,-5947.06982421875,-400000.0625,-15617.5595703125,-400000.0625
134.8600573539734,-400000.0625,-1546.9100341796875,-2166.56005859375,-400000.0625,-5991.83984375,-400000.0625,-15666.2001953125,-400000.0625
134.8600640296936,-400000.0625,-1647.0400390625,-2257.43994140625,-400000.0625,-6088.64013671875,-400000.0625,-15765.8603515625,-400000.0625
134.86007046699524,-400000.0625,-1660.25,-2262.590087890625,-400000.0625,-6099.75,-400000.0625,-15774.73046875,-400000.0625
134.8600766658783,-400000.0625,-1567.1700439453125,-2176.7099609375,-400000.0625,-6011.2998046875,-400000.0625,-15683.2197265625,-400000.0625
134.86008310317993,-400000.0625,-1494.030029296875,-2115.919921875,-400000.0625,-5942.14990234375,-400000.0625,-15616.509765625,-400000.0625
134.86008954048157,-400000.0625,-1548.199951171875,-2170.090087890625,-400000.0625,-5992.3701171875,-400000.0625,-15668.9697265625,-400000.0625
134.86009573936462,-400000.0625,-1651.3800048828125,-2259.969970703125,-400000.0625,-6089.02001953125,-400000.0625,-15767.48046875,-400000.0625
134.86010193824768,-400000.0625,-1663.6400146484375,-2265.219970703125,-400000.0625,-6101.080078125,-400000.0625,-15777.16015625,-400000.0625
134.86010813713074,-400000.0625,-1569.56005859375,-2178.6201171875,-400000.0625,-6013.10986328125,-400000.0625,-15684.6103515625,-400000.0625
134.86798977851868,-400000.0625,-1519.3900146484375,-2172.280029296875,-400000.0625,-5947.2099609375,-400000.0625,-15704.6796875,-400000.0625
134.86858558654785,-400000.0625,-1529.31005859375,-2186.010009765625,-400000.0625,-5957.83984375,-400000.0625,-15719.0302734375,-400000.0625
134.86861109733582,-400000.0625,-1632.6400146484375,-2278.659912109375,-400000.0625,-6056.259765625,-400000.0625,-15817.01953125,-400000.0625
134.8686282634735,-400000.0625,-1689.77001953125,-2324.300048828125,-400000.0625,-6101.7998046875,-400000.0625,-15866.66015625,-400000.0625
134.86864399909973,-400000.0625,-1620.5799560546875,-2261.02001953125,-400000.0625,-6038.6201171875,-400000.0625,-15800.2900390625,-400000.0625
134.8686602115631,-400000.0625,-1528.9300537109375,-2180.6201171875,-400000.0625,-5952.22021484375,-400000.0625,-15707.919921875,-400000.0625
134.86867547035217,-400000.0625,-1541.5699462890625,-2195.070068359375,-400000.0625,-5959.1298828125,-400000.0625,-15723.5595703125,-400000.0625
134.86869096755981,-400000.0625,-1642.93994140625,-2287.909912109375,-400000.0625,-6051.16015625,-400000.0625,-15826.7998046875,-400000.0625
134.86870670318604,-400000.0625,-1699.3499755859375,-2332.8798828125,-400000.0625,-6105.66015625,-400000.0625,-15874.669921875,-400000.0625
134.8687229156494,-400000.0625,-1628.3499755859375,-2265.169921875,-400000.0625,-6043.47998046875,-400000.0625,-15805.0595703125,-400000.0625
134.86873817443848,-400000.0625,-1528.449951171875,-2175.52001953125,-400000.0625,-5948.8798828125,-400000.0625,-15713.8798828125,-400000.0625
134.86875343322754,-400000.0625,-1538.7099609375,-2190.68994140625,-400000.0625,-5958.3701171875,-400000.0625,-15724.51953125,-400000.0625
134.86876916885376,-400000.0625,-1643.0899658203125,-2285.47998046875,-400000.0625,-6051.8701171875,-400000.0625,-15825.23046875,-400000.0625
134.86878538131714,-400000.0625,-1699.4000244140625,-2328.300048828125,-400000.0625,-6100.75,-400000.0625,-15873.5302734375,-400000.0625
134.86880040168762,-400000.0625,-1630.1199951171875,-2262.159912109375,-400000.0625,-6041.3798828125,-400000.0625,-15808.0595703125,-400000.0625
134.86881613731384,-400000.0625,-1530.4599609375,-2175.280029296875,-400000.0625,-5948.2099609375,-400000.0625,-15716.75,-400000.0625
134.8688313961029,-400000.0625,-1542.1400146484375,-2190.639892578125,-400000.0625,-5959.56005859375,-400000.0625,-15726.900390625,-400000.0625
134.86885285377502,-400000.0625,-1649.239990234375,-2287.9599609375,-400000.0625,-6054.97021484375,-400000.0625,-15824.7001953125,-400000.0625
134.86886858940125,-400000.0625,-1709.989990234375,-2331.35009765625,-400000.0625,-6099.93994140625,-400000.0625,-15879.1103515625,-400000.0625
134.86888337135315,-400000.0625,-1650.81005859375,-2262.31005859375,-400000.0625,-6034.7998046875,-400000.0625,-15806.099609375,-400000.0625
134.8688976764679,-400000.0625,-1550.199951171875,-2172.85009765625,-400000.0625,-5936.43017578125,-400000.0625,-15710.3095703125,-400000.0625
134.86891269683838,-400000.0625,-1558.5899658203125,-2193.39990234375,-400000.0625,-5944.919921875,-400000.0625,-15734.009765625,-400000.0625
134.8689272403717,-400000.0625,-1680.9000244140625,-2290.5400390625,-400000.0625,-6040.47998046875,-400000.0625,-15835.9501953125,-400000.0625
134.86894178390503,-400000.0625,-1754.5699462890625,-2333.97998046875,-400000.0625,-6087.2099609375,-400000.0625,-15890.26953125,-400000.0625
134.8689568042755,-400000.0625,-1692.489990234375,-2275.1298828125,-400000.0625,-6023.22021484375,-400000.0625,-15827.1796875,-400000.0625
134.86897230148315,-400000.0625,-1594.3499755859375,-2189.2099609375,-400000.0625,-5928.89990234375,-400000.0625,-15733.5302734375,-400000.0625
134.8689866065979,-400000.0625,-1599.1199951171875,-2217.8701171875,-400000.0625,-5932.43017578125,-400000.0625,-15756.23046875,-400000.0625
134.86900186538696,-400000.0625,-1725.43994140625,-2311.56005859375,-400000.0625,-6019.68994140625,-400000.0625,-15875.3896484375,-400000.0625
134.86901712417603,-400000.0625,-1816.989990234375,-2356.14990234375,-400000.0625,-6061.22021484375,-400000.0625,-15941.33984375,-400000.0625
134.86903190612793,-400000.0625,-1755.9100341796875,-2307.699951171875,-400000.0625,-5993.7998046875,-400000.0625,-15883.6396484375,-400000.0625
134.86904621124268,-400000.0625,-1678.1300048828125,-2235.27001953125,-400000.0625,-5900.43017578125,-400000.0625,-15802.48046875,-400000.0625
134.86906099319458,-400000.0625,-1711.8499755859375,-2261.159912109375,-400000.0625,-5903.6298828125,-400000.0625,-15832.759765625,-400000.0625
134.86907649040222,-400000.0625,-1841.31005859375,-2363.159912109375,-400000.0625,-5992.169921875,-400000.0625,-15942.669921875,-400000.0625
134.86909174919128,-400000.0625,-1912.02001953125,-2418.22998046875,-400000.0625,-6035.419921875,-400000.0625,-16004.900390625,-400000.0625
134.86910676956177,-400000.0625,-1862.050048828125,-2363.6298828125,-400000.0625,-5964.7998046875,-400000.0625,-15956.259765625,-400000.0625
134.86912202835083,-400000.0625,-1796.6300048828125,-2286.389892578125,-400000.0625,-5865.0498046875,-400000.0625,-15876.33984375,-400000.0625
134.8691382408142,-400000.0625,-1835.489990234375,-2307.699951171875,-400000.0625,-5864.9501953125,-400000.0625,-15898.1298828125,-400000.0625
134.86915349960327,-400000.0625,-1944.5899658203125,-2423.3798828125,-400000.0625,-5963.14013671875,-400000.0625,-16017.490234375,-400000.0625
134.86916947364807,-400000.0625,-2018.260009765625,-2476.97998046875,-400000.0625,-6013.43994140625,-400000.0625,-16073.0400390625,-400000.0625
134.8691897392273,-400000.0625,-1967.8599853515625,-2417.89990234375,-400000.0625,-5943.58984375,-400000.0625,-16012.099609375,-400000.0625
134.8692057132721,-400000.0625,-1887.1800537109375,-2337.64990234375,-400000.0625,-5847.64990234375,-400000.0625,-15925.98046875,-400000.0625
134.86922073364258,-400000.0625,-1913.02001953125,-2355.909912109375,-400000.0625,-5853.64990234375,-400000.0625,-15938.1904296875,-400000.0625
134.86923670768738,-400000.0625,-2029.75,-2455.0,-400000.0625,-5942.77001953125,-400000.0625,-16044.4296875,-400000.0625
134.86925268173218,-400000.0625,-2103.18994140625,-2506.35009765625,-400000.0625,-5990.31982421875,-400000.0625,-16106.6103515625,-400000.0625
134.86926889419556,-400000.0625,-2055.070068359375,-2446.219970703125,-400000.0625,-5928.14013671875,-400000.0625,-16038.0400390625,-400000.0625
134.8692865371704,-400000.0625,-1957.510009765625,-2359.6298828125,-400000.0625,-5836.33984375,-400000.0625,-15935.849609375,-400000.0625
134.86930203437805,-400000.0625,-1953.6500244140625,-2370.1201171875,-400000.0625,-5847.64990234375,-400000.0625,-15949.25,-400000.0625
134.86931824684143,-400000.0625,-2047.3499755859375,-2459.47998046875,-400000.0625,-5941.10986328125,-400000.0625,-16047.5302734375,-400000.0625
134.8693344593048,-400000.0625,-2104.7099609375,-2504.8701171875,-400000.0625,-5991.02978515625,-400000.0625,-16095.01953125,-400000.0625
134.8693506717682,-400000.0625,-2033.3299560546875,-2440.1201171875,-400000.0625,-5938.10009765625,-400000.0625,-16023.1103515625,-400000.0625
134.86936593055725,-400000.0625,-1921.93994140625,-2353.760009765625,-400000.0625,-5850.41015625,-400000.0625,-15922.6904296875,-400000.0625
134.86938190460205,-400000.0625,-1923.6099853515625,-2367.969970703125,-400000.0625,-5861.3798828125,-400000.0625,-15925.5498046875,-400000.0625
134.86939787864685,-400000.0625,-2014.489990234375,-2457.7099609375,-400000.0625,-5956.56005859375,-400000.0625,-16017.4404296875,-400000.0625
134.86941289901733,-400000.0625,-2061.610107421875,-2498.719970703125,-400000.0625,-6009.43994140625,-400000.0625,-16064.83984375,-400000.0625
134.86942839622498,-400000.0625,-1985.5,-2433.8701171875,-400000.0625,-5951.60009765625,-400000.0625,-15995.7900390625,-400000.0625
134.86944365501404,-400000.0625,-1872.5899658203125,-2343.93994140625,-400000.0625,-5864.10009765625,-400000.0625,-15893.26953125,-400000.0625
134.86945867538452,-400000.0625,-1869.300048828125,-2352.3798828125,-400000.0625,-5875.2998046875,-400000.0625,-15893.7001953125,-400000.0625
134.869473695755,-400000.0625,-1961.9000244140625,-2444.97998046875,-400000.0625,-5976.52978515625,-400000.0625,-15985.6796875,-400000.0625
134.86948943138123,-400000.0625,-2005.4300537109375,-2486.989990234375,-400000.0625,-6031.47021484375,-400000.0625,-16028.9296875,-400000.0625
134.8695046901703,-400000.0625,-1926.800048828125,-2415.800048828125,-400000.0625,-5973.39013671875,-400000.0625,-15955.6904296875,-400000.0625
134.86951994895935,-400000.0625,-1812.6500244140625,-2323.719970703125,-400000.0625,-5887.4599609375,-400000.0625,-15854.2197265625,-400000.0625
134.86953592300415,-400000.0625,-1803.1099853515625,-2332.739990234375,-400000.0625,-5897.330078125,-400000.0625,-15853.0703125,-400000.0625
134.86955070495605,-400000.0625,-1897.6700439453125,-2421.949951171875,-400000.0625,-5990.509765625,-400000.0625,-15945.2001953125,-400000.0625
134.86956548690796,-400000.0625,-1943.5400390625,-2463.199951171875,-400000.0625,-6043.9599609375,-400000.0625,-15997.3203125,-400000.0625
134.86958026885986,-400000.0625,-1867.43994140625,-2395.340087890625,-400000.0625,-5985.93017578125,-400000.0625,-15925.2197265625,-400000.0625
134.86959886550903,-400000.0625,-1756.760009765625,-2300.68994140625,-400000.0625,-5896.89990234375,-400000.0625,-15820.740234375,-400000.0625
134.86961460113525,-400000.0625,-1748.6099853515625,-2305.360107421875,-400000.0625,-5904.68017578125,-400000.0625,-15824.650390625,-400000.0625
134.86962962150574,-400000.0625,-1837.969970703125,-2394.010009765625,-400000.0625,-6003.3798828125,-400000.0625,-15917.6396484375,-400000.0625
134.86964654922485,-400000.0625,-1885.93994140625,-2435.919921875,-400000.0625,-6063.3701171875,-400000.0625,-15966.4599609375,-400000.0625
134.86966156959534,-400000.0625,-1810.1700439453125,-2364.2099609375,-400000.0625,-6005.6201171875,-400000.0625,-15896.1298828125,-400000.0625
134.8696768283844,-400000.0625,-1701.449951171875,-2271.3701171875,-400000.0625,-5916.31005859375,-400000.0625,-15794.990234375,-400000.0625
134.86969232559204,-400000.0625,-1693.9599609375,-2275.320068359375,-400000.0625,-5922.509765625,-400000.0625,-15796.1396484375,-400000.0625
134.86970686912537,-400000.0625,-1787.5699462890625,-2364.35009765625,-400000.0625,-6017.35009765625,-400000.0625,-15891.2197265625,-400000.0625
134.86972284317017,-400000.0625,-1837.5899658203125,-2407.550048828125,-400000.0625,-6072.0498046875,-400000.0625,-15942.9599609375,-400000.0625
134.86973786354065,-400000.0625,-1761.6300048828125,-2338.27001953125,-400000.0625,-6009.39013671875,-400000.0625,-15874.91015625,-400000.0625
134.86975359916687,-400000.0625,-1654.2900390625,-2244.0,-400000.0625,-5918.64990234375,-400000.0625,-15777.73046875,-400000.0625
134.86976885795593,-400000.0625,-1651.6199951171875,-2250.14990234375,-400000.0625,-5922.75,-400000.0625,-15778.1103515625,-400000.0625
134.869784116745,-400000.0625,-1747.3699951171875,-2339.510009765625,-400000.0625,-6022.97998046875,-400000.0625,-15871.0,-400000.0625
134.86979913711548,-400000.0625,-1799.25,-2382.7099609375,-400000.0625,-6082.77001953125,-400000.0625,-15924.0703125,-400000.0625
134.86981415748596,-400000.0625,-1727.489990234375,-2316.669921875,-400000.0625,-6022.41015625,-400000.0625,-15859.4599609375,-400000.0625
134.8698284626007,-400000.0625,-1624.9200439453125,-2227.739990234375,-400000.0625,-5933.14013671875,-400000.0625,-15758.330078125,-400000.0625
134.8698434829712,-400000.0625,-1623.1500244140625,-2233.97998046875,-400000.0625,-5937.0498046875,-400000.0625,-15760.9501953125,-400000.0625
134.8698582649231,-400000.0625,-1715.6099853515625,-2322.10009765625,-400000.0625,-6027.89013671875,-400000.0625,-15859.3203125,-400000.0625
134.86987280845642,-400000.0625,-1769.780029296875,-2366.300048828125,-400000.0625,-6084.8701171875,-400000.0625,-15914.1103515625,-400000.0625
134.86988806724548,-400000.0625,-1699.300048828125,-2301.219970703125,-400000.0625,-6024.89013671875,-400000.0625,-15846.1103515625,-400000.0625
134.8699026107788,-400000.0625,-1598.4100341796875,-2216.340087890625,-400000.0625,-5932.43017578125,-400000.0625,-15746.3095703125,-400000.0625
134.8699176311493,-400000.0625,-1595.550048828125,-2219.489990234375,-400000.0625,-5936.669921875,-400000.0625,-15749.41015625,-400000.0625
134.86993265151978,-400000.0625,-1694.969970703125,-2309.85009765625,-400000.0625,-6035.85009765625,-400000.0625,-15846.58984375,-400000.0625
134.86994767189026,-400000.0625,-1749.9000244140625,-2356.580078125,-400000.0625,-6092.41015625,-400000.0625,-15904.759765625,-400000.0625
134.86996364593506,-400000.0625,-1680.760009765625,-2295.35009765625,-400000.0625,-6034.22998046875,-400000.0625,-15838.669921875,-400000.0625
134.86997771263123,-400000.0625,-1580.0,-2206.469970703125,-400000.0625,-5942.06005859375,-400000.0625,-15742.01953125,-400000.0625
134.86999225616455,-400000.0625,-1580.3299560546875,-2212.81005859375,-400000.0625,-5944.81982421875,-400000.0625,-15745.58984375,-400000.0625
134.87000679969788,-400000.0625,-1674.699951171875,-2302.030029296875,-400000.0625,-6035.60986328125,-400000.0625,-15840.9599609375,-400000.0625
134.8700213432312,-400000.0625,-1735.260009765625,-2351.429931640625,-400000.0625,-6091.8798828125,-400000.0625,-15892.83984375,-400000.0625
134.87003660202026,-400000.0625,-1669.5,-2286.050048828125,-400000.0625,-6030.4599609375,-400000.0625,-15829.759765625,-400000.0625
134.87005138397217,-400000.0625,-1567.7900390625,-2198.550048828125,-400000.0625,-5942.5400390625,-400000.0625,-15733.7197265625,-400000.0625
134.8700656890869,-400000.0625,-1568.3699951171875,-2207.090087890625,-400000.0625,-5949.64013671875,-400000.0625,-15740.6796875,-400000.0625
134.87007999420166,-400000.0625,-1667.2099609375,-2298.070068359375,-400000.0625,-6039.6201171875,-400000.0625,-15835.9501953125,-400000.0625
134.87009453773499,-400000.0625,-1727.300048828125,-2344.989990234375,-400000.0625,-6093.31005859375,-400000.0625,-15888.8798828125,-400000.0625
134.87010860443115,-400000.0625,-1661.43994140625,-2282.18994140625,-400000.0625,-6034.89990234375,-400000.0625,-15823.7998046875,-400000.0625
134.8701229095459,-400000.0625,-1558.260009765625,-2191.639892578125,-400000.0625,-5939.580078125,-400000.0625,-15727.08984375,-400000.0625
134.87013816833496,-400000.0625,-1558.8800048828125,-2199.4599609375,-400000.0625,-5940.77001953125,-400000.0625,-15731.669921875,-400000.0625
134.8701527118683,-400000.0625,-1655.47998046875,-2287.47998046875,-400000.0625,-6034.52001953125,-400000.0625,-15829.759765625,-400000.0625
134.87016916275024,-400000.0625,-1712.510009765625,-2334.639892578125,-400000.0625,-6087.10986328125,-400000.0625,-15886.740234375,-400000.0625
134.87018418312073,-400000.0625,-1650.0,-2275.510009765625,-400000.0625,-6035.18994140625,-400000.0625,-15826.26953125,-400000.0625
134.87020182609558,-400000.0625,-1552.25,-2190.02001953125,-400000.0625,-5945.490234375,-400000.0625,-15729.91015625,-400000.0625
134.87027740478516,-400000.0625,-1553.6300048828125,-2197.219970703125,-400000.0625,-5947.72998046875,-400000.0625,-15731.2900390625,-400000.0625
134.8702907562256,-400000.0625,-1653.719970703125,-2290.010009765625,-400000.0625,-6041.77001953125,-400000.0625,-15830.2802734375,-400000.0625
134.87029814720154,-400000.0625,-1715.280029296875,-2339.699951171875,-400000.0625,-6096.5498046875,-400000.0625,-15887.3603515625,-400000.0625
134.8710401058197,-400000.0625,-1649.47998046875,-2277.3701171875,-400000.0625,-6035.0400390625,-400000.0625,-15824.6103515625,-400000.0625
134.87105631828308,-400000.0625,-1629.5899658203125,-2284.0,-400000.0625,-5950.06982421875,-400000.0625,-15863.7099609375,-400000.0625
134.8710651397705,-400000.0625,-1602.550048828125,-2265.840087890625,-400000.0625,-5926.0400390625,-400000.0625,-15845.73046875,-400000.0625
134.87107300758362,-400000.0625,-1690.6700439453125,-2344.080078125,-400000.0625,-6008.33984375,-400000.0625,-15931.419921875,-400000.0625
134.87108063697815,-400000.0625,-1766.3499755859375,-2410.219970703125,-400000.0625,-6080.25,-400000.0625,-16003.3203125,-400000.0625
134.87108874320984,-400000.0625,-1725.050048828125,-2371.169921875,-400000.0625,-6037.56982421875,-400000.0625,-15961.7001953125,-400000.0625
134.87109637260437,-400000.0625,-1619.199951171875,-2274.469970703125,-400000.0625,-5937.85986328125,-400000.0625,-15862.7099609375,-400000.0625
134.87110376358032,-400000.0625,-1592.969970703125,-2258.25,-400000.0625,-5916.169921875,-400000.0625,-15841.009765625,-400000.0625
134.871111869812,-400000.0625,-1684.0,-2341.320068359375,-400000.0625,-6000.22998046875,-400000.0625,-15929.4599609375,-400000.0625
134.87111949920654,-400000.0625,-1767.02001953125,-2410.360107421875,-400000.0625,-6078.47998046875,-400000.0625,-16007.3798828125,-400000.0625
134.87112736701965,-400000.0625,-1722.3800048828125,-2367.830078125,-400000.0625,-6038.7099609375,-400000.0625,-15961.5498046875,-400000.0625
134.87113547325134,-400000.0625,-1614.239990234375,-2272.179931640625,-400000.0625,-5939.009765625,-400000.0625,-15860.650390625,-400000.0625
134.87114596366882,-400000.0625,-1597.7900390625,-2261.35009765625,-400000.0625,-5920.31982421875,-400000.0625,-15840.3896484375,-400000.0625
134.87115335464478,-400000.0625,-1685.4300537109375,-2344.56005859375,-400000.0625,-6006.14990234375,-400000.0625,-15925.599609375,-400000.0625
134.871164560318,-400000.0625,-1761.3900146484375,-2407.5,-400000.0625,-6078.10009765625,-400000.0625,-16002.080078125,-400000.0625
134.871173620224,-400000.0625,-1720.239990234375,-2363.489990234375,-400000.0625,-6040.43017578125,-400000.0625,-15959.599609375,-400000.0625
134.8711814880371,-400000.0625,-1612.6199951171875,-2270.27001953125,-400000.0625,-5947.259765625,-400000.0625,-15858.2197265625,-400000.0625
134.87118935585022,-400000.0625,-1587.5799560546875,-2257.489990234375,-400000.0625,-5922.990234375,-400000.0625,-15839.48046875,-400000.0625
134.8711977005005,-400000.0625,-1678.8499755859375,-2339.93994140625,-400000.0625,-6001.08984375,-400000.0625,-15925.7001953125,-400000.0625
134.87120509147644,-400000.0625,-1759.6199951171875,-2409.1201171875,-400000.0625,-6071.43017578125,-400000.0625,-16002.990234375,-400000.0625
134.87121605873108,-400000.0625,-1721.5699462890625,-2370.1201171875,-400000.0625,-6039.91015625,-400000.0625,-15963.9404296875,-400000.0625
134.8712284564972,-400000.0625,-1610.949951171875,-2272.419921875,-400000.0625,-5941.919921875,-400000.0625,-15864.3701171875,-400000.0625
134.87123942375183,-400000.0625,-1589.8199462890625,-2256.780029296875,-400000.0625,-5920.35986328125,-400000.0625,-15842.150390625,-400000.0625
134.87125182151794,-400000.0625,-1679.1300048828125,-2339.889892578125,-400000.0625,-6007.2001953125,-400000.0625,-15930.080078125,-400000.0625
134.8712637424469,-400000.0625,-1757.47998046875,-2406.68994140625,-400000.0625,-6081.52978515625,-400000.0625,-16006.1396484375,-400000.0625
134.87127470970154,-400000.0625,-1715.280029296875,-2365.780029296875,-400000.0625,-6040.6201171875,-400000.0625,-15966.26953125,-400000.0625
134.87128520011902,-400000.0625,-1611.3299560546875,-2273.659912109375,-400000.0625,-5943.10986328125,-400000.0625,-15867.1904296875,-400000.0625
134.87129640579224,-400000.0625,-1588.9200439453125,-2258.110107421875,-400000.0625,-5921.169921875,-400000.0625,-15845.9697265625,-400000.0625
134.87130737304688,-400000.0625,-1674.93994140625,-2341.699951171875,-400000.0625,-6004.669921875,-400000.0625,-15935.6103515625,-400000.0625
134.871319770813,-400000.0625,-1756.1400146484375,-2410.4599609375,-400000.0625,-6078.669921875,-400000.0625,-16011.1904296875,-400000.0625
134.87133073806763,-400000.0625,-1715.3299560546875,-2368.260009765625,-400000.0625,-6040.669921875,-400000.0625,-15966.849609375,-400000.0625
134.87134289741516,-400000.0625,-1618.0,-2276.610107421875,-400000.0625,-5943.490234375,-400000.0625,-15868.9501953125,-400000.0625
134.87135410308838,-400000.0625,-1600.550048828125,-2264.449951171875,-400000.0625,-5923.080078125,-400000.0625,-15847.5400390625,-400000.0625
134.87136363983154,-400000.0625,-1685.3800048828125,-2343.22998046875,-400000.0625,-6002.759765625,-400000.0625,-15935.0400390625,-400000.0625
134.8713734149933,-400000.0625,-1772.5899658203125,-2413.030029296875,-400000.0625,-6072.9501953125,-400000.0625,-16010.240234375,-400000.0625
134.8713846206665,-400000.0625,-1741.3599853515625,-2372.1201171875,-400000.0625,-6036.6201171875,-400000.0625,-15969.6103515625,-400000.0625
134.87140011787415,-400000.0625,-1643.510009765625,-2282.669921875,-400000.0625,-5937.14990234375,-400000.0625,-15873.76953125,-400000.0625
134.87141108512878,-400000.0625,-1625.1600341796875,-2269.1298828125,-400000.0625,-5912.830078125,-400000.0625,-15848.830078125,-400000.0625
134.87142395973206,-400000.0625,-1732.9200439453125,-2348.800048828125,-400000.0625,-5991.97998046875,-400000.0625,-15941.7197265625,-400000.0625
134.87143516540527,-400000.0625,-1835.1600341796875,-2414.179931640625,-400000.0625,-6065.7998046875,-400000.0625,-16008.8603515625,-400000.0625
134.87144565582275,-400000.0625,-1805.6400146484375,-2383.0400390625,-400000.0625,-6022.41015625,-400000.0625,-15978.099609375,-400000.0625
134.87145709991455,-400000.0625,-1721.5699462890625,-2307.1298828125,-400000.0625,-5920.7001953125,-400000.0625,-15898.1796875,-400000.0625
134.8714678287506,-400000.0625,-1713.93994140625,-2316.760009765625,-400000.0625,-5894.56982421875,-400000.0625,-15888.3603515625,-400000.0625
134.8714792728424,-400000.0625,-1838.260009765625,-2407.8798828125,-400000.0625,-5971.52978515625,-400000.0625,-15983.6796875,-400000.0625
134.87149143218994,-400000.0625,-1981.1199951171875,-2478.97998046875,-400000.0625,-6034.52001953125,-400000.0625,-16061.6396484375,-400000.0625
134.8715033531189,-400000.0625,-1978.8299560546875,-2457.760009765625,-400000.0625,-5991.22021484375,-400000.0625,-16048.1904296875,-400000.0625
134.8715147972107,-400000.0625,-1895.1400146484375,-2398.110107421875,-400000.0625,-5887.56005859375,-400000.0625,-15969.3701171875,-400000.0625
134.87152457237244,-400000.0625,-1899.3399658203125,-2417.469970703125,-400000.0625,-5858.0400390625,-400000.0625,-15981.3896484375,-400000.0625
134.87153577804565,-400000.0625,-2054.02001953125,-2541.260009765625,-400000.0625,-5931.759765625,-400000.0625,-16097.259765625,-400000.0625
134.87154746055603,-400000.0625,-2193.5,-2637.669921875,-400000.0625,-5984.740234375,-400000.0625,-16193.3896484375,-400000.0625
134.87156057357788,-400000.0625,-2237.56005859375,-2606.5400390625,-400000.0625,-5924.93994140625,-400000.0625,-16164.259765625,-400000.0625
134.87157368659973,-400000.0625,-2184.77001953125,-2532.669921875,-400000.0625,-5816.41015625,-400000.0625,-16072.419921875,-400000.0625
134.87158489227295,-400000.0625,-2185.679931640625,-2551.1298828125,-400000.0625,-5788.18017578125,-400000.0625,-16081.1904296875,-400000.0625
134.87159514427185,-400000.0625,-2301.97998046875,-2654.840087890625,-400000.0625,-5862.27978515625,-400000.0625,-16177.1796875,-400000.0625
134.87160682678223,-400000.0625,-2405.68994140625,-2726.219970703125,-400000.0625,-5927.419921875,-400000.0625,-16253.66015625,-400000.0625
134.87161707878113,-400000.0625,-2425.18994140625,-2691.27001953125,-400000.0625,-5881.41015625,-400000.0625,-16228.919921875,-400000.0625
134.8716263771057,-400000.0625,-2322.77001953125,-2605.06005859375,-400000.0625,-5780.509765625,-400000.0625,-16136.4599609375,-400000.0625
134.87163615226746,-400000.0625,-2299.60009765625,-2591.1298828125,-400000.0625,-5754.47021484375,-400000.0625,-16112.1904296875,-400000.0625
134.87164568901062,-400000.0625,-2413.3701171875,-2684.8798828125,-400000.0625,-5826.6201171875,-400000.0625,-16201.1201171875,-400000.0625
134.87165522575378,-400000.0625,-2534.2900390625,-2763.93994140625,-400000.0625,-5898.81005859375,-400000.0625,-16292.6201171875,-400000.0625
134.87166500091553,-400000.0625,-2502.6298828125,-2726.75,-400000.0625,-5861.9501953125,-400000.0625,-16254.7099609375,-400000.0625
134.8716745376587,-400000.0625,-2401.2099609375,-2638.389892578125,-400000.0625,-5764.91015625,-400000.0625,-16151.9501953125,-400000.0625
134.87168407440186,-400000.0625,-2384.81005859375,-2622.889892578125,-400000.0625,-5737.16015625,-400000.0625,-16133.740234375,-400000.0625
134.87169408798218,-400000.0625,-2484.179931640625,-2699.89990234375,-400000.0625,-5808.68994140625,-400000.0625,-16217.66015625,-400000.0625
134.87170267105103,-400000.0625,-2574.919921875,-2772.949951171875,-400000.0625,-5880.31005859375,-400000.0625,-16300.0595703125,-400000.0625
134.87171244621277,-400000.0625,-2534.580078125,-2736.429931640625,-400000.0625,-5849.22021484375,-400000.0625,-16268.259765625,-400000.0625
134.87172174453735,-400000.0625,-2432.8701171875,-2645.300048828125,-400000.0625,-5757.81005859375,-400000.0625,-16168.0703125,-400000.0625
134.87173128128052,-400000.0625,-2411.179931640625,-2624.3701171875,-400000.0625,-5727.85986328125,-400000.0625,-16142.5595703125,-400000.0625
134.87174129486084,-400000.0625,-2496.820068359375,-2701.7099609375,-400000.0625,-5806.259765625,-400000.0625,-16231.2099609375,-400000.0625
134.87175297737122,-400000.0625,-2577.929931640625,-2770.0400390625,-400000.0625,-5883.169921875,-400000.0625,-16307.6396484375,-400000.0625
134.87176394462585,-400000.0625,-2540.780029296875,-2732.1298828125,-400000.0625,-5849.89013671875,-400000.0625,-16264.4404296875,-400000.0625
134.8717737197876,-400000.0625,-2423.81005859375,-2635.81005859375,-400000.0625,-5758.0,-400000.0625,-16152.4296875,-400000.0625
134.87178540229797,-400000.0625,-2379.93994140625,-2610.159912109375,-400000.0625,-5732.2998046875,-400000.0625,-16118.33984375,-400000.0625
134.87179827690125,-400000.0625,-2450.56005859375,-2678.35009765625,-400000.0625,-5812.7900390625,-400000.0625,-16194.2001953125,-400000.0625
134.8718101978302,-400000.0625,-2519.889892578125,-2741.81005859375,-400000.0625,-5898.91015625,-400000.0625,-16264.3896484375,-400000.0625
134.87182068824768,-400000.0625,-2456.280029296875,-2695.22998046875,-400000.0625,-5873.8701171875,-400000.0625,-16216.419921875,-400000.0625
134.87183594703674,-400000.0625,-2323.10009765625,-2587.60009765625,-400000.0625,-5784.419921875,-400000.0625,-16106.1796875,-400000.0625
134.87184524536133,-400000.0625,-2269.64990234375,-2558.330078125,-400000.0625,-5763.47998046875,-400000.0625,-16071.419921875,-400000.0625
134.8718545436859,-400000.0625,-2330.969970703125,-2627.610107421875,-400000.0625,-5847.41015625,-400000.0625,-16148.4296875,-400000.0625
134.87186431884766,-400000.0625,-2382.85009765625,-2688.68994140625,-400000.0625,-5928.9501953125,-400000.0625,-16222.099609375,-400000.0625
134.87187314033508,-400000.0625,-2311.52001953125,-2640.719970703125,-400000.0625,-5900.10009765625,-400000.0625,-16178.5595703125,-400000.0625
134.8718831539154,-400000.0625,-2177.2900390625,-2537.300048828125,-400000.0625,-5812.169921875,-400000.0625,-16069.1298828125,-400000.0625
134.87189269065857,-400000.0625,-2114.580078125,-2504.159912109375,-400000.0625,-5796.77001953125,-400000.0625,-16035.1298828125,-400000.0625
134.87190341949463,-400000.0625,-2162.64990234375,-2570.8701171875,-400000.0625,-5881.4501953125,-400000.0625,-16107.2802734375,-400000.0625
134.87191343307495,-400000.0625,-2216.860107421875,-2637.669921875,-400000.0625,-5970.759765625,-400000.0625,-16178.3203125,-400000.0625
134.87192344665527,-400000.0625,-2146.2900390625,-2588.93994140625,-400000.0625,-5947.64013671875,-400000.0625,-16135.2197265625,-400000.0625
134.87193417549133,-400000.0625,-2003.8599853515625,-2480.169921875,-400000.0625,-5863.3798828125,-400000.0625,-16021.8701171875,-400000.0625
134.87194418907166,-400000.0625,-1941.9200439453125,-2446.699951171875,-400000.0625,-5845.740234375,-400000.0625,-15978.5302734375,-400000.0625
134.87195444107056,-400000.0625,-2003.6700439453125,-2518.699951171875,-400000.0625,-5928.0400390625,-400000.0625,-16054.6796875,-400000.0625
134.87196445465088,-400000.0625,-2055.360107421875,-2576.489990234375,-400000.0625,-6013.919921875,-400000.0625,-16129.5400390625,-400000.0625
134.8719744682312,-400000.0625,-1986.68994140625,-2525.659912109375,-400000.0625,-5985.58984375,-400000.0625,-16085.6298828125,-400000.0625
134.87198400497437,-400000.0625,-1860.760009765625,-2421.81005859375,-400000.0625,-5894.7099609375,-400000.0625,-15975.0498046875,-400000.0625
134.87199425697327,-400000.0625,-1809.8800048828125,-2387.949951171875,-400000.0625,-5872.6298828125,-400000.0625,-15937.4296875,-400000.0625
134.87200498580933,-400000.0625,-1878.550048828125,-2456.860107421875,-400000.0625,-5958.02978515625,-400000.0625,-16009.48046875,-400000.0625
134.8720145225525,-400000.0625,-1942.6800537109375,-2520.1298828125,-400000.0625,-6041.52978515625,-400000.0625,-16083.8603515625,-400000.0625
134.87202429771423,-400000.0625,-1891.949951171875,-2475.97998046875,-400000.0625,-6014.06005859375,-400000.0625,-16043.6201171875,-400000.0625
134.87203407287598,-400000.0625,-1771.260009765625,-2372.929931640625,-400000.0625,-5920.22021484375,-400000.0625,-15939.5703125,-400000.0625
134.87204313278198,-400000.0625,-1724.050048828125,-2340.1298828125,-400000.0625,-5891.75,-400000.0625,-15901.08984375,-400000.0625
134.87205362319946,-400000.0625,-1791.18994140625,-2412.080078125,-400000.0625,-5978.39013671875,-400000.0625,-15981.150390625,-400000.0625
134.87206363677979,-400000.0625,-1863.77001953125,-2477.68994140625,-400000.0625,-6063.83984375,-400000.0625,-16062.599609375,-400000.0625
134.87207508087158,-400000.0625,-1819.93994140625,-2437.1201171875,-400000.0625,-6038.56982421875,-400000.0625,-16024.5,-400000.0625
134.87208461761475,-400000.0625,-1703.6400146484375,-2337.5,-400000.0625,-5941.77001953125,-400000.0625,-15919.259765625,-400000.0625
134.87209796905518,-400000.0625,-1662.9200439453125,-2310.280029296875,-400000.0625,-5913.740234375,-400000.0625,-15887.8798828125,-400000.0625
134.87210488319397,-400000.0625,-1734.780029296875,-2383.659912109375,-400000.0625,-5989.1201171875,-400000.0625,-15966.3701171875,-400000.0625
134.87211179733276,-400000.0625,-1810.739990234375,-2449.1298828125,-400000.0625,-6067.93994140625,-400000.0625,-16044.7099609375,-400000.0625
134.87211894989014,-400000.0625,-1770.5400390625,-2411.179931640625,-400000.0625,-6037.89990234375,-400000.0625,-16007.9501953125,-400000.0625
134.8721263408661,-400000.0625,-1663.1600341796875,-2317.760009765625,-400000.0625,-5945.16015625,-400000.0625,-15905.330078125,-400000.0625
134.87213349342346,-400000.0625,-1622.8699951171875,-2288.6298828125,-400000.0625,-5920.93994140625,-400000.0625,-15876.33984375,-400000.0625
134.87214040756226,-400000.0625,-1700.8800048828125,-2365.110107421875,-400000.0625,-5994.93994140625,-400000.0625,-15954.1103515625,-400000.0625
134.8721468448639,-400000.0625,-1785.3699951171875,-2436.8798828125,-400000.0625,-6073.669921875,-400000.0625,-16032.169921875,-400000.0625
134.87215328216553,-400000.0625,-1746.8499755859375,-2397.5400390625,-400000.0625,-6043.669921875,-400000.0625,-15997.599609375,-400000.0625
134.87216520309448,-400000.0625,-1631.260009765625,-2297.929931640625,-400000.0625,-5948.64013671875,-400000.0625,-15896.849609375,-400000.0625
134.8721740245819,-400000.0625,-1597.4000244140625,-2272.840087890625,-400000.0625,-5925.56005859375,-400000.0625,-15868.08984375,-400000.0625
134.87218284606934,-400000.0625,-1680.3299560546875,-2351.18994140625,-400000.0625,-6000.85009765625,-400000.0625,-15945.8203125,-400000.0625
134.8721923828125,-400000.0625,-1760.3399658203125,-2424.909912109375,-400000.0625,-6079.72021484375,-400000.0625,-16025.9697265625,-400000.0625
134.87220120429993,-400000.0625,-1727.0999755859375,-2389.719970703125,-400000.0625,-6049.8701171875,-400000.0625,-15996.7001953125,-400000.0625
134.8722107410431,-400000.0625,-1627.1600341796875,-2297.5,-400000.0625,-5955.89013671875,-400000.0625,-15895.080078125,-400000.0625
134.87221956253052,-400000.0625,-1585.6300048828125,-2269.219970703125,-400000.0625,-5927.0400390625,-400000.0625,-15862.849609375,-400000.0625
134.87222814559937,-400000.0625,-1659.43994140625,-2340.64990234375,-400000.0625,-6000.419921875,-400000.0625,-15939.8095703125,-400000.0625
134.8722369670868,-400000.0625,-1742.1700439453125,-2412.1298828125,-400000.0625,-6080.33984375,-400000.0625,-16017.580078125,-400000.0625
134.87224578857422,-400000.0625,-1714.56005859375,-2378.56005859375,-400000.0625,-6048.72998046875,-400000.0625,-15989.259765625,-400000.0625
134.87225365638733,-400000.0625,-1609.6600341796875,-2281.050048828125,-400000.0625,-5952.64990234375,-400000.0625,-15889.98046875,-400000.0625
134.87226176261902,-400000.0625,-1570.8900146484375,-2253.820068359375,-400000.0625,-5924.22998046875,-400000.0625,-15855.26953125,-400000.0625
134.87227058410645,-400000.0625,-1650.0,-2327.25,-400000.0625,-5994.1298828125,-400000.0625,-15936.849609375,-400000.0625
134.8722791671753,-400000.0625,-1733.1099853515625,-2399.06005859375,-400000.0625,-6069.27978515625,-400000.0625,-16019.2001953125,-400000.0625
134.87228846549988,-400000.0625,-1701.1600341796875,-2366.2099609375,-400000.0625,-6046.490234375,-400000.0625,-15993.6396484375,-400000.0625
134.87229681015015,-400000.0625,-1599.8800048828125,-2272.419921875,-400000.0625,-5955.1201171875,-400000.0625,-15895.1298828125,-400000.0625
134.87230610847473,-400000.0625,-1564.4599609375,-2242.570068359375,-400000.0625,-5923.31982421875,-400000.0625,-15864.23046875,-400000.0625
134.87231540679932,-400000.0625,-1645.6099853515625,-2320.47998046875,-400000.0625,-5997.22998046875,-400000.0625,-15943.240234375,-400000.0625
134.872323513031,-400000.0625,-1731.010009765625,-2395.25,-400000.0625,-6073.669921875,-400000.0625,-16023.58984375,-400000.0625
134.87233138084412,-400000.0625,-1698.9200439453125,-2358.10009765625,-400000.0625,-6042.580078125,-400000.0625,-15998.3203125,-400000.0625
134.87234044075012,-400000.0625,-1596.2099609375,-2264.5,-400000.0625,-5952.5,-400000.0625,-15898.5595703125,-400000.0625
134.87234830856323,-400000.0625,-1565.4100341796875,-2242.610107421875,-400000.0625,-5922.41015625,-400000.0625,-15868.900390625,-400000.0625
134.8723566532135,-400000.0625,-1644.3699951171875,-2317.860107421875,-400000.0625,-5992.83984375,-400000.0625,-15945.3896484375,-400000.0625
134.87236547470093,-400000.0625,-1729.3499755859375,-2390.530029296875,-400000.0625,-6074.72021484375,-400000.0625,-16024.0703125,-400000.0625
134.8723747730255,-400000.0625,-1701.449951171875,-2361.6298828125,-400000.0625,-6051.58984375,-400000.0625,-16000.3701171875,-400000.0625
134.87238311767578,-400000.0625,-1601.31005859375,-2268.60009765625,-400000.0625,-5953.60009765625,-400000.0625,-15908.3896484375,-400000.0625
134.87239265441895,-400000.0625,-1569.1800537109375,-2243.52001953125,-400000.0625,-5920.35986328125,-400000.0625,-15875.25,-400000.0625
134.8724021911621,-400000.0625,-1653.4300537109375,-2321.340087890625,-400000.0625,-5993.60986328125,-400000.0625,-15948.3896484375,-400000.0625
134.87241172790527,-400000.0625,-1741.97998046875,-2404.360107421875,-400000.0625,-6074.81005859375,-400000.0625,-16010.669921875,-400000.0625
134.8724217414856,-400000.0625,-1716.280029296875,-2384.330078125,-400000.0625,-6054.4501953125,-400000.0625,-15970.900390625,-400000.0625
134.87243270874023,-400000.0625,-1620.43994140625,-2308.4599609375,-400000.0625,-5964.14013671875,-400000.0625,-15860.4599609375,-400000.0625
134.8724434375763,-400000.0625,-1581.1400146484375,-2295.68994140625,-400000.0625,-5929.56982421875,-400000.0625,-15811.5400390625,-400000.0625
134.8724524974823,-400000.0625,-1654.6700439453125,-2381.85009765625,-400000.0625,-6003.669921875,-400000.0625,-15869.8095703125,-400000.0625
134.87246251106262,-400000.0625,-1744.219970703125,-2469.110107421875,-400000.0625,-6082.14990234375,-400000.0625,-15930.990234375,-400000.0625
134.8724718093872,-400000.0625,-1725.8199462890625,-2457.669921875,-400000.0625,-6057.5498046875,-400000.0625,-15881.6796875,-400000.0625
134.8724820613861,-400000.0625,-1623.1099853515625,-2388.860107421875,-400000.0625,-5968.08984375,-400000.0625,-15766.8603515625,-400000.0625
134.8724925518036,-400000.0625,-1588.8699951171875,-2378.93994140625,-400000.0625,-5936.77001953125,-400000.0625,-15711.5498046875,-400000.0625
134.87250804901123,-400000.0625,-1669.8399658203125,-2464.25,-400000.0625,-6008.10009765625,-400000.0625,-15759.5703125,-400000.0625
134.87251734733582,-400000.0625,-1758.6700439453125,-2552.409912109375,-400000.0625,-6088.93017578125,-400000.0625,-15819.6904296875,-400000.0625
134.87252712249756,-400000.0625,-1737.5899658203125,-2538.820068359375,-400000.0625,-6069.66015625,-400000.0625,-15765.7197265625,-400000.0625
134.87253713607788,-400000.0625,-1642.8499755859375,-2468.110107421875,-400000.0625,-5978.2998046875,-400000.0625,-15647.7001953125,-400000.0625
134.8725461959839,-400000.0625,-1610.989990234375,-2453.570068359375,-400000.0625,-5951.2099609375,-400000.0625,-15592.2900390625,-400000.0625
134.87255549430847,-400000.0625,-1690.3399658203125,-2537.780029296875,-400000.0625,-6024.080078125,-400000.0625,-15639.9697265625,-400000.0625
134.87256407737732,-400000.0625,-1774.260009765625,-2622.75,-400000.0625,-6102.7099609375,-400000.0625,-15698.150390625,-400000.0625
134.87257385253906,-400000.0625,-1749.1800537109375,-2602.050048828125,-400000.0625,-6077.240234375,-400000.0625,-15649.1298828125,-400000.0625
134.8725848197937,-400000.0625,-1667.68994140625,-2530.669921875,-400000.0625,-5990.31982421875,-400000.0625,-15534.9296875,-400000.0625
134.87259459495544,-400000.0625,-1644.4200439453125,-2520.85009765625,-400000.0625,-5964.08984375,-400000.0625,-15482.08984375,-400000.0625
134.87260460853577,-400000.0625,-1714.6099853515625,-2600.719970703125,-400000.0625,-6034.89990234375,-400000.0625,-15535.6904296875,-400000.0625
134.87261533737183,-400000.0625,-1804.780029296875,-2682.969970703125,-400000.0625,-6110.47998046875,-400000.0625,-15596.73046875,-400000.0625
134.872624874115,-400000.0625,-1786.22998046875,-2665.659912109375,-400000.0625,-6089.2099609375,-400000.0625,-15552.5703125,-400000.0625
134.87263464927673,-400000.0625,-1692.6300048828125,-2587.179931640625,-400000.0625,-6005.0,-400000.0625,-15439.7001953125,-400000.0625
134.8726453781128,-400000.0625,-1659.1600341796875,-2565.81005859375,-400000.0625,-5970.43017578125,-400000.0625,-15387.9697265625,-400000.0625
134.87265586853027,-400000.0625,-1732.300048828125,-2642.159912109375,-400000.0625,-6037.0,-400000.0625,-15440.849609375,-400000.0625
134.87266612052917,-400000.0625,-1821.22998046875,-2721.97998046875,-400000.0625,-6115.47998046875,-400000.0625,-15507.26953125,-400000.0625
134.87267756462097,-400000.0625,-1800.969970703125,-2703.6201171875,-400000.0625,-6093.93017578125,-400000.0625,-15468.169921875,-400000.0625
134.8726875782013,-400000.0625,-1710.75,-2623.4599609375,-400000.0625,-6006.9599609375,-400000.0625,-15363.740234375,-400000.0625
134.87269854545593,-400000.0625,-1672.6500244140625,-2598.239990234375,-400000.0625,-5977.77001953125,-400000.0625,-15318.6298828125,-400000.0625
134.872709274292,-400000.0625,-1747.56005859375,-2669.2900390625,-400000.0625,-6044.669921875,-400000.0625,-15377.8095703125,-400000.0625
134.87271904945374,-400000.0625,-1833.25,-2740.14990234375,-400000.0625,-6116.72021484375,-400000.0625,-15459.8701171875,-400000.0625
134.87272953987122,-400000.0625,-1810.6500244140625,-2716.110107421875,-400000.0625,-6099.990234375,-400000.0625,-15441.66015625,-400000.0625
134.87274026870728,-400000.0625,-1716.7099609375,-2633.909912109375,-400000.0625,-6017.5400390625,-400000.0625,-15347.4296875,-400000.0625
134.87275052070618,-400000.0625,-1681.7099609375,-2602.389892578125,-400000.0625,-5984.35009765625,-400000.0625,-15320.5400390625,-400000.0625
134.87276196479797,-400000.0625,-1751.760009765625,-2664.52001953125,-400000.0625,-6049.68017578125,-400000.0625,-15392.349609375,-400000.0625
134.8727731704712,-400000.0625,-1828.47998046875,-2736.090087890625,-400000.0625,-6124.77978515625,-400000.0625,-15470.5498046875,-400000.0625
134.872784614563,-400000.0625,-1808.260009765625,-2711.010009765625,-400000.0625,-6103.7099609375,-400000.0625,-15452.009765625,-400000.0625
134.87279558181763,-400000.0625,-1719.0,-2628.659912109375,-400000.0625,-6018.35009765625,-400000.0625,-15358.400390625,-400000.0625
134.87280559539795,-400000.0625,-1683.52001953125,-2600.669921875,-400000.0625,-5983.39990234375,-400000.0625,-15322.6396484375,-400000.0625
134.8728165626526,-400000.0625,-1752.22998046875,-2663.89990234375,-400000.0625,-6045.43994140625,-400000.0625,-15393.6904296875,-400000.0625
134.87282752990723,-400000.0625,-1833.8699951171875,-2732.090087890625,-400000.0625,-6120.6298828125,-400000.0625,-15475.1298828125,-400000.0625
134.87283778190613,-400000.0625,-1818.22998046875,-2710.9599609375,-400000.0625,-6101.22998046875,-400000.0625,-15456.6298828125,-400000.0625
134.87284636497498,-400000.0625,-1723.5799560546875,-2625.659912109375,-400000.0625,-6016.4501953125,-400000.0625,-15365.9404296875,-400000.0625
134.8728551864624,-400000.0625,-1681.0400390625,-2592.89990234375,-400000.0625,-5982.35009765625,-400000.0625,-15329.41015625,-400000.0625
134.87286567687988,-400000.0625,-1750.760009765625,-2655.4599609375,-400000.0625,-6045.2001953125,-400000.0625,-15398.4599609375,-400000.0625
134.8728756904602,-400000.0625,-1830.1500244140625,-2722.219970703125,-400000.0625,-6119.58984375,-400000.0625,-15478.759765625,-400000.0625
134.87288522720337,-400000.0625,-1812.550048828125,-2702.429931640625,-400000.0625,-6102.509765625,-400000.0625,-15460.6396484375,-400000.0625
134.87289452552795,-400000.0625,-1731.6300048828125,-2626.85009765625,-400000.0625,-6017.06982421875,-400000.0625,-15376.8095703125,-400000.0625
134.8729043006897,-400000.0625,-1685.6199951171875,-2589.889892578125,-400000.0625,-5974.25,-400000.0625,-15339.7099609375,-400000.0625
134.87291431427002,-400000.0625,-1749.93994140625,-2651.739990234375,-400000.0625,-6037.330078125,-400000.0625,-15404.990234375,-400000.0625
134.8729236125946,-400000.0625,-1841.02001953125,-2727.699951171875,-400000.0625,-6115.8701171875,-400000.0625,-15485.9599609375,-400000.0625
134.87293243408203,-400000.0625,-1830.199951171875,-2710.43994140625,-400000.0625,-6102.60986328125,-400000.0625,-15476.2802734375,-400000.0625
134.8729407787323,-400000.0625,-1738.9300537109375,-2630.090087890625,-400000.0625,-6022.02001953125,-400000.0625,-15389.490234375,-400000.0625
134.87295079231262,-400000.0625,-1696.6300048828125,-2593.469970703125,-400000.0625,-5980.2099609375,-400000.0625,-15350.9599609375,-400000.0625
134.87295937538147,-400000.0625,-1757.0999755859375,-2651.2099609375,-400000.0625,-6042.0498046875,-400000.0625,-15412.5703125,-400000.0625
134.87296867370605,-400000.0625,-1841.449951171875,-2724.27001953125,-400000.0625,-6117.43994140625,-400000.0625,-15493.6298828125,-400000.0625
134.87297773361206,-400000.0625,-1831.719970703125,-2708.050048828125,-400000.0625,-6105.22998046875,-400000.0625,-15485.7197265625,-400000.0625
134.87298822402954,-400000.0625,-1740.5999755859375,-2626.280029296875,-400000.0625,-6023.64990234375,-400000.0625,-15401.3701171875,-400000.0625
134.87299799919128,-400000.0625,-1698.8800048828125,-2595.3798828125,-400000.0625,-5986.35986328125,-400000.0625,-15360.4501953125,-400000.0625
134.87300753593445,-400000.0625,-1762.3399658203125,-2654.510009765625,-400000.0625,-6041.14990234375,-400000.0625,-15423.8701171875,-400000.0625
134.8730182647705,-400000.0625,-1846.699951171875,-2726.080078125,-400000.0625,-6114.39013671875,-400000.0625,-15502.6904296875,-400000.0625
134.87302803993225,-400000.0625,-1840.6400146484375,-2713.780029296875,-400000.0625,-6104.18017578125,-400000.0625,-15493.009765625,-400000.0625
134.89132285118103,-400000.0625,-1829.8199462890625,-2664.280029296875,-400000.0625,-6011.580078125,-400000.0625,-15667.25,-400000.0625
134.9511594772339,-400000.0625,-1920.219970703125,-2732.469970703125,-400000.0625,-6072.6201171875,-400000.0625,-15732.7197265625,-400000.0625
135.03008580207825,-400000.0625,-1916.550048828125,-2733.3701171875,-400000.0625,-6071.81005859375,-400000.0625,-15736.490234375,-400000.0625
135.08004879951477,-400000.0625,-1868.6800537109375,-2694.93994140625,-400000.0625,-6065.4599609375,-400000.0625,-15780.1201171875,-400000.0625
135.22596788406372,-400000.0625,-1823.22998046875,-2638.909912109375,-400000.0625,-6011.33984375,-400000.0625,-15721.0400390625,-400000.0625
135.27248907089233,-400000.0625,-1786.6600341796875,-2604.820068359375,-400000.0625,-6000.14013671875,-400000.0625,-15766.76953125,-400000.0625
135.34735822677612,-400000.0625,-1790.0,-2601.669921875,-400000.0625,-5999.47021484375,-400000.0625,-15781.259765625,-400000.0625
135.4025502204895,-400000.0625,-1839.68994140625,-2648.35009765625,-400000.0625,-6051.77978515625,-400000.0625,-15825.7001953125,-400000.0625
135.46276998519897,-400000.0625,-1797.0999755859375,-2608.010009765625,-400000.0625,-6010.580078125,-400000.0625,-15782.7900390625,-400000.0625
135.63043212890625,-400000.0625,-1824.18994140625,-2649.070068359375,-400000.0625,-6007.85986328125,-400000.0625,-15737.580078125,-400000.0625
135.7330677509308,-400000.0625,-1892.760009765625,-2709.580078125,-400000.0625,-6069.85009765625,-400000.0625,-15803.7197265625,-400000.0625
135.81884908676147,-400000.0625,-1801.9200439453125,-2627.56005859375,-400000.0625,-5978.06005859375,-400000.0625,-15725.419921875,-400000.0625
135.85403633117676,-400000.0625,-1814.0799560546875,-2635.570068359375,-400000.0625,-5982.02001953125,-400000.0625,-15732.33984375,-400000.0625
135.9510486125946,-400000.0625,-1867.489990234375,-2684.260009765625,-400000.0625,-6008.85986328125,-400000.0625,-15732.150390625,-400000.0625
135.9736442565918,-400000.0625,-1914.739990234375,-2733.090087890625,-400000.0625,-6061.1298828125,-400000.0625,-15777.16015625,-400000.0625
136.0631229877472,-400000.0625,-1911.550048828125,-2730.889892578125,-400000.0625,-6062.31982421875,-400000.0625,-15780.740234375,-400000.0625
136.10755610466003,-400000.0625,-1873.300048828125,-2691.219970703125,-400000.0625,-6019.77978515625,-400000.0625,-15746.4501953125,-400000.0625
136.17124962806702,-400000.0625,-1824.4300537109375,-2649.449951171875,-400000.0625,-5973.52978515625,-400000.0625,-15710.9296875,-400000.0625
136.23277974128723,-400000.0625,-1916.5,-2740.0,-400000.0625,-6064.4599609375,-400000.0625,-15804.9599609375,-400000.0625
136.31606936454773,-400000.0625,-1916.8900146484375,-2737.0,-400000.0625,-6071.52001953125,-400000.0625,-15802.6201171875,-400000.0625
136.35854363441467,-400000.0625,-1935.6700439453125,-2747.919921875,-400000.0625,-6078.580078125,-400000.0625,-15826.8896484375,-400000.0625
136.42594408988953,-400000.0625,-1870.780029296875,-2694.080078125,-400000.0625,-6019.5498046875,-400000.0625,-15761.1396484375,-400000.0625
136.53015995025635,-400000.0625,-1816.6099853515625,-2638.239990234375,-400000.0625,-5967.27978515625,-400000.0625,-15712.599609375,-400000.0625
136.65961408615112,-400000.0625,-1928.6199951171875,-2747.919921875,-400000.0625,-6065.66015625,-400000.0625,-15821.41015625,-400000.0625
136.7450454235077,-400000.0625,-1880.9300537109375,-2695.989990234375,-400000.0625,-6020.740234375,-400000.0625,-15774.2001953125,-400000.0625
136.82988595962524,-400000.0625,-1883.0799560546875,-2702.3798828125,-400000.0625,-6040.91015625,-400000.0625,-15844.0595703125,-400000.0625
136.87921452522278,-400000.0625,-1854.280029296875,-2677.35009765625,-400000.0625,-6021.4501953125,-400000.0625,-15823.599609375,-400000.0625
136.93651723861694,-400000.0625,-1856.6600341796875,-2682.260009765625,-400000.0625,-6021.8798828125,-400000.0625,-15832.8603515625,-400000.0625
137.0669572353363,-400000.0625,-1861.4300537109375,-2690.27001953125,-400000.0625,-6019.1201171875,-400000.0625,-15809.73046875,-400000.0625
137.2717649936676,-400000.0625,-1823.7099609375,-2660.1298828125,-400000.0625,-5979.68017578125,-400000.0625,-15782.9296875,-400000.0625
137.4046950340271,-400000.0625,-1861.0999755859375,-2690.7900390625,-400000.0625,-6020.93017578125,-400000.0625,-15830.4697265625,-400000.0625
137.49719262123108,-400000.0625,-1807.1700439453125,-2641.919921875,-400000.0625,-5973.85986328125,-400000.0625,-15784.3095703125,-400000.0625
137.5372610092163,-400000.0625,-1814.8399658203125,-2652.929931640625,-400000.0625,-5978.5400390625,-400000.0625,-15796.0,-400000.0625
137.65512561798096,-400000.0625,-1871.780029296875,-2703.570068359375,-400000.0625,-6027.7900390625,-400000.0625,-15851.8798828125,-400000.0625
137.8015592098236,-400000.0625,-1892.8499755859375,-2724.840087890625,-400000.0625,-6053.8798828125,-400000.0625,-15876.2998046875,-400000.0625
137.95906400680542,-400000.0625,-1891.7099609375,-2731.510009765625,-400000.0625,-6064.31982421875,-400000.0625,-15917.830078125,-400000.0625
138.12179684638977,-400000.0625,-1830.3900146484375,-2673.239990234375,-400000.0625,-6005.3798828125,-400000.0625,-15862.08984375,-400000.0625
138.28055930137634,-400000.0625,-1862.1400146484375,-2703.47998046875,-400000.0625,-6019.39990234375,-400000.0625,-15872.669921875,-400000.0625
138.58032202720642,-400000.0625,-1866.199951171875,-2721.830078125,-400000.0625,-6007.33984375,-400000.0625,-15838.580078125,-400000.0625
138.66267108917236,-400000.0625,-1887.1800537109375,-2738.570068359375,-400000.0625,-6023.97998046875,-400000.0625,-15854.5498046875,-400000.0625
138.82902908325195,-400000.0625,-1887.8900146484375,-2741.77001953125,-400000.0625,-6017.490234375,-400000.0625,-15859.080078125,-400000.0625
138.99403500556946,-400000.0625,-1911.739990234375,-2761.93994140625,-400000.0625,-6043.0498046875,-400000.0625,-15889.83984375,-400000.0625
139.11702013015747,-400000.0625,-1841.1199951171875,-2707.14990234375,-400000.0625,-5976.6298828125,-400000.0625,-15831.08984375,-400000.0625
139.32667446136475,-400000.0625,-1912.780029296875,-2775.139892578125,-400000.0625,-6050.919921875,-400000.0625,-15896.6103515625,-400000.0625
139.50354480743408,-400000.0625,-1724.8199462890625,-2491.52001953125,-400000.0625,-5982.64013671875,-400000.0625,-16316.9404296875,-400000.0625
139.73129534721375,-400000.0625,-1675.0799560546875,-2333.830078125,-400000.0625,-5932.3798828125,-400000.0625,-16346.3095703125,-400000.0625
139.88298225402832,-400000.0625,-1686.530029296875,-2408.929931640625,-400000.0625,-6023.93017578125,-400000.0625,-16344.98046875,-400000.0625
140.00383400917053,-400000.0625,-1663.1600341796875,-2383.179931640625,-400000.0625,-6003.08984375,-400000.0625,-16321.419921875,-400000.0625
140.1214747428894,-400000.0625,-1601.27001953125,-2326.919921875,-400000.0625,-5953.259765625,-400000.0625,-16268.349609375,-400000.0625
140.26805114746094,-400000.0625,-1582.050048828125,-2312.949951171875,-400000.0625,-5939.39013671875,-400000.0625,-16253.23046875,-400000.0625
140.59909987449646,-400000.0625,-1665.2099609375,-2398.06005859375,-400000.0625,-6007.0498046875,-400000.0625,-16309.169921875,-400000.0625
140.77989029884338,-400000.0625,-1645.1400146484375,-2384.139892578125,-400000.0625,-5987.169921875,-400000.0625,-16282.75,-400000.0625
140.96926951408386,-400000.0625,-1599.1700439453125,-2345.75,-400000.0625,-5926.18017578125,-400000.0625,-16224.580078125,-400000.0625
141.1580355167389,-400000.0625,-1726.3900146484375,-2470.679931640625,-400000.0625,-6039.18994140625,-400000.0625,-16334.6298828125,-400000.0625
141.3017704486847,-400000.0625,-1627.02001953125,-2374.169921875,-400000.0625,-5944.2099609375,-400000.0625,-16234.2099609375,-400000.0625
141.44204139709473,-400000.0625,-1683.5699462890625,-2429.10009765625,-400000.0625,-5982.5,-400000.0625,-16284.7998046875,-400000.0625
141.60666513442993,-400000.0625,-1714.1300048828125,-2474.639892578125,-400000.0625,-6025.5498046875,-400000.0625,-16318.849609375,-400000.0625
141.77402925491333,-400000.0625,-1666.31005859375,-2430.14990234375,-400000.0625,-5974.06005859375,-400000.0625,-16278.1298828125,-400000.0625
142.0252537727356,-400000.0625,-1633.1700439453125,-2399.2099609375,-400000.0625,-5915.58984375,-400000.0625,-16219.2802734375,-400000.0625
142.1690604686737,-400000.0625,-1777.8900146484375,-2517.030029296875,-400000.0625,-6018.97021484375,-400000.0625,-16413.0703125,-400000.0625
142.31293177604675,-400000.0625,-1529.4100341796875,-2366.590087890625,-400000.0625,-5921.41015625,-400000.0625,-16170.599609375,-400000.0625
142.4260687828064,-400000.0625,-1591.43994140625,-2422.570068359375,-400000.0625,-5980.10986328125,-400000.0625,-16222.9599609375,-400000.0625
142.5250744819641,-400000.0625,-1673.97998046875,-2497.429931640625,-400000.0625,-6055.5,-400000.0625,-16301.2998046875,-400000.0625
142.5679485797882,-400000.0625,-1669.739990234375,-2488.7099609375,-400000.0625,-6042.85986328125,-400000.0625,-16293.150390625,-400000.0625
142.7040717601776,-400000.0625,-1583.1500244140625,-2407.60009765625,-400000.0625,-5958.41015625,-400000.0625,-16208.41015625,-400000.0625
142.91362833976746,-400000.0625,-1758.050048828125,-2487.989990234375,-400000.0625,-5930.08984375,-400000.0625,-16420.41015625,-400000.0625
143.0841567516327,-400000.0625,-1986.8399658203125,-2774.18994140625,-400000.0625,-6030.85009765625,-400000.0625,-16366.5302734375,-400000.0625
143.2093210220337,-400000.0625,-1994.989990234375,-2774.760009765625,-400000.0625,-5959.60986328125,-400000.0625,-16280.650390625,-400000.0625
143.31429624557495,-400000.0625,-1643.93994140625,-2461.340087890625,-400000.0625,-5897.81005859375,-400000.0625,-16322.419921875,-400000.0625
143.46391987800598,-400000.0625,-1772.97998046875,-2536.77001953125,-400000.0625,-6021.5498046875,-400000.0625,-16506.390625,-400000.0625
143.6391248703003,-400000.0625,-1671.9300537109375,-2443.550048828125,-400000.0625,-5925.47021484375,-400000.0625,-16388.23046875,-400000.0625
143.7983341217041,-400000.0625,-1655.43994140625,-2434.590087890625,-400000.0625,-5899.72021484375,-400000.0625,-16382.599609375,-400000.0625
143.91545701026917,-400000.0625,-1796.06005859375,-2559.610107421875,-400000.0625,-6026.4599609375,-400000.0625,-16524.83984375,-400000.0625
144.01019835472107,-400000.0625,-1739.6500244140625,-2505.590087890625,-400000.0625,-5983.10986328125,-400000.0625,-16468.380859375,-400000.0625
144.12730383872986,-400000.0625,-1638.75,-2429.679931640625,-400000.0625,-5899.18994140625,-400000.0625,-16377.0703125,-400000.0625
144.30137133598328,-400000.0625,-1744.93994140625,-2528.719970703125,-400000.0625,-5991.5498046875,-400000.0625,-16472.529296875,-400000.0625
144.42145252227783,-400000.0625,-1634.1700439453125,-2436.5400390625,-400000.0625,-5886.1298828125,-400000.0625,-16364.1904296875,-400000.0625
144.55158877372742,-400000.0625,-1819.6099853515625,-2595.419921875,-400000.0625,-6038.6201171875,-400000.0625,-16528.509765625,-400000.0625
144.67892265319824,-400000.0625,-1664.260009765625,-2465.919921875,-400000.0625,-5908.2001953125,-400000.0625,-16372.830078125,-400000.0625
144.8101704120636,-400000.0625,-1739.9300537109375,-2546.840087890625,-400000.0625,-5972.72021484375,-400000.0625,-16439.630859375,-400000.0625
144.9329273700714,-400000.0625,-1817.56005859375,-2615.68994140625,-400000.0625,-6044.91015625,-400000.0625,-16518.2109375,-400000.0625
145.0507345199585,-400000.0625,-1770.5899658203125,-2570.340087890625,-400000.0625,-6001.0400390625,-400000.0625,-16475.30078125,-400000.0625
145.14096307754517,-400000.0625,-1665.4000244140625,-2474.260009765625,-400000.0625,-5901.43017578125,-400000.0625,-16369.490234375,-400000.0625
145.17387199401855,-400000.0625,-1645.469970703125,-2462.340087890625,-400000.0625,-5884.64990234375,-400000.0625,-16349.0302734375,-400000.0625
145.27368760108948,-400000.0625,-1737.02001953125,-2547.68994140625,-400000.0625,-5972.81982421875,-400000.0625,-16436.630859375,-400000.0625
145.31355333328247,-400000.0625,-1815.1300048828125,-2611.919921875,-400000.0625,-6042.33984375,-400000.0625,-16510.580078125,-400000.0625
145.3992006778717,-400000.0625,-1862.8599853515625,-2587.3701171875,-400000.0625,-5826.759765625,-400000.0625,-16445.0703125,-400000.0625
145.48619890213013,-400000.0625,-1877.780029296875,-2665.419921875,-400000.0625,-6023.1201171875,-400000.0625,-16543.2890625,-400000.0625
145.5796549320221,-400000.0625,-1831.1500244140625,-2624.320068359375,-400000.0625,-5991.89013671875,-400000.0625,-16531.140625,-400000.0625
145.6489543914795,-400000.0625,-1705.550048828125,-2521.090087890625,-400000.0625,-5900.56982421875,-400000.0625,-16414.83984375,-400000.0625
145.76652121543884,-400000.0625,-1723.3900146484375,-2547.68994140625,-400000.0625,-5938.47998046875,-400000.0625,-16456.890625,-400000.0625
145.87510585784912,-400000.0625,-1814.510009765625,-2625.080078125,-400000.0625,-6025.1201171875,-400000.0625,-16553.400390625,-400000.0625
145.95754551887512,-400000.0625,-1690.8199462890625,-2527.949951171875,-400000.0625,-5905.68017578125,-400000.0625,-16395.759765625,-400000.0625
146.02155900001526,-400000.0625,-1649.7099609375,-2493.330078125,-400000.0625,-5872.2001953125,-400000.0625,-16356.1396484375,-400000.0625
146.09966945648193,-400000.0625,-1722.239990234375,-2558.800048828125,-400000.0625,-5937.52978515625,-400000.0625,-16432.859375,-400000.0625
146.22742342948914,-400000.0625,-1810.5,-2600.719970703125,-400000.0625,-5997.3701171875,-400000.0625,-16551.0703125,-400000.0625
146.2965588569641,-400000.0625,-1711.6500244140625,-2514.080078125,-400000.0625,-5909.39990234375,-400000.0625,-16453.41015625,-400000.0625
146.34756112098694,-400000.0625,-1655.5799560546875,-2473.35009765625,-400000.0625,-5864.759765625,-400000.0625,-16407.5390625,-400000.0625
146.47141194343567,-400000.0625,-1832.3399658203125,-2640.300048828125,-400000.0625,-6017.97021484375,-400000.0625,-16581.349609375,-400000.0625
146.57613158226013,-400000.0625,-1824.9000244140625,-2632.139892578125,-400000.0625,-6008.240234375,-400000.0625,-16571.810546875,-400000.0625
146.6635160446167,-400000.0625,-1656.3399658203125,-2486.89990234375,-400000.0625,-5864.240234375,-400000.0625,-16421.990234375,-400000.0625
146.72977375984192,-400000.0625,-1719.81005859375,-2546.639892578125,-400000.0625,-5927.18017578125,-400000.0625,-16489.939453125,-400000.0625
146.8059093952179,-400000.0625,-1826.760009765625,-2641.25,-400000.0625,-6022.4501953125,-400000.0625,-16590.689453125,-400000.0625
146.8641893863678,-400000.0625,-1823.4300537109375,-2636.580078125,-400000.0625,-6017.35009765625,-400000.0625,-16589.310546875,-400000.0625
146.9513680934906,-400000.0625,-1719.760009765625,-2539.43994140625,-400000.0625,-5928.7998046875,-400000.0625,-16489.69921875,-400000.0625
146.98353457450867,-400000.0625,-1654.8599853515625,-2486.419921875,-400000.0625,-5866.18994140625,-400000.0625,-16429.759765625,-400000.0625
147.04503512382507,-400000.0625,-1715.760009765625,-2548.169921875,-400000.0625,-5922.60009765625,-400000.0625,-16494.419921875,-400000.0625
147.10855555534363,-400000.0625,-1814.93994140625,-2634.81005859375,-400000.0625,-6018.64013671875,-400000.0625,-16594.890625,-400000.0625
147.1738040447235,-400000.0625,-1820.989990234375,-2636.47998046875,-400000.0625,-6017.4501953125,-400000.0625,-16599.69921875,-400000.0625
147.2487189769745,-400000.0625,-1725.3900146484375,-2545.929931640625,-400000.0625,-5934.2900390625,-400000.0625,-16501.859375,-400000.0625
147.33204579353333,-400000.0625,-1666.5,-2502.389892578125,-400000.0625,-5870.9599609375,-400000.0625,-16447.779296875,-400000.0625
147.36633253097534,-400000.0625,-1715.760009765625,-2546.550048828125,-400000.0625,-5917.60009765625,-400000.0625,-16493.369140625,-400000.0625
147.4486949443817,-400000.0625,-1814.1700439453125,-2639.010009765625,-400000.0625,-6016.2998046875,-400000.0625,-16602.5703125,-400000.0625
147.47483897209167,-400000.0625,-1825.2900390625,-2642.35009765625,-400000.0625,-6023.31005859375,-400000.0625,-16614.439453125,-400000.0625
147.5494613647461,-400000.0625,-1735.1199951171875,-2556.85009765625,-400000.0625,-5931.43017578125,-400000.0625,-16519.640625,-400000.0625
147.57097268104553,-400000.0625,-1663.4000244140625,-2495.860107421875,-400000.0625,-5867.2001953125,-400000.0625,-16450.169921875,-400000.0625
147.60084915161133,-400000.0625,-1714.280029296875,-2546.8798828125,-400000.0625,-5915.2099609375,-400000.0625,-16504.0,-400000.0625
147.65413618087769,-400000.0625,-1819.7099609375,-2642.679931640625,-400000.0625,-6012.9599609375,-400000.0625,-16607.240234375,-400000.0625
147.67929220199585,-400000.0625,-1829.9599609375,-2646.260009765625,-400000.0625,-6020.5498046875,-400000.0625,-16615.439453125,-400000.0625
147.69627356529236,-400000.0625,-1732.489990234375,-2558.760009765625,-400000.0625,-5931.47021484375,-400000.0625,-16518.55078125,-400000.0625
147.71931886672974,-400000.0625,-1662.25,-2498.6298828125,-400000.0625,-5868.669921875,-400000.0625,-16444.109375,-400000.0625
147.7642307281494,-400000.0625,-1717.6600341796875,-2552.93994140625,-400000.0625,-5916.2099609375,-400000.0625,-16495.990234375,-400000.0625
147.78685569763184,-400000.0625,-1822.0899658203125,-2645.110107421875,-400000.0625,-6013.580078125,-400000.0625,-16602.08984375,-400000.0625
147.8101077079773,-400000.0625,-1830.43994140625,-2649.360107421875,-400000.0625,-6026.1298828125,-400000.0625,-16615.8203125,-400000.0625
147.8259129524231,-400000.0625,-1737.7900390625,-2563.050048828125,-400000.0625,-5938.14990234375,-400000.0625,-16518.98046875,-400000.0625
147.87882804870605,-400000.0625,-1663.1600341796875,-2501.010009765625,-400000.0625,-5864.85986328125,-400000.0625,-16449.119140625,-400000.0625
147.95350074768066,-400000.0625,-1875.2099609375,-2811.10009765625,-400000.0625,-6041.43017578125,-400000.0625,-16432.48046875,-400000.0625
148.04795026779175,-400000.0625,-1744.5999755859375,-2789.39990234375,-400000.0625,-5946.58984375,-400000.0625,-16118.33984375,-400000.0625
148.07038044929504,-400000.0625,-1861.18994140625,-2890.489990234375,-400000.0625,-6052.2998046875,-400000.0625,-16223.4296875,-400000.0625
148.15092992782593,-400000.0625,-1889.0899658203125,-2907.85009765625,-400000.0625,-6065.56005859375,-400000.0625,-16250.6103515625,-400000.0625
148.26298689842224,-400000.0625,-1742.550048828125,-2761.510009765625,-400000.0625,-5903.33984375,-400000.0625,-16125.009765625,-400000.0625
148.32711362838745,-400000.0625,-1779.27001953125,-2796.699951171875,-400000.0625,-5933.240234375,-400000.0625,-16162.25,-400000.0625
148.43176341056824,-400000.0625,-1891.1400146484375,-2896.1201171875,-400000.0625,-6031.419921875,-400000.0625,-16263.2998046875,-400000.0625
148.6459515094757,-400000.0625,-1806.969970703125,-2812.340087890625,-400000.0625,-5924.22998046875,-400000.0625,-16173.599609375,-400000.0625
148.79199242591858,-400000.0625,-1817.510009765625,-2678.6298828125,-400000.0625,-6018.10986328125,-400000.0625,-16682.390625,-400000.0625
148.84696698188782,-400000.0625,-1755.6700439453125,-2599.81005859375,-400000.0625,-5941.580078125,-400000.0625,-16601.759765625,-400000.0625
148.911395072937,-400000.0625,-1674.989990234375,-2520.3701171875,-400000.0625,-5864.81005859375,-400000.0625,-16514.490234375,-400000.0625
148.96496057510376,-400000.0625,-1828.9100341796875,-2663.89990234375,-400000.0625,-5977.43994140625,-400000.0625,-16646.150390625,-400000.0625
149.16085982322693,-400000.0625,-1797.25,-2620.64990234375,-400000.0625,-5950.93017578125,-400000.0625,-16618.58984375,-400000.0625
149.22216272354126,-400000.0625,-1705.5999755859375,-2548.219970703125,-400000.0625,-5871.14990234375,-400000.0625,-16523.55078125,-400000.0625
149.30028581619263,-400000.0625,-1718.52001953125,-2565.81005859375,-400000.0625,-5877.02001953125,-400000.0625,-16543.9609375,-400000.0625
149.35420727729797,-400000.0625,-1833.1500244140625,-2667.47998046875,-400000.0625,-5972.0498046875,-400000.0625,-16650.009765625,-400000.0625
149.41494464874268,-400000.0625,-1883.3199462890625,-2710.43994140625,-400000.0625,-6021.5498046875,-400000.0625,-16698.55078125,-400000.0625
149.5112180709839,-400000.0625,-1809.1700439453125,-2639.719970703125,-400000.0625,-5952.93017578125,-400000.0625,-16628.41015625,-400000.0625
149.54216718673706,-400000.0625,-1714.1800537109375,-2555.22998046875,-400000.0625,-5857.990234375,-400000.0625,-16537.720703125,-400000.0625
149.67221975326538,-400000.0625,-1876.550048828125,-2709.77001953125,-400000.0625,-6012.39013671875,-400000.0625,-16701.029296875,-400000.0625
149.74956607818604,-400000.0625,-1875.780029296875,-2713.72998046875,-400000.0625,-6018.830078125,-400000.0625,-16707.330078125,-400000.0625
149.80344152450562,-400000.0625,-1812.4100341796875,-2649.590087890625,-400000.0625,-5958.75,-400000.0625,-16646.91015625,-400000.0625
149.89054107666016,-400000.0625,-1711.56005859375,-2561.18994140625,-400000.0625,-5862.47998046875,-400000.0625,-16554.7890625,-400000.0625
149.91416215896606,-400000.0625,-1714.1800537109375,-2574.35009765625,-400000.0625,-5866.0,-400000.0625,-16562.029296875,-400000.0625
149.95864391326904,-400000.0625,-1820.6099853515625,-2668.52001953125,-400000.0625,-5960.93994140625,-400000.0625,-16665.650390625,-400000.0625
149.98165249824524,-400000.0625,-1879.7900390625,-2717.300048828125,-400000.0625,-6019.39990234375,-400000.0625,-16721.580078125,-400000.0625
150.0,-400000.0625,-1812.1700439453125,-2652.169921875,-400000.0625,-5957.56005859375,-400000.0625,-16657.16015625,-400000.0625
150.0205602645874,-400000.0625,-1711.93994140625,-2561.239990234375,-400000.0625,-5864.85986328125,-400000.0625,-16559.560546875,-400000.0625
150.0707688331604,-400000.0625,-1718.239990234375,-2572.199951171875,-400000.0625,-5865.47998046875,-400000.0625,-16562.890625,-400000.0625
150.09101581573486,-400000.0625,-1817.800048828125,-2665.139892578125,-400000.0625,-5958.27001953125,-400000.0625,-16664.3203125,-400000.0625
150.1134855747223,-400000.0625,-1876.5,-2714.110107421875,-400000.0625,-6017.5400390625,-400000.0625,-16719.30078125,-400000.0625
150.13867115974426,-400000.0625,-1817.75,-2654.840087890625,-400000.0625,-5957.75,-400000.0625,-16658.689453125,-400000.0625
150.1905975341797,-400000.0625,-1715.6099853515625,-2567.820068359375,-400000.0625,-5864.72021484375,-400000.0625,-16561.939453125,-400000.0625
150.21081805229187,-400000.0625,-1715.4200439453125,-2575.72998046875,-400000.0625,-5868.72021484375,-400000.0625,-16565.75,-400000.0625
150.23693990707397,-400000.0625,-1820.6600341796875,-2669.3798828125,-400000.0625,-5963.419921875,-400000.0625,-16665.4609375,-400000.0625
150.2639298439026,-400000.0625,-1886.989990234375,-2723.169921875,-400000.0625,-6021.4501953125,-400000.0625,-16723.73046875,-400000.0625
150.31645369529724,-400000.0625,-1819.469970703125,-2664.89990234375,-400000.0625,-5960.7998046875,-400000.0625,-16663.26953125,-400000.0625
150.33963465690613,-400000.0625,-1725.0999755859375,-2579.8798828125,-400000.0625,-5865.91015625,-400000.0625,-16563.130859375,-400000.0625
150.3662965297699,-400000.0625,-1726.3399658203125,-2571.199951171875,-400000.0625,-5863.3798828125,-400000.0625,-16562.4609375,-400000.0625
150.45093750953674,-400000.0625,-1807.6400146484375,-2684.5,-400000.0625,-5961.18017578125,-400000.0625,-16672.900390625,-400000.0625
150.50423455238342,-400000.0625,-1701.780029296875,-2590.56005859375,-400000.0625,-5864.0,-400000.0625,-16582.439453125,-400000.0625
150.56482934951782,-400000.0625,-1748.8499755859375,-2840.7099609375,-400000.0625,-5888.419921875,-400000.0625,-16224.8203125,-400000.0625
150.63044929504395,-400000.0625,-1917.8900146484375,-3077.1298828125,-400000.0625,-6004.14013671875,-400000.0625,-16028.3603515625,-400000.0625
150.6973512172699,-400000.0625,-2002.9100341796875,-3142.830078125,-400000.0625,-6075.85986328125,-400000.0625,-16077.08984375,-400000.0625
150.75809526443481,-400000.0625,-1851.4200439453125,-3000.1201171875,-400000.0625,-5935.72021484375,-400000.0625,-15938.7099609375,-400000.0625
150.82463884353638,-400000.0625,-1856.22998046875,-2996.39990234375,-400000.0625,-5935.14990234375,-400000.0625,-15946.580078125,-400000.0625
151.00971174240112,-400000.0625,-1922.800048828125,-3062.580078125,-400000.0625,-5998.22998046875,-400000.0625,-16054.8701171875,-400000.0625
151.077490568161,-400000.0625,-1958.1800537109375,-3071.1201171875,-400000.0625,-6023.64990234375,-400000.0625,-16109.7998046875,-400000.0625
151.1520607471466,-400000.0625,-1856.280029296875,-2979.090087890625,-400000.0625,-5934.330078125,-400000.0625,-16030.26953125,-400000.0625
151.2117257118225,-400000.0625,-1829.0999755859375,-2959.820068359375,-400000.0625,-5910.68017578125,-400000.0625,-16030.650390625,-400000.0625
151.26862716674805,-400000.0625,-1912.68994140625,-3033.5,-400000.0625,-5990.7900390625,-400000.0625,-16115.0498046875,-400000.0625
151.35703420639038,-400000.0625,-2000.52001953125,-3103.070068359375,-400000.0625,-6057.31005859375,-400000.0625,-16196.830078125,-400000.0625
151.46565580368042,-400000.0625,-1859.760009765625,-2968.64990234375,-400000.0625,-5929.419921875,-400000.0625,-16066.169921875,-400000.0625
151.6270945072174,-400000.0625,-1920.0799560546875,-3032.5400390625,-400000.0625,-5980.64013671875,-400000.0625,-16129.6904296875,-400000.0625
151.7325563430786,-400000.0625,-1954.1700439453125,-3057.909912109375,-400000.0625,-6015.10986328125,-400000.0625,-16159.580078125,-400000.0625
151.8623468875885,-400000.0625,-1826.8599853515625,-2953.14990234375,-400000.0625,-5901.240234375,-400000.0625,-16043.1396484375,-400000.0625
151.91112852096558,-400000.0625,-1901.1500244140625,-3021.10009765625,-400000.0625,-5975.68017578125,-400000.0625,-16113.8603515625,-400000.0625
151.979487657547,-400000.0625,-1972.6300048828125,-3065.489990234375,-400000.0625,-6015.16015625,-400000.0625,-16181.4697265625,-400000.0625
152.08325719833374,-400000.0625,-2229.60009765625,-3236.47998046875,-400000.0625,-5951.68994140625,-400000.0625,-16228.73046875,-400000.0625
152.16810870170593,-400000.0625,-1955.3199462890625,-3073.550048828125,-400000.0625,-5881.64013671875,-400000.0625,-16054.6796875,-400000.0625
152.23018717765808,-400000.0625,-1949.3599853515625,-3081.320068359375,-400000.0625,-5964.56982421875,-400000.0625,-16093.349609375,-400000.0625
152.30972337722778,-400000.0625,-2017.97998046875,-3140.739990234375,-400000.0625,-6038.85986328125,-400000.0625,-16168.4501953125,-400000.0625
152.3662760257721,-400000.0625,-1993.469970703125,-3111.889892578125,-400000.0625,-6020.169921875,-400000.0625,-16150.330078125,-400000.0625
152.46338534355164,-400000.0625,-1901.199951171875,-3028.199951171875,-400000.0625,-5931.6201171875,-400000.0625,-16058.349609375,-400000.0625
152.483656167984,-400000.0625,-1857.1400146484375,-2995.159912109375,-400000.0625,-5894.52001953125,-400000.0625,-16017.919921875,-400000.0625
152.52153372764587,-400000.0625,-1931.8599853515625,-3065.159912109375,-400000.0625,-5955.89013671875,-400000.0625,-16093.830078125,-400000.0625
152.5427544116974,-400000.0625,-2025.219970703125,-3143.60009765625,-400000.0625,-6041.52978515625,-400000.0625,-16183.1396484375,-400000.0625
152.5607979297638,-400000.0625,-2005.6700439453125,-3117.510009765625,-400000.0625,-6023.259765625,-400000.0625,-16162.1103515625,-400000.0625
152.58445119857788,-400000.0625,-1908.969970703125,-3031.830078125,-400000.0625,-5932.08984375,-400000.0625,-16066.83984375,-400000.0625
152.63525390625,-400000.0625,-1865.1500244140625,-2998.639892578125,-400000.0625,-5892.330078125,-400000.0625,-16026.259765625,-400000.0625
152.65723848342896,-400000.0625,-1935.2900390625,-3064.5400390625,-400000.0625,-5960.080078125,-400000.0625,-16094.9697265625,-400000.0625
152.68480253219604,-400000.0625,-2018.31005859375,-3133.9599609375,-400000.0625,-6032.75,-400000.0625,-16175.0302734375,-400000.0625
152.73041105270386,-400000.0625,-1997.52001953125,-3108.840087890625,-400000.0625,-6010.68017578125,-400000.0625,-16158.6796875,-400000.0625
152.75263833999634,-400000.0625,-1905.5400390625,-3029.06005859375,-400000.0625,-5931.52001953125,-400000.0625,-16068.9404296875,-400000.0625
152.7731204032898,-400000.0625,-1866.1500244140625,-3000.449951171875,-400000.0625,-5896.6201171875,-400000.0625,-16028.7900390625,-400000.0625
152.79307770729065,-400000.0625,-1935.1500244140625,-3062.300048828125,-400000.0625,-5960.18017578125,-400000.0625,-16099.41015625,-400000.0625
152.8419759273529,-400000.0625,-2025.27001953125,-3137.919921875,-400000.0625,-6040.669921875,-400000.0625,-16179.9501953125,-400000.0625
152.86308073997498,-400000.0625,-2005.530029296875,-3116.22998046875,-400000.0625,-6019.39990234375,-400000.0625,-16160.8701171875,-400000.0625
152.88292837142944,-400000.0625,-1905.969970703125,-3029.300048828125,-400000.0625,-5926.990234375,-400000.0625,-16067.7001953125,-400000.0625
