time,ch1,ch2,ch3,ch4,ch5,ch6,ch7,ch8
172.9313018321991,-400000.0625,8696.3701171875,2036.4300537109375,-400000.0625,-561.8099975585938,-400000.0625,7322.97998046875,-400000.0625
172.96594667434692,-400000.0625,8668.9501953125,2000.52001953125,-400000.0625,-598.1400146484375,-400000.0625,7303.52001953125,-400000.0625
173.04620456695557,-400000.0625,8668.66015625,1986.7900390625,-400000.0625,-607.4400024414062,-400000.0625,7305.81005859375,-400000.0625
173.08332347869873,-400000.0625,8691.6904296875,2012.3499755859375,-400000.0625,-589.9000244140625,-400000.0625,7328.419921875,-400000.0625
173.14096879959106,-400000.0625,8705.1904296875,2034.469970703125,-400000.0625,-574.9199829101562,-400000.0625,7350.16015625,-400000.0625
173.16409850120544,-400000.0625,8693.2197265625,2019.449951171875,-400000.0625,-583.510009765625,-400000.0625,7340.3798828125,-400000.0625
173.18580150604248,-400000.0625,8664.66015625,1986.219970703125,-400000.0625,-602.9099731445312,-400000.0625,7318.5498046875,-400000.0625
173.24264001846313,-400000.0625,8658.650390625,1979.6400146484375,-400000.0625,-606.489990234375,-400000.0625,7315.4501953125,-400000.0625
173.28624296188354,-400000.0625,8684.2099609375,2006.47998046875,-400000.0625,-576.5,-400000.0625,7339.14013671875,-400000.0625
173.35110449790955,-400000.0625,8707.1904296875,2030.52001953125,-400000.0625,-560.0900268554688,-400000.0625,7359.31005859375,-400000.0625
173.39400434494019,-400000.0625,8695.9404296875,2015.5400390625,-400000.0625,-577.8800048828125,-400000.0625,7348.97021484375,-400000.0625
173.48573780059814,-400000.0625,8665.66015625,1982.1600341796875,-400000.0625,-598.719970703125,-400000.0625,7322.97998046875,-400000.0625
173.5175724029541,-400000.0625,8661.1298828125,1979.449951171875,-400000.0625,-601.77001953125,-400000.0625,7318.16015625,-400000.0625
173.58206629753113,-400000.0625,8684.25,2003.77001953125,-400000.0625,-587.8900146484375,-400000.0625,7342.85986328125,-400000.0625
173.60470342636108,-400000.0625,8708.3798828125,2025.8900146484375,-400000.0625,-573.6799926757812,-400000.0625,7363.1298828125,-400000.0625
173.62558889389038,-400000.0625,8699.0400390625,2017.97998046875,-400000.0625,-587.3200073242188,-400000.0625,7353.93017578125,-400000.0625
173.67823886871338,-400000.0625,8668.23046875,1985.550048828125,-400000.0625,-611.1599731445312,-400000.0625,7323.7001953125,-400000.0625
173.69822597503662,-400000.0625,8661.599609375,1978.9200439453125,-400000.0625,-606.6300048828125,-400000.0625,7316.8798828125,-400000.0625
173.71828651428223,-400000.0625,8684.8701171875,2004.4300537109375,-400000.0625,-581.5,-400000.0625,7340.85986328125,-400000.0625
173.73660731315613,-400000.0625,8708.48046875,2025.93994140625,-400000.0625,-570.9199829101562,-400000.0625,7359.31005859375,-400000.0625
173.78143048286438,-400000.0625,8693.0302734375,2010.010009765625,-400000.0625,-588.75,-400000.0625,7344.8701171875,-400000.0625
173.8202724456787,-400000.0625,8661.990234375,1980.68994140625,-400000.0625,-605.25,-400000.0625,7316.97021484375,-400000.0625
173.8488998413086,-400000.0625,8653.6904296875,1975.8199462890625,-400000.0625,-600.8599853515625,-400000.0625,7314.77978515625,-400000.0625
173.90267133712769,-400000.0625,8678.2001953125,1999.52001953125,-400000.0625,-577.4000244140625,-400000.0625,7337.669921875,-400000.0625
173.92792391777039,-400000.0625,8703.23046875,2021.8399658203125,-400000.0625,-563.6199951171875,-400000.0625,7355.60009765625,-400000.0625
173.95768237113953,-400000.0625,8693.3095703125,2011.489990234375,-400000.0625,-578.6400146484375,-400000.0625,7345.009765625,-400000.0625
173.99777150154114,-400000.0625,8659.080078125,1978.02001953125,-400000.0625,-598.5700073242188,-400000.0625,7317.35009765625,-400000.0625
174.01553535461426,-400000.0625,8656.98046875,1975.6300048828125,-400000.0625,-604.6300048828125,-400000.0625,7316.2099609375,-400000.0625
174.04091215133667,-400000.0625,8686.58984375,2002.2900390625,-400000.0625,-601.77001953125,-400000.0625,7345.72021484375,-400000.0625
174.0570890903473,-400000.0625,8706.0,2023.8900146484375,-400000.0625,-578.6400146484375,-400000.0625,7365.509765625,-400000.0625
174.08086919784546,-400000.0625,8692.0703125,2010.3900146484375,-400000.0625,-572.25,-400000.0625,7351.39990234375,-400000.0625
174.13367009162903,-400000.0625,8663.1298828125,1980.3499755859375,-400000.0625,-597.5700073242188,-400000.0625,7323.169921875,-400000.0625
174.16224646568298,-400000.0625,8659.169921875,1978.6400146484375,-400000.0625,-609.02001953125,-400000.0625,7318.2099609375,-400000.0625
174.1822292804718,-400000.0625,8684.349609375,2006.1500244140625,-400000.0625,-588.6099853515625,-400000.0625,7343.47998046875,-400000.0625
174.23839569091797,-400000.0625,8702.3701171875,2025.510009765625,-400000.0625,-576.969970703125,-400000.0625,7365.3701171875,-400000.0625
174.25296306610107,-400000.0625,8692.650390625,2011.8199462890625,-400000.0625,-590.6099853515625,-400000.0625,7349.2099609375,-400000.0625
174.27031254768372,-400000.0625,8661.7001953125,1979.969970703125,-400000.0625,-606.4400024414062,-400000.0625,7321.740234375,-400000.0625
174.29931139945984,-400000.0625,8655.83984375,1975.780029296875,-400000.0625,-590.52001953125,-400000.0625,7315.259765625,-400000.0625
174.3378689289093,-400000.0625,8684.73046875,2002.530029296875,-400000.0625,-573.72998046875,-400000.0625,7336.0,-400000.0625
174.3593771457672,-400000.0625,8707.2900390625,2024.510009765625,-400000.0625,-565.3400268554688,-400000.0625,7363.56005859375,-400000.0625
174.38674688339233,-400000.0625,8696.26953125,2012.3499755859375,-400000.0625,-576.8300170898438,-400000.0625,7350.25,-400000.0625
174.41324305534363,-400000.0625,8663.5595703125,1981.31005859375,-400000.0625,-596.47998046875,-400000.0625,7325.5498046875,-400000.0625
174.47840356826782,-400000.0625,8659.7001953125,1972.8699951171875,-400000.0625,-602.530029296875,-400000.0625,7322.5,-400000.0625
174.49959516525269,-400000.0625,8688.01953125,1999.4300537109375,-400000.0625,-583.030029296875,-400000.0625,7341.81005859375,-400000.0625
174.52427077293396,-400000.0625,8704.0400390625,2021.9300537109375,-400000.0625,-572.489990234375,-400000.0625,7362.509765625,-400000.0625
174.5609848499298,-400000.0625,8687.9296875,2008.010009765625,-400000.0625,-581.5499877929688,-400000.0625,7353.740234375,-400000.0625
174.58231401443481,-400000.0625,8659.75,1978.2099609375,-400000.0625,-597.5700073242188,-400000.0625,7324.89013671875,-400000.0625
174.6002538204193,-400000.0625,8655.0703125,1969.81005859375,-400000.0625,-605.77001953125,-400000.0625,7316.8798828125,-400000.0625
174.61810636520386,-400000.0625,8683.2998046875,1996.22998046875,-400000.0625,-594.8499755859375,-400000.0625,7343.0498046875,-400000.0625
174.64173460006714,-400000.0625,8705.66015625,2020.6500244140625,-400000.0625,-569.1099853515625,-400000.0625,7367.990234375,-400000.0625
174.68868327140808,-400000.0625,8697.3203125,2011.8199462890625,-400000.0625,-567.6300048828125,-400000.0625,7359.1201171875,-400000.0625
174.70655369758606,-400000.0625,8667.990234375,1984.0699462890625,-400000.0625,-595.3300170898438,-400000.0625,7329.7998046875,-400000.0625
174.72960448265076,-400000.0625,8655.9296875,1973.9200439453125,-400000.0625,-598.0,-400000.0625,7323.4599609375,-400000.0625
174.76180720329285,-400000.0625,8684.2998046875,1998.5699462890625,-400000.0625,-575.969970703125,-400000.0625,7346.39013671875,-400000.0625
174.82122826576233,-400000.0625,8707.0,2021.5,-400000.0625,-563.1900024414062,-400000.0625,7364.7001953125,-400000.0625
174.8491928577423,-400000.0625,8691.7900390625,2010.72998046875,-400000.0625,-585.510009765625,-400000.0625,7354.5,-400000.0625
174.87850761413574,-400000.0625,8660.4599609375,1977.780029296875,-400000.0625,-612.5499877929688,-400000.0625,7323.02978515625,-400000.0625
174.94919323921204,-400000.0625,8653.3603515625,1969.0,-400000.0625,-611.6400146484375,-400000.0625,7317.2099609375,-400000.0625
174.97026801109314,-400000.0625,8676.48046875,1994.280029296875,-400000.0625,-584.5499877929688,-400000.0625,7342.39013671875,-400000.0625
174.99993586540222,-400000.0625,8698.8896484375,2018.7900390625,-400000.0625,-556.760009765625,-400000.0625,7360.1298828125,-400000.0625
175.04683661460876,-400000.0625,8685.919921875,2005.239990234375,-400000.0625,-567.6300048828125,-400000.0625,7347.77978515625,-400000.0625
175.07221579551697,-400000.0625,8655.3095703125,1973.43994140625,-400000.0625,-602.25,-400000.0625,7320.5498046875,-400000.0625
175.09413719177246,-400000.0625,8650.0703125,1969.050048828125,-400000.0625,-605.3900146484375,-400000.0625,7316.8798828125,-400000.0625
175.11456990242004,-400000.0625,8676.009765625,1996.0400390625,-400000.0625,-587.3200073242188,-400000.0625,7343.2001953125,-400000.0625
175.15076637268066,-400000.0625,8698.23046875,2017.449951171875,-400000.0625,-573.9199829101562,-400000.0625,7359.89013671875,-400000.0625
175.17211532592773,-400000.0625,8686.5,2005.3399658203125,-400000.0625,-573.4000244140625,-400000.0625,7348.81982421875,-400000.0625
175.1983561515808,-400000.0625,8658.5498046875,1976.43994140625,-400000.0625,-594.22998046875,-400000.0625,7320.60009765625,-400000.0625
175.21987795829773,-400000.0625,8651.830078125,1968.9599609375,-400000.0625,-603.9600219726562,-400000.0625,7314.25,-400000.0625
175.25273871421814,-400000.0625,8673.240234375,1991.699951171875,-400000.0625,-576.5,-400000.0625,7337.669921875,-400000.0625
175.27431917190552,-400000.0625,8693.7001953125,2012.1099853515625,-400000.0625,-555.7999877929688,-400000.0625,7356.1201171875,-400000.0625
175.29243206977844,-400000.0625,8684.16015625,2001.6199951171875,-400000.0625,-571.3499755859375,-400000.0625,7346.2998046875,-400000.0625
175.31474208831787,-400000.0625,8659.7900390625,1976.1600341796875,-400000.0625,-594.1900024414062,-400000.0625,7324.169921875,-400000.0625
175.33480596542358,-400000.0625,8656.259765625,1973.25,-400000.0625,-598.6199951171875,-400000.0625,7321.8798828125,-400000.0625
175.3671362400055,-400000.0625,8680.73046875,1998.22998046875,-400000.0625,-587.5599975585938,-400000.0625,7343.52978515625,-400000.0625
175.39300537109375,-400000.0625,8703.2802734375,2020.7900390625,-400000.0625,-589.7000122070312,-400000.0625,7364.56005859375,-400000.0625
175.40999960899353,-400000.0625,8691.169921875,2005.9599609375,-400000.0625,-587.27001953125,-400000.0625,7351.2099609375,-400000.0625
175.43375849723816,-400000.0625,8659.0302734375,1974.489990234375,-400000.0625,-595.4299926757812,-400000.0625,7323.4599609375,-400000.0625
175.46213006973267,-400000.0625,8653.0703125,1968.77001953125,-400000.0625,-592.6599731445312,-400000.0625,7317.93017578125,-400000.0625
175.50359392166138,-400000.0625,8677.669921875,1992.699951171875,-400000.0625,-572.72998046875,-400000.0625,7340.580078125,-400000.0625
175.535724401474,-400000.0625,8698.7001953125,2015.300048828125,-400000.0625,-560.8099975585938,-400000.0625,7363.27001953125,-400000.0625
175.55534315109253,-400000.0625,8687.7802734375,2003.81005859375,-400000.0625,-568.2899780273438,-400000.0625,7346.72998046875,-400000.0625
175.57864689826965,-400000.0625,8659.1298828125,1973.300048828125,-400000.0625,-593.7100219726562,-400000.0625,7320.2099609375,-400000.0625
175.6072280406952,-400000.0625,8654.6904296875,1967.719970703125,-400000.0625,-607.1099853515625,-400000.0625,7313.77978515625,-400000.0625
175.6233832836151,-400000.0625,8680.76953125,1993.6099853515625,-400000.0625,-585.030029296875,-400000.0625,7339.2900390625,-400000.0625
175.64208459854126,-400000.0625,8699.7998046875,2015.1600341796875,-400000.0625,-571.3499755859375,-400000.0625,7362.080078125,-400000.0625
175.6578767299652,-400000.0625,8688.3603515625,2003.18994140625,-400000.0625,-585.4600219726562,-400000.0625,7348.35009765625,-400000.0625
175.67750096321106,-400000.0625,8659.8896484375,1972.2900390625,-400000.0625,-613.3099975585938,-400000.0625,7319.64013671875,-400000.0625
175.70165133476257,-400000.0625,8649.9697265625,1964.18994140625,-400000.0625,-612.6400146484375,-400000.0625,7314.97021484375,-400000.0625
175.74785566329956,-400000.0625,8673.240234375,1989.1700439453125,-400000.0625,-585.510009765625,-400000.0625,7339.56982421875,-400000.0625
175.76236629486084,-400000.0625,8695.75,2011.5899658203125,-400000.0625,-561.9000244140625,-400000.0625,7357.41015625,-400000.0625
175.78680229187012,-400000.0625,8681.2998046875,1997.9000244140625,-400000.0625,-567.8699951171875,-400000.0625,7346.06005859375,-400000.0625
175.80381608009338,-400000.0625,8654.5498046875,1970.239990234375,-400000.0625,-596.8599853515625,-400000.0625,7318.8798828125,-400000.0625
175.8344910144806,-400000.0625,8650.73046875,1967.239990234375,-400000.0625,-610.2999877929688,-400000.0625,7314.2998046875,-400000.0625
175.85315799713135,-400000.0625,8676.33984375,1995.9000244140625,-400000.0625,-590.52001953125,-400000.0625,7340.52978515625,-400000.0625
175.88561868667603,-400000.0625,8704.1396484375,2021.1199951171875,-400000.0625,-567.5800170898438,-400000.0625,7360.02978515625,-400000.0625
175.90684509277344,-400000.0625,8689.9296875,2004.3399658203125,-400000.0625,-577.02001953125,-400000.0625,7348.490234375,-400000.0625
175.950945854187,-400000.0625,8659.75,1973.9200439453125,-400000.0625,-600.77001953125,-400000.0625,7321.22021484375,-400000.0625
175.9689016342163,-400000.0625,8659.7001953125,1972.9599609375,-400000.0625,-596.3800048828125,-400000.0625,7317.35009765625,-400000.0625
175.98358964920044,-400000.0625,8679.8203125,1993.1300048828125,-400000.0625,-573.489990234375,-400000.0625,7336.56982421875,-400000.0625
175.99640130996704,-400000.0625,8697.1298828125,2011.72998046875,-400000.0625,-559.52001953125,-400000.0625,7354.64013671875,-400000.0625
176.01415181159973,-400000.0625,8685.4501953125,2000.050048828125,-400000.0625,-579.0700073242188,-400000.0625,7337.240234375,-400000.0625
176.04962253570557,-400000.0625,8655.8798828125,1970.77001953125,-400000.0625,-603.6300048828125,-400000.0625,7313.8701171875,-400000.0625
176.06692719459534,-400000.0625,8652.9697265625,1968.050048828125,-400000.0625,-601.9600219726562,-400000.0625,7314.06005859375,-400000.0625
176.08254027366638,-400000.0625,8682.009765625,1995.280029296875,-400000.0625,-582.97998046875,-400000.0625,7337.85986328125,-400000.0625
176.09650182724,-400000.0625,8701.66015625,2015.02001953125,-400000.0625,-567.25,-400000.0625,7353.35009765625,-400000.0625
176.11157417297363,-400000.0625,8685.01953125,2000.8599853515625,-400000.0625,-570.1500244140625,-400000.0625,7336.56982421875,-400000.0625
176.12818312644958,-400000.0625,8658.7900390625,1973.300048828125,-400000.0625,-594.3300170898438,-400000.0625,7311.77001953125,-400000.0625
176.17178297042847,-400000.0625,8653.1201171875,1966.760009765625,-400000.0625,-608.4000244140625,-400000.0625,7306.52978515625,-400000.0625
176.19672226905823,-400000.0625,8675.9599609375,1993.93994140625,-400000.0625,-583.3099975585938,-400000.0625,7328.7998046875,-400000.0625
176.21598267555237,-400000.0625,8697.4599609375,2013.5899658203125,-400000.0625,-561.52001953125,-400000.0625,7349.830078125,-400000.0625
176.23347163200378,-400000.0625,8684.830078125,2000.52001953125,-400000.0625,-576.1599731445312,-400000.0625,7339.72021484375,-400000.0625
176.26862597465515,-400000.0625,8655.599609375,1967.6700439453125,-400000.0625,-602.5800170898438,-400000.0625,7312.72998046875,-400000.0625
176.28423762321472,-400000.0625,8646.7802734375,1960.469970703125,-400000.0625,-601.1500244140625,-400000.0625,7305.18994140625,-400000.0625
176.29830503463745,-400000.0625,8675.2900390625,1990.3199462890625,-400000.0625,-575.6400146484375,-400000.0625,7330.27978515625,-400000.0625
176.31111121177673,-400000.0625,8696.5595703125,2013.25,-400000.0625,-561.6699829101562,-400000.0625,7354.259765625,-400000.0625
176.32605862617493,-400000.0625,8682.490234375,2000.280029296875,-400000.0625,-575.72998046875,-400000.0625,7343.580078125,-400000.0625
176.343195438385,-400000.0625,8654.98046875,1972.6300048828125,-400000.0625,-605.5399780273438,-400000.0625,7316.16015625,-400000.0625
176.3709306716919,-400000.0625,8646.919921875,1965.949951171875,-400000.0625,-618.27001953125,-400000.0625,7311.919921875,-400000.0625
176.3899323940277,-400000.0625,8673.759765625,1992.8499755859375,-400000.0625,-591.4199829101562,-400000.0625,7331.89990234375,-400000.0625
176.40568256378174,-400000.0625,8698.7998046875,2015.260009765625,-400000.0625,-562.8599853515625,-400000.0625,7356.64013671875,-400000.0625
176.4191291332245,-400000.0625,8684.919921875,2004.0999755859375,-400000.0625,-569.9600219726562,-400000.0625,7344.2900390625,-400000.0625
176.441260099411,-400000.0625,8654.01953125,1973.25,-400000.0625,-595.6699829101562,-400000.0625,7307.669921875,-400000.0625
176.46714782714844,-400000.0625,8645.580078125,1966.1400146484375,-400000.0625,-601.6300048828125,-400000.0625,7304.81005859375,-400000.0625
176.51731634140015,-400000.0625,8673.8095703125,1994.3199462890625,-400000.0625,-585.6500244140625,-400000.0625,7329.60986328125,-400000.0625
176.53637719154358,-400000.0625,8695.75,2012.8699951171875,-400000.0625,-576.1099853515625,-400000.0625,7350.2099609375,-400000.0625
176.55692219734192,-400000.0625,8682.7802734375,2000.949951171875,-400000.0625,-577.780029296875,-400000.0625,7344.91015625,-400000.0625
176.5704526901245,-400000.0625,8657.1201171875,1972.719970703125,-400000.0625,-595.6699829101562,-400000.0625,7315.35009765625,-400000.0625
176.60723853111267,-400000.0625,8654.740234375,1969.719970703125,-400000.0625,-598.1400146484375,-400000.0625,7312.35009765625,-400000.0625
176.62239003181458,-400000.0625,8681.580078125,1996.800048828125,-400000.0625,-576.6900024414062,-400000.0625,7338.2900390625,-400000.0625
176.6414611339569,-400000.0625,8703.1904296875,2019.550048828125,-400000.0625,-558.9500122070312,-400000.0625,7356.740234375,-400000.0625
176.65536665916443,-400000.0625,8688.400390625,2004.719970703125,-400000.0625,-569.9600219726562,-400000.0625,7346.43994140625,-400000.0625
176.66991543769836,-400000.0625,8657.4599609375,1970.010009765625,-400000.0625,-603.1500244140625,-400000.0625,7317.2099609375,-400000.0625
176.69006824493408,-400000.0625,8652.9697265625,1964.0,-400000.0625,-605.77001953125,-400000.0625,7312.490234375,-400000.0625
176.71818327903748,-400000.0625,8680.8203125,1992.0400390625,-400000.0625,-578.4000244140625,-400000.0625,7334.66015625,-400000.0625
176.7370002269745,-400000.0625,8701.1298828125,2014.5400390625,-400000.0625,-559.52001953125,-400000.0625,7354.93017578125,-400000.0625
176.75463128089905,-400000.0625,8686.1103515625,1999.0,-400000.0625,-581.1699829101562,-400000.0625,7338.91015625,-400000.0625
176.7688238620758,-400000.0625,8653.740234375,1968.9599609375,-400000.0625,-609.25,-400000.0625,7307.009765625,-400000.0625
176.7840554714203,-400000.0625,8649.5400390625,1964.760009765625,-400000.0625,-609.02001953125,-400000.0625,7303.43017578125,-400000.0625
176.7995593547821,-400000.0625,8678.8701171875,1992.3199462890625,-400000.0625,-588.1300048828125,-400000.0625,7334.85009765625,-400000.0625
176.8285322189331,-400000.0625,8699.1796875,2015.1600341796875,-400000.0625,-558.6599731445312,-400000.0625,7358.60009765625,-400000.0625
176.84652280807495,-400000.0625,8687.400390625,2004.2900390625,-400000.0625,-569.77001953125,-400000.0625,7346.5400390625,-400000.0625
176.86221504211426,-400000.0625,8659.7900390625,1971.3900146484375,-400000.0625,-603.5800170898438,-400000.0625,7319.169921875,-400000.0625
176.8775691986084,-400000.0625,8653.98046875,1964.949951171875,-400000.0625,-602.4400024414062,-400000.0625,7312.39013671875,-400000.0625
176.9070656299591,-400000.0625,8680.8203125,1994.989990234375,-400000.0625,-581.260009765625,-400000.0625,7332.14013671875,-400000.0625
176.9412591457367,-400000.0625,8699.9404296875,2013.1099853515625,-400000.0625,-564.3400268554688,-400000.0625,7352.8798828125,-400000.0625
176.96716928482056,-400000.0625,8681.490234375,2000.47998046875,-400000.0625,-576.4500122070312,-400000.0625,7342.47998046875,-400000.0625
176.98413014411926,-400000.0625,8659.509765625,1974.6300048828125,-400000.0625,-608.780029296875,-400000.0625,7317.259765625,-400000.0625
177.0003366470337,-400000.0625,8657.740234375,1968.719970703125,-400000.0625,-611.0700073242188,-400000.0625,7319.58984375,-400000.0625
177.01955008506775,-400000.0625,8677.3896484375,1987.9300537109375,-400000.0625,-583.5999755859375,-400000.0625,7342.77001953125,-400000.0625
177.0531804561615,-400000.0625,8697.7001953125,2011.6300048828125,-400000.0625,-565.9600219726562,-400000.0625,7355.740234375,-400000.0625
177.0722918510437,-400000.0625,8689.169921875,2000.52001953125,-400000.0625,-578.739990234375,-400000.0625,7346.2998046875,-400000.0625
177.09568285942078,-400000.0625,8656.41015625,1965.6700439453125,-400000.0625,-596.47998046875,-400000.0625,7319.39990234375,-400000.0625
177.11635851860046,-400000.0625,8644.9599609375,1959.7099609375,-400000.0625,-593.1400146484375,-400000.0625,7309.68017578125,-400000.0625
177.1335289478302,-400000.0625,8675.7197265625,1989.97998046875,-400000.0625,-579.0700073242188,-400000.0625,7331.990234375,-400000.0625
177.17208075523376,-400000.0625,8701.4697265625,2011.25,-400000.0625,-565.6199951171875,-400000.0625,7349.5400390625,-400000.0625
177.186674118042,-400000.0625,8687.2099609375,1998.949951171875,-400000.0625,-580.8800048828125,-400000.0625,7339.6201171875,-400000.0625
177.20307230949402,-400000.0625,8655.9296875,1968.1500244140625,-400000.0625,-612.780029296875,-400000.0625,7315.77978515625,-400000.0625
177.2218906879425,-400000.0625,8651.7802734375,1962.7099609375,-400000.0625,-610.260009765625,-400000.0625,7313.490234375,-400000.0625
177.23677015304565,-400000.0625,8677.0498046875,1991.800048828125,-400000.0625,-583.4099731445312,-400000.0625,7335.0400390625,-400000.0625
177.2678563594818,-400000.0625,8698.080078125,2015.4000244140625,-400000.0625,-567.47998046875,-400000.0625,7357.740234375,-400000.0625
177.2909414768219,-400000.0625,8684.1103515625,1999.0,-400000.0625,-583.4600219726562,-400000.0625,7344.06005859375,-400000.0625
177.30904126167297,-400000.0625,8658.1201171875,1969.719970703125,-400000.0625,-606.4400024414062,-400000.0625,7316.68994140625,-400000.0625
177.32286095619202,-400000.0625,8652.830078125,1965.47998046875,-400000.0625,-606.72998046875,-400000.0625,7314.25,-400000.0625
177.34374046325684,-400000.0625,8676.76953125,1991.219970703125,-400000.0625,-581.7899780273438,-400000.0625,7336.18994140625,-400000.0625
177.37574315071106,-400000.0625,8700.75,2014.6800537109375,-400000.0625,-563.0,-400000.0625,7354.06982421875,-400000.0625
177.39777493476868,-400000.0625,8685.830078125,1998.9000244140625,-400000.0625,-578.4500122070312,-400000.0625,7341.47998046875,-400000.0625
177.4163613319397,-400000.0625,8656.2197265625,1967.239990234375,-400000.0625,-611.1099853515625,-400000.0625,7311.77001953125,-400000.0625
177.43844723701477,-400000.0625,8653.7802734375,1966.760009765625,-400000.0625,-613.5,-400000.0625,7310.43994140625,-400000.0625
177.4531605243683,-400000.0625,8682.919921875,1997.52001953125,-400000.0625,-588.9400024414062,-400000.0625,7335.81005859375,-400000.0625
177.48328375816345,-400000.0625,8701.4697265625,2020.6500244140625,-400000.0625,-564.530029296875,-400000.0625,7354.4501953125,-400000.0625
177.4988934993744,-400000.0625,8687.1201171875,2007.5799560546875,-400000.0625,-572.25,-400000.0625,7343.8701171875,-400000.0625
177.51167941093445,-400000.0625,8660.599609375,1977.1099853515625,-400000.0625,-598.8099975585938,-400000.0625,7319.2099609375,-400000.0625
177.532124042511,-400000.0625,8660.75,1974.3900146484375,-400000.0625,-610.0700073242188,-400000.0625,7318.259765625,-400000.0625
177.54679465293884,-400000.0625,8686.16015625,1999.81005859375,-400000.0625,-590.8499755859375,-400000.0625,7341.2001953125,-400000.0625
177.5610933303833,-400000.0625,8707.240234375,2022.9300537109375,-400000.0625,-566.1500244140625,-400000.0625,7364.22998046875,-400000.0625
177.59508395195007,-400000.0625,8691.5,2006.5799560546875,-400000.0625,-576.1599731445312,-400000.0625,7352.64013671875,-400000.0625
177.61322474479675,-400000.0625,8661.1298828125,1975.6800537109375,-400000.0625,-601.8200073242188,-400000.0625,7326.080078125,-400000.0625
177.6298487186432,-400000.0625,8655.9296875,1971.010009765625,-400000.0625,-601.3900146484375,-400000.0625,7321.8798828125,-400000.0625
177.64791703224182,-400000.0625,8677.91015625,1993.1800537109375,-400000.0625,-576.5399780273438,-400000.0625,7346.10986328125,-400000.0625
177.66786193847656,-400000.0625,8702.330078125,2018.3599853515625,-400000.0625,-561.0,-400000.0625,7366.7998046875,-400000.0625
177.69760823249817,-400000.0625,8692.41015625,2006.239990234375,-400000.0625,-576.4500122070312,-400000.0625,7353.97021484375,-400000.0625
177.71504950523376,-400000.0625,8660.599609375,1974.77001953125,-400000.0625,-604.9600219726562,-400000.0625,7327.3701171875,-400000.0625
177.73740339279175,-400000.0625,8654.3095703125,1971.719970703125,-400000.0625,-609.02001953125,-400000.0625,7325.31982421875,-400000.0625
177.75654792785645,-400000.0625,8678.5302734375,1995.3699951171875,-400000.0625,-588.7000122070312,-400000.0625,7346.33984375,-400000.0625
177.77134609222412,-400000.0625,8692.8896484375,2012.6800537109375,-400000.0625,-568.3900146484375,-400000.0625,7363.27001953125,-400000.0625
177.80202555656433,-400000.0625,8681.16015625,2002.239990234375,-400000.0625,-583.3599853515625,-400000.0625,7350.16015625,-400000.0625
177.82326126098633,-400000.0625,8652.58984375,1971.1500244140625,-400000.0625,-614.1199951171875,-400000.0625,7321.259765625,-400000.0625
177.8392252922058,-400000.0625,8648.73046875,1965.3299560546875,-400000.0625,-601.8599853515625,-400000.0625,7316.259765625,-400000.0625
177.85882687568665,-400000.0625,8678.6298828125,1993.469970703125,-400000.0625,-577.3499755859375,-400000.0625,7338.330078125,-400000.0625
177.8720784187317,-400000.0625,8696.1796875,2014.449951171875,-400000.0625,-570.2000122070312,-400000.0625,7358.4599609375,-400000.0625
177.9346625804901,-400000.0625,8595.66015625,1910.72998046875,-400000.0625,-661.280029296875,-400000.0625,7338.81005859375,-400000.0625
177.9347710609436,-400000.0625,8565.8095703125,1878.7900390625,-400000.0625,-689.8400268554688,-400000.0625,7311.39013671875,-400000.0625
177.93478989601135,-400000.0625,8549.8798828125,1865.4300537109375,-400000.0625,-701.3800048828125,-400000.0625,7297.47021484375,-400000.0625
177.9348030090332,-400000.0625,8573.9599609375,1889.56005859375,-400000.0625,-677.6799926757812,-400000.0625,7315.68017578125,-400000.0625
177.93481922149658,-400000.0625,8601.1396484375,1914.8800048828125,-400000.0625,-653.9299926757812,-400000.0625,7337.6201171875,-400000.0625
177.9348349571228,-400000.0625,8589.3203125,1902.530029296875,-400000.0625,-666.1400146484375,-400000.0625,7333.66015625,-400000.0625
177.93484807014465,-400000.0625,8557.23046875,1870.199951171875,-400000.0625,-701.280029296875,-400000.0625,7303.85986328125,-400000.0625
177.93486261367798,-400000.0625,8545.58984375,1858.469970703125,-400000.0625,-703.47998046875,-400000.0625,7290.31982421875,-400000.0625
177.93487882614136,-400000.0625,8569.6201171875,1882.9300537109375,-400000.0625,-683.6900024414062,-400000.0625,7310.81982421875,-400000.0625
177.93489241600037,-400000.0625,8595.2802734375,1910.969970703125,-400000.0625,-665.7100219726562,-400000.0625,7337.7099609375,-400000.0625
177.93490433692932,-400000.0625,8588.7001953125,1901.9599609375,-400000.0625,-672.9099731445312,-400000.0625,7333.3701171875,-400000.0625
177.93492197990417,-400000.0625,8557.7001953125,1872.2099609375,-400000.0625,-691.7000122070312,-400000.0625,7305.14990234375,-400000.0625
177.9351363182068,-400000.0625,8549.01953125,1862.719970703125,-400000.0625,-695.469970703125,-400000.0625,7294.509765625,-400000.0625
177.9351942539215,-400000.0625,8560.7998046875,1888.56005859375,-400000.0625,-677.780029296875,-400000.0625,7335.14013671875,-400000.0625
177.9352216720581,-400000.0625,8584.8798828125,1913.550048828125,-400000.0625,-653.97998046875,-400000.0625,7359.7900390625,-400000.0625
177.93524813652039,-400000.0625,8582.6904296875,1910.5400390625,-400000.0625,-654.5499877929688,-400000.0625,7356.68994140625,-400000.0625
177.93706727027893,-400000.0625,8552.7900390625,1879.1199951171875,-400000.0625,-684.4500122070312,-400000.0625,7327.75,-400000.0625
177.9371280670166,-400000.0625,8535.150390625,1863.1500244140625,-400000.0625,-700.1900024414062,-400000.0625,7311.25,-400000.0625
177.93716263771057,-400000.0625,8554.169921875,1882.4599609375,-400000.0625,-683.02001953125,-400000.0625,7327.7998046875,-400000.0625
177.93719148635864,-400000.0625,8582.740234375,1910.02001953125,-400000.0625,-658.27001953125,-400000.0625,7354.5498046875,-400000.0625
177.93721675872803,-400000.0625,8576.73046875,1907.06005859375,-400000.0625,-661.3300170898438,-400000.0625,7354.259765625,-400000.0625
177.9372434616089,-400000.0625,8549.01953125,1876.8800048828125,-400000.0625,-684.97998046875,-400000.0625,7327.4599609375,-400000.0625
177.93726897239685,-400000.0625,8538.150390625,1861.8599853515625,-400000.0625,-697.1400146484375,-400000.0625,7314.10986328125,-400000.0625
177.93729448318481,-400000.0625,8555.7900390625,1881.1700439453125,-400000.0625,-683.5,-400000.0625,7333.85009765625,-400000.0625
177.93731951713562,-400000.0625,8580.6396484375,1906.8199462890625,-400000.0625,-666.52001953125,-400000.0625,7356.31005859375,-400000.0625
177.93734455108643,-400000.0625,8577.6298828125,1903.489990234375,-400000.0625,-674.2000122070312,-400000.0625,7351.16015625,-400000.0625
177.93736934661865,-400000.0625,8546.400390625,1875.260009765625,-400000.0625,-695.8499755859375,-400000.0625,7324.89013671875,-400000.0625
177.93739438056946,-400000.0625,8531.6201171875,1859.8599853515625,-400000.0625,-697.7999877929688,-400000.0625,7315.10986328125,-400000.0625
177.93741822242737,-400000.0625,8555.2197265625,1881.1700439453125,-400000.0625,-673.3900146484375,-400000.0625,7331.419921875,-400000.0625
177.93744349479675,-400000.0625,8582.0703125,1909.0699462890625,-400000.0625,-658.510009765625,-400000.0625,7352.31005859375,-400000.0625
177.93746900558472,-400000.0625,8575.73046875,1903.8699951171875,-400000.0625,-667.1400146484375,-400000.0625,7352.8798828125,-400000.0625
177.9374942779541,-400000.0625,8546.830078125,1873.969970703125,-400000.0625,-694.8900146484375,-400000.0625,7327.31982421875,-400000.0625
177.9375195503235,-400000.0625,8533.4296875,1860.4300537109375,-400000.0625,-708.77001953125,-400000.0625,7314.64013671875,-400000.0625
177.9375443458557,-400000.0625,8550.740234375,1882.1199951171875,-400000.0625,-685.6400146484375,-400000.0625,7329.27001953125,-400000.0625
177.9375696182251,-400000.0625,8576.7802734375,1907.1600341796875,-400000.0625,-658.7000122070312,-400000.0625,7355.68994140625,-400000.0625
177.93759417533875,-400000.0625,8578.25,1906.8199462890625,-400000.0625,-660.9400024414062,-400000.0625,7355.97998046875,-400000.0625
177.93761920928955,-400000.0625,8550.599609375,1877.6400146484375,-400000.0625,-685.97998046875,-400000.0625,7327.75,-400000.0625
177.9376449584961,-400000.0625,8532.6201171875,1861.719970703125,-400000.0625,-698.4199829101562,-400000.0625,7308.43994140625,-400000.0625
177.93767094612122,-400000.0625,8551.0302734375,1879.1700439453125,-400000.0625,-688.27001953125,-400000.0625,7329.1298828125,-400000.0625
177.93769574165344,-400000.0625,8578.73046875,1907.02001953125,-400000.0625,-670.8599853515625,-400000.0625,7354.2099609375,-400000.0625
177.93772101402283,-400000.0625,8579.58984375,1906.25,-400000.0625,-670.530029296875,-400000.0625,7353.259765625,-400000.0625
177.93774604797363,-400000.0625,8551.0703125,1876.969970703125,-400000.0625,-685.1699829101562,-400000.0625,7329.75,-400000.0625
177.93777179718018,-400000.0625,8541.009765625,1865.2900390625,-400000.0625,-689.7000122070312,-400000.0625,7316.5400390625,-400000.0625
177.93780755996704,-400000.0625,8559.080078125,1884.27001953125,-400000.0625,-680.6400146484375,-400000.0625,7333.9501953125,-400000.0625
177.93783259391785,-400000.0625,8582.740234375,1908.6800537109375,-400000.0625,-660.469970703125,-400000.0625,7359.740234375,-400000.0625
177.93785786628723,-400000.0625,8578.919921875,1906.43994140625,-400000.0625,-660.22998046875,-400000.0625,7357.64990234375,-400000.0625
177.93788981437683,-400000.0625,8553.9404296875,1878.2099609375,-400000.0625,-689.7899780273438,-400000.0625,7331.1298828125,-400000.0625
177.93791675567627,-400000.0625,8539.8701171875,1864.050048828125,-400000.0625,-704.0,-400000.0625,7317.830078125,-400000.0625
177.93794178962708,-400000.0625,8551.650390625,1883.4100341796875,-400000.0625,-686.3099975585938,-400000.0625,7336.669921875,-400000.0625
177.93796801567078,-400000.0625,8566.91015625,1907.5899658203125,-400000.0625,-673.2000122070312,-400000.0625,7358.740234375,-400000.0625
177.93799328804016,-400000.0625,8577.1103515625,1913.97998046875,-400000.0625,-670.2899780273438,-400000.0625,7352.10986328125,-400000.0625
177.93801856040955,-400000.0625,8576.2998046875,1896.4300537109375,-400000.0625,-672.2899780273438,-400000.0625,7320.1201171875,-400000.0625
177.93804264068604,-400000.0625,8564.4296875,1882.6500244140625,-400000.0625,-677.6799926757812,-400000.0625,7297.08984375,-400000.0625
177.93806672096252,-400000.0625,8575.8701171875,1903.530029296875,-400000.0625,-669.8099975585938,-400000.0625,7309.06005859375,-400000.0625
177.93809247016907,-400000.0625,8606.099609375,1937.2900390625,-400000.0625,-645.4500122070312,-400000.0625,7326.02978515625,-400000.0625
177.93811917304993,-400000.0625,8614.58984375,1940.5400390625,-400000.0625,-643.2100219726562,-400000.0625,7311.919921875,-400000.0625
177.93814420700073,-400000.0625,8587.080078125,1912.550048828125,-400000.0625,-665.1900024414062,-400000.0625,7276.81982421875,-400000.0625
177.9381697177887,-400000.0625,8569.3798828125,1901.25,-400000.0625,-680.260009765625,-400000.0625,7258.3701171875,-400000.0625
177.93819522857666,-400000.0625,8594.419921875,1928.52001953125,-400000.0625,-660.3200073242188,-400000.0625,7268.85986328125,-400000.0625
177.9382209777832,-400000.0625,8617.0703125,1956.989990234375,-400000.0625,-638.0599975585938,-400000.0625,7289.169921875,-400000.0625
177.93824553489685,-400000.0625,8613.6796875,1955.989990234375,-400000.0625,-639.8699951171875,-400000.0625,7285.02001953125,-400000.0625
177.93826961517334,-400000.0625,8582.8798828125,1924.989990234375,-400000.0625,-662.9000244140625,-400000.0625,7257.3701171875,-400000.0625
177.9382951259613,-400000.0625,8561.330078125,1907.4000244140625,-400000.0625,-677.780029296875,-400000.0625,7244.77978515625,-400000.0625
177.938321352005,-400000.0625,8583.3603515625,1928.0,-400000.0625,-661.75,-400000.0625,7263.60986328125,-400000.0625
177.9383475780487,-400000.0625,8612.349609375,1958.6600341796875,-400000.0625,-635.1500244140625,-400000.0625,7283.830078125,-400000.0625
177.938374042511,-400000.0625,8602.2900390625,1955.4100341796875,-400000.0625,-643.3499755859375,-400000.0625,7280.2998046875,-400000.0625
177.93839979171753,-400000.0625,8573.4404296875,1924.9000244140625,-400000.0625,-669.530029296875,-400000.0625,7254.35986328125,-400000.0625
177.93842601776123,-400000.0625,8558.990234375,1908.969970703125,-400000.0625,-680.72998046875,-400000.0625,7240.2001953125,-400000.0625
177.93845081329346,-400000.0625,8577.16015625,1928.949951171875,-400000.0625,-655.1300048828125,-400000.0625,7257.31982421875,-400000.0625
177.9384777545929,-400000.0625,8606.240234375,1961.0400390625,-400000.0625,-630.9500122070312,-400000.0625,7280.5400390625,-400000.0625
177.93850374221802,-400000.0625,8603.099609375,1958.469970703125,-400000.0625,-631.760009765625,-400000.0625,7280.39990234375,-400000.0625
177.93853187561035,-400000.0625,8570.3896484375,1926.3699951171875,-400000.0625,-653.510009765625,-400000.0625,7251.1201171875,-400000.0625
177.93855619430542,-400000.0625,8554.7001953125,1912.02001953125,-400000.0625,-666.8599853515625,-400000.0625,7236.580078125,-400000.0625
177.93858003616333,-400000.0625,8575.0595703125,1932.18994140625,-400000.0625,-652.1699829101562,-400000.0625,7252.259765625,-400000.0625
177.93860292434692,-400000.0625,8605.33984375,1960.989990234375,-400000.0625,-628.1400146484375,-400000.0625,7276.68017578125,-400000.0625
177.93862581253052,-400000.0625,8599.900390625,1957.0799560546875,-400000.0625,-631.3300170898438,-400000.0625,7279.06005859375,-400000.0625
177.93864822387695,-400000.0625,8569.9599609375,1928.8499755859375,-400000.0625,-665.4299926757812,-400000.0625,7250.4501953125,-400000.0625
177.93867206573486,-400000.0625,8556.990234375,1912.97998046875,-400000.0625,-678.6300048828125,-400000.0625,7238.580078125,-400000.0625
177.93869495391846,-400000.0625,8573.4404296875,1930.4300537109375,-400000.0625,-654.4600219726562,-400000.0625,7257.7998046875,-400000.0625
177.93872547149658,-400000.0625,8601.900390625,1959.75,-400000.0625,-627.8499755859375,-400000.0625,7282.64013671875,-400000.0625
177.93874764442444,-400000.0625,8597.0400390625,1957.510009765625,-400000.0625,-632.8099975585938,-400000.0625,7279.25,-400000.0625
177.93876957893372,-400000.0625,8570.150390625,1930.239990234375,-400000.0625,-659.4199829101562,-400000.0625,7252.02978515625,-400000.0625
177.93879103660583,-400000.0625,8553.41015625,1912.5,-400000.0625,-677.3900146484375,-400000.0625,7237.39013671875,-400000.0625
177.93881273269653,-400000.0625,8570.9599609375,1932.18994140625,-400000.0625,-664.0900268554688,-400000.0625,7258.56005859375,-400000.0625
177.9388346672058,-400000.0625,8605.2001953125,1963.22998046875,-400000.0625,-638.4400024414062,-400000.0625,7283.830078125,-400000.0625
177.93885803222656,-400000.0625,8605.2001953125,1961.3699951171875,-400000.0625,-639.3900146484375,-400000.0625,7283.740234375,-400000.0625
177.93887948989868,-400000.0625,8575.580078125,1934.1500244140625,-400000.0625,-658.7000122070312,-400000.0625,7259.990234375,-400000.0625
177.9389009475708,-400000.0625,8560.1298828125,1919.3199462890625,-400000.0625,-666.47998046875,-400000.0625,7241.77001953125,-400000.0625
177.93892288208008,-400000.0625,8576.4404296875,1939.010009765625,-400000.0625,-656.27001953125,-400000.0625,7260.08984375,-400000.0625
177.93894505500793,-400000.0625,8602.1396484375,1967.5699462890625,-400000.0625,-638.8699951171875,-400000.0625,7288.93017578125,-400000.0625
177.93896770477295,-400000.0625,8601.2900390625,1964.7099609375,-400000.0625,-643.0599975585938,-400000.0625,7285.169921875,-400000.0625
177.93899035453796,-400000.0625,8569.669921875,1937.0999755859375,-400000.0625,-659.5599975585938,-400000.0625,7256.83984375,-400000.0625
177.93901324272156,-400000.0625,8557.26953125,1920.8900146484375,-400000.0625,-667.9099731445312,-400000.0625,7241.14990234375,-400000.0625
177.9390366077423,-400000.0625,8577.009765625,1938.9200439453125,-400000.0625,-652.5499877929688,-400000.0625,7259.18017578125,-400000.0625
177.93905997276306,-400000.0625,8599.4697265625,1966.81005859375,-400000.0625,-632.9500122070312,-400000.0625,7285.1201171875,-400000.0625
177.9390857219696,-400000.0625,8598.8095703125,1965.6199951171875,-400000.0625,-633.8099975585938,-400000.0625,7285.35986328125,-400000.0625
177.93910932540894,-400000.0625,8570.91015625,1934.239990234375,-400000.0625,-666.1900024414062,-400000.0625,7258.93994140625,-400000.0625
177.93913316726685,-400000.0625,8553.9404296875,1916.9300537109375,-400000.0625,-679.1099853515625,-400000.0625,7247.259765625,-400000.0625
177.9391655921936,-400000.0625,8577.73046875,1939.9200439453125,-400000.0625,-657.5599975585938,-400000.0625,7265.14013671875,-400000.0625
177.939190864563,-400000.0625,8603.5302734375,1964.0400390625,-400000.0625,-638.3400268554688,-400000.0625,7289.41015625,-400000.0625
177.93921399116516,-400000.0625,8594.1796875,1959.989990234375,-400000.0625,-645.1099853515625,-400000.0625,7286.5498046875,-400000.0625
177.93924474716187,-400000.0625,8567.5703125,1932.9100341796875,-400000.0625,-674.0999755859375,-400000.0625,7260.93994140625,-400000.0625
177.93927264213562,-400000.0625,8553.41015625,1915.260009765625,-400000.0625,-686.739990234375,-400000.0625,7248.77978515625,-400000.0625
177.93929767608643,-400000.0625,8571.150390625,1934.719970703125,-400000.0625,-654.4099731445312,-400000.0625,7263.47021484375,-400000.0625
177.93932366371155,-400000.0625,8598.1396484375,1963.949951171875,-400000.0625,-627.3300170898438,-400000.0625,7287.5498046875,-400000.0625
177.93934965133667,-400000.0625,8597.6103515625,1964.3299560546875,-400000.0625,-631.0499877929688,-400000.0625,7283.5498046875,-400000.0625
177.9393756389618,-400000.0625,8571.240234375,1937.25,-400000.0625,-656.6500244140625,-400000.0625,7260.22998046875,-400000.0625
177.9394016265869,-400000.0625,8556.990234375,1925.1300048828125,-400000.0625,-670.2899780273438,-400000.0625,7245.259765625,-400000.0625
177.93942713737488,-400000.0625,8567.91015625,1945.2099609375,-400000.0625,-650.219970703125,-400000.0625,7262.60986328125,-400000.0625
177.939448595047,-400000.0625,8591.990234375,1966.0,-400000.0625,-635.9099731445312,-400000.0625,7299.3798828125,-400000.0625
177.93964457511902,-400000.0625,8595.900390625,1953.27001953125,-400000.0625,-647.739990234375,-400000.0625,7307.669921875,-400000.0625
177.93971037864685,-400000.0625,8557.23046875,1896.6700439453125,-400000.0625,-671.239990234375,-400000.0625,7364.93994140625,-400000.0625
177.96670722961426,-400000.0625,8417.509765625,1767.300048828125,-400000.0625,-746.2999877929688,-400000.0625,7267.2900390625,-400000.0625
177.98942828178406,-400000.0625,8229.2099609375,1548.0,-400000.0625,-839.9000244140625,-400000.0625,7631.68017578125,-400000.0625
178.04262256622314,-400000.0625,8233.3603515625,1494.31005859375,-400000.0625,-929.4000244140625,-400000.0625,7575.3701171875,-400000.0625
178.10716271400452,-400000.0625,8310.1796875,1814.219970703125,-400000.0625,-842.3800048828125,-400000.0625,6985.56982421875,-400000.0625
178.1674780845642,-400000.0625,8329.6796875,1828.719970703125,-400000.0625,-821.5,-400000.0625,6996.8701171875,-400000.0625
178.33282661437988,-400000.0625,8345.83984375,1838.3499755859375,-400000.0625,-822.8300170898438,-400000.0625,7066.5400390625,-400000.0625
178.428147315979,-400000.0625,8292.76953125,1793.050048828125,-400000.0625,-853.010009765625,-400000.0625,7017.330078125,-400000.0625
178.4894917011261,-400000.0625,8292.8701171875,1795.77001953125,-400000.0625,-840.760009765625,-400000.0625,7027.43994140625,-400000.0625
178.6204330921173,-400000.0625,8354.240234375,1882.5999755859375,-400000.0625,-794.4600219726562,-400000.0625,7015.27978515625,-400000.0625
178.71788907051086,-400000.0625,8324.7197265625,1858.280029296875,-400000.0625,-803.7999877929688,-400000.0625,6997.10986328125,-400000.0625
178.75196266174316,-400000.0625,8328.580078125,1860.81005859375,-400000.0625,-793.97998046875,-400000.0625,6995.77001953125,-400000.0625
178.87936878204346,-400000.0625,8314.6103515625,1867.5799560546875,-400000.0625,-800.1799926757812,-400000.0625,7006.83984375,-400000.0625
179.00835466384888,-400000.0625,8251.91015625,1787.81005859375,-400000.0625,-841.6699829101562,-400000.0625,7042.60009765625,-400000.0625
179.0999071598053,-400000.0625,8229.01953125,1766.6800537109375,-400000.0625,-854.4400024414062,-400000.0625,7027.25,-400000.0625
179.19333696365356,-400000.0625,8262.5400390625,1803.449951171875,-400000.0625,-814.8200073242188,-400000.0625,7055.759765625,-400000.0625
179.2697126865387,-400000.0625,8285.9501953125,1824.050048828125,-400000.0625,-817.72998046875,-400000.0625,7044.7900390625,-400000.0625
179.33142161369324,-400000.0625,8257.76953125,1804.3499755859375,-400000.0625,-826.5499877929688,-400000.0625,7016.85009765625,-400000.0625
179.43710851669312,-400000.0625,8234.6904296875,1778.56005859375,-400000.0625,-830.0800170898438,-400000.0625,6997.68017578125,-400000.0625
179.4956569671631,-400000.0625,8255.5302734375,1796.719970703125,-400000.0625,-833.6099853515625,-400000.0625,6994.68017578125,-400000.0625
179.57703971862793,-400000.0625,8305.650390625,1839.3499755859375,-400000.0625,-799.5599975585938,-400000.0625,7028.81982421875,-400000.0625
179.63991403579712,-400000.0625,8281.66015625,1805.31005859375,-400000.0625,-806.1900024414062,-400000.0625,7011.02978515625,-400000.0625
179.7185742855072,-400000.0625,8264.919921875,1785.989990234375,-400000.0625,-816.3499755859375,-400000.0625,6980.85009765625,-400000.0625
179.80341410636902,-400000.0625,8275.650390625,1799.43994140625,-400000.0625,-827.8800048828125,-400000.0625,6993.72021484375,-400000.0625
179.83781838417053,-400000.0625,8294.76953125,1820.0400390625,-400000.0625,-815.3400268554688,-400000.0625,7014.1298828125,-400000.0625
179.8979012966156,-400000.0625,8311.080078125,1836.72998046875,-400000.0625,-788.8300170898438,-400000.0625,7029.490234375,-400000.0625
179.97456240653992,-400000.0625,8292.8701171875,1808.5999755859375,-400000.0625,-810.8099975585938,-400000.0625,7015.3701171875,-400000.0625
180.0301673412323,-400000.0625,8276.419921875,1788.7099609375,-400000.0625,-851.9199829101562,-400000.0625,7001.5,-400000.0625
180.08741545677185,-400000.0625,8278.3701171875,1787.6600341796875,-400000.0625,-831.5999755859375,-400000.0625,7006.31005859375,-400000.0625
180.1874487400055,-400000.0625,8300.349609375,1809.550048828125,-400000.0625,-836.4199829101562,-400000.0625,7030.5400390625,-400000.0625
180.2236683368683,-400000.0625,8290.91015625,1810.9300537109375,-400000.0625,-821.2999877929688,-400000.0625,7028.25,-400000.0625
180.2807593345642,-400000.0625,8298.6796875,1826.050048828125,-400000.0625,-788.8300170898438,-400000.0625,7035.5400390625,-400000.0625
180.34799361228943,-400000.0625,8255.3896484375,1784.7099609375,-400000.0625,-830.510009765625,-400000.0625,7004.830078125,-400000.0625
180.41015124320984,-400000.0625,8255.91015625,1784.3699951171875,-400000.0625,-833.4600219726562,-400000.0625,7008.60009765625,-400000.0625
180.4359004497528,-400000.0625,8277.7001953125,1807.550048828125,-400000.0625,-797.6099853515625,-400000.0625,7027.6298828125,-400000.0625
180.4634611606598,-400000.0625,8290.48046875,1823.0899658203125,-400000.0625,-784.780029296875,-400000.0625,7038.2099609375,-400000.0625
180.5056746006012,-400000.0625,8271.5498046875,1802.5899658203125,-400000.0625,-797.8900146484375,-400000.0625,7025.39013671875,-400000.0625
180.52765798568726,-400000.0625,8249.240234375,1778.56005859375,-400000.0625,-820.260009765625,-400000.0625,7003.58984375,-400000.0625
180.5488624572754,-400000.0625,8254.150390625,1781.0799560546875,-400000.0625,-834.27001953125,-400000.0625,7006.02978515625,-400000.0625
180.562650680542,-400000.0625,8282.9501953125,1807.9300537109375,-400000.0625,-821.1599731445312,-400000.0625,7029.919921875,-400000.0625
180.58357644081116,-400000.0625,8292.25,1821.0400390625,-400000.0625,-806.0,-400000.0625,7045.64990234375,-400000.0625
180.6164517402649,-400000.0625,8275.8896484375,1805.3499755859375,-400000.0625,-801.52001953125,-400000.0625,7029.81982421875,-400000.0625
180.63587975502014,-400000.0625,8255.2900390625,1783.0400390625,-400000.0625,-817.010009765625,-400000.0625,7005.97998046875,-400000.0625
180.65729236602783,-400000.0625,8249.9501953125,1779.8900146484375,-400000.0625,-830.1300048828125,-400000.0625,7004.830078125,-400000.0625
180.68014192581177,-400000.0625,8273.7001953125,1803.5899658203125,-400000.0625,-815.8200073242188,-400000.0625,7024.81005859375,-400000.0625
180.69952416419983,-400000.0625,8287.6201171875,1818.6099853515625,-400000.0625,-788.3499755859375,-400000.0625,7040.64013671875,-400000.0625
180.76080012321472,-400000.0625,8275.7998046875,1805.68994140625,-400000.0625,-806.0499877929688,-400000.0625,7029.43994140625,-400000.0625
180.78200340270996,-400000.0625,8251.7197265625,1780.800048828125,-400000.0625,-833.1300048828125,-400000.0625,7008.1201171875,-400000.0625
180.80481338500977,-400000.0625,8251.099609375,1781.0799560546875,-400000.0625,-821.2100219726562,-400000.0625,7009.22021484375,-400000.0625
180.84776186943054,-400000.0625,8275.0302734375,1805.1600341796875,-400000.0625,-801.280029296875,-400000.0625,7031.009765625,-400000.0625
180.86890578269958,-400000.0625,8289.5302734375,1819.280029296875,-400000.0625,-793.97998046875,-400000.0625,7044.4599609375,-400000.0625
180.88749980926514,-400000.0625,8276.849609375,1806.780029296875,-400000.0625,-812.0499877929688,-400000.0625,7033.16015625,-400000.0625
180.90284895896912,-400000.0625,8252.1904296875,1782.22998046875,-400000.0625,-825.1199951171875,-400000.0625,7011.89013671875,-400000.0625
180.93479919433594,-400000.0625,8206.849609375,1778.8900146484375,-400000.0625,-784.02001953125,-400000.0625,7006.06982421875,-400000.0625
180.98599004745483,-400000.0625,8249.6201171875,1785.9000244140625,-400000.0625,-819.1599731445312,-400000.0625,7017.330078125,-400000.0625
181.05318021774292,-400000.0625,8266.5,1788.5699462890625,-400000.0625,-803.469970703125,-400000.0625,7019.330078125,-400000.0625
181.12549138069153,-400000.0625,8301.01953125,1817.4200439453125,-400000.0625,-795.4600219726562,-400000.0625,7041.5,-400000.0625
181.1827585697174,-400000.0625,8304.7900390625,1818.56005859375,-400000.0625,-799.469970703125,-400000.0625,7049.85009765625,-400000.0625
181.28597140312195,-400000.0625,8308.599609375,1820.8499755859375,-400000.0625,-797.8400268554688,-400000.0625,7044.31982421875,-400000.0625
181.37696409225464,-400000.0625,8297.16015625,1816.8900146484375,-400000.0625,-800.75,-400000.0625,7026.72021484375,-400000.0625
181.4319291114807,-400000.0625,8297.1103515625,1821.7099609375,-400000.0625,-809.6699829101562,-400000.0625,7034.919921875,-400000.0625
181.5015242099762,-400000.0625,8312.9404296875,1839.5400390625,-400000.0625,-783.969970703125,-400000.0625,7049.93994140625,-400000.0625
181.57588362693787,-400000.0625,8259.4404296875,1779.5999755859375,-400000.0625,-819.489990234375,-400000.0625,7083.080078125,-400000.0625
181.65625548362732,-400000.0625,8229.919921875,1742.93994140625,-400000.0625,-836.3699951171875,-400000.0625,7069.35009765625,-400000.0625
181.75744342803955,-400000.0625,8287.8095703125,1818.22998046875,-400000.0625,-789.1199951171875,-400000.0625,7028.9599609375,-400000.0625
181.82261538505554,-400000.0625,8297.1103515625,1835.010009765625,-400000.0625,-784.1099853515625,-400000.0625,7044.1298828125,-400000.0625
181.884761095047,-400000.0625,8291.8203125,1823.81005859375,-400000.0625,-807.5700073242188,-400000.0625,7036.64013671875,-400000.0625
181.94317388534546,-400000.0625,8259.9599609375,1796.3399658203125,-400000.0625,-818.0599975585938,-400000.0625,7006.35986328125,-400000.0625
182.05016326904297,-400000.0625,8271.98046875,1803.2099609375,-400000.0625,-832.510009765625,-400000.0625,6996.919921875,-400000.0625
182.13702845573425,-400000.0625,8330.7802734375,1907.489990234375,-400000.0625,-749.1099853515625,-400000.0625,6958.14990234375,-400000.0625
182.28245735168457,-400000.0625,8250.6201171875,1785.3299560546875,-400000.0625,-820.6799926757812,-400000.0625,6996.580078125,-400000.0625
182.37837600708008,-400000.0625,8279.3701171875,1807.4000244140625,-400000.0625,-782.6300048828125,-400000.0625,7022.81005859375,-400000.0625
182.52435040473938,-400000.0625,8289.2900390625,1826.239990234375,-400000.0625,-792.3099975585938,-400000.0625,7024.0498046875,-400000.0625
182.58454728126526,-400000.0625,8274.509765625,1808.6400146484375,-400000.0625,-803.9000244140625,-400000.0625,6995.81982421875,-400000.0625
182.77209043502808,-400000.0625,8287.0,1827.6700439453125,-400000.0625,-781.0599975585938,-400000.0625,7009.7001953125,-400000.0625
182.8470995426178,-400000.0625,8305.2197265625,1837.2099609375,-400000.0625,-776.3400268554688,-400000.0625,7027.669921875,-400000.0625
182.90828704833984,-400000.0625,8279.2802734375,1806.550048828125,-400000.0625,-809.1500244140625,-400000.0625,6996.16015625,-400000.0625
182.97459626197815,-400000.0625,8272.1201171875,1799.5799560546875,-400000.0625,-811.1500244140625,-400000.0625,6978.419921875,-400000.0625
183.00339198112488,-400000.0625,8290.099609375,1817.93994140625,-400000.0625,-789.5900268554688,-400000.0625,6994.77001953125,-400000.0625
183.03770232200623,-400000.0625,8308.2197265625,1834.3499755859375,-400000.0625,-766.4199829101562,-400000.0625,7012.27001953125,-400000.0625
183.08976650238037,-400000.0625,8298.2998046875,1826.47998046875,-400000.0625,-773.9500122070312,-400000.0625,7007.7900390625,-400000.0625
183.111079454422,-400000.0625,8272.5498046875,1802.6400146484375,-400000.0625,-805.0,-400000.0625,6988.0,-400000.0625
183.1341860294342,-400000.0625,8264.1103515625,1790.47998046875,-400000.0625,-822.8800048828125,-400000.0625,6979.509765625,-400000.0625
183.15909671783447,-400000.0625,8281.4697265625,1805.260009765625,-400000.0625,-819.72998046875,-400000.0625,6993.580078125,-400000.0625
183.2070529460907,-400000.0625,8303.4501953125,1829.9100341796875,-400000.0625,-786.4500122070312,-400000.0625,7011.3701171875,-400000.0625
183.2360634803772,-400000.0625,8299.400390625,1828.0999755859375,-400000.0625,-768.4199829101562,-400000.0625,7006.7900390625,-400000.0625
183.25418615341187,-400000.0625,8271.169921875,1801.5400390625,-400000.0625,-795.7899780273438,-400000.0625,6982.7998046875,-400000.0625
183.2859287261963,-400000.0625,8265.2099609375,1791.9100341796875,-400000.0625,-812.5800170898438,-400000.0625,6974.169921875,-400000.0625
183.3453676700592,-400000.0625,8284.2802734375,1811.9300537109375,-400000.0625,-789.260009765625,-400000.0625,6993.06005859375,-400000.0625
183.3808195590973,-400000.0625,8308.509765625,1834.8699951171875,-400000.0625,-781.1099853515625,-400000.0625,7014.22998046875,-400000.0625
183.41668939590454,-400000.0625,8296.919921875,1827.18994140625,-400000.0625,-791.3599853515625,-400000.0625,7008.35986328125,-400000.0625
183.50996947288513,-400000.0625,8332.0595703125,1788.4300537109375,-400000.0625,-759.3200073242188,-400000.0625,7052.08984375,-400000.0625
183.55104398727417,-400000.0625,8362.2001953125,1788.0,-400000.0625,-788.1599731445312,-400000.0625,7044.27001953125,-400000.0625
183.61834359169006,-400000.0625,8363.8701171875,1791.4300537109375,-400000.0625,-790.3099975585938,-400000.0625,7029.8701171875,-400000.0625
183.67169785499573,-400000.0625,8377.26953125,1794.5799560546875,-400000.0625,-811.239990234375,-400000.0625,7027.2900390625,-400000.0625
183.7424178123474,-400000.0625,8398.009765625,1820.6600341796875,-400000.0625,-784.2999877929688,-400000.0625,7051.990234375,-400000.0625
183.85228538513184,-400000.0625,8397.8203125,1820.7099609375,-400000.0625,-790.1699829101562,-400000.0625,7052.759765625,-400000.0625
183.92673754692078,-400000.0625,8258.76953125,1679.52001953125,-400000.0625,-852.8699951171875,-400000.0625,7071.93017578125,-400000.0625
183.99394869804382,-400000.0625,8267.1201171875,1694.8699951171875,-400000.0625,-834.7000122070312,-400000.0625,7095.77001953125,-400000.0625
184.07560849189758,-400000.0625,8300.01953125,1726.25,-400000.0625,-825.5,-400000.0625,7108.39990234375,-400000.0625
184.23239994049072,-400000.0625,8352.1904296875,1791.0999755859375,-400000.0625,-819.489990234375,-400000.0625,7011.7998046875,-400000.0625
184.32682251930237,-400000.0625,8356.0,1794.2900390625,-400000.0625,-795.8900146484375,-400000.0625,7005.60009765625,-400000.0625
184.39270305633545,-400000.0625,8369.01953125,1816.6500244140625,-400000.0625,-778.4400024414062,-400000.0625,7019.7099609375,-400000.0625
184.44087862968445,-400000.0625,8361.4404296875,1817.56005859375,-400000.0625,-794.27001953125,-400000.0625,7018.7099609375,-400000.0625
184.60065817832947,-400000.0625,8318.1904296875,1778.8900146484375,-400000.0625,-816.77001953125,-400000.0625,6981.990234375,-400000.0625
184.64557766914368,-400000.0625,8319.4296875,1784.52001953125,-400000.0625,-811.2899780273438,-400000.0625,6992.0498046875,-400000.0625
184.70156502723694,-400000.0625,8343.1298828125,1802.06005859375,-400000.0625,-818.3499755859375,-400000.0625,7025.240234375,-400000.0625
184.76933407783508,-400000.0625,8344.080078125,1809.030029296875,-400000.0625,-796.8400268554688,-400000.0625,7025.52978515625,-400000.0625
184.82655596733093,-400000.0625,8312.23046875,1776.4599609375,-400000.0625,-817.9199829101562,-400000.0625,6989.91015625,-400000.0625
184.89062929153442,-400000.0625,8328.6298828125,1795.47998046875,-400000.0625,-835.1300048828125,-400000.0625,7001.39990234375,-400000.0625
185.03180646896362,-400000.0625,8350.5595703125,1817.6099853515625,-400000.0625,-802.6599731445312,-400000.0625,7024.33984375,-400000.0625
185.08798360824585,-400000.0625,8352.1904296875,1823.22998046875,-400000.0625,-802.22998046875,-400000.0625,7020.43017578125,-400000.0625
185.1444194316864,-400000.0625,8327.5302734375,1798.1500244140625,-400000.0625,-805.469970703125,-400000.0625,7002.68994140625,-400000.0625
185.21117234230042,-400000.0625,8338.169921875,1814.27001953125,-400000.0625,-783.72998046875,-400000.0625,7017.759765625,-400000.0625
185.2939577102661,-400000.0625,8323.240234375,1799.6300048828125,-400000.0625,-805.239990234375,-400000.0625,6999.16015625,-400000.0625
185.34294033050537,-400000.0625,8340.0703125,1820.280029296875,-400000.0625,-785.3499755859375,-400000.0625,7019.7099609375,-400000.0625
185.40321612358093,-400000.0625,8346.990234375,1827.4300537109375,-400000.0625,-791.97998046875,-400000.0625,7020.6201171875,-400000.0625
185.47206950187683,-400000.0625,8324.1904296875,1801.3499755859375,-400000.0625,-804.0399780273438,-400000.0625,6995.8701171875,-400000.0625
185.49351572990417,-400000.0625,8304.4501953125,1784.22998046875,-400000.0625,-814.8699951171875,-400000.0625,6977.1298828125,-400000.0625
185.50520396232605,-400000.0625,8317.08984375,1796.3900146484375,-400000.0625,-813.5800170898438,-400000.0625,6986.18994140625,-400000.0625
185.5312192440033,-400000.0625,8341.2197265625,1821.469970703125,-400000.0625,-794.5999755859375,-400000.0625,7007.27001953125,-400000.0625
185.5504117012024,-400000.0625,8344.7001953125,1829.9100341796875,-400000.0625,-797.8900146484375,-400000.0625,7014.0400390625,-400000.0625
185.5670132637024,-400000.0625,8329.2001953125,1809.3599853515625,-400000.0625,-808.1900024414062,-400000.0625,6999.68017578125,-400000.0625
185.5901927947998,-400000.0625,8309.8896484375,1790.5699462890625,-400000.0625,-826.9299926757812,-400000.0625,6983.7099609375,-400000.0625
185.60796213150024,-400000.0625,8322.8095703125,1802.3499755859375,-400000.0625,-828.0800170898438,-400000.0625,6990.580078125,-400000.0625
185.64175033569336,-400000.0625,8344.3203125,1824.0,-400000.0625,-800.7999877929688,-400000.0625,7010.3701171875,-400000.0625
185.65444922447205,-400000.0625,8345.3203125,1827.81005859375,-400000.0625,-783.6300048828125,-400000.0625,7014.60986328125,-400000.0625
185.66532945632935,-400000.0625,8327.2001953125,1807.4000244140625,-400000.0625,-810.1900024414062,-400000.0625,6994.77001953125,-400000.0625
185.67849278450012,-400000.0625,8305.2197265625,1787.7099609375,-400000.0625,-821.8300170898438,-400000.0625,6978.93994140625,-400000.0625
185.6956648826599,-400000.0625,8318.8095703125,1801.5400390625,-400000.0625,-805.7100219726562,-400000.0625,6989.3798828125,-400000.0625
185.71116542816162,-400000.0625,8345.1298828125,1824.050048828125,-400000.0625,-785.9199829101562,-400000.0625,7011.31982421875,-400000.0625
185.74051594734192,-400000.0625,8345.3203125,1828.3800048828125,-400000.0625,-781.5800170898438,-400000.0625,7016.9501953125,-400000.0625
185.75771379470825,-400000.0625,8329.2001953125,1811.699951171875,-400000.0625,-802.760009765625,-400000.0625,6996.81982421875,-400000.0625
185.77775645256042,-400000.0625,8311.1298828125,1790.18994140625,-400000.0625,-831.27001953125,-400000.0625,6979.7998046875,-400000.0625
185.79473519325256,-400000.0625,8319.4296875,1798.77001953125,-400000.0625,-814.8699951171875,-400000.0625,6989.2900390625,-400000.0625
185.80770230293274,-400000.0625,8342.169921875,1821.4200439453125,-400000.0625,-785.2100219726562,-400000.0625,7008.080078125,-400000.0625
185.82804107666016,-400000.0625,8346.9404296875,1827.18994140625,-400000.0625,-806.0499877929688,-400000.0625,7019.85009765625,-400000.0625
185.86872601509094,-400000.0625,8328.009765625,1804.5400390625,-400000.0625,-825.5999755859375,-400000.0625,6998.39990234375,-400000.0625
185.88821363449097,-400000.0625,8305.740234375,1782.93994140625,-400000.0625,-814.9600219726562,-400000.0625,6977.85009765625,-400000.0625
185.9061393737793,-400000.0625,8314.7099609375,1792.81005859375,-400000.0625,-808.8099975585938,-400000.0625,6983.89990234375,-400000.0625
185.91879439353943,-400000.0625,8341.6904296875,1821.1800537109375,-400000.0625,-789.5900268554688,-400000.0625,7004.259765625,-400000.0625
185.98210215568542,-400000.0625,8348.4697265625,1831.719970703125,-400000.0625,-798.1799926757812,-400000.0625,6995.10986328125,-400000.0625
186.06717991828918,-400000.0625,8352.7099609375,1839.2099609375,-400000.0625,-803.9000244140625,-400000.0625,7008.5498046875,-400000.0625
186.10423517227173,-400000.0625,8321.7197265625,1815.3699951171875,-400000.0625,-791.739990234375,-400000.0625,6981.18017578125,-400000.0625
186.17541432380676,-400000.0625,8303.5498046875,1800.199951171875,-400000.0625,-790.0700073242188,-400000.0625,6966.5400390625,-400000.0625
186.23645520210266,-400000.0625,8331.349609375,1826.239990234375,-400000.0625,-787.5399780273438,-400000.0625,6995.9599609375,-400000.0625
186.32890605926514,-400000.0625,8328.919921875,1825.7099609375,-400000.0625,-793.8400268554688,-400000.0625,6987.9501953125,-400000.0625
186.40444564819336,-400000.0625,8339.7900390625,1841.0699462890625,-400000.0625,-779.8200073242188,-400000.0625,7003.93017578125,-400000.0625
186.46314525604248,-400000.0625,8292.490234375,1789.3800048828125,-400000.0625,-801.0399780273438,-400000.0625,6959.06005859375,-400000.0625
186.50933051109314,-400000.0625,8284.08984375,1788.1400146484375,-400000.0625,-811.5800170898438,-400000.0625,6952.43017578125,-400000.0625
186.56910872459412,-400000.0625,8320.330078125,1827.050048828125,-400000.0625,-786.1099853515625,-400000.0625,6983.60986328125,-400000.0625
186.62519884109497,-400000.0625,8317.419921875,1823.469970703125,-400000.0625,-780.6799926757812,-400000.0625,6977.4599609375,-400000.0625
186.68546438217163,-400000.0625,8320.8603515625,1834.1500244140625,-400000.0625,-777.5800170898438,-400000.0625,6989.0498046875,-400000.0625
186.77238869667053,-400000.0625,8307.7900390625,1824.6199951171875,-400000.0625,-782.3499755859375,-400000.0625,6966.8798828125,-400000.0625
186.82153725624084,-400000.0625,8279.7998046875,1800.3499755859375,-400000.0625,-812.8200073242188,-400000.0625,6937.83984375,-400000.0625
186.87682461738586,-400000.0625,8277.080078125,1803.2099609375,-400000.0625,-808.6699829101562,-400000.0625,6948.60986328125,-400000.0625
186.9374430179596,-400000.0625,8293.2998046875,1816.800048828125,-400000.0625,-796.6500244140625,-400000.0625,6961.2001953125,-400000.0625
187.0040910243988,-400000.0625,8303.6904296875,1833.6800537109375,-400000.0625,-782.969970703125,-400000.0625,6972.1201171875,-400000.0625
187.2027976512909,-400000.0625,8263.0595703125,1796.719970703125,-400000.0625,-812.6699829101562,-400000.0625,6937.169921875,-400000.0625
187.26353812217712,-400000.0625,8285.51953125,1819.75,-400000.0625,-805.8099975585938,-400000.0625,6965.830078125,-400000.0625
187.3258044719696,-400000.0625,8293.150390625,1829.6700439453125,-400000.0625,-778.9600219726562,-400000.0625,6977.419921875,-400000.0625
187.4520914554596,-400000.0625,8263.259765625,1797.3900146484375,-400000.0625,-798.7999877929688,-400000.0625,6946.47021484375,-400000.0625
187.52574253082275,-400000.0625,8265.58984375,1804.1600341796875,-400000.0625,-799.510009765625,-400000.0625,6948.18994140625,-400000.0625
187.5873520374298,-400000.0625,8278.2802734375,1820.22998046875,-400000.0625,-785.2999877929688,-400000.0625,6963.25,-400000.0625
187.6394293308258,-400000.0625,8284.2802734375,1833.8699951171875,-400000.0625,-771.760009765625,-400000.0625,6973.83984375,-400000.0625
187.76111006736755,-400000.0625,8272.1201171875,1813.5999755859375,-400000.0625,-794.9400024414062,-400000.0625,6970.7900390625,-400000.0625
187.83327293395996,-400000.0625,8243.849609375,1785.469970703125,-400000.0625,-803.280029296875,-400000.0625,6941.7001953125,-400000.0625
187.90146327018738,-400000.0625,8262.490234375,1806.9300537109375,-400000.0625,-787.1199951171875,-400000.0625,6961.25,-400000.0625
187.97986960411072,-400000.0625,8280.7099609375,1827.4300537109375,-400000.0625,-775.9099731445312,-400000.0625,6959.81982421875,-400000.0625
187.9930760860443,-400000.0625,8263.490234375,1812.1199951171875,-400000.0625,-793.5499877929688,-400000.0625,6942.02978515625,-400000.0625
188.007493019104,-400000.0625,8244.51953125,1789.760009765625,-400000.0625,-807.0,-400000.0625,6920.77001953125,-400000.0625
188.04415154457092,-400000.0625,8241.9404296875,1790.47998046875,-400000.0625,-798.8499755859375,-400000.0625,6923.9599609375,-400000.0625
188.0587122440338,-400000.0625,8262.2998046875,1816.030029296875,-400000.0625,-774.3400268554688,-400000.0625,6946.89990234375,-400000.0625
188.07289266586304,-400000.0625,8283.08984375,1833.530029296875,-400000.0625,-762.5599975585938,-400000.0625,6961.2001953125,-400000.0625
188.08564114570618,-400000.0625,8265.8798828125,1817.27001953125,-400000.0625,-776.530029296875,-400000.0625,6948.27978515625,-400000.0625
188.10396122932434,-400000.0625,8240.3701171875,1791.6199951171875,-400000.0625,-797.6500244140625,-400000.0625,6924.009765625,-400000.0625
188.12503385543823,-400000.0625,8241.1298828125,1791.6199951171875,-400000.0625,-803.0399780273438,-400000.0625,6922.68017578125,-400000.0625
188.15878772735596,-400000.0625,8257.6298828125,1811.9300537109375,-400000.0625,-794.0800170898438,-400000.0625,6947.89990234375,-400000.0625
188.17252683639526,-400000.0625,8278.1298828125,1829.9100341796875,-400000.0625,-778.2000122070312,-400000.0625,6957.10009765625,-400000.0625
188.1911506652832,-400000.0625,8263.9697265625,1816.3199462890625,-400000.0625,-803.22998046875,-400000.0625,6944.31982421875,-400000.0625
188.20645427703857,-400000.0625,8242.4697265625,1792.9100341796875,-400000.0625,-819.5399780273438,-400000.0625,6925.72998046875,-400000.0625
188.21959519386292,-400000.0625,8239.2197265625,1791.6700439453125,-400000.0625,-794.3599853515625,-400000.0625,6928.919921875,-400000.0625
188.23676252365112,-400000.0625,8265.16015625,1815.989990234375,-400000.0625,-776.8599853515625,-400000.0625,6948.759765625,-400000.0625
188.27026462554932,-400000.0625,8281.330078125,1831.010009765625,-400000.0625,-765.6599731445312,-400000.0625,6958.490234375,-400000.0625
188.2880494594574,-400000.0625,8262.5400390625,1813.030029296875,-400000.0625,-782.3499755859375,-400000.0625,6944.56005859375,-400000.0625
188.30152869224548,-400000.0625,8241.26953125,1790.4300537109375,-400000.0625,-815.1500244140625,-400000.0625,6927.10986328125,-400000.0625
188.321430683136,-400000.0625,8242.509765625,1789.949951171875,-400000.0625,-803.0399780273438,-400000.0625,6926.72998046875,-400000.0625
188.34093236923218,-400000.0625,8261.919921875,1812.739990234375,-400000.0625,-776.6199951171875,-400000.0625,6944.7998046875,-400000.0625
188.3871774673462,-400000.0625,8272.740234375,1825.52001953125,-400000.0625,-777.8200073242188,-400000.0625,6958.6298828125,-400000.0625
188.41995549201965,-400000.0625,8261.6796875,1812.97998046875,-400000.0625,-788.6400146484375,-400000.0625,6949.14013671875,-400000.0625
188.47905778884888,-400000.0625,8211.759765625,1769.1099853515625,-400000.0625,-818.2000122070312,-400000.0625,6903.02978515625,-400000.0625
188.53810858726501,-400000.0625,8239.1298828125,1795.3900146484375,-400000.0625,-808.9500122070312,-400000.0625,6931.259765625,-400000.0625
188.64824771881104,-400000.0625,8257.33984375,1813.3199462890625,-400000.0625,-793.030029296875,-400000.0625,6944.93994140625,-400000.0625
188.72913551330566,-400000.0625,8218.8603515625,1778.4100341796875,-400000.0625,-808.47998046875,-400000.0625,6945.0400390625,-400000.0625
188.79432487487793,-400000.0625,8216.240234375,1775.030029296875,-400000.0625,-817.5900268554688,-400000.0625,6939.97998046875,-400000.0625
188.92561531066895,-400000.0625,8248.23046875,1805.780029296875,-400000.0625,-774.3400268554688,-400000.0625,6980.3701171875,-400000.0625
189.0222465991974,-400000.0625,8231.0703125,1795.199951171875,-400000.0625,-801.3699951171875,-400000.0625,6961.35009765625,-400000.0625
189.04770278930664,-400000.0625,8243.23046875,1812.1199951171875,-400000.0625,-781.3499755859375,-400000.0625,6980.93994140625,-400000.0625
189.18277072906494,-400000.0625,8232.259765625,1761.3900146484375,-400000.0625,-816.0599975585938,-400000.0625,7047.27001953125,-400000.0625
189.23890733718872,-400000.0625,8149.77001953125,1573.280029296875,-400000.0625,-873.989990234375,-400000.0625,7285.740234375,-400000.0625
189.38158535957336,-400000.0625,8152.33984375,1454.02001953125,-400000.0625,-970.9400024414062,-400000.0625,7565.06982421875,-400000.0625
189.4454267024994,-400000.0625,8152.33984375,1466.699951171875,-400000.0625,-972.8900146484375,-400000.0625,7539.080078125,-400000.0625
189.67973566055298,-400000.0625,8169.7998046875,1502.4200439453125,-400000.0625,-944.8499755859375,-400000.0625,7488.919921875,-400000.0625
189.75541067123413,-400000.0625,8145.240234375,1479.9599609375,-400000.0625,-966.97998046875,-400000.0625,7440.7099609375,-400000.0625
189.82233500480652,-400000.0625,8159.35009765625,1496.93994140625,-400000.0625,-951.1500244140625,-400000.0625,7472.56005859375,-400000.0625
189.88082456588745,-400000.0625,8184.580078125,1518.5400390625,-400000.0625,-926.1599731445312,-400000.0625,7477.669921875,-400000.0625
189.94897866249084,-400000.0625,8166.60009765625,1509.239990234375,-400000.0625,-939.7000122070312,-400000.0625,7457.64013671875,-400000.0625
190.0190703868866,-400000.0625,8150.240234375,1489.5899658203125,-400000.0625,-955.9199829101562,-400000.0625,7422.830078125,-400000.0625
190.10021829605103,-400000.0625,8151.72021484375,1489.2099609375,-400000.0625,-954.77001953125,-400000.0625,7420.77978515625,-400000.0625
190.13809323310852,-400000.0625,8182.240234375,1520.8199462890625,-400000.0625,-947.280029296875,-400000.0625,7445.47998046875,-400000.0625
190.20384192466736,-400000.0625,8182.9599609375,1523.8800048828125,-400000.0625,-935.27001953125,-400000.0625,7449.33984375,-400000.0625
190.26779770851135,-400000.0625,8177.7099609375,1511.18994140625,-400000.0625,-929.5,-400000.0625,7442.7099609375,-400000.0625
190.3269979953766,-400000.0625,8154.580078125,1494.5,-400000.0625,-958.6300048828125,-400000.0625,7425.31005859375,-400000.0625
190.39218282699585,-400000.0625,8147.52978515625,1492.449951171875,-400000.0625,-963.969970703125,-400000.0625,7420.919921875,-400000.0625
190.46533179283142,-400000.0625,8165.02978515625,1510.0,-400000.0625,-939.0399780273438,-400000.0625,7430.509765625,-400000.0625
190.51536870002747,-400000.0625,8185.580078125,1533.75,-400000.0625,-928.780029296875,-400000.0625,7453.490234375,-400000.0625
190.53715062141418,-400000.0625,8177.0400390625,1526.8800048828125,-400000.0625,-949.3800048828125,-400000.0625,7444.81005859375,-400000.0625
190.5552797317505,-400000.0625,8151.9599609375,1498.4100341796875,-400000.0625,-965.8800048828125,-400000.0625,7419.8701171875,-400000.0625
190.5749499797821,-400000.0625,8140.9501953125,1491.8299560546875,-400000.0625,-953.2000122070312,-400000.0625,7412.6298828125,-400000.0625
190.61441779136658,-400000.0625,8159.8798828125,1508.9000244140625,-400000.0625,-943.0399780273438,-400000.0625,7428.64990234375,-400000.0625
190.6370759010315,-400000.0625,8179.669921875,1527.68994140625,-400000.0625,-936.1300048828125,-400000.0625,7447.72021484375,-400000.0625
190.65721464157104,-400000.0625,8176.3798828125,1524.0699462890625,-400000.0625,-929.6900024414062,-400000.0625,7440.08984375,-400000.0625
190.6709942817688,-400000.0625,8157.8701171875,1503.0899658203125,-400000.0625,-954.25,-400000.0625,7421.16015625,-400000.0625
190.68856954574585,-400000.0625,8149.33984375,1496.3199462890625,-400000.0625,-962.6900024414062,-400000.0625,7411.0498046875,-400000.0625
190.7226824760437,-400000.0625,8163.5498046875,1511.3800048828125,-400000.0625,-943.6599731445312,-400000.0625,7423.02001953125,-400000.0625
190.74174451828003,-400000.0625,8181.0,1528.02001953125,-400000.0625,-930.260009765625,-400000.0625,7439.27978515625,-400000.0625
190.76223707199097,-400000.0625,8174.08984375,1522.449951171875,-400000.0625,-929.6900024414062,-400000.0625,7434.93994140625,-400000.0625
190.77733945846558,-400000.0625,8150.6298828125,1501.56005859375,-400000.0625,-952.0499877929688,-400000.0625,7416.43994140625,-400000.0625
190.7935914993286,-400000.0625,8147.0498046875,1494.9300537109375,-400000.0625,-965.0700073242188,-400000.0625,7408.10009765625,-400000.0625
190.83113598823547,-400000.0625,8168.169921875,1515.050048828125,-400000.0625,-940.3200073242188,-400000.0625,7425.68994140625,-400000.0625
190.84541964530945,-400000.0625,8185.9599609375,1532.97998046875,-400000.0625,-931.97998046875,-400000.0625,7442.89990234375,-400000.0625
190.8650143146515,-400000.0625,8175.89990234375,1524.5,-400000.0625,-938.9400024414062,-400000.0625,7437.9501953125,-400000.0625
190.87967109680176,-400000.0625,8152.2998046875,1500.0799560546875,-400000.0625,-950.5700073242188,-400000.0625,7414.47998046875,-400000.0625
190.89633893966675,-400000.0625,8146.56982421875,1493.4100341796875,-400000.0625,-954.3400268554688,-400000.0625,7405.81005859375,-400000.0625
190.92612433433533,-400000.0625,8166.4599609375,1512.0999755859375,-400000.0625,-945.52001953125,-400000.0625,7424.02001953125,-400000.0625
190.97056484222412,-400000.0625,8180.669921875,1523.3499755859375,-400000.0625,-940.6099853515625,-400000.0625,7411.2900390625,-400000.0625
191.03178715705872,-400000.0625,8158.02001953125,1497.27001953125,-400000.0625,-958.6799926757812,-400000.0625,7391.5498046875,-400000.0625
191.09766817092896,-400000.0625,8179.6201171875,1523.5899658203125,-400000.0625,-943.22998046875,-400000.0625,7407.669921875,-400000.0625
191.22827816009521,-400000.0625,8207.0400390625,1555.9200439453125,-400000.0625,-929.260009765625,-400000.0625,7375.91015625,-400000.0625
191.28690719604492,-400000.0625,8178.81005859375,1527.68994140625,-400000.0625,-945.3300170898438,-400000.0625,7352.97021484375,-400000.0625
191.3794765472412,-400000.0625,8198.6396484375,1540.949951171875,-400000.0625,-945.3300170898438,-400000.0625,7363.7998046875,-400000.0625
191.42770791053772,-400000.0625,8201.740234375,1543.7099609375,-400000.0625,-943.469970703125,-400000.0625,7352.06982421875,-400000.0625
191.48827624320984,-400000.0625,8216.7197265625,1567.97998046875,-400000.0625,-929.739990234375,-400000.0625,7356.06982421875,-400000.0625
191.61586046218872,-400000.0625,8221.7197265625,1569.8900146484375,-400000.0625,-927.3099975585938,-400000.0625,7366.60986328125,-400000.0625
191.74021816253662,-400000.0625,8196.9296875,1552.1500244140625,-400000.0625,-936.5599975585938,-400000.0625,7344.8701171875,-400000.0625
191.87364768981934,-400000.0625,8213.08984375,1573.0400390625,-400000.0625,-927.780029296875,-400000.0625,7358.97998046875,-400000.0625
191.9395067691803,-400000.0625,8190.5400390625,1544.050048828125,-400000.0625,-953.77001953125,-400000.0625,7354.4501953125,-400000.0625
191.99934673309326,-400000.0625,8167.509765625,1526.9300537109375,-400000.0625,-944.7100219726562,-400000.0625,7341.81005859375,-400000.0625
192.06203985214233,-400000.0625,8178.759765625,1538.9000244140625,-400000.0625,-937.0800170898438,-400000.0625,7353.06982421875,-400000.0625
192.12266039848328,-400000.0625,8188.2998046875,1557.2099609375,-400000.0625,-925.1099853515625,-400000.0625,7389.4501953125,-400000.0625
192.18468618392944,-400000.0625,8151.9599609375,1524.5899658203125,-400000.0625,-938.4600219726562,-400000.0625,7387.93017578125,-400000.0625
192.27460765838623,-400000.0625,8145.43017578125,1525.550048828125,-400000.0625,-947.0,-400000.0625,7390.64013671875,-400000.0625
192.44011425971985,-400000.0625,8150.47998046875,1531.3199462890625,-400000.0625,-925.969970703125,-400000.0625,7389.97998046875,-400000.0625
192.56934309005737,-400000.0625,8118.68017578125,1496.8399658203125,-400000.0625,-947.0,-400000.0625,7360.080078125,-400000.0625
192.6787130832672,-400000.0625,8117.580078125,1501.699951171875,-400000.0625,-947.1400146484375,-400000.0625,7335.7099609375,-400000.0625
192.77691984176636,-400000.0625,8147.2900390625,1536.800048828125,-400000.0625,-920.5800170898438,-400000.0625,7356.22021484375,-400000.0625
192.83408427238464,-400000.0625,8140.27978515625,1530.3599853515625,-400000.0625,-928.5499877929688,-400000.0625,7354.68994140625,-400000.0625
192.8882656097412,-400000.0625,8109.7099609375,1492.1700439453125,-400000.0625,-939.989990234375,-400000.0625,7318.31005859375,-400000.0625
192.97291088104248,-400000.0625,8112.0,1490.4000244140625,-400000.0625,-952.47998046875,-400000.0625,7325.02978515625,-400000.0625
193.01243782043457,-400000.0625,8122.64013671875,1499.989990234375,-400000.0625,-950.8099975585938,-400000.0625,7337.759765625,-400000.0625
193.03079295158386,-400000.0625,8144.27978515625,1520.6800537109375,-400000.0625,-942.75,-400000.0625,7362.7998046875,-400000.0625
193.05050110816956,-400000.0625,8145.43017578125,1523.8800048828125,-400000.0625,-947.8599853515625,-400000.0625,7361.080078125,-400000.0625
193.06469130516052,-400000.0625,8123.35009765625,1504.1800537109375,-400000.0625,-954.77001953125,-400000.0625,7339.18994140625,-400000.0625
193.08524751663208,-400000.0625,8110.56982421875,1488.68994140625,-400000.0625,-954.489990234375,-400000.0625,7331.89990234375,-400000.0625
193.12095952033997,-400000.0625,8123.58984375,1498.510009765625,-400000.0625,-937.1799926757812,-400000.0625,7341.2900390625,-400000.0625
193.14913845062256,-400000.0625,8137.509765625,1518.9200439453125,-400000.0625,-930.5999755859375,-400000.0625,7359.509765625,-400000.0625
193.17462944984436,-400000.0625,8135.31982421875,1521.02001953125,-400000.0625,-930.1199951171875,-400000.0625,7360.5498046875,-400000.0625
193.19967818260193,-400000.0625,8120.009765625,1501.56005859375,-400000.0625,-951.9099731445312,-400000.0625,7339.669921875,-400000.0625
193.23448300361633,-400000.0625,8107.14013671875,1489.1099853515625,-400000.0625,-961.780029296875,-400000.0625,7326.83984375,-400000.0625
193.25398540496826,-400000.0625,8120.72998046875,1501.989990234375,-400000.0625,-946.8099975585938,-400000.0625,7338.3798828125,-400000.0625
193.26985907554626,-400000.0625,8139.7998046875,1520.6800537109375,-400000.0625,-927.0700073242188,-400000.0625,7356.31005859375,-400000.0625
193.29051327705383,-400000.0625,8140.7099609375,1520.010009765625,-400000.0625,-928.6900024414062,-400000.0625,7356.259765625,-400000.0625
193.30371046066284,-400000.0625,8117.490234375,1497.97998046875,-400000.0625,-946.3300170898438,-400000.0625,7338.669921875,-400000.0625
193.3434739112854,-400000.0625,8104.7099609375,1485.06005859375,-400000.0625,-955.4400024414062,-400000.0625,7324.35986328125,-400000.0625
193.36302638053894,-400000.0625,8116.2900390625,1497.97998046875,-400000.0625,-947.47998046875,-400000.0625,7340.33984375,-400000.0625
193.38361072540283,-400000.0625,8137.75,1521.2099609375,-400000.0625,-928.260009765625,-400000.0625,7361.22021484375,-400000.0625
193.40960216522217,-400000.0625,8140.27978515625,1522.72998046875,-400000.0625,-925.1099853515625,-400000.0625,7358.5,-400000.0625
193.48041343688965,-400000.0625,8123.259765625,1508.4300537109375,-400000.0625,-934.5499877929688,-400000.0625,7402.52001953125,-400000.0625
193.5337827205658,-400000.0625,8096.509765625,1478.47998046875,-400000.0625,-955.6799926757812,-400000.0625,7371.27978515625,-400000.0625
193.5927450656891,-400000.0625,8081.68017578125,1467.6099853515625,-400000.0625,-960.2999877929688,-400000.0625,7359.7900390625,-400000.0625
193.85567212104797,-400000.0625,8114.240234375,1485.5899658203125,-400000.0625,-949.719970703125,-400000.0625,7340.240234375,-400000.0625
193.91939115524292,-400000.0625,8106.08984375,1474.81005859375,-400000.0625,-971.3699951171875,-400000.0625,7330.0400390625,-400000.0625
193.9829032421112,-400000.0625,8110.18994140625,1488.3499755859375,-400000.0625,-954.9600219726562,-400000.0625,7334.85009765625,-400000.0625
194.03950238227844,-400000.0625,8129.7900390625,1512.1500244140625,-400000.0625,-929.0700073242188,-400000.0625,7359.89013671875,-400000.0625
194.14525055885315,-400000.0625,8146.18994140625,1523.72998046875,-400000.0625,-933.27001953125,-400000.0625,7350.06005859375,-400000.0625
194.1970133781433,-400000.0625,8114.2900390625,1495.31005859375,-400000.0625,-948.1400146484375,-400000.0625,7323.27001953125,-400000.0625
194.2319405078888,-400000.0625,8104.85009765625,1486.1600341796875,-400000.0625,-957.4400024414062,-400000.0625,7311.81982421875,-400000.0625
194.29944133758545,-400000.0625,8113.2900390625,1495.8399658203125,-400000.0625,-948.0,-400000.0625,7312.16015625,-400000.0625
194.4371736049652,-400000.0625,8111.52978515625,1495.5,-400000.0625,-947.7100219726562,-400000.0625,7316.02001953125,-400000.0625
194.5582754611969,-400000.0625,8088.64013671875,1475.050048828125,-400000.0625,-947.52001953125,-400000.0625,7300.08984375,-400000.0625
194.68308401107788,-400000.0625,8126.93017578125,1510.050048828125,-400000.0625,-915.47998046875,-400000.0625,7344.77001953125,-400000.0625
194.74715161323547,-400000.0625,8130.68994140625,1519.780029296875,-400000.0625,-938.6500244140625,-400000.0625,7349.919921875,-400000.0625
194.8157515525818,-400000.0625,8092.4501953125,1485.010009765625,-400000.0625,-940.0399780273438,-400000.0625,7332.27978515625,-400000.0625
194.9377589225769,-400000.0625,8079.72021484375,1476.81005859375,-400000.0625,-942.52001953125,-400000.0625,7321.4501953125,-400000.0625
194.9992880821228,-400000.0625,8096.22021484375,1504.469970703125,-400000.0625,-919.77001953125,-400000.0625,7340.0,-400000.0625
195.07166934013367,-400000.0625,8098.02978515625,1492.1700439453125,-400000.0625,-934.739990234375,-400000.0625,7390.93017578125,-400000.0625
195.13082432746887,-400000.0625,8069.52001953125,1465.3199462890625,-400000.0625,-939.22998046875,-400000.0625,7367.66015625,-400000.0625
195.23078227043152,-400000.0625,8055.259765625,1453.2099609375,-400000.0625,-964.3099975585938,-400000.0625,7350.72998046875,-400000.0625
195.32592225074768,-400000.0625,8078.47998046875,1471.5699462890625,-400000.0625,-946.7100219726562,-400000.0625,7367.22998046875,-400000.0625
195.38889002799988,-400000.0625,8084.43994140625,1482.1500244140625,-400000.0625,-929.9299926757812,-400000.0625,7376.43017578125,-400000.0625
195.44993090629578,-400000.0625,8063.02978515625,1463.5999755859375,-400000.0625,-937.3200073242188,-400000.0625,7349.43994140625,-400000.0625
195.52780890464783,-400000.0625,8054.72998046875,1454.5,-400000.0625,-955.77001953125,-400000.0625,7333.9501953125,-400000.0625
195.58679485321045,-400000.0625,8063.41015625,1462.6500244140625,-400000.0625,-950.3400268554688,-400000.0625,7337.43017578125,-400000.0625
195.60998487472534,-400000.0625,8084.009765625,1482.8699951171875,-400000.0625,-931.8400268554688,-400000.0625,7356.41015625,-400000.0625
195.62693166732788,-400000.0625,8087.4501953125,1491.5899658203125,-400000.0625,-929.3099975585938,-400000.0625,7366.22998046875,-400000.0625
195.64791417121887,-400000.0625,8071.330078125,1473.6199951171875,-400000.0625,-930.5999755859375,-400000.0625,7349.39990234375,-400000.0625
195.6940896511078,-400000.0625,8056.5498046875,1456.02001953125,-400000.0625,-941.7100219726562,-400000.0625,7328.89013671875,-400000.0625
195.71830368041992,-400000.0625,8062.41015625,1463.56005859375,-400000.0625,-943.1400146484375,-400000.0625,7337.759765625,-400000.0625
195.7347593307495,-400000.0625,8085.72998046875,1486.4000244140625,-400000.0625,-931.8800048828125,-400000.0625,7360.83984375,-400000.0625
195.75162267684937,-400000.0625,8091.58984375,1493.260009765625,-400000.0625,-928.8300170898438,-400000.0625,7368.52001953125,-400000.0625
195.78951454162598,-400000.0625,8074.85986328125,1479.530029296875,-400000.0625,-936.1300048828125,-400000.0625,7354.1201171875,-400000.0625
195.81178045272827,-400000.0625,8062.75,1463.219970703125,-400000.0625,-942.0900268554688,-400000.0625,7339.0,-400000.0625
195.83359026908875,-400000.0625,8070.60986328125,1470.8499755859375,-400000.0625,-937.030029296875,-400000.0625,7343.10009765625,-400000.0625
195.85456132888794,-400000.0625,8086.10986328125,1491.1199951171875,-400000.0625,-925.4500122070312,-400000.0625,7361.3701171875,-400000.0625
195.89165139198303,-400000.0625,8089.97021484375,1495.7900390625,-400000.0625,-919.8699951171875,-400000.0625,7365.18017578125,-400000.0625
195.90944123268127,-400000.0625,8074.81005859375,1478.8599853515625,-400000.0625,-944.0900268554688,-400000.0625,7346.919921875,-400000.0625
195.93148255348206,-400000.0625,8055.35009765625,1456.97998046875,-400000.0625,-960.02001953125,-400000.0625,7330.18017578125,-400000.0625
195.94943690299988,-400000.0625,8059.5498046875,1464.6500244140625,-400000.0625,-937.27001953125,-400000.0625,7334.759765625,-400000.0625
195.98543882369995,-400000.0625,8076.330078125,1496.1199951171875,-400000.0625,-929.1599731445312,-400000.0625,7311.580078125,-400000.0625
196.06783366203308,-400000.0625,8081.8701171875,1504.949951171875,-400000.0625,-937.0800170898438,-400000.0625,7314.25,-400000.0625
196.22663044929504,-400000.0625,8035.22998046875,1459.0699462890625,-400000.0625,-972.5999755859375,-400000.0625,7306.85986328125,-400000.0625
196.37655758857727,-400000.0625,8065.89013671875,1495.4599609375,-400000.0625,-949.0999755859375,-400000.0625,7341.2900390625,-400000.0625
196.423157453537,-400000.0625,8051.009765625,1483.25,-400000.0625,-958.2999877929688,-400000.0625,7326.02978515625,-400000.0625
196.48043966293335,-400000.0625,8027.169921875,1462.1700439453125,-400000.0625,-968.6500244140625,-400000.0625,7304.9599609375,-400000.0625
196.537109375,-400000.0625,8034.7099609375,1464.800048828125,-400000.0625,-957.489990234375,-400000.0625,7328.18017578125,-400000.0625
196.6125988960266,-400000.0625,8050.72998046875,1478.5799560546875,-400000.0625,-955.3400268554688,-400000.0625,7341.81005859375,-400000.0625
196.7082498073578,-400000.0625,8062.64990234375,1490.260009765625,-400000.0625,-946.8099975585938,-400000.0625,7347.490234375,-400000.0625
196.76817393302917,-400000.0625,8041.72021484375,1472.469970703125,-400000.0625,-959.9199829101562,-400000.0625,7329.60986328125,-400000.0625
196.87356042861938,-400000.0625,8030.02978515625,1456.550048828125,-400000.0625,-966.8400268554688,-400000.0625,7313.68017578125,-400000.0625
196.93240237236023,-400000.0625,8062.22021484375,1486.72998046875,-400000.0625,-954.2000122070312,-400000.0625,7304.18994140625,-400000.0625
196.98890471458435,-400000.0625,8070.22998046875,1500.75,-400000.0625,-964.9299926757812,-400000.0625,7296.75,-400000.0625
197.11089777946472,-400000.0625,8044.14990234375,1478.1500244140625,-400000.0625,-959.8300170898438,-400000.0625,7277.8701171875,-400000.0625
197.1781349182129,-400000.0625,8018.830078125,1455.8800048828125,-400000.0625,-986.8599853515625,-400000.0625,7259.22998046875,-400000.0625
197.2395167350769,-400000.0625,8037.7099609375,1474.2900390625,-400000.0625,-958.3499755859375,-400000.0625,7287.4599609375,-400000.0625
197.30684328079224,-400000.0625,8043.33984375,1478.8599853515625,-400000.0625,-966.5499877929688,-400000.0625,7287.7900390625,-400000.0625
197.36942315101624,-400000.0625,8029.64990234375,1462.1300048828125,-400000.0625,-978.0399780273438,-400000.0625,7273.580078125,-400000.0625
197.45536971092224,-400000.0625,8007.81005859375,1425.8900146484375,-400000.0625,-1001.4500122070312,-400000.0625,7316.10986328125,-400000.0625
197.50042366981506,-400000.0625,8025.89013671875,1450.010009765625,-400000.0625,-997.3499755859375,-400000.0625,7330.56005859375,-400000.0625
197.5717749595642,-400000.0625,8006.72021484375,1431.699951171875,-400000.0625,-999.8800048828125,-400000.0625,7312.35009765625,-400000.0625
197.75245022773743,-400000.0625,7993.56005859375,1417.3499755859375,-400000.0625,-1005.3599853515625,-400000.0625,7292.7998046875,-400000.0625
197.8354194164276,-400000.0625,8001.22998046875,1429.6500244140625,-400000.0625,-999.1599731445312,-400000.0625,7308.0498046875,-400000.0625
197.87944507598877,-400000.0625,8024.93017578125,1453.8800048828125,-400000.0625,-975.6599731445312,-400000.0625,7324.89013671875,-400000.0625
197.9533233642578,-400000.0625,8024.35986328125,1451.4000244140625,-400000.0625,-983.3800048828125,-400000.0625,7333.27978515625,-400000.0625
198.00725412368774,-400000.0625,8004.27978515625,1431.989990234375,-400000.0625,-991.0599975585938,-400000.0625,7311.68017578125,-400000.0625
198.05483651161194,-400000.0625,7983.58984375,1413.300048828125,-400000.0625,-1001.7899780273438,-400000.0625,7292.080078125,-400000.0625
198.07467341423035,-400000.0625,7988.169921875,1414.6300048828125,-400000.0625,-1004.7899780273438,-400000.0625,7296.75,-400000.0625
198.09523129463196,-400000.0625,8008.2900390625,1436.3800048828125,-400000.0625,-994.010009765625,-400000.0625,7321.06982421875,-400000.0625
198.11506605148315,-400000.0625,8016.77978515625,1445.9599609375,-400000.0625,-994.1099853515625,-400000.0625,7328.4599609375,-400000.0625
198.15363216400146,-400000.0625,8001.18994140625,1429.800048828125,-400000.0625,-996.3499755859375,-400000.0625,7314.490234375,-400000.0625
198.17055416107178,-400000.0625,7982.5400390625,1410.25,-400000.0625,-1003.3599853515625,-400000.0625,7293.60986328125,-400000.0625
198.18856382369995,-400000.0625,7985.97021484375,1413.010009765625,-400000.0625,-993.8200073242188,-400000.0625,7297.3701171875,-400000.0625
198.20884943008423,-400000.0625,8004.47998046875,1432.93994140625,-400000.0625,-984.9500122070312,-400000.0625,7316.97021484375,-400000.0625
198.22840785980225,-400000.0625,8015.72998046875,1444.3900146484375,-400000.0625,-988.530029296875,-400000.0625,7328.83984375,-400000.0625
198.26931762695312,-400000.0625,8000.759765625,1430.4599609375,-400000.0625,-1002.0700073242188,-400000.0625,7313.8701171875,-400000.0625
198.28937792778015,-400000.0625,7983.35009765625,1408.8199462890625,-400000.0625,-1007.1300048828125,-400000.0625,7290.7900390625,-400000.0625
198.3070936203003,-400000.0625,7981.72998046875,1410.530029296875,-400000.0625,-1006.4099731445312,-400000.0625,7293.89013671875,-400000.0625
198.33189225196838,-400000.0625,7995.64990234375,1427.510009765625,-400000.0625,-995.969970703125,-400000.0625,7311.35009765625,-400000.0625
198.36785531044006,-400000.0625,8001.759765625,1436.4200439453125,-400000.0625,-990.3400268554688,-400000.0625,7321.64013671875,-400000.0625
198.38387060165405,-400000.0625,8006.2900390625,1434.56005859375,-400000.0625,-994.489990234375,-400000.0625,7302.330078125,-400000.0625
198.40541005134583,-400000.0625,8004.669921875,1423.0699462890625,-400000.0625,-994.0599975585938,-400000.0625,7273.43994140625,-400000.0625
198.43253660202026,-400000.0625,8007.47998046875,1432.75,-400000.0625,-985.719970703125,-400000.0625,7265.81005859375,-400000.0625
198.5545961856842,-400000.0625,8015.68017578125,1448.77001953125,-400000.0625,-972.5999755859375,-400000.0625,7251.5,-400000.0625
198.6499218940735,-400000.0625,8000.0400390625,1442.5799560546875,-400000.0625,-992.5399780273438,-400000.0625,7274.580078125,-400000.0625
198.77975821495056,-400000.0625,7977.2998046875,1412.300048828125,-400000.0625,-1013.6599731445312,-400000.0625,7264.9501953125,-400000.0625
198.8392333984375,-400000.0625,7994.3701171875,1430.699951171875,-400000.0625,-990.6799926757812,-400000.0625,7289.7001953125,-400000.0625
198.93701100349426,-400000.0625,8009.72021484375,1446.77001953125,-400000.0625,-969.739990234375,-400000.0625,7296.75,-400000.0625
199.00948429107666,-400000.0625,7965.47021484375,1402.3299560546875,-400000.0625,-1006.4600219726562,-400000.0625,7257.02978515625,-400000.0625
199.03073573112488,-400000.0625,7970.330078125,1407.9100341796875,-400000.0625,-1016.239990234375,-400000.0625,7258.75,-400000.0625
199.09576988220215,-400000.0625,7987.169921875,1427.5999755859375,-400000.0625,-1001.6400146484375,-400000.0625,7270.240234375,-400000.0625
199.1743278503418,-400000.0625,7986.64013671875,1428.699951171875,-400000.0625,-993.72998046875,-400000.0625,7267.669921875,-400000.0625
199.226881980896,-400000.0625,7988.02001953125,1433.3699951171875,-400000.0625,-997.1599731445312,-400000.0625,7294.93994140625,-400000.0625
199.3318853378296,-400000.0625,7981.97021484375,1417.300048828125,-400000.0625,-1014.469970703125,-400000.0625,7289.64990234375,-400000.0625
199.42856216430664,-400000.0625,7961.3701171875,1393.93994140625,-400000.0625,-1024.1500244140625,-400000.0625,7264.52001953125,-400000.0625
199.4911127090454,-400000.0625,7980.2998046875,1414.300048828125,-400000.0625,-1014.469970703125,-400000.0625,7288.97998046875,-400000.0625
199.54533767700195,-400000.0625,7984.4501953125,1421.6400146484375,-400000.0625,-1005.4600219726562,-400000.0625,7287.259765625,-400000.0625
199.6705288887024,-400000.0625,7979.43994140625,1409.0999755859375,-400000.0625,-1028.6800537109375,-400000.0625,7293.080078125,-400000.0625
199.7378146648407,-400000.0625,7955.22021484375,1385.8299560546875,-400000.0625,-1036.449951171875,-400000.0625,7269.85986328125,-400000.0625
199.80357027053833,-400000.0625,7975.14990234375,1408.77001953125,-400000.0625,-1018.2899780273438,-400000.0625,7285.8798828125,-400000.0625
199.86814641952515,-400000.0625,7979.43994140625,1408.2900390625,-400000.0625,-1018.719970703125,-400000.0625,7292.22021484375,-400000.0625
199.92744636535645,-400000.0625,7965.3701171875,1398.75,-400000.0625,-1030.6400146484375,-400000.0625,7271.72021484375,-400000.0625
200.03963494300842,-400000.0625,7948.4501953125,1380.1099853515625,-400000.0625,-1033.4000244140625,-400000.0625,7252.1201171875,-400000.0625
200.12642741203308,-400000.0625,7965.47021484375,1396.800048828125,-400000.0625,-1032.8800048828125,-400000.0625,7274.43994140625,-400000.0625
200.19216561317444,-400000.0625,7982.2099609375,1410.6300048828125,-400000.0625,-1009.5599975585938,-400000.0625,7282.93017578125,-400000.0625
200.2495903968811,-400000.0625,7961.66015625,1392.8900146484375,-400000.0625,-1031.969970703125,-400000.0625,7271.0,-400000.0625
200.3999617099762,-400000.0625,7955.1201171875,1379.6800537109375,-400000.0625,-1042.8900146484375,-400000.0625,7244.72998046875,-400000.0625
200.45297145843506,-400000.0625,7968.52001953125,1398.52001953125,-400000.0625,-1027.25,-400000.0625,7256.7900390625,-400000.0625
200.5431637763977,-400000.0625,7989.68994140625,1420.4000244140625,-400000.0625,-1018.3800048828125,-400000.0625,7272.91015625,-400000.0625
200.60593581199646,-400000.0625,7977.77001953125,1407.719970703125,-400000.0625,-1032.4000244140625,-400000.0625,7265.85009765625,-400000.0625
200.63031244277954,-400000.0625,7956.02978515625,1384.6400146484375,-400000.0625,-1050.4200439453125,-400000.0625,7248.31005859375,-400000.0625
200.66443371772766,-400000.0625,7954.41015625,1384.0699462890625,-400000.0625,-1047.1800537109375,-400000.0625,7244.02001953125,-400000.0625
200.72005677223206,-400000.0625,7965.52001953125,1398.7099609375,-400000.0625,-1032.8299560546875,-400000.0625,7261.93994140625,-400000.0625
200.74464678764343,-400000.0625,7969.9501953125,1409.43994140625,-400000.0625,-1023.5800170898438,-400000.0625,7269.2900390625,-400000.0625
200.76674509048462,-400000.0625,7969.08984375,1406.9100341796875,-400000.0625,-1023.6300048828125,-400000.0625,7252.5,-400000.0625
200.82240557670593,-400000.0625,7970.10009765625,1397.6600341796875,-400000.0625,-1025.719970703125,-400000.0625,7224.47021484375,-400000.0625
200.853675365448,-400000.0625,7968.330078125,1394.3199462890625,-400000.0625,-1029.780029296875,-400000.0625,7217.35986328125,-400000.0625
200.87430047988892,-400000.0625,7985.16015625,1418.780029296875,-400000.0625,-1016.3300170898438,-400000.0625,7225.08984375,-400000.0625
200.9223244190216,-400000.0625,8003.0498046875,1434.52001953125,-400000.0625,-1010.510009765625,-400000.0625,7237.81982421875,-400000.0625
200.94415521621704,-400000.0625,7994.3701171875,1419.2099609375,-400000.0625,-1021.6699829101562,-400000.0625,7222.64990234375,-400000.0625
200.96055364608765,-400000.0625,7973.580078125,1399.800048828125,-400000.0625,-1031.4000244140625,-400000.0625,7196.14013671875,-400000.0625
201.0258972644806,-400000.0625,7952.97998046875,1395.6099853515625,-400000.0625,-1053.7099609375,-400000.0625,7178.259765625,-400000.0625
201.13095211982727,-400000.0625,7970.240234375,1413.1500244140625,-400000.0625,-1027.6300048828125,-400000.0625,7190.509765625,-400000.0625
201.18446826934814,-400000.0625,7982.72998046875,1429.030029296875,-400000.0625,-1025.489990234375,-400000.0625,7219.89013671875,-400000.0625
201.27815699577332,-400000.0625,7946.39990234375,1390.550048828125,-400000.0625,-1056.719970703125,-400000.0625,7192.419921875,-400000.0625
201.34534001350403,-400000.0625,7943.5400390625,1386.6400146484375,-400000.0625,-1053.18994140625,-400000.0625,7189.1298828125,-400000.0625
201.41494297981262,-400000.0625,7963.22998046875,1407.6199951171875,-400000.0625,-1036.0699462890625,-400000.0625,7208.2998046875,-400000.0625
201.4993119239807,-400000.0625,7967.18994140625,1416.72998046875,-400000.0625,-1028.43994140625,-400000.0625,7229.14013671875,-400000.0625
201.52809143066406,-400000.0625,7934.18994140625,1376.43994140625,-400000.0625,-1048.6099853515625,-400000.0625,7197.759765625,-400000.0625
201.5921607017517,-400000.0625,7936.0498046875,1378.72998046875,-400000.0625,-1053.52001953125,-400000.0625,7196.669921875,-400000.0625
201.67113590240479,-400000.0625,7927.419921875,1374.8599853515625,-400000.0625,-1049.469970703125,-400000.0625,7216.169921875,-400000.0625
201.7914867401123,-400000.0625,7964.14013671875,1412.1099853515625,-400000.0625,-1019.1900024414062,-400000.0625,7260.22998046875,-400000.0625
201.8957962989807,-400000.0625,7936.10009765625,1383.5899658203125,-400000.0625,-1039.550048828125,-400000.0625,7240.72998046875,-400000.0625
201.94141578674316,-400000.0625,7930.22998046875,1377.9200439453125,-400000.0625,-1044.22998046875,-400000.0625,7232.08984375,-400000.0625
201.99917030334473,-400000.0625,7926.31982421875,1375.5799560546875,-400000.0625,-1040.510009765625,-400000.0625,7235.72021484375,-400000.0625
202.04686403274536,-400000.0625,7945.919921875,1390.030029296875,-400000.0625,-1030.300048828125,-400000.0625,7248.35009765625,-400000.0625
202.13082551956177,-400000.0625,7952.5498046875,1398.1300048828125,-400000.0625,-1026.489990234375,-400000.0625,7262.0400390625,-400000.0625
202.21450853347778,-400000.0625,7942.6298828125,1385.4000244140625,-400000.0625,-1029.300048828125,-400000.0625,7252.169921875,-400000.0625
202.26278591156006,-400000.0625,7926.7998046875,1364.3699951171875,-400000.0625,-1043.8399658203125,-400000.0625,7224.1298828125,-400000.0625
202.38155555725098,-400000.0625,7952.740234375,1389.6500244140625,-400000.0625,-1012.4199829101562,-400000.0625,7243.81982421875,-400000.0625
202.4617257118225,-400000.0625,7965.14013671875,1402.18994140625,-400000.0625,-1003.1199951171875,-400000.0625,7252.02978515625,-400000.0625
202.49573373794556,-400000.0625,7961.0400390625,1391.1199951171875,-400000.0625,-1017.8599853515625,-400000.0625,7256.1298828125,-400000.0625
202.58498668670654,-400000.0625,7940.14990234375,1369.8599853515625,-400000.0625,-1026.72998046875,-400000.0625,7236.2001953125,-400000.0625
202.61727809906006,-400000.0625,7932.81005859375,1364.280029296875,-400000.0625,-1029.43994140625,-400000.0625,7219.5498046875,-400000.0625
202.68035578727722,-400000.0625,7949.10986328125,1381.3499755859375,-400000.0625,-1013.9000244140625,-400000.0625,7239.43994140625,-400000.0625
202.81944847106934,-400000.0625,7968.14013671875,1402.18994140625,-400000.0625,-1010.510009765625,-400000.0625,7213.93017578125,-400000.0625
202.87828421592712,-400000.0625,7950.830078125,1382.72998046875,-400000.0625,-1016.7100219726562,-400000.0625,7195.0400390625,-400000.0625
203.00161027908325,-400000.0625,7960.83984375,1393.1300048828125,-400000.0625,-1005.8400268554688,-400000.0625,7211.830078125,-400000.0625
203.03940534591675,-400000.0625,7975.72021484375,1413.06005859375,-400000.0625,-992.969970703125,-400000.0625,7228.08984375,-400000.0625
203.05905413627625,-400000.0625,7966.52001953125,1404.7099609375,-400000.0625,-1003.5999755859375,-400000.0625,7219.4599609375,-400000.0625
203.08647513389587,-400000.0625,7948.830078125,1383.8800048828125,-400000.0625,-1019.760009765625,-400000.0625,7194.81005859375,-400000.0625
203.1047191619873,-400000.0625,7940.9599609375,1377.6800537109375,-400000.0625,-1022.010009765625,-400000.0625,7194.47021484375,-400000.0625
203.14808130264282,-400000.0625,7961.0400390625,1398.56005859375,-400000.0625,-1004.3099975585938,-400000.0625,7211.5400390625,-400000.0625
203.16796326637268,-400000.0625,7976.9599609375,1416.06005859375,-400000.0625,-991.2000122070312,-400000.0625,7229.52001953125,-400000.0625
203.19067001342773,-400000.0625,7969.7099609375,1404.6700439453125,-400000.0625,-998.6400146484375,-400000.0625,7218.169921875,-400000.0625
203.21261858940125,-400000.0625,7949.02001953125,1383.02001953125,-400000.0625,-1016.0900268554688,-400000.0625,7195.330078125,-400000.0625
203.25349712371826,-400000.0625,7944.2998046875,1380.06005859375,-400000.0625,-1011.7999877929688,-400000.0625,7195.85986328125,-400000.0625
203.27319979667664,-400000.0625,7965.0400390625,1398.8499755859375,-400000.0625,-995.02001953125,-400000.0625,7212.1201171875,-400000.0625
203.29450750350952,-400000.0625,7976.81982421875,1413.010009765625,-400000.0625,-989.719970703125,-400000.0625,7227.52001953125,-400000.0625
203.315838098526,-400000.0625,7965.60986328125,1401.0,-400000.0625,-1009.27001953125,-400000.0625,7220.169921875,-400000.0625
203.3583197593689,-400000.0625,7943.77001953125,1379.1099853515625,-400000.0625,-1026.8199462890625,-400000.0625,7199.14990234375,-400000.0625
203.3863275051117,-400000.0625,7942.33984375,1373.719970703125,-400000.0625,-1026.010009765625,-400000.0625,7193.330078125,-400000.0625
203.41782355308533,-400000.0625,7956.5498046875,1390.9300537109375,-400000.0625,-1009.989990234375,-400000.0625,7209.02001953125,-400000.0625
203.47963523864746,-400000.0625,7969.89990234375,1407.3900146484375,-400000.0625,-996.489990234375,-400000.0625,7220.93994140625,-400000.0625
203.5268156528473,-400000.0625,7927.419921875,1362.93994140625,-400000.0625,-1029.6300048828125,-400000.0625,7216.8798828125,-400000.0625
203.6215147972107,-400000.0625,7925.93994140625,1357.3599853515625,-400000.0625,-1034.5,-400000.0625,7215.259765625,-400000.0625
203.67029333114624,-400000.0625,7952.93017578125,1374.43994140625,-400000.0625,-1017.0499877929688,-400000.0625,7232.14013671875,-400000.0625
203.75202989578247,-400000.0625,7966.419921875,1392.0799560546875,-400000.0625,-1006.8900146484375,-400000.0625,7244.77978515625,-400000.0625
203.85558104515076,-400000.0625,7958.3701171875,1389.6500244140625,-400000.0625,-1020.9600219726562,-400000.0625,7239.6298828125,-400000.0625
204.0626015663147,-400000.0625,7935.240234375,1365.8499755859375,-400000.0625,-1032.4000244140625,-400000.0625,7219.97998046875,-400000.0625
204.25254249572754,-400000.0625,7931.3798828125,1358.27001953125,-400000.0625,-1022.1500244140625,-400000.0625,7215.31005859375,-400000.0625
204.33576011657715,-400000.0625,7950.2099609375,1377.1099853515625,-400000.0625,-1010.0399780273438,-400000.0625,7233.0,-400000.0625
204.37082290649414,-400000.0625,7960.75,1391.219970703125,-400000.0625,-1009.1799926757812,-400000.0625,7248.68994140625,-400000.0625
204.44180178642273,-400000.0625,7957.27001953125,1386.550048828125,-400000.0625,-1015.280029296875,-400000.0625,7241.6298828125,-400000.0625
204.50575041770935,-400000.0625,7941.52978515625,1366.18994140625,-400000.0625,-1027.199951171875,-400000.0625,7217.83984375,-400000.0625
204.6180317401886,-400000.0625,7931.27978515625,1358.3699951171875,-400000.0625,-1029.9200439453125,-400000.0625,7211.10986328125,-400000.0625
204.69898080825806,-400000.0625,7947.64013671875,1378.969970703125,-400000.0625,-1018.47998046875,-400000.0625,7228.85009765625,-400000.0625
204.72545742988586,-400000.0625,7965.47021484375,1396.989990234375,-400000.0625,-1006.9400024414062,-400000.0625,7246.5,-400000.0625
204.77884554862976,-400000.0625,7960.4599609375,1389.8900146484375,-400000.0625,-1005.9400024414062,-400000.0625,7240.580078125,-400000.0625
204.80816292762756,-400000.0625,7941.580078125,1370.050048828125,-400000.0625,-1022.530029296875,-400000.0625,7218.64990234375,-400000.0625
204.84409189224243,-400000.0625,7930.60986328125,1361.1800537109375,-400000.0625,-1028.5899658203125,-400000.0625,7213.39990234375,-400000.0625
204.95767331123352,-400000.0625,7950.8798828125,1378.010009765625,-400000.0625,-1016.6599731445312,-400000.0625,7231.0498046875,-400000.0625
205.08504176139832,-400000.0625,7970.47998046875,1397.989990234375,-400000.0625,-1001.8300170898438,-400000.0625,7251.259765625,-400000.0625
205.15482449531555,-400000.0625,7962.990234375,1391.1199951171875,-400000.0625,-1004.5999755859375,-400000.0625,7248.4501953125,-400000.0625
205.1966781616211,-400000.0625,7941.77001953125,1368.4300537109375,-400000.0625,-1021.8599853515625,-400000.0625,7223.1298828125,-400000.0625
205.30162620544434,-400000.0625,7939.2900390625,1364.8499755859375,-400000.0625,-1028.72998046875,-400000.0625,7216.06982421875,-400000.0625
205.36670970916748,-400000.0625,7959.18017578125,1387.31005859375,-400000.0625,-1013.280029296875,-400000.0625,7236.52978515625,-400000.0625
205.41476798057556,-400000.0625,7969.47998046875,1400.4200439453125,-400000.0625,-1006.4600219726562,-400000.0625,7254.64990234375,-400000.0625
205.4836654663086,-400000.0625,7957.75,1389.550048828125,-400000.0625,-1020.2899780273438,-400000.0625,7249.259765625,-400000.0625
205.55414867401123,-400000.0625,7938.72021484375,1371.1500244140625,-400000.0625,-1035.2099609375,-400000.0625,7227.419921875,-400000.0625
205.62197041511536,-400000.0625,7938.10009765625,1365.1800537109375,-400000.0625,-1029.2099609375,-400000.0625,7220.080078125,-400000.0625
205.66158437728882,-400000.0625,7957.83984375,1384.9300537109375,-400000.0625,-1011.6599731445312,-400000.0625,7237.240234375,-400000.0625
205.71912455558777,-400000.0625,7973.0498046875,1401.8499755859375,-400000.0625,-1001.3599853515625,-400000.0625,7253.27001953125,-400000.0625
205.75513911247253,-400000.0625,7962.990234375,1395.1800537109375,-400000.0625,-1007.7000122070312,-400000.0625,7248.93017578125,-400000.0625
205.78067255020142,-400000.0625,7944.490234375,1372.3900146484375,-400000.0625,-1021.0499877929688,-400000.0625,7226.990234375,-400000.0625
205.82753682136536,-400000.0625,7938.14990234375,1364.800048828125,-400000.0625,-1025.77001953125,-400000.0625,7222.93994140625,-400000.0625
205.8540449142456,-400000.0625,7949.93017578125,1380.1600341796875,-400000.0625,-1017.9000244140625,-400000.0625,7239.2900390625,-400000.0625
205.87244272232056,-400000.0625,7968.56982421875,1398.469970703125,-400000.0625,-1006.9400024414062,-400000.0625,7255.35986328125,-400000.0625
205.90776824951172,-400000.0625,7960.75,1389.739990234375,-400000.0625,-1013.1400146484375,-400000.0625,7249.68994140625,-400000.0625
205.962016582489,-400000.0625,7939.39013671875,1365.760009765625,-400000.0625,-1027.06005859375,-400000.0625,7225.31982421875,-400000.0625
205.98470211029053,-400000.0625,7934.0,1362.3199462890625,-400000.0625,-1036.2099609375,-400000.0625,7222.60986328125,-400000.0625
206.01316213607788,-400000.0625,7954.7900390625,1382.06005859375,-400000.0625,-1024.1500244140625,-400000.0625,7243.8701171875,-400000.0625
206.08217692375183,-400000.0625,7968.08984375,1395.22998046875,-400000.0625,-1011.469970703125,-400000.0625,7255.83984375,-400000.0625
206.11526346206665,-400000.0625,7959.27001953125,1386.6400146484375,-400000.0625,-1015.22998046875,-400000.0625,7249.31005859375,-400000.0625
206.17463755607605,-400000.0625,7939.6298828125,1362.469970703125,-400000.0625,-1025.6300048828125,-400000.0625,7226.18017578125,-400000.0625
206.21072793006897,-400000.0625,7932.22998046875,1357.510009765625,-400000.0625,-1032.02001953125,-400000.0625,7218.41015625,-400000.0625
206.2409279346466,-400000.0625,7951.169921875,1379.010009765625,-400000.0625,-1019.2899780273438,-400000.0625,7237.240234375,-400000.0625
206.29155802726746,-400000.0625,7967.9501953125,1396.75,-400000.0625,-1006.6500244140625,-400000.0625,7256.41015625,-400000.0625
206.30622839927673,-400000.0625,7961.22998046875,1387.02001953125,-400000.0625,-1006.4099731445312,-400000.0625,7248.93017578125,-400000.0625
206.3187882900238,-400000.0625,7940.91015625,1363.3299560546875,-400000.0625,-1019.530029296875,-400000.0625,7229.14013671875,-400000.0625
206.33669996261597,-400000.0625,7933.18994140625,1358.0799560546875,-400000.0625,-1028.3900146484375,-400000.0625,7220.56005859375,-400000.0625
206.35398411750793,-400000.0625,7950.35009765625,1375.530029296875,-400000.0625,-1022.2000122070312,-400000.0625,7237.91015625,-400000.0625
206.40926671028137,-400000.0625,7969.14013671875,1393.219970703125,-400000.0625,-1012.0399780273438,-400000.0625,7254.740234375,-400000.0625
206.4239318370819,-400000.0625,7958.3701171875,1385.8800048828125,-400000.0625,-1016.9000244140625,-400000.0625,7247.06982421875,-400000.0625
206.44187784194946,-400000.0625,7933.47021484375,1359.0799560546875,-400000.0625,-1034.3599853515625,-400000.0625,7223.75,-400000.0625
206.46912026405334,-400000.0625,7932.0400390625,1354.5,-400000.0625,-1041.8399658203125,-400000.0625,7216.64990234375,-400000.0625
206.50354194641113,-400000.0625,7944.6298828125,1368.52001953125,-400000.0625,-1031.3499755859375,-400000.0625,7231.43017578125,-400000.0625
206.51973843574524,-400000.0625,7964.89990234375,1388.550048828125,-400000.0625,-1013.7999877929688,-400000.0625,7249.39990234375,-400000.0625
206.5386025905609,-400000.0625,7956.7001953125,1378.199951171875,-400000.0625,-1016.0900268554688,-400000.0625,7244.64013671875,-400000.0625
206.56032609939575,-400000.0625,7932.85009765625,1355.97998046875,-400000.0625,-1032.4000244140625,-400000.0625,7221.990234375,-400000.0625
206.5781192779541,-400000.0625,7927.66015625,1352.68994140625,-400000.0625,-1033.6400146484375,-400000.0625,7215.41015625,-400000.0625
206.63816738128662,-400000.0625,7941.68017578125,1367.5699462890625,-400000.0625,-1026.5799560546875,-400000.0625,7231.89990234375,-400000.0625
206.65969467163086,-400000.0625,7957.97998046875,1385.2099609375,-400000.0625,-1018.0,-400000.0625,7249.7900390625,-400000.0625
206.6913619041443,-400000.0625,7951.740234375,1379.5400390625,-400000.0625,-1016.6599731445312,-400000.0625,7246.830078125,-400000.0625
206.72448110580444,-400000.0625,7936.0498046875,1360.4200439453125,-400000.0625,-1029.3499755859375,-400000.0625,7230.240234375,-400000.0625
206.74280858039856,-400000.0625,7927.27978515625,1350.1199951171875,-400000.0625,-1040.4100341796875,-400000.0625,7218.31005859375,-400000.0625
206.7603735923767,-400000.0625,7937.81005859375,1362.8499755859375,-400000.0625,-1039.699951171875,-400000.0625,7229.85009765625,-400000.0625
206.78351879119873,-400000.0625,7955.1201171875,1381.3499755859375,-400000.0625,-1027.1600341796875,-400000.0625,7252.5498046875,-400000.0625
206.80930590629578,-400000.0625,7954.5,1378.010009765625,-400000.0625,-1016.52001953125,-400000.0625,7241.97021484375,-400000.0625
206.84315371513367,-400000.0625,7935.669921875,1358.699951171875,-400000.0625,-1023.239990234375,-400000.0625,7219.97998046875,-400000.0625
206.86468148231506,-400000.0625,7933.89990234375,1356.7900390625,-400000.0625,-1027.5400390625,-400000.0625,7212.31005859375,-400000.0625
206.8865203857422,-400000.0625,7957.97998046875,1377.489990234375,-400000.0625,-1023.6300048828125,-400000.0625,7223.7998046875,-400000.0625
206.91012573242188,-400000.0625,7973.72021484375,1393.75,-400000.0625,-1002.260009765625,-400000.0625,7237.47998046875,-400000.0625
206.9654037952423,-400000.0625,7964.66015625,1388.030029296875,-400000.0625,-1009.0399780273438,-400000.0625,7233.330078125,-400000.0625
207.00801014900208,-400000.0625,7942.9599609375,1363.0899658203125,-400000.0625,-1037.550048828125,-400000.0625,7211.8798828125,-400000.0625
207.05142521858215,-400000.0625,7933.18994140625,1354.8900146484375,-400000.0625,-1040.0799560546875,-400000.0625,7200.43017578125,-400000.0625
207.12064862251282,-400000.0625,7949.830078125,1372.3399658203125,-400000.0625,-1022.9099731445312,-400000.0625,7218.27001953125,-400000.0625
207.16822862625122,-400000.0625,7965.14013671875,1386.449951171875,-400000.0625,-1015.0399780273438,-400000.0625,7232.85986328125,-400000.0625
207.2505280971527,-400000.0625,7962.27978515625,1380.8299560546875,-400000.0625,-1023.719970703125,-400000.0625,7223.93994140625,-400000.0625
207.29160857200623,-400000.0625,7937.81005859375,1360.0400390625,-400000.0625,-1041.27001953125,-400000.0625,7205.009765625,-400000.0625
207.37400650978088,-400000.0625,7930.419921875,1356.27001953125,-400000.0625,-1032.5899658203125,-400000.0625,7200.669921875,-400000.0625
207.42111015319824,-400000.0625,7957.02978515625,1377.6300048828125,-400000.0625,-1011.6599731445312,-400000.0625,7219.93994140625,-400000.0625
207.48571038246155,-400000.0625,7973.669921875,1393.510009765625,-400000.0625,-1008.0800170898438,-400000.0625,7237.669921875,-400000.0625
207.51810932159424,-400000.0625,7960.83984375,1387.97998046875,-400000.0625,-1014.469970703125,-400000.0625,7231.08984375,-400000.0625
207.54646348953247,-400000.0625,7941.490234375,1365.800048828125,-400000.0625,-1027.8699951171875,-400000.0625,7207.72998046875,-400000.0625
207.59932708740234,-400000.0625,7938.2900390625,1358.8900146484375,-400000.0625,-1037.449951171875,-400000.0625,7201.81982421875,-400000.0625
207.6307053565979,-400000.0625,7951.93017578125,1376.8699951171875,-400000.0625,-1026.8199462890625,-400000.0625,7219.02978515625,-400000.0625
207.67251086235046,-400000.0625,7971.18994140625,1396.989990234375,-400000.0625,-1014.0399780273438,-400000.0625,7236.52978515625,-400000.0625
207.71967720985413,-400000.0625,7967.14013671875,1388.5999755859375,-400000.0625,-1021.6699829101562,-400000.0625,7233.2900390625,-400000.0625
207.7485818862915,-400000.0625,7937.33984375,1362.22998046875,-400000.0625,-1032.2099609375,-400000.0625,7211.5,-400000.0625
207.77271795272827,-400000.0625,7930.419921875,1355.030029296875,-400000.0625,-1033.1600341796875,-400000.0625,7201.81982421875,-400000.0625
207.81931281089783,-400000.0625,7949.5,1374.199951171875,-400000.0625,-1024.6800537109375,-400000.0625,7218.89013671875,-400000.0625
207.84393978118896,-400000.0625,7966.419921875,1392.97998046875,-400000.0625,-1018.5700073242188,-400000.0625,7238.06005859375,-400000.0625
207.87755703926086,-400000.0625,7963.7998046875,1388.5,-400000.0625,-1022.5800170898438,-400000.0625,7233.81005859375,-400000.0625
207.92333006858826,-400000.0625,7940.10009765625,1368.239990234375,-400000.0625,-1031.780029296875,-400000.0625,7213.2099609375,-400000.0625
207.96067714691162,-400000.0625,7932.14013671875,1362.280029296875,-400000.0625,-1028.8699951171875,-400000.0625,7205.10986328125,-400000.0625
