time,ch1,ch2,ch3,ch4,ch5,ch6,ch7,ch8
228.09674215316772,-400000.0625,-13611.26953125,-2906.89990234375,-400000.0625,-8789.8701171875,-400000.0625,-18402.33984375,-400000.0625
228.12769436836243,-400000.0625,-13623.3798828125,-2908.75,-400000.0625,-8794.400390625,-400000.0625,-18422.3203125,-400000.0625
228.1642622947693,-400000.0625,-13596.73046875,-2896.7900390625,-400000.0625,-8776.8095703125,-400000.0625,-18396.900390625,-400000.0625
228.17705583572388,-400000.0625,-13570.830078125,-2881.909912109375,-400000.0625,-8760.41015625,-400000.0625,-18361.5703125,-400000.0625
228.20595145225525,-400000.0625,-13579.0400390625,-2882.10009765625,-400000.0625,-8763.3603515625,-400000.0625,-18370.9609375,-400000.0625
228.23091340065002,-400000.0625,-13614.0400390625,-2910.0400390625,-400000.0625,-8791.6396484375,-400000.0625,-18402.009765625,-400000.0625
228.27544021606445,-400000.0625,-13626.7197265625,-2913.090087890625,-400000.0625,-8800.2197265625,-400000.0625,-18417.029296875,-400000.0625
228.30205178260803,-400000.0625,-13600.58984375,-2900.27001953125,-400000.0625,-8776.7099609375,-400000.0625,-18395.189453125,-400000.0625
228.3287115097046,-400000.0625,-13580.4697265625,-2889.6298828125,-400000.0625,-8755.7802734375,-400000.0625,-18367.859375,-400000.0625
228.3587031364441,-400000.0625,-13579.66015625,-2891.02001953125,-400000.0625,-8759.830078125,-400000.0625,-18372.869140625,-400000.0625
228.44310212135315,-400000.0625,-13610.3603515625,-2906.610107421875,-400000.0625,-8791.0703125,-400000.0625,-18402.19921875,-400000.0625
228.47496342658997,-400000.0625,-13628.6796875,-2917.719970703125,-400000.0625,-8807.330078125,-400000.0625,-18415.9296875,-400000.0625
228.54385209083557,-400000.0625,-13597.349609375,-2897.97998046875,-400000.0625,-8781.6201171875,-400000.0625,-18392.66015625,-400000.0625
228.59738397598267,-400000.0625,-13568.4501953125,-2879.239990234375,-400000.0625,-8754.4501953125,-400000.0625,-18361.900390625,-400000.0625
228.67036175727844,-400000.0625,-13578.3203125,-2886.679931640625,-400000.0625,-8765.1298828125,-400000.0625,-18367.8203125,-400000.0625
228.69333815574646,-400000.0625,-13610.3603515625,-2903.800048828125,-400000.0625,-8789.830078125,-400000.0625,-18401.859375,-400000.0625
228.7285008430481,-400000.0625,-13628.150390625,-2916.9599609375,-400000.0625,-8797.6904296875,-400000.0625,-18418.029296875,-400000.0625
228.7902476787567,-400000.0625,-13603.01953125,-2906.510009765625,-400000.0625,-8774.900390625,-400000.0625,-18384.98046875,-400000.0625
228.80754280090332,-400000.0625,-13568.01953125,-2882.050048828125,-400000.0625,-8750.5400390625,-400000.0625,-18358.609375,-400000.0625
228.83107113838196,-400000.0625,-13570.01953125,-2886.010009765625,-400000.0625,-8761.259765625,-400000.0625,-18366.76953125,-400000.0625
228.8819408416748,-400000.0625,-13613.1298828125,-2909.7099609375,-400000.0625,-8795.599609375,-400000.0625,-18404.19921875,-400000.0625
228.90651416778564,-400000.0625,-13629.490234375,-2920.820068359375,-400000.0625,-8803.3203125,-400000.0625,-18420.890625,-400000.0625
228.92285299301147,-400000.0625,-13602.3095703125,-2902.169921875,-400000.0625,-8775.4296875,-400000.0625,-18401.099609375,-400000.0625
228.93994069099426,-400000.0625,-13571.2197265625,-2881.2900390625,-400000.0625,-8754.5400390625,-400000.0625,-18361.189453125,-400000.0625
228.9808828830719,-400000.0625,-13575.8896484375,-2887.489990234375,-400000.0625,-8758.830078125,-400000.0625,-18364.33984375,-400000.0625
229.00407147407532,-400000.0625,-13609.740234375,-2904.610107421875,-400000.0625,-8784.490234375,-400000.0625,-18401.19921875,-400000.0625
229.02059864997864,-400000.0625,-13628.91015625,-2915.10009765625,-400000.0625,-8801.41015625,-400000.0625,-18416.310546875,-400000.0625
229.0389473438263,-400000.0625,-13605.6396484375,-2904.179931640625,-400000.0625,-8780.0498046875,-400000.0625,-18387.509765625,-400000.0625
229.0564477443695,-400000.0625,-13571.6904296875,-2885.199951171875,-400000.0625,-8752.73046875,-400000.0625,-18361.279296875,-400000.0625
229.09384894371033,-400000.0625,-13583.900390625,-2894.8798828125,-400000.0625,-8761.41015625,-400000.0625,-18374.2109375,-400000.0625
229.11743569374084,-400000.0625,-13616.1298828125,-2908.56005859375,-400000.0625,-8785.73046875,-400000.0625,-18404.439453125,-400000.0625
229.14396405220032,-400000.0625,-13628.5302734375,-2917.2900390625,-400000.0625,-8796.5,-400000.0625,-18416.98046875,-400000.0625
229.16567206382751,-400000.0625,-13606.740234375,-2906.659912109375,-400000.0625,-8784.150390625,-400000.0625,-18396.240234375,-400000.0625
229.21112155914307,-400000.0625,-13578.0400390625,-2887.8701171875,-400000.0625,-8765.75,-400000.0625,-18364.9609375,-400000.0625
229.23804092407227,-400000.0625,-13577.8896484375,-2888.580078125,-400000.0625,-8764.4599609375,-400000.0625,-18369.869140625,-400000.0625
229.25814080238342,-400000.0625,-13614.1298828125,-2905.659912109375,-400000.0625,-8787.0595703125,-400000.0625,-18400.619140625,-400000.0625
229.27880191802979,-400000.0625,-13628.0595703125,-2916.2900390625,-400000.0625,-8793.8798828125,-400000.0625,-18417.41015625,-400000.0625
229.3220717906952,-400000.0625,-13599.9697265625,-2897.260009765625,-400000.0625,-8774.849609375,-400000.0625,-18387.1796875,-400000.0625
229.340594291687,-400000.0625,-13567.259765625,-2882.18994140625,-400000.0625,-8749.4404296875,-400000.0625,-18358.279296875,-400000.0625
229.3693037033081,-400000.0625,-13579.23046875,-2892.300048828125,-400000.0625,-8760.7900390625,-400000.0625,-18365.720703125,-400000.0625
229.39434552192688,-400000.0625,-13614.75,-2912.280029296875,-400000.0625,-8794.1201171875,-400000.0625,-18402.2890625,-400000.0625
229.42839288711548,-400000.0625,-13629.150390625,-2923.580078125,-400000.0625,-8809.5703125,-400000.0625,-18419.080078125,-400000.0625
229.45680356025696,-400000.0625,-13605.5498046875,-2907.89990234375,-400000.0625,-8787.58984375,-400000.0625,-18388.939453125,-400000.0625
229.47456765174866,-400000.0625,-13567.7802734375,-2886.43994140625,-400000.0625,-8752.16015625,-400000.0625,-18356.130859375,-400000.0625
229.50622582435608,-400000.0625,-13573.83984375,-2886.489990234375,-400000.0625,-8755.490234375,-400000.0625,-18363.240234375,-400000.0625
229.5710277557373,-400000.0625,-13611.990234375,-2909.3701171875,-400000.0625,-8796.259765625,-400000.0625,-18398.810546875,-400000.0625
229.5907280445099,-400000.0625,-13625.8095703125,-2917.669921875,-400000.0625,-8803.9404296875,-400000.0625,-18409.919921875,-400000.0625
229.6059286594391,-400000.0625,-13601.8798828125,-2903.080078125,-400000.0625,-8779.6201171875,-400000.0625,-18388.990234375,-400000.0625
229.6370027065277,-400000.0625,-13570.740234375,-2883.239990234375,-400000.0625,-8758.01953125,-400000.0625,-18358.849609375,-400000.0625
229.69916987419128,-400000.0625,-13576.5595703125,-2889.35009765625,-400000.0625,-8765.75,-400000.0625,-18365.619140625,-400000.0625
229.72220253944397,-400000.0625,-13610.41015625,-2904.1298828125,-400000.0625,-8791.919921875,-400000.0625,-18393.609375,-400000.0625
229.7485318183899,-400000.0625,-13622.8095703125,-2912.81005859375,-400000.0625,-8802.1298828125,-400000.0625,-18409.490234375,-400000.0625
229.79013466835022,-400000.0625,-13595.6796875,-2899.739990234375,-400000.0625,-8779.7197265625,-400000.0625,-18386.41015625,-400000.0625
229.81484127044678,-400000.0625,-13566.73046875,-2882.18994140625,-400000.0625,-8755.01953125,-400000.0625,-18356.75,-400000.0625
229.84842228889465,-400000.0625,-13573.98046875,-2884.43994140625,-400000.0625,-8765.509765625,-400000.0625,-18362.380859375,-400000.0625
229.87165760993958,-400000.0625,-13609.4599609375,-2906.75,-400000.0625,-8792.0703125,-400000.0625,-18398.4296875,-400000.0625
229.90960025787354,-400000.0625,-13626.33984375,-2916.429931640625,-400000.0625,-8801.26953125,-400000.0625,-18422.1796875,-400000.0625
229.93462419509888,-400000.0625,-13603.0703125,-2904.4599609375,-400000.0625,-8779.48046875,-400000.0625,-18391.419921875,-400000.0625
229.95593523979187,-400000.0625,-13571.5,-2888.969970703125,-400000.0625,-8755.4501953125,-400000.0625,-18360.66015625,-400000.0625
229.97195267677307,-400000.0625,-13572.7900390625,-2885.9599609375,-400000.0625,-8757.58984375,-400000.0625,-18366.009765625,-400000.0625
230.014630317688,-400000.0625,-13613.1298828125,-2906.56005859375,-400000.0625,-8786.150390625,-400000.0625,-18403.150390625,-400000.0625
230.0497922897339,-400000.0625,-13628.5302734375,-2917.580078125,-400000.0625,-8804.3203125,-400000.0625,-18415.0703125,-400000.0625
230.06851816177368,-400000.0625,-13605.6904296875,-2904.64990234375,-400000.0625,-8789.400390625,-400000.0625,-18392.51953125,-400000.0625
230.08293867111206,-400000.0625,-13571.4501953125,-2887.389892578125,-400000.0625,-8760.740234375,-400000.0625,-18363.2890625,-400000.0625
230.1297619342804,-400000.0625,-13576.83984375,-2887.010009765625,-400000.0625,-8760.6396484375,-400000.0625,-18361.759765625,-400000.0625
230.14767336845398,-400000.0625,-13612.5595703125,-2906.3701171875,-400000.0625,-8791.5,-400000.0625,-18397.380859375,-400000.0625
230.16737985610962,-400000.0625,-13623.4296875,-2910.659912109375,-400000.0625,-8803.1796875,-400000.0625,-18412.310546875,-400000.0625
230.18126463890076,-400000.0625,-13598.400390625,-2897.929931640625,-400000.0625,-8784.7197265625,-400000.0625,-18389.1796875,-400000.0625
230.20741248130798,-400000.0625,-13565.2998046875,-2878.81005859375,-400000.0625,-8751.580078125,-400000.0625,-18358.08984375,-400000.0625
230.24727940559387,-400000.0625,-13565.400390625,-2881.3798828125,-400000.0625,-8756.5400390625,-400000.0625,-18358.80078125,-400000.0625
230.27320528030396,-400000.0625,-13608.26953125,-2906.280029296875,-400000.0625,-8794.169921875,-400000.0625,-18400.33984375,-400000.0625
230.29758524894714,-400000.0625,-13626.91015625,-2916.2900390625,-400000.0625,-8809.51953125,-400000.0625,-18415.41015625,-400000.0625
230.31656670570374,-400000.0625,-13601.2998046875,-2899.31005859375,-400000.0625,-8785.25,-400000.0625,-18397.099609375,-400000.0625
230.3621895313263,-400000.0625,-13567.5400390625,-2880.909912109375,-400000.0625,-8758.3603515625,-400000.0625,-18361.380859375,-400000.0625
230.3857343196869,-400000.0625,-13572.4599609375,-2886.679931640625,-400000.0625,-8761.0302734375,-400000.0625,-18362.189453125,-400000.0625
230.40136337280273,-400000.0625,-13607.83984375,-2907.85009765625,-400000.0625,-8786.2998046875,-400000.0625,-18395.279296875,-400000.0625
230.41779160499573,-400000.0625,-13619.849609375,-2912.52001953125,-400000.0625,-8799.4599609375,-400000.0625,-18408.5390625,-400000.0625
230.4696741104126,-400000.0625,-13590.76953125,-2891.969970703125,-400000.0625,-8777.4296875,-400000.0625,-18389.0390625,-400000.0625
230.49621677398682,-400000.0625,-13563.73046875,-2878.949951171875,-400000.0625,-8763.080078125,-400000.0625,-18352.80078125,-400000.0625
230.51257753372192,-400000.0625,-13570.169921875,-2881.9599609375,-400000.0625,-8761.0302734375,-400000.0625,-18359.470703125,-400000.0625
230.54240107536316,-400000.0625,-13606.599609375,-2907.179931640625,-400000.0625,-8787.6298828125,-400000.0625,-18393.330078125,-400000.0625
230.58847522735596,-400000.0625,-13620.9501953125,-2912.239990234375,-400000.0625,-8798.740234375,-400000.0625,-18411.5390625,-400000.0625
230.60939383506775,-400000.0625,-13592.2900390625,-2894.5400390625,-400000.0625,-8780.4296875,-400000.0625,-18385.080078125,-400000.0625
230.64487433433533,-400000.0625,-13564.1103515625,-2876.7099609375,-400000.0625,-8757.5400390625,-400000.0625,-18357.7109375,-400000.0625
230.7102816104889,-400000.0625,-13571.4501953125,-2882.530029296875,-400000.0625,-8760.599609375,-400000.0625,-18365.48046875,-400000.0625
230.73553657531738,-400000.0625,-13600.7802734375,-2896.260009765625,-400000.0625,-8785.009765625,-400000.0625,-18390.369140625,-400000.0625
230.7629270553589,-400000.0625,-13622.2900390625,-2913.89990234375,-400000.0625,-8802.509765625,-400000.0625,-18406.6796875,-400000.0625
230.79959630966187,-400000.0625,-13597.4404296875,-2900.840087890625,-400000.0625,-8787.4404296875,-400000.0625,-18383.220703125,-400000.0625
230.82930278778076,-400000.0625,-13565.830078125,-2884.389892578125,-400000.0625,-8760.01953125,-400000.0625,-18349.3203125,-400000.0625
230.85778498649597,-400000.0625,-13570.5,-2890.43994140625,-400000.0625,-8761.0703125,-400000.0625,-18361.4296875,-400000.0625
230.88995265960693,-400000.0625,-13600.919921875,-2903.179931640625,-400000.0625,-8789.7802734375,-400000.0625,-18389.26953125,-400000.0625
230.93369102478027,-400000.0625,-13622.7099609375,-2915.719970703125,-400000.0625,-8806.900390625,-400000.0625,-18407.869140625,-400000.0625
230.96103739738464,-400000.0625,-13601.73046875,-2904.030029296875,-400000.0625,-8784.8701171875,-400000.0625,-18388.130859375,-400000.0625
230.99885296821594,-400000.0625,-13566.58984375,-2883.530029296875,-400000.0625,-8757.5400390625,-400000.0625,-18361.08984375,-400000.0625
231.0421986579895,-400000.0625,-13569.6396484375,-2883.530029296875,-400000.0625,-8754.1103515625,-400000.0625,-18361.94921875,-400000.0625
231.05906057357788,-400000.0625,-13605.5,-2903.60009765625,-400000.0625,-8777.7099609375,-400000.0625,-18392.990234375,-400000.0625
231.07300424575806,-400000.0625,-13620.1904296875,-2913.7099609375,-400000.0625,-8801.2197265625,-400000.0625,-18404.30078125,-400000.0625
231.09132838249207,-400000.0625,-13595.0595703125,-2898.739990234375,-400000.0625,-8785.9599609375,-400000.0625,-18383.890625,-400000.0625
231.1110715866089,-400000.0625,-13558.6796875,-2876.090087890625,-400000.0625,-8757.0703125,-400000.0625,-18353.849609375,-400000.0625
231.17926716804504,-400000.0625,-13563.830078125,-2879.429931640625,-400000.0625,-8763.98046875,-400000.0625,-18361.94921875,-400000.0625
231.20402002334595,-400000.0625,-13604.1201171875,-2903.989990234375,-400000.0625,-8793.400390625,-400000.0625,-18395.470703125,-400000.0625
231.22334170341492,-400000.0625,-13621.8095703125,-2914.050048828125,-400000.0625,-8805.1796875,-400000.0625,-18410.400390625,-400000.0625
231.26138615608215,-400000.0625,-13597.919921875,-2900.97998046875,-400000.0625,-8783.099609375,-400000.0625,-18389.75,-400000.0625
231.27957773208618,-400000.0625,-13561.9697265625,-2879.18994140625,-400000.0625,-8756.01953125,-400000.0625,-18360.7109375,-400000.0625
231.29803013801575,-400000.0625,-13565.9697265625,-2882.050048828125,-400000.0625,-8760.6396484375,-400000.0625,-18359.189453125,-400000.0625
231.3168797492981,-400000.0625,-13598.16015625,-2898.31005859375,-400000.0625,-8782.2001953125,-400000.0625,-18391.560546875,-400000.0625
231.33508825302124,-400000.0625,-13615.9404296875,-2902.27001953125,-400000.0625,-8800.4599609375,-400000.0625,-18405.869140625,-400000.0625
231.3773443698883,-400000.0625,-13592.580078125,-2898.409912109375,-400000.0625,-8791.400390625,-400000.0625,-18379.98046875,-400000.0625
231.39903140068054,-400000.0625,-13563.009765625,-2885.06005859375,-400000.0625,-8766.509765625,-400000.0625,-18346.83984375,-400000.0625
231.41653990745544,-400000.0625,-13566.58984375,-2879.429931640625,-400000.0625,-8763.8896484375,-400000.0625,-18348.220703125,-400000.0625
231.43175101280212,-400000.0625,-13597.2998046875,-2896.739990234375,-400000.0625,-8786.009765625,-400000.0625,-18390.1796875,-400000.0625
231.45583248138428,-400000.0625,-13609.3203125,-2899.169921875,-400000.0625,-8800.3603515625,-400000.0625,-18410.30078125,-400000.0625
231.49659943580627,-400000.0625,-13591.669921875,-2895.68994140625,-400000.0625,-8781.2900390625,-400000.0625,-18385.220703125,-400000.0625
231.52824091911316,-400000.0625,-13563.490234375,-2878.7099609375,-400000.0625,-8755.9697265625,-400000.0625,-18357.08984375,-400000.0625
231.54420042037964,-400000.0625,-13568.58984375,-2881.77001953125,-400000.0625,-8761.2197265625,-400000.0625,-18357.849609375,-400000.0625
231.56672477722168,-400000.0625,-13603.259765625,-2899.360107421875,-400000.0625,-8789.6396484375,-400000.0625,-18390.279296875,-400000.0625
231.62249445915222,-400000.0625,-13613.7001953125,-2909.280029296875,-400000.0625,-8806.75,-400000.0625,-18403.25,-400000.0625
231.64330387115479,-400000.0625,-13586.240234375,-2894.590087890625,-400000.0625,-8785.3896484375,-400000.0625,-18382.650390625,-400000.0625
231.66782069206238,-400000.0625,-13557.099609375,-2873.75,-400000.0625,-8757.58984375,-400000.0625,-18349.130859375,-400000.0625
231.71848964691162,-400000.0625,-13564.58984375,-2880.139892578125,-400000.0625,-8759.3603515625,-400000.0625,-18353.3203125,-400000.0625
231.74565386772156,-400000.0625,-13600.4501953125,-2902.080078125,-400000.0625,-8791.2998046875,-400000.0625,-18386.509765625,-400000.0625
231.76235842704773,-400000.0625,-13616.5595703125,-2906.080078125,-400000.0625,-8804.6103515625,-400000.0625,-18405.73046875,-400000.0625
231.78660321235657,-400000.0625,-13591.8603515625,-2895.780029296875,-400000.0625,-8787.5400390625,-400000.0625,-18376.349609375,-400000.0625
231.8432013988495,-400000.0625,-13559.6796875,-2876.090087890625,-400000.0625,-8758.740234375,-400000.0625,-18347.4609375,-400000.0625
231.86496543884277,-400000.0625,-13562.919921875,-2872.800048828125,-400000.0625,-8763.650390625,-400000.0625,-18353.939453125,-400000.0625
231.88694882392883,-400000.0625,-13602.4501953125,-2894.260009765625,-400000.0625,-8790.58984375,-400000.0625,-18389.26953125,-400000.0625
231.9284327030182,-400000.0625,-13618.3798828125,-2910.419921875,-400000.0625,-8805.849609375,-400000.0625,-18401.4296875,-400000.0625
231.9439730644226,-400000.0625,-13588.8095703125,-2892.35009765625,-400000.0625,-8785.9599609375,-400000.0625,-18379.400390625,-400000.0625
231.97160053253174,-400000.0625,-13554.0498046875,-2874.800048828125,-400000.0625,-8756.919921875,-400000.0625,-18345.220703125,-400000.0625
232.0047163963318,-400000.0625,-13560.490234375,-2879.239990234375,-400000.0625,-8757.7802734375,-400000.0625,-18346.41015625,-400000.0625
232.03886222839355,-400000.0625,-13596.25,-2901.219970703125,-400000.0625,-8786.3896484375,-400000.0625,-18385.939453125,-400000.0625
232.0618805885315,-400000.0625,-13617.330078125,-2913.6201171875,-400000.0625,-8804.509765625,-400000.0625,-18399.099609375,-400000.0625
232.08174848556519,-400000.0625,-13593.48046875,-2897.929931640625,-400000.0625,-8781.7197265625,-400000.0625,-18372.6796875,-400000.0625
232.11334323883057,-400000.0625,-13561.0595703125,-2880.10009765625,-400000.0625,-8762.41015625,-400000.0625,-18347.83984375,-400000.0625
232.14365792274475,-400000.0625,-13566.400390625,-2878.090087890625,-400000.0625,-8768.23046875,-400000.0625,-18348.740234375,-400000.0625
232.1617980003357,-400000.0625,-13601.349609375,-2902.7900390625,-400000.0625,-8793.9296875,-400000.0625,-18383.7890625,-400000.0625
232.1768057346344,-400000.0625,-13620.8095703125,-2909.330078125,-400000.0625,-8807.900390625,-400000.0625,-18405.390625,-400000.0625
232.20339941978455,-400000.0625,-13591.7197265625,-2897.31005859375,-400000.0625,-8790.5400390625,-400000.0625,-18378.44921875,-400000.0625
232.220116853714,-400000.0625,-13556.91015625,-2876.6201171875,-400000.0625,-8764.3603515625,-400000.0625,-18347.689453125,-400000.0625
232.25258803367615,-400000.0625,-13562.0595703125,-2877.659912109375,-400000.0625,-8761.1201171875,-400000.0625,-18353.1796875,-400000.0625
232.27744460105896,-400000.0625,-13598.2099609375,-2895.929931640625,-400000.0625,-8782.009765625,-400000.0625,-18381.880859375,-400000.0625
232.290753364563,-400000.0625,-13620.4697265625,-2912.89990234375,-400000.0625,-8800.1298828125,-400000.0625,-18401.150390625,-400000.0625
232.31908297538757,-400000.0625,-13595.8701171875,-2897.550048828125,-400000.0625,-8788.5400390625,-400000.0625,-18381.310546875,-400000.0625
232.3473994731903,-400000.0625,-13560.9599609375,-2878.52001953125,-400000.0625,-8759.830078125,-400000.0625,-18349.83984375,-400000.0625
232.3816659450531,-400000.0625,-13568.01953125,-2878.280029296875,-400000.0625,-8760.1201171875,-400000.0625,-18355.990234375,-400000.0625
232.41326069831848,-400000.0625,-13603.16015625,-2905.0400390625,-400000.0625,-8792.9296875,-400000.0625,-18389.470703125,-400000.0625
232.4329216480255,-400000.0625,-13618.51953125,-2911.3798828125,-400000.0625,-8806.1796875,-400000.0625,-18401.669921875,-400000.0625
232.44981122016907,-400000.0625,-13595.919921875,-2898.260009765625,-400000.0625,-8786.76953125,-400000.0625,-18371.109375,-400000.0625
232.4977195262909,-400000.0625,-13555.6201171875,-2874.0400390625,-400000.0625,-8758.58984375,-400000.0625,-18341.779296875,-400000.0625
232.5199077129364,-400000.0625,-13555.7197265625,-2874.22998046875,-400000.0625,-8752.490234375,-400000.0625,-18346.259765625,-400000.0625
232.54324626922607,-400000.0625,-13597.5400390625,-2899.27001953125,-400000.0625,-8787.73046875,-400000.0625,-18382.119140625,-400000.0625
232.56249165534973,-400000.0625,-13620.2802734375,-2912.18994140625,-400000.0625,-8809.66015625,-400000.0625,-18399.91015625,-400000.0625
232.6187756061554,-400000.0625,-13595.009765625,-2898.68994140625,-400000.0625,-8788.6298828125,-400000.0625,-18379.98046875,-400000.0625
232.64214515686035,-400000.0625,-13556.5302734375,-2875.570068359375,-400000.0625,-8763.3095703125,-400000.0625,-18341.2109375,-400000.0625
232.6589126586914,-400000.0625,-13565.349609375,-2882.340087890625,-400000.0625,-8760.169921875,-400000.0625,-18343.2109375,-400000.0625
232.68175506591797,-400000.0625,-13602.5400390625,-2900.510009765625,-400000.0625,-8788.7802734375,-400000.0625,-18383.359375,-400000.0625
232.71752619743347,-400000.0625,-13620.330078125,-2913.18994140625,-400000.0625,-8804.66015625,-400000.0625,-18402.05078125,-400000.0625
232.744323015213,-400000.0625,-13599.01953125,-2906.1298828125,-400000.0625,-8788.349609375,-400000.0625,-18376.73046875,-400000.0625
232.77084970474243,-400000.0625,-13562.6298828125,-2878.6201171875,-400000.0625,-8759.3603515625,-400000.0625,-18349.220703125,-400000.0625
232.78911352157593,-400000.0625,-13565.73046875,-2878.139892578125,-400000.0625,-8751.2998046875,-400000.0625,-18349.26953125,-400000.0625
232.82463693618774,-400000.0625,-13597.349609375,-2904.610107421875,-400000.0625,-8784.150390625,-400000.0625,-18379.98046875,-400000.0625
232.84206128120422,-400000.0625,-13619.5703125,-2915.239990234375,-400000.0625,-8809.1904296875,-400000.0625,-18398.810546875,-400000.0625
232.86777567863464,-400000.0625,-13600.919921875,-2899.1201171875,-400000.0625,-8789.2099609375,-400000.0625,-18382.83984375,-400000.0625
232.88209533691406,-400000.0625,-13567.7802734375,-2881.860107421875,-400000.0625,-8764.080078125,-400000.0625,-18348.26953125,-400000.0625
232.90839958190918,-400000.0625,-13572.3603515625,-2887.9599609375,-400000.0625,-8765.169921875,-400000.0625,-18352.4609375,-400000.0625
232.9496555328369,-400000.0625,-13610.4599609375,-2904.510009765625,-400000.0625,-8790.5400390625,-400000.0625,-18381.689453125,-400000.0625
232.9686005115509,-400000.0625,-13627.2001953125,-2915.3798828125,-400000.0625,-8803.990234375,-400000.0625,-18405.76953125,-400000.0625
232.99243879318237,-400000.0625,-13592.91015625,-2900.510009765625,-400000.0625,-8786.6298828125,-400000.0625,-18372.73046875,-400000.0625
233.0059998035431,-400000.0625,-13563.830078125,-2893.969970703125,-400000.0625,-8759.3095703125,-400000.0625,-18345.169921875,-400000.0625
233.02668356895447,-400000.0625,-13569.169921875,-2889.820068359375,-400000.0625,-8757.2099609375,-400000.0625,-18343.0703125,-400000.0625
233.06312704086304,-400000.0625,-13602.9296875,-2900.889892578125,-400000.0625,-8784.6298828125,-400000.0625,-18377.119140625,-400000.0625
233.08448791503906,-400000.0625,-13616.51953125,-2912.139892578125,-400000.0625,-8808.7099609375,-400000.0625,-18395.0,-400000.0625
233.12319040298462,-400000.0625,-13602.2099609375,-2875.85009765625,-400000.0625,-8774.6201171875,-400000.0625,-18356.08984375,-400000.0625
233.12323927879333,-400000.0625,-13570.169921875,-2860.830078125,-400000.0625,-8745.6201171875,-400000.0625,-18328.4296875,-400000.0625
233.12324953079224,-400000.0625,-13556.2900390625,-2848.820068359375,-400000.0625,-8731.0302734375,-400000.0625,-18318.369140625,-400000.0625
233.12325954437256,-400000.0625,-13582.419921875,-2860.31005859375,-400000.0625,-8750.6796875,-400000.0625,-18338.630859375,-400000.0625
233.12326860427856,-400000.0625,-13610.169921875,-2881.14990234375,-400000.0625,-8777.5703125,-400000.0625,-18364.91015625,-400000.0625
233.123277425766,-400000.0625,-13597.3896484375,-2870.85009765625,-400000.0625,-8765.599609375,-400000.0625,-18356.330078125,-400000.0625
233.12328672409058,-400000.0625,-13562.16015625,-2851.679931640625,-400000.0625,-8734.66015625,-400000.0625,-18322.7109375,-400000.0625
233.12329483032227,-400000.0625,-13553.0,-2848.389892578125,-400000.0625,-8731.7001953125,-400000.0625,-18307.970703125,-400000.0625
233.1233034133911,-400000.0625,-13582.2802734375,-2862.1201171875,-400000.0625,-8758.8798828125,-400000.0625,-18340.259765625,-400000.0625
233.12331199645996,-400000.0625,-13615.23046875,-2881.3798828125,-400000.0625,-8783.5302734375,-400000.0625,-18370.25,-400000.0625
233.1233205795288,-400000.0625,-13602.58984375,-2877.18994140625,-400000.0625,-8774.08984375,-400000.0625,-18354.279296875,-400000.0625
233.1233286857605,-400000.0625,-13562.8701171875,-2854.159912109375,-400000.0625,-8742.51953125,-400000.0625,-18319.3203125,-400000.0625
233.1233367919922,-400000.0625,-13549.1396484375,-2839.610107421875,-400000.0625,-8727.169921875,-400000.0625,-18308.55078125,-400000.0625
233.12334537506104,-400000.0625,-13583.5703125,-2859.68994140625,-400000.0625,-8751.4404296875,-400000.0625,-18343.01953125,-400000.0625
233.12335324287415,-400000.0625,-13613.0302734375,-2884.909912109375,-400000.0625,-8775.4697265625,-400000.0625,-18367.099609375,-400000.0625
233.1233615875244,-400000.0625,-13599.349609375,-2873.75,-400000.0625,-8767.8896484375,-400000.0625,-18354.80078125,-400000.0625
233.12336945533752,-400000.0625,-13562.0595703125,-2850.679931640625,-400000.0625,-8741.5703125,-400000.0625,-18323.279296875,-400000.0625
233.1233777999878,-400000.0625,-13555.9599609375,-2849.9599609375,-400000.0625,-8732.83984375,-400000.0625,-18312.740234375,-400000.0625
233.12338638305664,-400000.0625,-13580.75,-2861.5,-400000.0625,-8757.4501953125,-400000.0625,-18339.16015625,-400000.0625
233.12339448928833,-400000.0625,-13610.3203125,-2882.77001953125,-400000.0625,-8780.1904296875,-400000.0625,-18368.150390625,-400000.0625
233.12340259552002,-400000.0625,-13600.0595703125,-2873.1298828125,-400000.0625,-8763.599609375,-400000.0625,-18360.759765625,-400000.0625
233.12341165542603,-400000.0625,-13562.9697265625,-2853.199951171875,-400000.0625,-8736.7998046875,-400000.0625,-18329.669921875,-400000.0625
233.12341952323914,-400000.0625,-13553.48046875,-2854.5400390625,-400000.0625,-8731.1796875,-400000.0625,-18320.130859375,-400000.0625
233.12342762947083,-400000.0625,-13580.08984375,-2863.840087890625,-400000.0625,-8753.830078125,-400000.0625,-18341.16015625,-400000.0625
233.12343883514404,-400000.0625,-13610.41015625,-2879.6201171875,-400000.0625,-8782.33984375,-400000.0625,-18380.259765625,-400000.0625
233.1234483718872,-400000.0625,-13605.4501953125,-2879.0,-400000.0625,-8771.1298828125,-400000.0625,-18365.48046875,-400000.0625
233.12359070777893,-400000.0625,-13564.490234375,-2853.72998046875,-400000.0625,-8734.8896484375,-400000.0625,-18323.51953125,-400000.0625
233.12364792823792,-400000.0625,-13542.650390625,-2836.419921875,-400000.0625,-8718.349609375,-400000.0625,-18295.150390625,-400000.0625
233.12368369102478,-400000.0625,-13563.6796875,-2842.949951171875,-400000.0625,-8730.080078125,-400000.0625,-18320.75,-400000.0625
233.12372183799744,-400000.0625,-13592.4404296875,-2860.739990234375,-400000.0625,-8755.7802734375,-400000.0625,-18351.80078125,-400000.0625
233.12375235557556,-400000.0625,-13592.48046875,-2864.68994140625,-400000.0625,-8765.98046875,-400000.0625,-18352.3203125,-400000.0625
233.12377953529358,-400000.0625,-13560.3896484375,-2846.580078125,-400000.0625,-8740.3798828125,-400000.0625,-18322.80078125,-400000.0625
233.12381410598755,-400000.0625,-13541.509765625,-2831.169921875,-400000.0625,-8716.8701171875,-400000.0625,-18303.490234375,-400000.0625
233.12384843826294,-400000.0625,-13568.830078125,-2853.010009765625,-400000.0625,-8734.26953125,-400000.0625,-18321.560546875,-400000.0625
233.12389135360718,-400000.0625,-13595.9599609375,-2861.1201171875,-400000.0625,-8751.490234375,-400000.0625,-18356.849609375,-400000.0625
233.1239321231842,-400000.0625,-13595.0595703125,-2864.889892578125,-400000.0625,-8749.8701171875,-400000.0625,-18348.740234375,-400000.0625
233.12398648262024,-400000.0625,-13562.8701171875,-2846.81005859375,-400000.0625,-8727.2197265625,-400000.0625,-18321.08984375,-400000.0625
233.1240484714508,-400000.0625,-13544.509765625,-2835.659912109375,-400000.0625,-8713.0595703125,-400000.0625,-18305.109375,-400000.0625
233.1240839958191,-400000.0625,-13565.400390625,-2846.81005859375,-400000.0625,-8735.419921875,-400000.0625,-18318.419921875,-400000.0625
233.12411308288574,-400000.0625,-13601.5400390625,-2870.3701171875,-400000.0625,-8769.0400390625,-400000.0625,-18347.9296875,-400000.0625
233.1241433620453,-400000.0625,-13594.3896484375,-2861.68994140625,-400000.0625,-8758.259765625,-400000.0625,-18353.1796875,-400000.0625
233.12417316436768,-400000.0625,-13560.150390625,-2844.860107421875,-400000.0625,-8731.509765625,-400000.0625,-18320.509765625,-400000.0625
233.12420463562012,-400000.0625,-13541.599609375,-2835.75,-400000.0625,-8721.349609375,-400000.0625,-18302.19921875,-400000.0625
233.12423634529114,-400000.0625,-13564.6396484375,-2845.47998046875,-400000.0625,-8740.0,-400000.0625,-18324.900390625,-400000.0625
233.12426567077637,-400000.0625,-13599.4501953125,-2871.510009765625,-400000.0625,-8763.8896484375,-400000.0625,-18350.029296875,-400000.0625
233.12429451942444,-400000.0625,-13591.009765625,-2863.219970703125,-400000.0625,-8757.6396484375,-400000.0625,-18353.890625,-400000.0625
233.1243224143982,-400000.0625,-13559.009765625,-2848.6298828125,-400000.0625,-8731.509765625,-400000.0625,-18322.1796875,-400000.0625
233.12434935569763,-400000.0625,-13544.3701171875,-2836.56005859375,-400000.0625,-8714.6298828125,-400000.0625,-18296.859375,-400000.0625
233.12437796592712,-400000.0625,-13561.6796875,-2845.10009765625,-400000.0625,-8726.9296875,-400000.0625,-18320.369140625,-400000.0625
233.12440466880798,-400000.0625,-13595.5302734375,-2864.550048828125,-400000.0625,-8759.830078125,-400000.0625,-18358.759765625,-400000.0625
233.1244330406189,-400000.0625,-13595.76953125,-2868.840087890625,-400000.0625,-8760.7900390625,-400000.0625,-18357.08984375,-400000.0625
233.12447786331177,-400000.0625,-13553.8095703125,-2838.52001953125,-400000.0625,-8725.5,-400000.0625,-18324.23046875,-400000.0625
233.12450790405273,-400000.0625,-13536.98046875,-2831.889892578125,-400000.0625,-8711.240234375,-400000.0625,-18303.439453125,-400000.0625
233.12453484535217,-400000.0625,-13563.830078125,-2845.81005859375,-400000.0625,-8733.9404296875,-400000.0625,-18321.900390625,-400000.0625
233.12456107139587,-400000.0625,-13598.6796875,-2864.27001953125,-400000.0625,-8759.4501953125,-400000.0625,-18351.1796875,-400000.0625
233.12458658218384,-400000.0625,-13598.349609375,-2866.4599609375,-400000.0625,-8753.7802734375,-400000.0625,-18353.130859375,-400000.0625
233.1246132850647,-400000.0625,-13560.580078125,-2841.85009765625,-400000.0625,-8727.6904296875,-400000.0625,-18325.0390625,-400000.0625
233.1246407032013,-400000.0625,-13537.599609375,-2832.60009765625,-400000.0625,-8712.25,-400000.0625,-18305.01953125,-400000.0625
233.12466645240784,-400000.0625,-13565.01953125,-2849.77001953125,-400000.0625,-8731.5595703125,-400000.0625,-18325.859375,-400000.0625
233.12469506263733,-400000.0625,-13603.8798828125,-2872.179931640625,-400000.0625,-8759.3095703125,-400000.0625,-18360.66015625,-400000.0625
233.12472462654114,-400000.0625,-13596.73046875,-2866.360107421875,-400000.0625,-8754.830078125,-400000.0625,-18355.7109375,-400000.0625
233.12475633621216,-400000.0625,-13560.4404296875,-2844.0,-400000.0625,-8725.1201171875,-400000.0625,-18318.4609375,-400000.0625
233.12478256225586,-400000.0625,-13543.419921875,-2840.22998046875,-400000.0625,-8716.8203125,-400000.0625,-18299.30078125,-400000.0625
233.12480998039246,-400000.0625,-13567.5400390625,-2851.820068359375,-400000.0625,-8736.1796875,-400000.0625,-18329.2890625,-400000.0625
233.12483596801758,-400000.0625,-13601.919921875,-2865.60009765625,-400000.0625,-8755.4501953125,-400000.0625,-18363.2890625,-400000.0625
233.12486219406128,-400000.0625,-13598.5400390625,-2863.64990234375,-400000.0625,-8753.1103515625,-400000.0625,-18355.470703125,-400000.0625
233.12488794326782,-400000.0625,-13568.5,-2852.010009765625,-400000.0625,-8731.2197265625,-400000.0625,-18328.720703125,-400000.0625
233.1249134540558,-400000.0625,-13544.6103515625,-2839.989990234375,-400000.0625,-8719.01953125,-400000.0625,-18311.259765625,-400000.0625
233.12493872642517,-400000.0625,-13568.58984375,-2852.8701171875,-400000.0625,-8739.6201171875,-400000.0625,-18333.9609375,-400000.0625
233.12496399879456,-400000.0625,-13604.01953125,-2872.3701171875,-400000.0625,-8758.58984375,-400000.0625,-18365.720703125,-400000.0625
233.12498903274536,-400000.0625,-13596.919921875,-2866.219970703125,-400000.0625,-8752.5400390625,-400000.0625,-18358.759765625,-400000.0625
233.12501502037048,-400000.0625,-13571.3095703125,-2856.5400390625,-400000.0625,-8729.4599609375,-400000.0625,-18329.240234375,-400000.0625
233.1250410079956,-400000.0625,-13546.330078125,-2839.22998046875,-400000.0625,-8712.25,-400000.0625,-18307.689453125,-400000.0625
233.12506747245789,-400000.0625,-13570.259765625,-2846.77001953125,-400000.0625,-8733.26953125,-400000.0625,-18326.94921875,-400000.0625
233.12509298324585,-400000.0625,-13608.169921875,-2876.22998046875,-400000.0625,-8759.4501953125,-400000.0625,-18363.91015625,-400000.0625
233.12511920928955,-400000.0625,-13608.169921875,-2875.85009765625,-400000.0625,-8762.3095703125,-400000.0625,-18361.0,-400000.0625
233.12514543533325,-400000.0625,-13573.740234375,-2855.679931640625,-400000.0625,-8733.7998046875,-400000.0625,-18334.9609375,-400000.0625
233.12517094612122,-400000.0625,-13553.7197265625,-2843.239990234375,-400000.0625,-8718.009765625,-400000.0625,-18310.83984375,-400000.0625
233.12519645690918,-400000.0625,-13570.7900390625,-2851.820068359375,-400000.0625,-8733.509765625,-400000.0625,-18327.2890625,-400000.0625
233.12537503242493,-400000.0625,-13604.830078125,-2867.989990234375,-400000.0625,-8761.83984375,-400000.0625,-18367.25,-400000.0625
233.12542915344238,-400000.0625,-13605.98046875,-2872.800048828125,-400000.0625,-8756.349609375,-400000.0625,-18360.900390625,-400000.0625
233.12544894218445,-400000.0625,-13563.2099609375,-2843.139892578125,-400000.0625,-8724.0703125,-400000.0625,-18333.630859375,-400000.0625
233.12545728683472,-400000.0625,-13549.51953125,-2839.179931640625,-400000.0625,-8716.7802734375,-400000.0625,-18311.220703125,-400000.0625
233.12546634674072,-400000.0625,-13576.41015625,-2853.300048828125,-400000.0625,-8735.2802734375,-400000.0625,-18329.9609375,-400000.0625
233.12547636032104,-400000.0625,-13607.5,-2871.080078125,-400000.0625,-8755.259765625,-400000.0625,-18368.060546875,-400000.0625
233.12650871276855,-400000.0625,-13604.58984375,-2871.469970703125,-400000.0625,-8765.7900390625,-400000.0625,-18362.859375,-400000.0625
233.12653470039368,-400000.0625,-13565.349609375,-2849.25,-400000.0625,-8737.0400390625,-400000.0625,-18329.91015625,-400000.0625
233.12654447555542,-400000.0625,-13544.849609375,-2834.840087890625,-400000.0625,-8716.5400390625,-400000.0625,-18312.169921875,-400000.0625
233.12655401229858,-400000.0625,-13573.080078125,-2853.110107421875,-400000.0625,-8735.900390625,-400000.0625,-18331.630859375,-400000.0625
233.126562833786,-400000.0625,-13604.9296875,-2866.93994140625,-400000.0625,-8756.58984375,-400000.0625,-18367.150390625,-400000.0625
233.12657117843628,-400000.0625,-13603.259765625,-2865.4599609375,-400000.0625,-8753.4404296875,-400000.0625,-18362.720703125,-400000.0625
233.12658047676086,-400000.0625,-13566.2998046875,-2848.820068359375,-400000.0625,-8727.26953125,-400000.0625,-18322.990234375,-400000.0625
233.1265904903412,-400000.0625,-13543.849609375,-2841.0,-400000.0625,-8708.91015625,-400000.0625,-18315.890625,-400000.0625
233.12659859657288,-400000.0625,-13565.9697265625,-2846.909912109375,-400000.0625,-8726.650390625,-400000.0625,-18344.259765625,-400000.0625
233.12660789489746,-400000.0625,-13602.7802734375,-2863.5,-400000.0625,-8757.5,-400000.0625,-18363.529296875,-400000.0625
233.12661600112915,-400000.0625,-13593.25,-2861.739990234375,-400000.0625,-8755.919921875,-400000.0625,-18355.23046875,-400000.0625
233.12662553787231,-400000.0625,-13559.4404296875,-2848.580078125,-400000.0625,-8729.509765625,-400000.0625,-18323.330078125,-400000.0625
233.12664031982422,-400000.0625,-13549.849609375,-2844.2900390625,-400000.0625,-8718.349609375,-400000.0625,-18306.0703125,-400000.0625
233.1266486644745,-400000.0625,-13566.919921875,-2850.8701171875,-400000.0625,-8734.509765625,-400000.0625,-18331.720703125,-400000.0625
233.12665796279907,-400000.0625,-13593.3896484375,-2865.080078125,-400000.0625,-8757.16015625,-400000.0625,-18354.3203125,-400000.0625
233.1266667842865,-400000.0625,-13595.8701171875,-2865.97998046875,-400000.0625,-8753.490234375,-400000.0625,-18349.509765625,-400000.0625
233.1266748905182,-400000.0625,-13559.4404296875,-2847.10009765625,-400000.0625,-8722.6396484375,-400000.0625,-18323.23046875,-400000.0625
233.12668323516846,-400000.0625,-13542.080078125,-2839.139892578125,-400000.0625,-8715.8203125,-400000.0625,-18302.779296875,-400000.0625
233.12669157981873,-400000.0625,-13559.4404296875,-2850.530029296875,-400000.0625,-8736.1796875,-400000.0625,-18320.0390625,-400000.0625
233.12669968605042,-400000.0625,-13591.669921875,-2872.3701171875,-400000.0625,-8758.7802734375,-400000.0625,-18350.560546875,-400000.0625
233.15722799301147,-400000.0625,-13611.41015625,-2884.8701171875,-400000.0625,-8774.759765625,-400000.0625,-18336.109375,-400000.0625
233.18595671653748,-400000.0625,-13539.080078125,-2855.590087890625,-400000.0625,-8744.4296875,-400000.0625,-18385.599609375,-400000.0625
233.21529984474182,-400000.0625,-13572.8896484375,-2763.409912109375,-400000.0625,-8734.1796875,-400000.0625,-18397.619140625,-400000.0625
233.23307728767395,-400000.0625,-13707.9697265625,-2870.75,-400000.0625,-8715.1103515625,-400000.0625,-18508.529296875,-400000.0625
233.30050325393677,-400000.0625,-13657.5703125,-2865.27001953125,-400000.0625,-8698.6103515625,-400000.0625,-18401.4296875,-400000.0625
233.34751653671265,-400000.0625,-13647.2197265625,-2844.860107421875,-400000.0625,-8703.900390625,-400000.0625,-18449.400390625,-400000.0625
233.41601037979126,-400000.0625,-13636.73046875,-2847.429931640625,-400000.0625,-8696.3701171875,-400000.0625,-18434.2890625,-400000.0625
233.47932958602905,-400000.0625,-13609.599609375,-2831.97998046875,-400000.0625,-8679.580078125,-400000.0625,-18412.2109375,-400000.0625
233.54105401039124,-400000.0625,-13622.48046875,-2850.9599609375,-400000.0625,-8684.8701171875,-400000.0625,-18388.609375,-400000.0625
233.6009919643402,-400000.0625,-13654.849609375,-2878.949951171875,-400000.0625,-8709.33984375,-400000.0625,-18421.26953125,-400000.0625
233.7729775905609,-400000.0625,-13673.349609375,-2897.31005859375,-400000.0625,-8721.58984375,-400000.0625,-18402.099609375,-400000.0625
233.8358190059662,-400000.0625,-13655.08984375,-2892.02001953125,-400000.0625,-8700.08984375,-400000.0625,-18374.30078125,-400000.0625
233.85689306259155,-400000.0625,-13644.83984375,-2887.06005859375,-400000.0625,-8702.7099609375,-400000.0625,-18378.779296875,-400000.0625
233.92976808547974,-400000.0625,-13715.4599609375,-2962.8798828125,-400000.0625,-8727.83984375,-400000.0625,-18339.349609375,-400000.0625
234.04712080955505,-400000.0625,-13719.3701171875,-2958.919921875,-400000.0625,-8730.5595703125,-400000.0625,-18325.189453125,-400000.0625
234.14341378211975,-400000.0625,-13644.7900390625,-2907.1298828125,-400000.0625,-8698.23046875,-400000.0625,-18341.880859375,-400000.0625
234.1773383617401,-400000.0625,-13629.6298828125,-2867.989990234375,-400000.0625,-8693.7001953125,-400000.0625,-18369.009765625,-400000.0625
234.24253129959106,-400000.0625,-13673.349609375,-2882.18994140625,-400000.0625,-8708.1904296875,-400000.0625,-18393.51953125,-400000.0625
234.305645942688,-400000.0625,-14068.650390625,-3041.840087890625,-400000.0625,-8613.16015625,-400000.0625,-18559.41015625,-400000.0625
234.40106439590454,-400000.0625,-13969.7998046875,-2999.5,-400000.0625,-8637.51953125,-400000.0625,-18535.330078125,-400000.0625
234.44196605682373,-400000.0625,-13743.1201171875,-2902.4599609375,-400000.0625,-8668.330078125,-400000.0625,-18441.5390625,-400000.0625
234.51488423347473,-400000.0625,-13674.0703125,-2877.659912109375,-400000.0625,-8677.0498046875,-400000.0625,-18406.919921875,-400000.0625
234.572265625,-400000.0625,-13684.9404296875,-2881.6201171875,-400000.0625,-8696.509765625,-400000.0625,-18428.849609375,-400000.0625
234.85941457748413,-400000.0625,-13654.5703125,-2896.550048828125,-400000.0625,-8685.6904296875,-400000.0625,-18378.310546875,-400000.0625
234.9500412940979,-400000.0625,-13701.150390625,-2925.780029296875,-400000.0625,-8723.16015625,-400000.0625,-18421.990234375,-400000.0625
235.03233218193054,-400000.0625,-13687.23046875,-2915.669921875,-400000.0625,-8713.48046875,-400000.0625,-18406.109375,-400000.0625
235.07363390922546,-400000.0625,-13658.6201171875,-2894.5400390625,-400000.0625,-8686.8798828125,-400000.0625,-18382.220703125,-400000.0625
235.13854956626892,-400000.0625,-13652.3701171875,-2886.10009765625,-400000.0625,-8683.6796875,-400000.0625,-18378.359375,-400000.0625
235.24044489860535,-400000.0625,-13671.73046875,-2895.830078125,-400000.0625,-8699.75,-400000.0625,-18387.939453125,-400000.0625
235.3337845802307,-400000.0625,-13651.7998046875,-2890.780029296875,-400000.0625,-8687.2099609375,-400000.0625,-18365.76953125,-400000.0625
235.39598965644836,-400000.0625,-13663.6298828125,-2895.070068359375,-400000.0625,-8691.259765625,-400000.0625,-18375.44921875,-400000.0625
235.47192692756653,-400000.0625,-13644.98046875,-2889.110107421875,-400000.0625,-8681.3896484375,-400000.0625,-18356.849609375,-400000.0625
235.53274965286255,-400000.0625,-13672.73046875,-2904.840087890625,-400000.0625,-8705.4296875,-400000.0625,-18378.0703125,-400000.0625
235.63780164718628,-400000.0625,-13700.6796875,-2917.81005859375,-400000.0625,-8723.3603515625,-400000.0625,-18406.150390625,-400000.0625
235.68208050727844,-400000.0625,-13693.099609375,-2912.7099609375,-400000.0625,-8715.9599609375,-400000.0625,-18401.150390625,-400000.0625
235.70657420158386,-400000.0625,-13662.3896484375,-2898.929931640625,-400000.0625,-8691.41015625,-400000.0625,-18368.76953125,-400000.0625
235.73035836219788,-400000.0625,-13650.6103515625,-2887.5400390625,-400000.0625,-8683.490234375,-400000.0625,-18353.609375,-400000.0625
235.76291251182556,-400000.0625,-13674.58984375,-2903.64990234375,-400000.0625,-8707.1904296875,-400000.0625,-18379.9296875,-400000.0625
235.80693244934082,-400000.0625,-13700.4404296875,-2915.10009765625,-400000.0625,-8724.169921875,-400000.0625,-18404.390625,-400000.0625
235.82744646072388,-400000.0625,-13695.240234375,-2913.280029296875,-400000.0625,-8724.5,-400000.0625,-18395.240234375,-400000.0625
235.84889554977417,-400000.0625,-13668.16015625,-2900.4599609375,-400000.0625,-8700.2802734375,-400000.0625,-18372.73046875,-400000.0625
235.86661791801453,-400000.0625,-13654.66015625,-2893.070068359375,-400000.0625,-8691.2197265625,-400000.0625,-18361.189453125,-400000.0625
235.91215705871582,-400000.0625,-13675.169921875,-2904.93994140625,-400000.0625,-8705.1904296875,-400000.0625,-18385.650390625,-400000.0625
235.92604184150696,-400000.0625,-13694.240234375,-2908.330078125,-400000.0625,-8716.2998046875,-400000.0625,-18412.0703125,-400000.0625
235.9433252811432,-400000.0625,-13688.759765625,-2911.330078125,-400000.0625,-8719.830078125,-400000.0625,-18403.099609375,-400000.0625
235.96194505691528,-400000.0625,-13664.6796875,-2896.260009765625,-400000.0625,-8700.9404296875,-400000.0625,-18379.359375,-400000.0625
235.979887008667,-400000.0625,-13650.3701171875,-2887.199951171875,-400000.0625,-8687.16015625,-400000.0625,-18366.33984375,-400000.0625
236.01428246498108,-400000.0625,-13668.009765625,-2895.260009765625,-400000.0625,-8697.3203125,-400000.0625,-18387.130859375,-400000.0625
236.03195548057556,-400000.0625,-13692.1904296875,-2909.89990234375,-400000.0625,-8715.580078125,-400000.0625,-18409.16015625,-400000.0625
236.04947996139526,-400000.0625,-13685.990234375,-2907.3701171875,-400000.0625,-8716.0595703125,-400000.0625,-18403.439453125,-400000.0625
236.06599688529968,-400000.0625,-13659.8095703125,-2895.1201171875,-400000.0625,-8693.169921875,-400000.0625,-18373.490234375,-400000.0625
236.0857765674591,-400000.0625,-13648.509765625,-2882.10009765625,-400000.0625,-8684.6796875,-400000.0625,-18366.720703125,-400000.0625
236.23712682724,-400000.0625,-13712.3603515625,-2998.35009765625,-400000.0625,-8659.3203125,-400000.0625,-18428.7109375,-400000.0625
236.3735682964325,-400000.0625,-13504.4599609375,-2898.550048828125,-400000.0625,-8678.33984375,-400000.0625,-18323.330078125,-400000.0625
236.41603803634644,-400000.0625,-13466.98046875,-2867.030029296875,-400000.0625,-8668.66015625,-400000.0625,-18307.0703125,-400000.0625
236.50453805923462,-400000.0625,-13498.0703125,-2880.81005859375,-400000.0625,-8689.5,-400000.0625,-18320.470703125,-400000.0625
236.55111050605774,-400000.0625,-13530.6904296875,-2894.780029296875,-400000.0625,-8707.6201171875,-400000.0625,-18353.080078125,-400000.0625
236.61050009727478,-400000.0625,-13528.6298828125,-2884.199951171875,-400000.0625,-8701.330078125,-400000.0625,-18354.23046875,-400000.0625
236.7147240638733,-400000.0625,-13490.8701171875,-2857.449951171875,-400000.0625,-8679.2001953125,-400000.0625,-18331.150390625,-400000.0625
236.79972338676453,-400000.0625,-13490.1103515625,-2837.280029296875,-400000.0625,-8676.8203125,-400000.0625,-18375.830078125,-400000.0625
236.8824532032013,-400000.0625,-13510.66015625,-2806.18994140625,-400000.0625,-8693.98046875,-400000.0625,-18450.359375,-400000.0625
236.96743416786194,-400000.0625,-13512.1396484375,-2797.7900390625,-400000.0625,-8687.830078125,-400000.0625,-18445.919921875,-400000.0625
237.0920639038086,-400000.0625,-13504.4599609375,-2847.47998046875,-400000.0625,-8669.9501953125,-400000.0625,-18329.189453125,-400000.0625
237.12469148635864,-400000.0625,-13554.33984375,-2866.840087890625,-400000.0625,-8707.5703125,-400000.0625,-18366.76953125,-400000.0625
237.18609762191772,-400000.0625,-13561.76953125,-2867.510009765625,-400000.0625,-8700.9404296875,-400000.0625,-18368.48046875,-400000.0625
237.24898982048035,-400000.0625,-13563.58984375,-2865.97998046875,-400000.0625,-8700.849609375,-400000.0625,-18368.2890625,-400000.0625
237.31256818771362,-400000.0625,-13545.9404296875,-2850.010009765625,-400000.0625,-8673.2900390625,-400000.0625,-18341.73046875,-400000.0625
237.37932324409485,-400000.0625,-13536.98046875,-2846.77001953125,-400000.0625,-8666.08984375,-400000.0625,-18327.05078125,-400000.0625
237.45078778266907,-400000.0625,-13558.099609375,-2854.5400390625,-400000.0625,-8694.75,-400000.0625,-18342.5390625,-400000.0625
237.5105586051941,-400000.0625,-13588.5703125,-2870.1298828125,-400000.0625,-8701.75,-400000.0625,-18370.490234375,-400000.0625
237.59956288337708,-400000.0625,-13584.8095703125,-2863.68994140625,-400000.0625,-8694.7900390625,-400000.0625,-18363.4296875,-400000.0625
237.63436675071716,-400000.0625,-13561.0595703125,-2844.10009765625,-400000.0625,-8680.6298828125,-400000.0625,-18334.490234375,-400000.0625
237.69716358184814,-400000.0625,-13546.6103515625,-2840.570068359375,-400000.0625,-8663.990234375,-400000.0625,-18325.470703125,-400000.0625
237.83026885986328,-400000.0625,-13594.009765625,-2864.929931640625,-400000.0625,-8695.080078125,-400000.0625,-18372.8203125,-400000.0625
237.89041256904602,-400000.0625,-13596.8203125,-2866.840087890625,-400000.0625,-8701.849609375,-400000.0625,-18369.19921875,-400000.0625
237.95052123069763,-400000.0625,-13565.490234375,-2844.3798828125,-400000.0625,-8678.0595703125,-400000.0625,-18343.55078125,-400000.0625
238.03410410881042,-400000.0625,-13550.0,-2833.4599609375,-400000.0625,-8659.080078125,-400000.0625,-18320.7109375,-400000.0625
238.18724656105042,-400000.0625,-13600.6396484375,-2861.929931640625,-400000.0625,-8691.3603515625,-400000.0625,-18357.369140625,-400000.0625
238.2255494594574,-400000.0625,-13601.73046875,-2868.030029296875,-400000.0625,-8696.650390625,-400000.0625,-18361.08984375,-400000.0625
238.2412986755371,-400000.0625,-13573.740234375,-2852.06005859375,-400000.0625,-8674.7197265625,-400000.0625,-18336.490234375,-400000.0625
238.2618350982666,-400000.0625,-13557.76953125,-2837.85009765625,-400000.0625,-8663.509765625,-400000.0625,-18324.619140625,-400000.0625
238.27427506446838,-400000.0625,-13575.26953125,-2845.6201171875,-400000.0625,-8678.150390625,-400000.0625,-18337.060546875,-400000.0625
238.29398584365845,-400000.0625,-13605.9296875,-2868.080078125,-400000.0625,-8696.650390625,-400000.0625,-18365.099609375,-400000.0625
238.32965540885925,-400000.0625,-13605.7900390625,-2866.93994140625,-400000.0625,-8693.2197265625,-400000.0625,-18368.099609375,-400000.0625
238.34601092338562,-400000.0625,-13572.9296875,-2851.300048828125,-400000.0625,-8672.48046875,-400000.0625,-18333.580078125,-400000.0625
238.36861181259155,-400000.0625,-13557.7197265625,-2846.47998046875,-400000.0625,-8670.1904296875,-400000.0625,-18318.130859375,-400000.0625
238.37957906723022,-400000.0625,-13577.650390625,-2853.919921875,-400000.0625,-8674.8603515625,-400000.0625,-18338.5390625,-400000.0625
238.39847612380981,-400000.0625,-13605.6396484375,-2870.179931640625,-400000.0625,-8692.8896484375,-400000.0625,-18362.94921875,-400000.0625
238.43149495124817,-400000.0625,-13604.3603515625,-2867.60009765625,-400000.0625,-8696.650390625,-400000.0625,-18362.05078125,-400000.0625
238.45055532455444,-400000.0625,-13575.169921875,-2852.010009765625,-400000.0625,-8677.6298828125,-400000.0625,-18337.390625,-400000.0625
238.4680461883545,-400000.0625,-13559.8701171875,-2846.3798828125,-400000.0625,-8667.990234375,-400000.0625,-18324.189453125,-400000.0625
238.48060417175293,-400000.0625,-13582.0400390625,-2856.449951171875,-400000.0625,-8680.580078125,-400000.0625,-18343.689453125,-400000.0625
238.4979486465454,-400000.0625,-13608.5498046875,-2872.22998046875,-400000.0625,-8693.080078125,-400000.0625,-18362.2890625,-400000.0625
238.51243352890015,-400000.0625,-13601.349609375,-2864.4599609375,-400000.0625,-8689.2099609375,-400000.0625,-18363.5703125,-400000.0625
238.54745292663574,-400000.0625,-13575.0302734375,-2847.2900390625,-400000.0625,-8671.4296875,-400000.0625,-18341.109375,-400000.0625
238.56654143333435,-400000.0625,-13557.8603515625,-2841.6201171875,-400000.0625,-8656.3095703125,-400000.0625,-18325.94921875,-400000.0625
238.58016276359558,-400000.0625,-13574.7900390625,-2851.580078125,-400000.0625,-8667.23046875,-400000.0625,-18340.109375,-400000.0625
238.59977984428406,-400000.0625,-13601.8798828125,-2865.080078125,-400000.0625,-8691.4501953125,-400000.0625,-18366.720703125,-400000.0625
238.65598154067993,-400000.0625,-13589.48046875,-2850.10009765625,-400000.0625,-8642.91015625,-400000.0625,-18326.669921875,-400000.0625
238.72968435287476,-400000.0625,-13573.2197265625,-2848.429931640625,-400000.0625,-8659.8896484375,-400000.0625,-18326.810546875,-400000.0625
238.78629302978516,-400000.0625,-13601.5400390625,-2867.409912109375,-400000.0625,-8685.7802734375,-400000.0625,-18352.83984375,-400000.0625
238.8748755455017,-400000.0625,-13590.7197265625,-2856.06005859375,-400000.0625,-8680.76953125,-400000.0625,-18353.990234375,-400000.0625
238.95481038093567,-400000.0625,-13562.25,-2841.0,-400000.0625,-8664.5595703125,-400000.0625,-18323.23046875,-400000.0625
239.0446219444275,-400000.0625,-13565.8798828125,-2842.469970703125,-400000.0625,-8655.8798828125,-400000.0625,-18326.380859375,-400000.0625
239.10493659973145,-400000.0625,-13603.16015625,-2869.4599609375,-400000.0625,-8683.16015625,-400000.0625,-18354.23046875,-400000.0625
239.17664408683777,-400000.0625,-13608.3095703125,-2871.93994140625,-400000.0625,-8688.400390625,-400000.0625,-18363.4296875,-400000.0625
239.27979135513306,-400000.0625,-13576.75,-2851.679931640625,-400000.0625,-8668.6103515625,-400000.0625,-18339.25,-400000.0625
239.31420493125916,-400000.0625,-13576.1298828125,-2854.780029296875,-400000.0625,-8664.23046875,-400000.0625,-18335.919921875,-400000.0625
239.43072247505188,-400000.0625,-13591.580078125,-2853.580078125,-400000.0625,-8677.099609375,-400000.0625,-18364.189453125,-400000.0625
239.55303120613098,-400000.0625,-13574.1298828125,-2847.81005859375,-400000.0625,-8668.849609375,-400000.0625,-18343.55078125,-400000.0625
239.6556212902069,-400000.0625,-13563.490234375,-2838.419921875,-400000.0625,-8648.349609375,-400000.0625,-18334.25,-400000.0625
239.74553394317627,-400000.0625,-13612.7998046875,-2875.0400390625,-400000.0625,-8696.599609375,-400000.0625,-18365.9609375,-400000.0625
239.82639837265015,-400000.0625,-13627.2001953125,-2879.330078125,-400000.0625,-8698.7998046875,-400000.0625,-18374.73046875,-400000.0625
240.03468990325928,-400000.0625,-13553.5703125,-2787.2099609375,-400000.0625,-8647.7802734375,-400000.0625,-18409.919921875,-400000.0625
240.15778803825378,-400000.0625,-13616.6103515625,-2815.2900390625,-400000.0625,-8685.7802734375,-400000.0625,-18445.5390625,-400000.0625
240.32725286483765,-400000.0625,-13603.98046875,-2843.89990234375,-400000.0625,-8668.7099609375,-400000.0625,-18342.830078125,-400000.0625
240.40236639976501,-400000.0625,-13649.7998046875,-2868.989990234375,-400000.0625,-8697.83984375,-400000.0625,-18382.5,-400000.0625
240.45238423347473,-400000.0625,-13655.8095703125,-2877.429931640625,-400000.0625,-8705.7099609375,-400000.0625,-18382.41015625,-400000.0625
240.52678203582764,-400000.0625,-13631.2998046875,-2867.1298828125,-400000.0625,-8689.259765625,-400000.0625,-18357.849609375,-400000.0625
240.64183115959167,-400000.0625,-13630.0595703125,-2858.590087890625,-400000.0625,-8669.8095703125,-400000.0625,-18348.55078125,-400000.0625
240.6859631538391,-400000.0625,-13657.4296875,-2873.419921875,-400000.0625,-8692.5,-400000.0625,-18379.7890625,-400000.0625
240.7087152004242,-400000.0625,-13666.8203125,-2877.760009765625,-400000.0625,-8699.1796875,-400000.0625,-18388.369140625,-400000.0625
240.72496485710144,-400000.0625,-13643.7001953125,-2863.739990234375,-400000.0625,-8680.33984375,-400000.0625,-18364.619140625,-400000.0625
240.7441382408142,-400000.0625,-13623.759765625,-2861.360107421875,-400000.0625,-8667.419921875,-400000.0625,-18345.359375,-400000.0625
240.7716827392578,-400000.0625,-13631.8203125,-2860.929931640625,-400000.0625,-8673.8603515625,-400000.0625,-18355.1796875,-400000.0625
240.7970142364502,-400000.0625,-13661.9599609375,-2878.47998046875,-400000.0625,-8693.1201171875,-400000.0625,-18383.26953125,-400000.0625
240.8139820098877,-400000.0625,-13674.6904296875,-2882.860107421875,-400000.0625,-8702.1396484375,-400000.0625,-18390.7109375,-400000.0625
240.82890629768372,-400000.0625,-13651.08984375,-2875.570068359375,-400000.0625,-8680.5400390625,-400000.0625,-18367.630859375,-400000.0625
240.84143233299255,-400000.0625,-13622.6201171875,-2856.2099609375,-400000.0625,-8663.23046875,-400000.0625,-18346.5,-400000.0625
240.85721039772034,-400000.0625,-13632.25,-2859.639892578125,-400000.0625,-8675.76953125,-400000.0625,-18350.98046875,-400000.0625
240.89296460151672,-400000.0625,-13658.330078125,-2875.419921875,-400000.0625,-8694.98046875,-400000.0625,-18375.830078125,-400000.0625
240.91329836845398,-400000.0625,-13672.5400390625,-2879.570068359375,-400000.0625,-8704.08984375,-400000.0625,-18384.55078125,-400000.0625
240.92927289009094,-400000.0625,-13652.6103515625,-2865.60009765625,-400000.0625,-8684.349609375,-400000.0625,-18365.48046875,-400000.0625
240.9454357624054,-400000.0625,-13629.009765625,-2859.639892578125,-400000.0625,-8665.900390625,-400000.0625,-18342.400390625,-400000.0625
240.95986580848694,-400000.0625,-13636.259765625,-2865.31005859375,-400000.0625,-8673.4296875,-400000.0625,-18347.689453125,-400000.0625
240.99874019622803,-400000.0625,-13667.2998046875,-2879.47998046875,-400000.0625,-8694.75,-400000.0625,-18380.2109375,-400000.0625
241.01466727256775,-400000.0625,-13678.169921875,-2885.679931640625,-400000.0625,-8701.3701171875,-400000.0625,-18391.7109375,-400000.0625
241.03310918807983,-400000.0625,-13652.2802734375,-2870.3701171875,-400000.0625,-8678.8701171875,-400000.0625,-18367.76953125,-400000.0625
241.05375576019287,-400000.0625,-13625.76953125,-2854.5400390625,-400000.0625,-8667.08984375,-400000.0625,-18342.5390625,-400000.0625
241.0728907585144,-400000.0625,-13632.6298828125,-2862.1201171875,-400000.0625,-8674.33984375,-400000.0625,-18349.130859375,-400000.0625
241.10975861549377,-400000.0625,-13659.0498046875,-2878.0,-400000.0625,-8696.0302734375,-400000.0625,-18372.490234375,-400000.0625
241.13090658187866,-400000.0625,-13672.7802734375,-2883.239990234375,-400000.0625,-8705.4697265625,-400000.0625,-18388.130859375,-400000.0625
241.15476202964783,-400000.0625,-13798.8095703125,-2947.139892578125,-400000.0625,-8659.7001953125,-400000.0625,-18407.009765625,-400000.0625
241.2325611114502,-400000.0625,-13654.9501953125,-2878.0,-400000.0625,-8665.849609375,-400000.0625,-18323.7109375,-400000.0625
241.30343341827393,-400000.0625,-13627.33984375,-2857.639892578125,-400000.0625,-8670.2802734375,-400000.0625,-18312.4609375,-400000.0625
241.35084319114685,-400000.0625,-13668.8203125,-2883.010009765625,-400000.0625,-8688.9296875,-400000.0625,-18349.650390625,-400000.0625
241.43993139266968,-400000.0625,-13682.1796875,-2886.340087890625,-400000.0625,-8704.6201171875,-400000.0625,-18366.05078125,-400000.0625
241.50555872917175,-400000.0625,-13637.400390625,-2862.070068359375,-400000.0625,-8673.3798828125,-400000.0625,-18319.849609375,-400000.0625
241.5344533920288,-400000.0625,-13646.41015625,-2874.570068359375,-400000.0625,-8678.0595703125,-400000.0625,-18324.380859375,-400000.0625
241.60656881332397,-400000.0625,-13642.740234375,-2860.02001953125,-400000.0625,-8675.580078125,-400000.0625,-18318.26953125,-400000.0625
241.73046255111694,-400000.0625,-13697.099609375,-2884.669921875,-400000.0625,-8710.8095703125,-400000.0625,-18352.75,-400000.0625
241.86815476417542,-400000.0625,-13645.75,-2854.820068359375,-400000.0625,-8671.5703125,-400000.0625,-18321.51953125,-400000.0625
241.99282002449036,-400000.0625,-13675.830078125,-2866.7900390625,-400000.0625,-8692.2197265625,-400000.0625,-18348.169921875,-400000.0625
242.08263611793518,-400000.0625,-13676.0302734375,-2875.610107421875,-400000.0625,-8700.5595703125,-400000.0625,-18342.689453125,-400000.0625
242.13820695877075,-400000.0625,-13676.9296875,-2869.419921875,-400000.0625,-8697.3701171875,-400000.0625,-18343.01953125,-400000.0625
242.2203516960144,-400000.0625,-13649.75,-2851.679931640625,-400000.0625,-8672.330078125,-400000.0625,-18315.83984375,-400000.0625
242.2619824409485,-400000.0625,-13652.1396484375,-2845.860107421875,-400000.0625,-8667.849609375,-400000.0625,-18314.029296875,-400000.0625
242.3075647354126,-400000.0625,-13693.1904296875,-2865.169921875,-400000.0625,-8699.4697265625,-400000.0625,-18346.7890625,-400000.0625
242.37470769882202,-400000.0625,-13688.1396484375,-2861.97998046875,-400000.0625,-8697.6103515625,-400000.0625,-18344.259765625,-400000.0625
242.4386031627655,-400000.0625,-13687.990234375,-2851.820068359375,-400000.0625,-8684.16015625,-400000.0625,-18345.41015625,-400000.0625
242.50368356704712,-400000.0625,-13698.5302734375,-2860.260009765625,-400000.0625,-8698.66015625,-400000.0625,-18340.779296875,-400000.0625
242.579528093338,-400000.0625,-13659.5302734375,-2833.56005859375,-400000.0625,-8663.3701171875,-400000.0625,-18313.650390625,-400000.0625
242.6335220336914,-400000.0625,-13686.75,-2846.580078125,-400000.0625,-8685.830078125,-400000.0625,-18342.01953125,-400000.0625
242.72691369056702,-400000.0625,-13709.7900390625,-2862.7900390625,-400000.0625,-8708.91015625,-400000.0625,-18350.650390625,-400000.0625
242.76460456848145,-400000.0625,-13699.490234375,-2864.739990234375,-400000.0625,-8692.7900390625,-400000.0625,-18341.01953125,-400000.0625
242.82605695724487,-400000.0625,-13673.5,-2851.43994140625,-400000.0625,-8677.5302734375,-400000.0625,-18315.83984375,-400000.0625
242.8810613155365,-400000.0625,-13669.7802734375,-2837.469970703125,-400000.0625,-8664.23046875,-400000.0625,-18307.58984375,-400000.0625
243.01208806037903,-400000.0625,-13725.8095703125,-2880.18994140625,-400000.0625,-8710.7197265625,-400000.0625,-18349.83984375,-400000.0625
243.09104418754578,-400000.0625,-13688.1396484375,-2855.489990234375,-400000.0625,-8678.5302734375,-400000.0625,-18315.560546875,-400000.0625
243.14939308166504,-400000.0625,-13683.990234375,-2848.239990234375,-400000.0625,-8679.150390625,-400000.0625,-18313.9296875,-400000.0625
243.18882060050964,-400000.0625,-13678.740234375,-2844.139892578125,-400000.0625,-8675.150390625,-400000.0625,-18316.3203125,-400000.0625
243.21014785766602,-400000.0625,-13699.2001953125,-2855.110107421875,-400000.0625,-8688.3095703125,-400000.0625,-18337.58984375,-400000.0625
243.22559189796448,-400000.0625,-13720.6103515625,-2866.889892578125,-400000.0625,-8704.900390625,-400000.0625,-18355.900390625,-400000.0625
243.23935675621033,-400000.0625,-13708.7802734375,-2859.31005859375,-400000.0625,-8697.650390625,-400000.0625,-18344.259765625,-400000.0625
243.2618625164032,-400000.0625,-13680.0302734375,-2842.239990234375,-400000.0625,-8671.330078125,-400000.0625,-18312.0703125,-400000.0625
243.2955343723297,-400000.0625,-13673.2099609375,-2837.320068359375,-400000.0625,-8665.990234375,-400000.0625,-18311.4609375,-400000.0625
243.3132905960083,-400000.0625,-13701.3896484375,-2852.919921875,-400000.0625,-8694.0302734375,-400000.0625,-18331.099609375,-400000.0625
243.33684635162354,-400000.0625,-13719.8896484375,-2866.1298828125,-400000.0625,-8709.0,-400000.0625,-18350.169921875,-400000.0625
243.35283708572388,-400000.0625,-13710.4501953125,-2861.550048828125,-400000.0625,-8695.41015625,-400000.0625,-18337.439453125,-400000.0625
243.37371969223022,-400000.0625,-13674.830078125,-2837.7099609375,-400000.0625,-8671.8603515625,-400000.0625,-18311.880859375,-400000.0625
243.41298913955688,-400000.0625,-13667.919921875,-2833.800048828125,-400000.0625,-8673.6201171875,-400000.0625,-18308.2109375,-400000.0625
243.43019032478333,-400000.0625,-13692.9501953125,-2852.300048828125,-400000.0625,-8687.5400390625,-400000.0625,-18335.8203125,-400000.0625
243.447993516922,-400000.0625,-13715.83984375,-2862.02001953125,-400000.0625,-8700.5595703125,-400000.0625,-18351.220703125,-400000.0625
243.4676423072815,-400000.0625,-13707.830078125,-2864.7900390625,-400000.0625,-8695.7900390625,-400000.0625,-18334.720703125,-400000.0625
243.48226881027222,-400000.0625,-13669.2998046875,-2839.280029296875,-400000.0625,-8675.8095703125,-400000.0625,-18305.970703125,-400000.0625
243.51144528388977,-400000.0625,-13664.5302734375,-2831.93994140625,-400000.0625,-8668.4697265625,-400000.0625,-18304.5390625,-400000.0625
243.53199815750122,-400000.0625,-13690.900390625,-2844.3798828125,-400000.0625,-8684.8701171875,-400000.0625,-18329.2890625,-400000.0625
243.5506193637848,-400000.0625,-13715.3203125,-2862.7900390625,-400000.0625,-8702.0400390625,-400000.0625,-18355.279296875,-400000.0625
243.56935834884644,-400000.0625,-13703.2998046875,-2855.02001953125,-400000.0625,-8688.6904296875,-400000.0625,-18335.150390625,-400000.0625
243.58282589912415,-400000.0625,-13676.5498046875,-2840.280029296875,-400000.0625,-8669.7099609375,-400000.0625,-18311.359375,-400000.0625
243.61401796340942,-400000.0625,-13670.5400390625,-2834.75,-400000.0625,-8672.3798828125,-400000.0625,-18305.640625,-400000.0625
243.62566351890564,-400000.0625,-13689.08984375,-2841.280029296875,-400000.0625,-8685.1103515625,-400000.0625,-18332.05078125,-400000.0625
243.69729018211365,-400000.0625,-13974.669921875,-2990.14990234375,-400000.0625,-8624.7001953125,-400000.0625,-18451.169921875,-400000.0625
243.80205845832825,-400000.0625,-13666.349609375,-2861.31005859375,-400000.0625,-8663.990234375,-400000.0625,-18306.5,-400000.0625
243.84217500686646,-400000.0625,-13648.4599609375,-2840.090087890625,-400000.0625,-8658.2197265625,-400000.0625,-18297.05078125,-400000.0625
243.99957871437073,-400000.0625,-13692.330078125,-2865.60009765625,-400000.0625,-8695.080078125,-400000.0625,-18347.169921875,-400000.0625
244.07336449623108,-400000.0625,-13689.2802734375,-2860.780029296875,-400000.0625,-8696.8896484375,-400000.0625,-18343.0703125,-400000.0625
244.10361099243164,-400000.0625,-13653.4697265625,-2838.3701171875,-400000.0625,-8661.83984375,-400000.0625,-18318.26953125,-400000.0625
244.1633574962616,-400000.0625,-13638.9296875,-2832.3701171875,-400000.0625,-8660.169921875,-400000.0625,-18317.80078125,-400000.0625
244.2254159450531,-400000.0625,-13672.3095703125,-2850.77001953125,-400000.0625,-8687.6904296875,-400000.0625,-18335.580078125,-400000.0625
244.44829845428467,-400000.0625,-13645.75,-2833.889892578125,-400000.0625,-8669.23046875,-400000.0625,-18326.330078125,-400000.0625
244.4846429824829,-400000.0625,-13627.2900390625,-2818.969970703125,-400000.0625,-8657.8896484375,-400000.0625,-18308.640625,-400000.0625
244.67320728302002,-400000.0625,-13636.7802734375,-2764.3701171875,-400000.0625,-8666.6103515625,-400000.0625,-18445.44921875,-400000.0625
244.73766994476318,-400000.0625,-13621.0,-2765.56005859375,-400000.0625,-8646.8203125,-400000.0625,-18388.80078125,-400000.0625
244.80886316299438,-400000.0625,-13623.91015625,-2825.68994140625,-400000.0625,-8653.1201171875,-400000.0625,-18305.830078125,-400000.0625
244.87994408607483,-400000.0625,-13652.9501953125,-2834.93994140625,-400000.0625,-8673.1396484375,-400000.0625,-18334.8203125,-400000.0625
244.99228715896606,-400000.0625,-13679.509765625,-2843.3798828125,-400000.0625,-8681.2998046875,-400000.0625,-18361.140625,-400000.0625
245.0747308731079,-400000.0625,-13658.6201171875,-2842.280029296875,-400000.0625,-8653.3603515625,-400000.0625,-18343.119140625,-400000.0625
245.15392661094666,-400000.0625,-13639.5498046875,-2821.159912109375,-400000.0625,-8638.240234375,-400000.0625,-18327.380859375,-400000.0625
245.2048761844635,-400000.0625,-13668.25,-2836.75,-400000.0625,-8663.7998046875,-400000.0625,-18352.080078125,-400000.0625
245.28033423423767,-400000.0625,-13691.5703125,-2843.7099609375,-400000.0625,-8668.759765625,-400000.0625,-18371.76953125,-400000.0625
245.31520891189575,-400000.0625,-13691.0,-2851.06005859375,-400000.0625,-8671.6201171875,-400000.0625,-18359.849609375,-400000.0625
245.38217210769653,-400000.0625,-13662.4404296875,-2841.429931640625,-400000.0625,-8649.919921875,-400000.0625,-18329.380859375,-400000.0625
245.44239830970764,-400000.0625,-13657.240234375,-2840.22998046875,-400000.0625,-8631.330078125,-400000.0625,-18320.849609375,-400000.0625
245.5445637702942,-400000.0625,-13667.7802734375,-2841.3798828125,-400000.0625,-8646.2998046875,-400000.0625,-18331.150390625,-400000.0625
245.63360714912415,-400000.0625,-13699.91015625,-2854.489990234375,-400000.0625,-8656.1201171875,-400000.0625,-18360.240234375,-400000.0625
245.6959261894226,-400000.0625,-13675.0703125,-2845.81005859375,-400000.0625,-8643.580078125,-400000.0625,-18331.099609375,-400000.0625
245.72722840309143,-400000.0625,-13656.3798828125,-2834.1298828125,-400000.0625,-8629.990234375,-400000.0625,-18316.83984375,-400000.0625
245.74476528167725,-400000.0625,-13678.41015625,-2846.10009765625,-400000.0625,-8646.8701171875,-400000.0625,-18334.580078125,-400000.0625
245.7602345943451,-400000.0625,-13703.400390625,-2857.489990234375,-400000.0625,-8666.7099609375,-400000.0625,-18362.720703125,-400000.0625
245.77300143241882,-400000.0625,-13700.2001953125,-2854.679931640625,-400000.0625,-8662.7998046875,-400000.0625,-18360.470703125,-400000.0625
245.79019331932068,-400000.0625,-13672.0703125,-2839.570068359375,-400000.0625,-8643.33984375,-400000.0625,-18331.630859375,-400000.0625
245.8143343925476,-400000.0625,-13657.669921875,-2831.97998046875,-400000.0625,-8630.849609375,-400000.0625,-18318.130859375,-400000.0625
245.84614324569702,-400000.0625,-13674.5498046875,-2842.429931640625,-400000.0625,-8638.6201171875,-400000.0625,-18337.869140625,-400000.0625
245.85864233970642,-400000.0625,-13703.919921875,-2861.929931640625,-400000.0625,-8660.650390625,-400000.0625,-18361.240234375,-400000.0625
245.88240766525269,-400000.0625,-13702.6796875,-2859.639892578125,-400000.0625,-8668.23046875,-400000.0625,-18359.0,-400000.0625
245.90068697929382,-400000.0625,-13672.16015625,-2839.330078125,-400000.0625,-8647.9697265625,-400000.0625,-18332.05078125,-400000.0625
245.91654324531555,-400000.0625,-13656.8095703125,-2834.840087890625,-400000.0625,-8636.8095703125,-400000.0625,-18319.369140625,-400000.0625
245.95677852630615,-400000.0625,-13675.5,-2846.47998046875,-400000.0625,-8648.01953125,-400000.0625,-18335.630859375,-400000.0625
245.97172093391418,-400000.0625,-13705.16015625,-2863.1201171875,-400000.0625,-8665.3701171875,-400000.0625,-18363.720703125,-400000.0625
245.9880862236023,-400000.0625,-13704.9697265625,-2860.639892578125,-400000.0625,-8665.0400390625,-400000.0625,-18366.630859375,-400000.0625
246.00733637809753,-400000.0625,-13678.0302734375,-2847.669921875,-400000.0625,-8646.4404296875,-400000.0625,-18342.44921875,-400000.0625
246.02735590934753,-400000.0625,-13655.4697265625,-2832.75,-400000.0625,-8627.7001953125,-400000.0625,-18321.80078125,-400000.0625
246.06552505493164,-400000.0625,-13672.5,-2841.3798828125,-400000.0625,-8645.73046875,-400000.0625,-18335.76953125,-400000.0625
246.08469438552856,-400000.0625,-13696.3896484375,-2857.260009765625,-400000.0625,-8665.1796875,-400000.0625,-18358.5703125,-400000.0625
246.1051127910614,-400000.0625,-13694.91015625,-2855.35009765625,-400000.0625,-8662.5595703125,-400000.0625,-18361.279296875,-400000.0625
246.11997270584106,-400000.0625,-13673.0703125,-2843.7099609375,-400000.0625,-8649.4501953125,-400000.0625,-18333.390625,-400000.0625
246.1336498260498,-400000.0625,-13657.759765625,-2834.030029296875,-400000.0625,-8632.51953125,-400000.0625,-18313.029296875,-400000.0625
246.23349809646606,-400000.0625,-13722.6103515625,-2851.199951171875,-400000.0625,-8645.919921875,-400000.0625,-18361.330078125,-400000.0625
246.27475929260254,-400000.0625,-13712.169921875,-2845.6201171875,-400000.0625,-8652.3095703125,-400000.0625,-18367.25,-400000.0625
246.34185409545898,-400000.0625,-13671.73046875,-2821.590087890625,-400000.0625,-8626.7001953125,-400000.0625,-18337.19921875,-400000.0625
246.39865922927856,-400000.0625,-13653.6103515625,-2814.10009765625,-400000.0625,-8619.8798828125,-400000.0625,-18319.560546875,-400000.0625
246.4798183441162,-400000.0625,-13675.8798828125,-2829.030029296875,-400000.0625,-8637.91015625,-400000.0625,-18331.240234375,-400000.0625
246.56235790252686,-400000.0625,-13693.0,-2833.080078125,-400000.0625,-8656.0703125,-400000.0625,-18363.5703125,-400000.0625
246.64709663391113,-400000.0625,-13686.9404296875,-2831.550048828125,-400000.0625,-8649.6796875,-400000.0625,-18361.619140625,-400000.0625
246.7262146472931,-400000.0625,-13664.5302734375,-2818.06005859375,-400000.0625,-8634.08984375,-400000.0625,-18332.76953125,-400000.0625
246.78657793998718,-400000.0625,-13657.759765625,-2820.830078125,-400000.0625,-8623.740234375,-400000.0625,-18328.189453125,-400000.0625
246.8482666015625,-400000.0625,-13684.080078125,-2831.080078125,-400000.0625,-8653.3603515625,-400000.0625,-18354.609375,-400000.0625
246.91205263137817,-400000.0625,-13697.33984375,-2835.93994140625,-400000.0625,-8663.5595703125,-400000.0625,-18355.66015625,-400000.0625
247.00472116470337,-400000.0625,-13647.509765625,-2802.469970703125,-400000.0625,-8622.9296875,-400000.0625,-18312.0703125,-400000.0625
247.04146218299866,-400000.0625,-13641.0703125,-2803.179931640625,-400000.0625,-8624.599609375,-400000.0625,-18304.30078125,-400000.0625
247.19952249526978,-400000.0625,-13686.6103515625,-2823.31005859375,-400000.0625,-8657.1201171875,-400000.0625,-18356.66015625,-400000.0625
247.23784923553467,-400000.0625,-13692.91015625,-2825.31005859375,-400000.0625,-8661.2197265625,-400000.0625,-18355.130859375,-400000.0625
247.44453501701355,-400000.0625,-13654.6201171875,-2808.090087890625,-400000.0625,-8632.66015625,-400000.0625,-18322.759765625,-400000.0625
247.5063180923462,-400000.0625,-13683.0302734375,-2819.72998046875,-400000.0625,-8654.5498046875,-400000.0625,-18356.900390625,-400000.0625
247.5546898841858,-400000.0625,-13683.6103515625,-2822.919921875,-400000.0625,-8654.6904296875,-400000.0625,-18349.650390625,-400000.0625
247.6343710422516,-400000.0625,-13663.6796875,-2807.669921875,-400000.0625,-8639.240234375,-400000.0625,-18333.76953125,-400000.0625
247.7420084476471,-400000.0625,-13638.7802734375,-2790.68994140625,-400000.0625,-8623.1201171875,-400000.0625,-18310.169921875,-400000.0625
247.8379352092743,-400000.0625,-13682.9404296875,-2814.389892578125,-400000.0625,-8655.259765625,-400000.0625,-18341.16015625,-400000.0625
247.8760368824005,-400000.0625,-13685.75,-2820.679931640625,-400000.0625,-8663.26953125,-400000.0625,-18351.990234375,-400000.0625
247.93769693374634,-400000.0625,-13664.9599609375,-2805.52001953125,-400000.0625,-8641.2900390625,-400000.0625,-18330.189453125,-400000.0625
247.9998152256012,-400000.0625,-13648.3203125,-2798.800048828125,-400000.0625,-8628.5595703125,-400000.0625,-18313.119140625,-400000.0625
248.10553169250488,-400000.0625,-13657.759765625,-2807.139892578125,-400000.0625,-8638.7197265625,-400000.0625,-18319.75,-400000.0625
248.19860529899597,-400000.0625,-13696.7197265625,-2826.2099609375,-400000.0625,-8662.6103515625,-400000.0625,-18351.369140625,-400000.0625
248.21380376815796,-400000.0625,-13670.490234375,-2812.719970703125,-400000.0625,-8644.8701171875,-400000.0625,-18332.439453125,-400000.0625
248.24983549118042,-400000.0625,-13651.4697265625,-2801.989990234375,-400000.0625,-8630.6103515625,-400000.0625,-18309.740234375,-400000.0625
248.27271389961243,-400000.0625,-13662.8603515625,-2803.280029296875,-400000.0625,-8637.759765625,-400000.0625,-18318.990234375,-400000.0625
248.29355788230896,-400000.0625,-13688.0400390625,-2813.530029296875,-400000.0625,-8652.5,-400000.0625,-18342.779296875,-400000.0625
248.31863737106323,-400000.0625,-13696.0,-2828.64990234375,-400000.0625,-8663.0400390625,-400000.0625,-18354.1796875,-400000.0625
248.35627579689026,-400000.0625,-13672.349609375,-2812.530029296875,-400000.0625,-8646.009765625,-400000.0625,-18332.76953125,-400000.0625
248.37373089790344,-400000.0625,-13649.4697265625,-2795.739990234375,-400000.0625,-8620.3095703125,-400000.0625,-18304.73046875,-400000.0625
248.3903820514679,-400000.0625,-13661.6201171875,-2803.179931640625,-400000.0625,-8626.1298828125,-400000.0625,-18314.3203125,-400000.0625
248.4087860584259,-400000.0625,-13688.08984375,-2819.820068359375,-400000.0625,-8657.5498046875,-400000.0625,-18344.599609375,-400000.0625
248.43075442314148,-400000.0625,-13697.009765625,-2825.260009765625,-400000.0625,-8665.3203125,-400000.0625,-18348.9296875,-400000.0625
248.46543908119202,-400000.0625,-13670.8798828125,-2804.570068359375,-400000.0625,-8647.2001953125,-400000.0625,-18330.529296875,-400000.0625
248.48292350769043,-400000.0625,-13645.83984375,-2795.93994140625,-400000.0625,-8626.990234375,-400000.0625,-18304.5390625,-400000.0625
248.50132775306702,-400000.0625,-13654.08984375,-2791.550048828125,-400000.0625,-8628.080078125,-400000.0625,-18308.2109375,-400000.0625
248.52021193504333,-400000.0625,-13684.75,-2812.669921875,-400000.0625,-8653.3095703125,-400000.0625,-18338.060546875,-400000.0625
248.54395365715027,-400000.0625,-13698.9599609375,-2822.68994140625,-400000.0625,-8662.419921875,-400000.0625,-18351.4609375,-400000.0625
248.5826280117035,-400000.0625,-13671.400390625,-2811.580078125,-400000.0625,-8644.6298828125,-400000.0625,-18328.720703125,-400000.0625
248.59767985343933,-400000.0625,-13645.9404296875,-2792.68994140625,-400000.0625,-8623.26953125,-400000.0625,-18307.0703125,-400000.0625
248.61392998695374,-400000.0625,-13658.6201171875,-2797.409912109375,-400000.0625,-8629.900390625,-400000.0625,-18315.7890625,-400000.0625
248.63102459907532,-400000.0625,-13684.5595703125,-2814.340087890625,-400000.0625,-8656.3095703125,-400000.0625,-18343.400390625,-400000.0625
248.64588451385498,-400000.0625,-13692.08984375,-2814.8701171875,-400000.0625,-8659.7001953125,-400000.0625,-18355.369140625,-400000.0625
248.70895528793335,-400000.0625,-13682.990234375,-2824.449951171875,-400000.0625,-8620.5498046875,-400000.0625,-18324.7109375,-400000.0625
248.77801942825317,-400000.0625,-13684.0400390625,-2819.969970703125,-400000.0625,-8650.16015625,-400000.0625,-18340.109375,-400000.0625
248.85139226913452,-400000.0625,-13697.33984375,-2829.97998046875,-400000.0625,-8661.080078125,-400000.0625,-18349.939453125,-400000.0625
248.90722250938416,-400000.0625,-13676.0703125,-2817.72998046875,-400000.0625,-8652.740234375,-400000.0625,-18328.240234375,-400000.0625
248.96015310287476,-400000.0625,-13643.7900390625,-2804.22998046875,-400000.0625,-8625.4599609375,-400000.0625,-18311.5,-400000.0625
249.02827715873718,-400000.0625,-13644.98046875,-2801.610107421875,-400000.0625,-8631.1396484375,-400000.0625,-18322.0390625,-400000.0625
249.12656998634338,-400000.0625,-13676.5,-2819.110107421875,-400000.0625,-8658.83984375,-400000.0625,-18342.400390625,-400000.0625
249.2096254825592,-400000.0625,-13692.91015625,-2836.510009765625,-400000.0625,-8671.669921875,-400000.0625,-18358.23046875,-400000.0625
249.30494952201843,-400000.0625,-13646.1796875,-2808.2900390625,-400000.0625,-8638.4296875,-400000.0625,-18315.169921875,-400000.0625
249.3434705734253,-400000.0625,-13681.26953125,-2826.60009765625,-400000.0625,-8662.5595703125,-400000.0625,-18359.51953125,-400000.0625
249.4121823310852,-400000.0625,-13678.83984375,-2828.929931640625,-400000.0625,-8659.7001953125,-400000.0625,-18351.3203125,-400000.0625
249.47484731674194,-400000.0625,-13691.8095703125,-2831.60009765625,-400000.0625,-8667.419921875,-400000.0625,-18366.48046875,-400000.0625
249.58613443374634,-400000.0625,-13682.080078125,-2829.169921875,-400000.0625,-8654.6904296875,-400000.0625,-18344.640625,-400000.0625
249.6799440383911,-400000.0625,-13657.330078125,-2813.010009765625,-400000.0625,-8638.669921875,-400000.0625,-18319.990234375,-400000.0625
249.76518511772156,-400000.0625,-13699.7197265625,-2839.330078125,-400000.0625,-8671.1396484375,-400000.0625,-18358.759765625,-400000.0625
249.79465889930725,-400000.0625,-13705.01953125,-2845.050048828125,-400000.0625,-8664.419921875,-400000.0625,-18360.94921875,-400000.0625
249.8563196659088,-400000.0625,-13685.1796875,-2831.27001953125,-400000.0625,-8655.7900390625,-400000.0625,-18341.400390625,-400000.0625
249.94847917556763,-400000.0625,-13656.900390625,-2815.909912109375,-400000.0625,-8634.9501953125,-400000.0625,-18323.849609375,-400000.0625
250.05232119560242,-400000.0625,-13697.2001953125,-2832.27001953125,-400000.0625,-8649.400390625,-400000.0625,-18356.75,-400000.0625
250.18209099769592,-400000.0625,-13702.7802734375,-2838.989990234375,-400000.0625,-8648.0595703125,-400000.0625,-18356.94921875,-400000.0625
250.23970293998718,-400000.0625,-13676.0703125,-2823.5,-400000.0625,-8630.08984375,-400000.0625,-18323.5703125,-400000.0625
250.40248107910156,-400000.0625,-13704.8701171875,-2834.27001953125,-400000.0625,-8646.919921875,-400000.0625,-18358.330078125,-400000.0625
250.43802547454834,-400000.0625,-13721.08984375,-2844.909912109375,-400000.0625,-8650.6396484375,-400000.0625,-18370.439453125,-400000.0625
250.4962499141693,-400000.0625,-13709.9296875,-2837.469970703125,-400000.0625,-8648.9697265625,-400000.0625,-18357.849609375,-400000.0625
250.56606221199036,-400000.0625,-13683.7001953125,-2816.340087890625,-400000.0625,-8625.599609375,-400000.0625,-18325.759765625,-400000.0625
250.64711499214172,-400000.0625,-13717.4599609375,-2832.93994140625,-400000.0625,-8645.6298828125,-400000.0625,-18349.83984375,-400000.0625
250.6937689781189,-400000.0625,-13714.0302734375,-2836.800048828125,-400000.0625,-8649.4501953125,-400000.0625,-18356.369140625,-400000.0625
250.72768592834473,-400000.0625,-13726.759765625,-2840.7099609375,-400000.0625,-8659.2197265625,-400000.0625,-18375.30078125,-400000.0625
250.74399542808533,-400000.0625,-13709.7900390625,-2834.179931640625,-400000.0625,-8643.490234375,-400000.0625,-18353.66015625,-400000.0625
250.76566004753113,-400000.0625,-13687.759765625,-2825.1201171875,-400000.0625,-8621.5498046875,-400000.0625,-18331.48046875,-400000.0625
250.79310202598572,-400000.0625,-13691.0,-2827.8798828125,-400000.0625,-8626.7998046875,-400000.0625,-18333.630859375,-400000.0625
250.8098177909851,-400000.0625,-13723.7099609375,-2844.2900390625,-400000.0625,-8651.5400390625,-400000.0625,-18361.4296875,-400000.0625
250.85285449028015,-400000.0625,-13736.580078125,-2852.8701171875,-400000.0625,-8662.0302734375,-400000.0625,-18374.640625,-400000.0625
250.8729419708252,-400000.0625,-13716.9404296875,-2838.0400390625,-400000.0625,-8650.01953125,-400000.0625,-18363.380859375,-400000.0625
250.8915238380432,-400000.0625,-13691.1396484375,-2828.929931640625,-400000.0625,-8628.75,-400000.0625,-18334.720703125,-400000.0625
250.90788555145264,-400000.0625,-13694.8603515625,-2832.4599609375,-400000.0625,-8628.3701171875,-400000.0625,-18332.630859375,-400000.0625
250.9274082183838,-400000.0625,-13718.419921875,-2841.570068359375,-400000.0625,-8646.9697265625,-400000.0625,-18353.130859375,-400000.0625
250.9674141407013,-400000.0625,-13731.4296875,-2846.81005859375,-400000.0625,-8657.080078125,-400000.0625,-18369.580078125,-400000.0625
250.98154950141907,-400000.0625,-13713.7900390625,-2838.89990234375,-400000.0625,-8647.8701171875,-400000.0625,-18354.369140625,-400000.0625
251.00708842277527,-400000.0625,-13688.2802734375,-2826.550048828125,-400000.0625,-8630.0400390625,-400000.0625,-18332.580078125,-400000.0625
251.02726221084595,-400000.0625,-13690.7099609375,-2833.699951171875,-400000.0625,-8631.2802734375,-400000.0625,-18334.6796875,-400000.0625
251.0487823486328,-400000.0625,-13715.9404296875,-2844.949951171875,-400000.0625,-8650.8798828125,-400000.0625,-18357.23046875,-400000.0625
251.09318208694458,-400000.0625,-13735.73046875,-2853.199951171875,-400000.0625,-8657.98046875,-400000.0625,-18375.919921875,-400000.0625
251.1115119457245,-400000.0625,-13722.849609375,-2846.239990234375,-400000.0625,-8650.0703125,-400000.0625,-18358.66015625,-400000.0625
251.12740778923035,-400000.0625,-13693.240234375,-2828.31005859375,-400000.0625,-8628.26953125,-400000.0625,-18332.33984375,-400000.0625
251.14553809165955,-400000.0625,-13685.419921875,-2822.110107421875,-400000.0625,-8625.4599609375,-400000.0625,-18328.810546875,-400000.0625
251.1617317199707,-400000.0625,-13717.26953125,-2842.3798828125,-400000.0625,-8646.8203125,-400000.0625,-18354.849609375,-400000.0625
251.27761125564575,-400000.0625,-13729.1904296875,-2842.949951171875,-400000.0625,-8616.2099609375,-400000.0625,-18336.060546875,-400000.0625
251.3333239555359,-400000.0625,-13751.599609375,-2858.72998046875,-400000.0625,-8635.6201171875,-400000.0625,-18366.8203125,-400000.0625
251.42744064331055,-400000.0625,-13770.0595703125,-2871.320068359375,-400000.0625,-8656.599609375,-400000.0625,-18390.23046875,-400000.0625
251.5244927406311,-400000.0625,-13709.9296875,-2840.0400390625,-400000.0625,-8613.6396484375,-400000.0625,-18346.650390625,-400000.0625
251.58491349220276,-400000.0625,-13711.599609375,-2841.85009765625,-400000.0625,-8624.0302734375,-400000.0625,-18339.44921875,-400000.0625
251.679829120636,-400000.0625,-13736.349609375,-2855.06005859375,-400000.0625,-8636.759765625,-400000.0625,-18360.0,-400000.0625
251.71326756477356,-400000.0625,-13750.169921875,-2866.550048828125,-400000.0625,-8655.4501953125,-400000.0625,-18374.01953125,-400000.0625
251.7837953567505,-400000.0625,-13735.919921875,-2855.159912109375,-400000.0625,-8650.400390625,-400000.0625,-18368.720703125,-400000.0625
251.8443374633789,-400000.0625,-13708.740234375,-2843.090087890625,-400000.0625,-8622.2197265625,-400000.0625,-18335.109375,-400000.0625
252.04140949249268,-400000.0625,-13751.599609375,-2864.31005859375,-400000.0625,-8655.0703125,-400000.0625,-18368.529296875,-400000.0625
252.13650393486023,-400000.0625,-13738.73046875,-2862.5,-400000.0625,-8651.1103515625,-400000.0625,-18361.05078125,-400000.0625
252.17021584510803,-400000.0625,-13703.6796875,-2840.7099609375,-400000.0625,-8625.080078125,-400000.0625,-18332.630859375,-400000.0625
252.22921895980835,-400000.0625,-13693.5703125,-2837.3701171875,-400000.0625,-8619.5,-400000.0625,-18322.7109375,-400000.0625
252.32008266448975,-400000.0625,-13723.1396484375,-2852.72998046875,-400000.0625,-8637.48046875,-400000.0625,-18354.279296875,-400000.0625
252.3734610080719,-400000.0625,-13748.0302734375,-2870.610107421875,-400000.0625,-8663.23046875,-400000.0625,-18381.310546875,-400000.0625
252.51001811027527,-400000.0625,-13712.740234375,-2845.81005859375,-400000.0625,-8625.0302734375,-400000.0625,-18339.400390625,-400000.0625
252.5449686050415,-400000.0625,-13701.9697265625,-2837.320068359375,-400000.0625,-8620.259765625,-400000.0625,-18334.9609375,-400000.0625
252.61013412475586,-400000.0625,-13724.849609375,-2852.6298828125,-400000.0625,-8638.2900390625,-400000.0625,-18360.279296875,-400000.0625
252.71073865890503,-400000.0625,-13749.9296875,-2864.60009765625,-400000.0625,-8650.6904296875,-400000.0625,-18380.01953125,-400000.0625
252.80009770393372,-400000.0625,-13715.3203125,-2841.3798828125,-400000.0625,-8622.9296875,-400000.0625,-18342.58984375,-400000.0625
252.89648127555847,-400000.0625,-13708.5,-2842.050048828125,-400000.0625,-8615.7802734375,-400000.0625,-18336.970703125,-400000.0625
252.96093010902405,-400000.0625,-13733.5302734375,-2855.590087890625,-400000.0625,-8636.900390625,-400000.0625,-18354.23046875,-400000.0625
253.00633597373962,-400000.0625,-13749.740234375,-2869.320068359375,-400000.0625,-8650.4501953125,-400000.0625,-18381.9296875,-400000.0625
253.07417798042297,-400000.0625,-13739.1103515625,-2863.840087890625,-400000.0625,-8636.330078125,-400000.0625,-18376.30078125,-400000.0625
253.13072299957275,-400000.0625,-13716.990234375,-2850.10009765625,-400000.0625,-8617.7802734375,-400000.0625,-18355.0390625,-400000.0625
253.18645763397217,-400000.0625,-13708.2099609375,-2845.719970703125,-400000.0625,-8617.6396484375,-400000.0625,-18340.73046875,-400000.0625
253.20588898658752,-400000.0625,-13726.1904296875,-2852.340087890625,-400000.0625,-8631.330078125,-400000.0625,-18364.91015625,-400000.0625
253.22543573379517,-400000.0625,-13749.4599609375,-2863.68994140625,-400000.0625,-8647.4404296875,-400000.0625,-18388.23046875,-400000.0625
253.24131059646606,-400000.0625,-13745.4501953125,-2861.070068359375,-400000.0625,-8644.4404296875,-400000.0625,-18379.7890625,-400000.0625
253.28616094589233,-400000.0625,-13713.2197265625,-2844.949951171875,-400000.0625,-8622.4599609375,-400000.0625,-18352.4609375,-400000.0625
253.31622123718262,-400000.0625,-13703.009765625,-2839.090087890625,-400000.0625,-8610.8203125,-400000.0625,-18343.640625,-400000.0625
253.33805751800537,-400000.0625,-13722.9501953125,-2848.77001953125,-400000.0625,-8630.7099609375,-400000.0625,-18360.240234375,-400000.0625
253.36843729019165,-400000.0625,-13751.5595703125,-2864.360107421875,-400000.0625,-8649.16015625,-400000.0625,-18385.560546875,-400000.0625
253.4126422405243,-400000.0625,-13745.599609375,-2860.68994140625,-400000.0625,-8636.669921875,-400000.0625,-18377.9296875,-400000.0625
253.43148231506348,-400000.0625,-13717.2197265625,-2846.81005859375,-400000.0625,-8616.6396484375,-400000.0625,-18351.990234375,-400000.0625
253.44742369651794,-400000.0625,-13706.73046875,-2843.330078125,-400000.0625,-8612.8203125,-400000.0625,-18342.58984375,-400000.0625
253.47142934799194,-400000.0625,-13728.1904296875,-2852.389892578125,-400000.0625,-8629.1298828125,-400000.0625,-18365.720703125,-400000.0625
253.51379919052124,-400000.0625,-13751.41015625,-2865.27001953125,-400000.0625,-8645.3896484375,-400000.0625,-18385.98046875,-400000.0625
253.53480744361877,-400000.0625,-13744.8798828125,-2863.8798828125,-400000.0625,-8641.2900390625,-400000.0625,-18379.400390625,-400000.0625
253.56086134910583,-400000.0625,-13715.599609375,-2847.6201171875,-400000.0625,-8618.98046875,-400000.0625,-18350.650390625,-400000.0625
253.58548665046692,-400000.0625,-13705.01953125,-2842.6201171875,-400000.0625,-8615.2998046875,-400000.0625,-18339.349609375,-400000.0625
253.6290009021759,-400000.0625,-13730.91015625,-2860.929931640625,-400000.0625,-8634.6201171875,-400000.0625,-18362.859375,-400000.0625
253.65229868888855,-400000.0625,-13757.7998046875,-2869.889892578125,-400000.0625,-8654.400390625,-400000.0625,-18383.7890625,-400000.0625
253.70571565628052,-400000.0625,-13828.9501953125,-2914.2900390625,-400000.0625,-8622.83984375,-400000.0625,-18412.5390625,-400000.0625
253.76613330841064,-400000.0625,-13755.9404296875,-2884.820068359375,-400000.0625,-8617.01953125,-400000.0625,-18361.759765625,-400000.0625
253.82983231544495,-400000.0625,-13718.7001953125,-2862.8798828125,-400000.0625,-8606.6298828125,-400000.0625,-18337.390625,-400000.0625
253.89370727539062,-400000.0625,-13739.0595703125,-2878.47998046875,-400000.0625,-8623.98046875,-400000.0625,-18365.240234375,-400000.0625
253.9947144985199,-400000.0625,-13765.5302734375,-2891.780029296875,-400000.0625,-8644.5302734375,-400000.0625,-18389.80078125,-400000.0625
254.10137391090393,-400000.0625,-13718.23046875,-2870.75,-400000.0625,-8619.3095703125,-400000.0625,-18356.900390625,-400000.0625
254.23665523529053,-400000.0625,-13723.7099609375,-2872.090087890625,-400000.0625,-8624.83984375,-400000.0625,-18351.890625,-400000.0625
254.27706909179688,-400000.0625,-13737.6796875,-2875.81005859375,-400000.0625,-8642.9599609375,-400000.0625,-18379.640625,-400000.0625
254.36890769004822,-400000.0625,-13733.25,-2870.510009765625,-400000.0625,-8642.76953125,-400000.0625,-18372.25,-400000.0625
254.4776966571808,-400000.0625,-13688.849609375,-2840.85009765625,-400000.0625,-8601.8603515625,-400000.0625,-18328.240234375,-400000.0625
254.53276348114014,-400000.0625,-13712.4599609375,-2859.929931640625,-400000.0625,-8620.7900390625,-400000.0625,-18343.2109375,-400000.0625
254.5929093360901,-400000.0625,-13732.8203125,-2864.360107421875,-400000.0625,-8636.1904296875,-400000.0625,-18370.390625,-400000.0625
254.70137858390808,-400000.0625,-13731.76953125,-2860.070068359375,-400000.0625,-8627.75,-400000.0625,-18369.490234375,-400000.0625
254.7983694076538,-400000.0625,-13717.509765625,-2847.81005859375,-400000.0625,-8616.0703125,-400000.0625,-18340.259765625,-400000.0625
254.87843561172485,-400000.0625,-13709.01953125,-2843.52001953125,-400000.0625,-8612.73046875,-400000.0625,-18342.779296875,-400000.0625
254.91156387329102,-400000.0625,-13741.0703125,-2861.830078125,-400000.0625,-8628.4599609375,-400000.0625,-18365.9609375,-400000.0625
254.99110102653503,-400000.0625,-13741.2099609375,-2863.1201171875,-400000.0625,-8634.23046875,-400000.0625,-18362.810546875,-400000.0625
255.10227799415588,-400000.0625,-13720.66015625,-2849.669921875,-400000.0625,-8611.2001953125,-400000.0625,-18350.41015625,-400000.0625
255.17753911018372,-400000.0625,-13712.41015625,-2840.469970703125,-400000.0625,-8612.009765625,-400000.0625,-18334.76953125,-400000.0625
255.3631181716919,-400000.0625,-13716.4599609375,-2845.570068359375,-400000.0625,-8608.8701171875,-400000.0625,-18331.9609375,-400000.0625
255.4614553451538,-400000.0625,-13708.9296875,-2838.330078125,-400000.0625,-8608.8701171875,-400000.0625,-18332.009765625,-400000.0625
255.52463698387146,-400000.0625,-13710.1201171875,-2837.7099609375,-400000.0625,-8606.669921875,-400000.0625,-18325.810546875,-400000.0625
255.63259077072144,-400000.0625,-13749.0302734375,-2868.3701171875,-400000.0625,-8636.669921875,-400000.0625,-18363.619140625,-400000.0625
255.69256472587585,-400000.0625,-13715.7001953125,-2841.81005859375,-400000.0625,-8613.73046875,-400000.0625,-18335.6796875,-400000.0625
255.71210956573486,-400000.0625,-13697.4404296875,-2833.840087890625,-400000.0625,-8599.849609375,-400000.0625,-18313.7890625,-400000.0625
255.73145508766174,-400000.0625,-13712.1201171875,-2844.6201171875,-400000.0625,-8612.2001953125,-400000.0625,-18333.390625,-400000.0625
255.74621868133545,-400000.0625,-13742.7802734375,-2862.739990234375,-400000.0625,-8638.8095703125,-400000.0625,-18357.5703125,-400000.0625
255.7852222919464,-400000.0625,-13746.3603515625,-2863.070068359375,-400000.0625,-8639.48046875,-400000.0625,-18357.08984375,-400000.0625
255.80811190605164,-400000.0625,-13714.41015625,-2843.280029296875,-400000.0625,-8612.7802734375,-400000.0625,-18332.33984375,-400000.0625
255.82481718063354,-400000.0625,-13703.4404296875,-2839.89990234375,-400000.0625,-8597.849609375,-400000.0625,-18316.3203125,-400000.0625
255.8478548526764,-400000.0625,-13712.6904296875,-2840.3798828125,-400000.0625,-8606.009765625,-400000.0625,-18324.900390625,-400000.0625
255.8844645023346,-400000.0625,-13734.4404296875,-2851.340087890625,-400000.0625,-8634.1396484375,-400000.0625,-18353.130859375,-400000.0625
255.90466833114624,-400000.0625,-13738.58984375,-2855.35009765625,-400000.0625,-8639.91015625,-400000.0625,-18351.650390625,-400000.0625
255.92384934425354,-400000.0625,-13716.7900390625,-2846.340087890625,-400000.0625,-8617.58984375,-400000.0625,-18328.099609375,-400000.0625
255.9426772594452,-400000.0625,-13698.25,-2837.22998046875,-400000.0625,-8602.91015625,-400000.0625,-18314.939453125,-400000.0625
255.95931029319763,-400000.0625,-13716.7900390625,-2848.10009765625,-400000.0625,-8615.7802734375,-400000.0625,-18329.5703125,-400000.0625
256.01180148124695,-400000.0625,-13743.6396484375,-2861.68994140625,-400000.0625,-8638.4296875,-400000.0625,-18358.08984375,-400000.0625
256.03316950798035,-400000.0625,-13746.5498046875,-2863.169921875,-400000.0625,-8635.6201171875,-400000.0625,-18359.380859375,-400000.0625
256.058456659317,-400000.0625,-13715.3603515625,-2844.2900390625,-400000.0625,-8610.1103515625,-400000.0625,-18331.529296875,-400000.0625
256.0784728527069,-400000.0625,-13698.76953125,-2836.419921875,-400000.0625,-8595.75,-400000.0625,-18312.650390625,-400000.0625
256.1133985519409,-400000.0625,-13715.599609375,-2846.10009765625,-400000.0625,-8615.2998046875,-400000.0625,-18336.009765625,-400000.0625
256.13306617736816,-400000.0625,-13742.3095703125,-2860.2099609375,-400000.0625,-8640.6201171875,-400000.0625,-18362.859375,-400000.0625
256.16314363479614,-400000.0625,-13742.400390625,-2858.070068359375,-400000.0625,-8639.3798828125,-400000.0625,-18356.560546875,-400000.0625
256.23131799697876,-400000.0625,-13931.4697265625,-2959.110107421875,-400000.0625,-8589.26953125,-400000.0625,-18431.7109375,-400000.0625
256.32863330841064,-400000.0625,-13756.7998046875,-2876.89990234375,-400000.0625,-8612.5400390625,-400000.0625,-18338.779296875,-400000.0625
256.3856432437897,-400000.0625,-13732.4296875,-2860.8798828125,-400000.0625,-8598.2802734375,-400000.0625,-18326.279296875,-400000.0625
256.4674072265625,-400000.0625,-13764.33984375,-2877.239990234375,-400000.0625,-8631.4697265625,-400000.0625,-18355.08984375,-400000.0625
256.55448389053345,-400000.0625,-13757.759765625,-2875.419921875,-400000.0625,-8631.1396484375,-400000.0625,-18355.369140625,-400000.0625
256.64060831069946,-400000.0625,-13734.099609375,-2865.739990234375,-400000.0625,-8624.599609375,-400000.0625,-18330.390625,-400000.0625
256.7045953273773,-400000.0625,-13712.4599609375,-2846.580078125,-400000.0625,-8608.0595703125,-400000.0625,-18321.900390625,-400000.0625
256.8001940250397,-400000.0625,-13726.4296875,-2847.2900390625,-400000.0625,-8612.8203125,-400000.0625,-18316.130859375,-400000.0625
256.8358197212219,-400000.0625,-13753.7001953125,-2859.8798828125,-400000.0625,-8632.990234375,-400000.0625,-18345.640625,-400000.0625
256.9326958656311,-400000.0625,-13754.419921875,-2858.830078125,-400000.0625,-8634.66015625,-400000.0625,-18353.419921875,-400000.0625
256.96718287467957,-400000.0625,-13730.7197265625,-2851.43994140625,-400000.0625,-8629.3203125,-400000.0625,-18342.259765625,-400000.0625
257.0282757282257,-400000.0625,-13714.83984375,-2838.989990234375,-400000.0625,-8605.580078125,-400000.0625,-18315.890625,-400000.0625
257.08794116973877,-400000.0625,-13728.3798828125,-2848.860107421875,-400000.0625,-8627.7001953125,-400000.0625,-18329.099609375,-400000.0625
257.15443658828735,-400000.0625,-13758.2802734375,-2862.60009765625,-400000.0625,-8650.4501953125,-400000.0625,-18352.80078125,-400000.0625
257.3075635433197,-400000.0625,-13732.76953125,-2847.429931640625,-400000.0625,-8638.33984375,-400000.0625,-18336.580078125,-400000.0625
257.3538513183594,-400000.0625,-13705.259765625,-2830.030029296875,-400000.0625,-8614.349609375,-400000.0625,-18310.41015625,-400000.0625
257.43040895462036,-400000.0625,-13716.0302734375,-2833.510009765625,-400000.0625,-8617.830078125,-400000.0625,-18324.7109375,-400000.0625
257.4734447002411,-400000.0625,-13739.919921875,-2848.6298828125,-400000.0625,-8645.9599609375,-400000.0625,-18349.220703125,-400000.0625
257.53702449798584,-400000.0625,-13748.080078125,-2853.72998046875,-400000.0625,-8650.2998046875,-400000.0625,-18358.140625,-400000.0625
257.6248481273651,-400000.0625,-13733.91015625,-2849.8701171875,-400000.0625,-8639.6201171875,-400000.0625,-18330.240234375,-400000.0625
257.6924877166748,-400000.0625,-13745.599609375,-2849.199951171875,-400000.0625,-8646.009765625,-400000.0625,-18340.400390625,-400000.0625
257.73096466064453,-400000.0625,-13716.2197265625,-2828.169921875,-400000.0625,-8621.259765625,-400000.0625,-18311.83984375,-400000.0625
257.7912435531616,-400000.0625,-13740.919921875,-2837.7099609375,-400000.0625,-8643.4404296875,-400000.0625,-18332.33984375,-400000.0625
257.859516620636,-400000.0625,-13737.8701171875,-2847.77001953125,-400000.0625,-8640.580078125,-400000.0625,-18324.23046875,-400000.0625
257.9337418079376,-400000.0625,-13738.2001953125,-2848.340087890625,-400000.0625,-8634.1904296875,-400000.0625,-18328.4296875,-400000.0625
258.04260635375977,-400000.0625,-13720.23046875,-2840.610107421875,-400000.0625,-8624.8896484375,-400000.0625,-18313.26953125,-400000.0625
258.0876429080963,-400000.0625,-13727.7099609375,-2841.81005859375,-400000.0625,-8628.8896484375,-400000.0625,-18316.80078125,-400000.0625
258.18145084381104,-400000.0625,-13769.76953125,-2872.52001953125,-400000.0625,-8663.990234375,-400000.0625,-18350.650390625,-400000.0625
258.24141097068787,-400000.0625,-13750.3203125,-2855.969970703125,-400000.0625,-8653.259765625,-400000.0625,-18333.869140625,-400000.0625
258.2556719779968,-400000.0625,-13726.1904296875,-2845.860107421875,-400000.0625,-8631.0400390625,-400000.0625,-18311.9296875,-400000.0625
258.2742209434509,-400000.0625,-13737.8701171875,-2858.35009765625,-400000.0625,-8636.2802734375,-400000.0625,-18316.3203125,-400000.0625
258.28772711753845,-400000.0625,-13769.25,-2874.090087890625,-400000.0625,-8661.41015625,-400000.0625,-18347.890625,-400000.0625
258.3328638076782,-400000.0625,-13770.6796875,-2871.419921875,-400000.0625,-8665.3203125,-400000.0625,-18350.939453125,-400000.0625
258.3579740524292,-400000.0625,-13743.349609375,-2860.260009765625,-400000.0625,-8648.4404296875,-400000.0625,-18324.189453125,-400000.0625
258.378103017807,-400000.0625,-13720.23046875,-2843.239990234375,-400000.0625,-8633.5703125,-400000.0625,-18301.919921875,-400000.0625
258.405469417572,-400000.0625,-13728.0,-2849.2900390625,-400000.0625,-8636.1396484375,-400000.0625,-18313.890625,-400000.0625
258.44615960121155,-400000.0625,-13760.900390625,-2868.320068359375,-400000.0625,-8661.2197265625,-400000.0625,-18347.599609375,-400000.0625
258.4720664024353,-400000.0625,-13768.76953125,-2870.179931640625,-400000.0625,-8658.26953125,-400000.0625,-18352.650390625,-400000.0625
258.4911072254181,-400000.0625,-13742.5400390625,-2853.35009765625,-400000.0625,-8641.150390625,-400000.0625,-18328.05078125,-400000.0625
258.51107358932495,-400000.0625,-13718.23046875,-2837.56005859375,-400000.0625,-8629.3203125,-400000.0625,-18305.400390625,-400000.0625
258.54230403900146,-400000.0625,-13731.33984375,-2846.340087890625,-400000.0625,-8635.08984375,-400000.0625,-18313.26953125,-400000.0625
258.5608344078064,-400000.0625,-13761.0,-2865.60009765625,-400000.0625,-8662.080078125,-400000.0625,-18339.490234375,-400000.0625
258.58249950408936,-400000.0625,-13764.7197265625,-2869.219970703125,-400000.0625,-8668.66015625,-400000.0625,-18345.9296875,-400000.0625
258.601909160614,-400000.0625,-13740.259765625,-2853.780029296875,-400000.0625,-8650.1103515625,-400000.0625,-18317.26953125,-400000.0625
258.6223907470703,-400000.0625,-13720.509765625,-2840.570068359375,-400000.0625,-8630.3701171875,-400000.0625,-18301.8203125,-400000.0625
258.66100454330444,-400000.0625,-13723.7099609375,-2842.330078125,-400000.0625,-8629.080078125,-400000.0625,-18312.26953125,-400000.0625
258.6765115261078,-400000.0625,-13754.419921875,-2864.409912109375,-400000.0625,-8655.740234375,-400000.0625,-18336.390625,-400000.0625
258.75235748291016,-400000.0625,-14071.3203125,-2991.14990234375,-400000.0625,-8554.7900390625,-400000.0625,-18453.310546875,-400000.0625
258.8808579444885,-400000.0625,-14075.5703125,-2999.1201171875,-400000.0625,-8577.7802734375,-400000.0625,-18472.05078125,-400000.0625
259.01264357566833,-400000.0625,-14069.650390625,-2997.06005859375,-400000.0625,-8583.259765625,-400000.0625,-18472.2890625,-400000.0625
259.14827489852905,-400000.0625,-14034.23046875,-2984.52001953125,-400000.0625,-8569.6201171875,-400000.0625,-18449.58984375,-400000.0625
259.2230463027954,-400000.0625,-13991.599609375,-2958.159912109375,-400000.0625,-8557.080078125,-400000.0625,-18416.259765625,-400000.0625
259.29014229774475,-400000.0625,-13984.490234375,-2960.25,-400000.0625,-8574.25,-400000.0625,-18418.69921875,-400000.0625
259.3925654888153,-400000.0625,-14000.3203125,-2973.93994140625,-400000.0625,-8604.0,-400000.0625,-18440.580078125,-400000.0625
259.4591784477234,-400000.0625,-13993.5498046875,-2971.219970703125,-400000.0625,-8613.25,-400000.0625,-18454.890625,-400000.0625
259.4954116344452,-400000.0625,-13956.599609375,-2953.340087890625,-400000.0625,-8594.23046875,-400000.0625,-18422.560546875,-400000.0625
259.55629992485046,-400000.0625,-13920.259765625,-2931.60009765625,-400000.0625,-8581.9697265625,-400000.0625,-18392.279296875,-400000.0625
259.59088158607483,-400000.0625,-13911.73046875,-2928.449951171875,-400000.0625,-8588.650390625,-400000.0625,-18389.75,-400000.0625
259.61914134025574,-400000.0625,-13932.4697265625,-2945.22998046875,-400000.0625,-8615.01953125,-400000.0625,-18414.169921875,-400000.0625
259.67417311668396,-400000.0625,-13932.1796875,-2945.280029296875,-400000.0625,-8626.7001953125,-400000.0625,-18420.7890625,-400000.0625
259.7241139411926,-400000.0625,-13902.2802734375,-2930.830078125,-400000.0625,-8611.0595703125,-400000.0625,-18395.51953125,-400000.0625
259.86126685142517,-400000.0625,-13872.009765625,-2917.580078125,-400000.0625,-8596.7998046875,-400000.0625,-18370.490234375,-400000.0625
259.99065804481506,-400000.0625,-13864.6103515625,-2912.81005859375,-400000.0625,-8605.0498046875,-400000.0625,-18376.2109375,-400000.0625
260.0549666881561,-400000.0625,-13878.4404296875,-2915.909912109375,-400000.0625,-8628.5595703125,-400000.0625,-18404.060546875,-400000.0625
260.0862638950348,-400000.0625,-13884.7802734375,-2926.919921875,-400000.0625,-8636.330078125,-400000.0625,-18411.5390625,-400000.0625
260.137020111084,-400000.0625,-13851.1201171875,-2902.840087890625,-400000.0625,-8616.5,-400000.0625,-18385.029296875,-400000.0625
260.24941539764404,-400000.0625,-13820.9404296875,-2891.39990234375,-400000.0625,-8592.990234375,-400000.0625,-18356.609375,-400000.0625
260.3405408859253,-400000.0625,-13820.599609375,-2893.5,-400000.0625,-8604.6201171875,-400000.0625,-18355.3203125,-400000.0625
260.38945484161377,-400000.0625,-13844.2998046875,-2904.179931640625,-400000.0625,-8631.66015625,-400000.0625,-18389.509765625,-400000.0625
260.4625630378723,-400000.0625,-13850.8798828125,-2911.090087890625,-400000.0625,-8646.349609375,-400000.0625,-18395.5703125,-400000.0625
260.50836062431335,-400000.0625,-13814.58984375,-2888.8701171875,-400000.0625,-8628.26953125,-400000.0625,-18361.900390625,-400000.0625
260.61644220352173,-400000.0625,-13780.6904296875,-2868.219970703125,-400000.0625,-8604.0498046875,-400000.0625,-18338.400390625,-400000.0625
260.68803238868713,-400000.0625,-13792.75,-2874.800048828125,-400000.0625,-8611.3896484375,-400000.0625,-18344.740234375,-400000.0625
260.7251431941986,-400000.0625,-13819.650390625,-2890.830078125,-400000.0625,-8633.3798828125,-400000.0625,-18365.810546875,-400000.0625
260.78495168685913,-400000.0625,-13817.8798828125,-2891.5400390625,-400000.0625,-8646.25,-400000.0625,-18374.349609375,-400000.0625
260.81978607177734,-400000.0625,-13793.2802734375,-2881.6201171875,-400000.0625,-8634.1904296875,-400000.0625,-18355.509765625,-400000.0625
260.85579228401184,-400000.0625,-13766.099609375,-2870.659912109375,-400000.0625,-8610.919921875,-400000.0625,-18332.580078125,-400000.0625
260.91303062438965,-400000.0625,-13770.6796875,-2869.699951171875,-400000.0625,-8617.9697265625,-400000.0625,-18343.830078125,-400000.0625
260.94429659843445,-400000.0625,-13802.8603515625,-2888.199951171875,-400000.0625,-8643.099609375,-400000.0625,-18369.490234375,-400000.0625
260.981418132782,-400000.0625,-13806.5400390625,-2888.969970703125,-400000.0625,-8653.9296875,-400000.0625,-18372.73046875,-400000.0625
261.0369951725006,-400000.0625,-13772.349609375,-2869.64990234375,-400000.0625,-8638.1904296875,-400000.0625,-18352.609375,-400000.0625
261.0638608932495,-400000.0625,-13743.6904296875,-2858.780029296875,-400000.0625,-8614.830078125,-400000.0625,-18322.369140625,-400000.0625
261.0927138328552,-400000.0625,-13753.83984375,-2863.070068359375,-400000.0625,-8621.7900390625,-400000.0625,-18328.0,-400000.0625
261.15234780311584,-400000.0625,-13781.5498046875,-2878.570068359375,-400000.0625,-8646.5400390625,-400000.0625,-18355.0390625,-400000.0625
261.18407464027405,-400000.0625,-13790.75,-2882.530029296875,-400000.0625,-8651.16015625,-400000.0625,-18359.380859375,-400000.0625
261.2238714694977,-400000.0625,-13763.48046875,-2867.840087890625,-400000.0625,-8635.51953125,-400000.0625,-18335.869140625,-400000.0625
261.2956910133362,-400000.0625,-13736.4404296875,-2853.010009765625,-400000.0625,-8619.740234375,-400000.0625,-18318.80078125,-400000.0625
261.334353685379,-400000.0625,-13746.5498046875,-2856.780029296875,-400000.0625,-8624.080078125,-400000.0625,-18328.48046875,-400000.0625
261.3689794540405,-400000.0625,-13775.2099609375,-2875.139892578125,-400000.0625,-8648.9697265625,-400000.0625,-18352.220703125,-400000.0625
261.4031047821045,-400000.0625,-13784.169921875,-2877.81005859375,-400000.0625,-8657.98046875,-400000.0625,-18356.0390625,-400000.0625
261.43996810913086,-400000.0625,-13764.1396484375,-2867.409912109375,-400000.0625,-8635.6201171875,-400000.0625,-18342.310546875,-400000.0625
261.4917621612549,-400000.0625,-13732.2900390625,-2848.429931640625,-400000.0625,-8616.9697265625,-400000.0625,-18311.259765625,-400000.0625
261.53333854675293,-400000.0625,-13735.25,-2845.6201171875,-400000.0625,-8622.2197265625,-400000.0625,-18318.23046875,-400000.0625
261.567889213562,-400000.0625,-13769.8701171875,-2865.7900390625,-400000.0625,-8644.25,-400000.0625,-18346.310546875,-400000.0625
261.6162042617798,-400000.0625,-13779.830078125,-2879.050048828125,-400000.0625,-8654.1201171875,-400000.0625,-18353.80078125,-400000.0625
261.6443877220154,-400000.0625,-13757.849609375,-2862.169921875,-400000.0625,-8641.48046875,-400000.0625,-18333.529296875,-400000.0625
261.666873216629,-400000.0625,-13730.9599609375,-2851.580078125,-400000.0625,-8619.3603515625,-400000.0625,-18310.689453125,-400000.0625
261.69691014289856,-400000.0625,-13736.919921875,-2857.260009765625,-400000.0625,-8624.98046875,-400000.0625,-18321.1796875,-400000.0625
261.7328288555145,-400000.0625,-13770.5302734375,-2872.989990234375,-400000.0625,-8651.58984375,-400000.0625,-18344.9296875,-400000.0625
261.7556893825531,-400000.0625,-13779.169921875,-2874.3701171875,-400000.0625,-8658.169921875,-400000.0625,-18361.05078125,-400000.0625
261.7758557796478,-400000.0625,-13760.4296875,-2863.260009765625,-400000.0625,-8638.240234375,-400000.0625,-18336.16015625,-400000.0625
261.80829977989197,-400000.0625,-13732.009765625,-2845.860107421875,-400000.0625,-8621.740234375,-400000.0625,-18313.220703125,-400000.0625
261.8462839126587,-400000.0625,-13740.58984375,-2851.679931640625,-400000.0625,-8626.5595703125,-400000.0625,-18318.609375,-400000.0625
261.87569856643677,-400000.0625,-13768.9599609375,-2869.320068359375,-400000.0625,-8645.2998046875,-400000.0625,-18346.029296875,-400000.0625
261.91126704216003,-400000.0625,-13779.98046875,-2877.6201171875,-400000.0625,-8657.3603515625,-400000.0625,-18351.83984375,-400000.0625
261.9814729690552,-400000.0625,-13751.599609375,-2857.969970703125,-400000.0625,-8641.3896484375,-400000.0625,-18333.25,-400000.0625
262.0097231864929,-400000.0625,-13723.1796875,-2845.669921875,-400000.0625,-8622.1201171875,-400000.0625,-18305.830078125,-400000.0625
262.04081630706787,-400000.0625,-13731.099609375,-2848.389892578125,-400000.0625,-8629.509765625,-400000.0625,-18316.599609375,-400000.0625
262.071745634079,-400000.0625,-13767.2001953125,-2865.27001953125,-400000.0625,-8656.7900390625,-400000.0625,-18350.98046875,-400000.0625
262.09845638275146,-400000.0625,-13775.919921875,-2877.7099609375,-400000.0625,-8659.1298828125,-400000.0625,-18359.419921875,-400000.0625
262.12642097473145,-400000.0625,-13747.6904296875,-2856.919921875,-400000.0625,-8640.91015625,-400000.0625,-18337.869140625,-400000.0625
262.15885496139526,-400000.0625,-13726.8603515625,-2848.47998046875,-400000.0625,-8619.6396484375,-400000.0625,-18308.740234375,-400000.0625
262.2566649913788,-400000.0625,-13733.4404296875,-2847.340087890625,-400000.0625,-8619.8798828125,-400000.0625,-18318.23046875,-400000.0625
262.30239248275757,-400000.0625,-13760.08984375,-2857.8798828125,-400000.0625,-8640.580078125,-400000.0625,-18343.880859375,-400000.0625
262.3586964607239,-400000.0625,-13767.009765625,-2863.64990234375,-400000.0625,-8652.6396484375,-400000.0625,-18351.80078125,-400000.0625
262.41957688331604,-400000.0625,-13742.9697265625,-2853.820068359375,-400000.0625,-8639.6201171875,-400000.0625,-18332.8203125,-400000.0625
262.50969767570496,-400000.0625,-13725.759765625,-2845.719970703125,-400000.0625,-8622.5,-400000.0625,-18309.9296875,-400000.0625
262.5531871318817,-400000.0625,-13737.1103515625,-2852.199951171875,-400000.0625,-8630.7099609375,-400000.0625,-18312.650390625,-400000.0625
262.63550448417664,-400000.0625,-13766.580078125,-2867.27001953125,-400000.0625,-8656.83984375,-400000.0625,-18342.259765625,-400000.0625
262.70766043663025,-400000.0625,-13774.349609375,-2868.4599609375,-400000.0625,-8661.5595703125,-400000.0625,-18352.4609375,-400000.0625
262.7800166606903,-400000.0625,-13748.1201171875,-2855.72998046875,-400000.0625,-8638.33984375,-400000.0625,-18334.580078125,-400000.0625
262.82707166671753,-400000.0625,-13723.23046875,-2843.090087890625,-400000.0625,-8615.2998046875,-400000.0625,-18309.359375,-400000.0625
262.90446162223816,-400000.0625,-13731.8203125,-2846.530029296875,-400000.0625,-8616.9697265625,-400000.0625,-18317.4609375,-400000.0625
262.94991517066956,-400000.0625,-13757.1796875,-2862.169921875,-400000.0625,-8644.5302734375,-400000.0625,-18352.939453125,-400000.0625
263.02117824554443,-400000.0625,-13767.8203125,-2870.699951171875,-400000.0625,-8661.080078125,-400000.0625,-18358.330078125,-400000.0625
263.0603144168854,-400000.0625,-13750.1298828125,-2862.449951171875,-400000.0625,-8645.580078125,-400000.0625,-18337.19921875,-400000.0625
263.12420201301575,-400000.0625,-13728.7197265625,-2849.530029296875,-400000.0625,-8625.41015625,-400000.0625,-18307.259765625,-400000.0625
263.15128207206726,-400000.0625,-13739.400390625,-2855.06005859375,-400000.0625,-8626.41015625,-400000.0625,-18313.83984375,-400000.0625
263.1772301197052,-400000.0625,-13767.2001953125,-2861.449951171875,-400000.0625,-8651.349609375,-400000.0625,-18345.689453125,-400000.0625
263.2337427139282,-400000.0625,-13769.76953125,-2866.840087890625,-400000.0625,-8658.1201171875,-400000.0625,-18352.220703125,-400000.0625
263.2634491920471,-400000.0625,-13748.41015625,-2856.159912109375,-400000.0625,-8635.0,-400000.0625,-18336.060546875,-400000.0625
263.28801822662354,-400000.0625,-13727.759765625,-2844.139892578125,-400000.0625,-8609.8203125,-400000.0625,-18313.740234375,-400000.0625
263.3412299156189,-400000.0625,-13732.76953125,-2845.429931640625,-400000.0625,-8619.400390625,-400000.0625,-18326.900390625,-400000.0625
263.3729729652405,-400000.0625,-13760.5703125,-2858.5,-400000.0625,-8649.4501953125,-400000.0625,-18348.650390625,-400000.0625
263.4130208492279,-400000.0625,-13771.8701171875,-2865.27001953125,-400000.0625,-8660.599609375,-400000.0625,-18356.609375,-400000.0625
263.48007011413574,-400000.0625,-13750.599609375,-2852.9599609375,-400000.0625,-8643.25,-400000.0625,-18336.490234375,-400000.0625
263.51429438591003,-400000.0625,-13724.9501953125,-2838.280029296875,-400000.0625,-8621.0703125,-400000.0625,-18310.169921875,-400000.0625
