time,ch1,ch2,ch3,ch4,ch5
timestamp,ch7,ch2,ch3,ch5,is_pause
0.03521013259887695,-400000.0625,-14128.259765625,-2805.659912109375,-400000.0625,-8826.4501953125,-400000.0625,-18907.880859375,-400000.0625
0.03548169136047363,-400000.0625,-14126.01953125,-2801.75,-400000.0625,-8822.6796875,-400000.0625,-18901.30078125,-400000.0625
0.03553009033203125,-400000.0625,-14087.8203125,-2773.6201171875,-400000.0625,-8790.9697265625,-400000.0625,-18857.4296875,-400000.0625
0.03555870056152344,-400000.0625,-14061.740234375,-2753.68994140625,-400000.0625,-8771.330078125,-400000.0625,-18836.0703125,-400000.0625
0.035584449768066406,-400000.0625,-14089.7802734375,-2773.239990234375,-400000.0625,-8789.919921875,-400000.0625,-18869.119140625,-400000.0625
0.03560805320739746,-400000.0625,-14138.41015625,-2812.669921875,-400000.0625,-8832.8798828125,-400000.0625,-18912.599609375,-400000.0625
0.035630226135253906,-400000.0625,-14129.830078125,-2810.530029296875,-400000.0625,-8832.7900390625,-400000.0625,-18909.5,-400000.0625
0.03565359115600586,-400000.0625,-14083.009765625,-2771.429931640625,-400000.0625,-8791.8798828125,-400000.0625,-18861.19921875,-400000.0625
0.03567647933959961,-400000.0625,-14061.3603515625,-2751.919921875,-400000.0625,-8769.080078125,-400000.0625,-18837.0703125,-400000.0625
0.035698652267456055,-400000.0625,-14094.01953125,-2784.159912109375,-400000.0625,-8794.5,-400000.0625,-18867.58984375,-400000.0625
0.0357210636138916,-400000.0625,-14134.599609375,-2816.06005859375,-400000.0625,-8833.98046875,-400000.0625,-18906.2109375,-400000.0625
0.035744428634643555,-400000.0625,-14129.9296875,-2806.85009765625,-400000.0625,-8830.9296875,-400000.0625,-18902.640625,-400000.0625
0.035767316818237305,-400000.0625,-14083.240234375,-2769.85009765625,-400000.0625,-8791.7802734375,-400000.0625,-18857.8203125,-400000.0625
0.03578948974609375,-400000.0625,-14058.1103515625,-2752.39990234375,-400000.0625,-8769.849609375,-400000.0625,-18833.830078125,-400000.0625
0.0358119010925293,-400000.0625,-14093.73046875,-2785.159912109375,-400000.0625,-8796.650390625,-400000.0625,-18862.73046875,-400000.0625
0.03583502769470215,-400000.0625,-14128.73046875,-2807.0,-400000.0625,-8831.8798828125,-400000.0625,-18901.400390625,-400000.0625
timestamp,ch7,ch2,ch3,ch5,is_pause
timestamp,ch7,ch2,ch3,ch5,is_pause
0.060828447341918945,-400000.0625,-14125.58984375,-2807.18994140625,-400000.0625,-8831.169921875,-400000.0625,-18901.400390625,-400000.0625
0.061057329177856445,-400000.0625,-14079.0498046875,-2771.52001953125,-400000.0625,-8790.2099609375,-400000.0625,-18858.05078125,-400000.0625
0.06109428405761719,-400000.0625,-14062.3603515625,-2757.1201171875,-400000.0625,-8769.9404296875,-400000.0625,-18834.689453125,-400000.0625
0.06110405921936035,-400000.0625,-14094.01953125,-2779.580078125,-400000.0625,-8795.169921875,-400000.0625,-18868.0703125,-400000.0625
0.0611119270324707,-400000.0625,-14130.5498046875,-2807.3798828125,-400000.0625,-8828.6396484375,-400000.0625,-18903.109375,-400000.0625
0.06112194061279297,-400000.0625,-14129.6904296875,-2807.669921875,-400000.0625,-8825.8798828125,-400000.0625,-18898.060546875,-400000.0625
0.06113433837890625,-400000.0625,-14089.7802734375,-2779.2900390625,-400000.0625,-8789.919921875,-400000.0625,-18860.8203125,-400000.0625
0.06115269660949707,-400000.0625,-14061.8798828125,-2760.60009765625,-400000.0625,-8772.330078125,-400000.0625,-18840.359375,-400000.0625
0.06116080284118652,-400000.0625,-14089.7802734375,-2779.580078125,-400000.0625,-8795.5,-400000.0625,-18868.400390625,-400000.0625
0.06116914749145508,-400000.0625,-14137.080078125,-2812.580078125,-400000.0625,-8833.1201171875,-400000.0625,-18909.169921875,-400000.0625
0.061179161071777344,-400000.0625,-14133.5498046875,-2812.47998046875,-400000.0625,-8832.740234375,-400000.0625,-18903.44921875,-400000.0625
0.0611872673034668,-400000.0625,-14090.830078125,-2786.2099609375,-400000.0625,-8798.169921875,-400000.0625,-18860.099609375,-400000.0625
0.061194419860839844,-400000.0625,-14067.3701171875,-2765.889892578125,-400000.0625,-8771.4697265625,-400000.0625,-18840.98046875,-400000.0625
0.061202049255371094,-400000.0625,-14099.3603515625,-2785.969970703125,-400000.0625,-8798.080078125,-400000.0625,-18871.98046875,-400000.0625
0.06121230125427246,-400000.0625,-14140.509765625,-2821.159912109375,-400000.0625,-8838.26953125,-400000.0625,-18910.83984375,-400000.0625
0.061222076416015625,-400000.0625,-14134.26953125,-2815.77001953125,-400000.0625,-8830.8798828125,-400000.0625,-18910.83984375,-400000.0625
timestamp,ch7,ch2,ch3,ch5,is_pause
timestamp,ch7,ch2,ch3,ch5,is_pause
timestamp,ch7,ch2,ch3,ch5,is_pause
timestamp,ch7,ch2,ch3,ch5,is_pause
timestamp,ch7,ch2,ch3,ch5,is_pause
timestamp,ch7,ch2,ch3,ch5,is_pause
0.14835596084594727,-400000.0625,-14093.5,-2782.14990234375,-400000.0625,-8791.9697265625,-400000.0625,-18868.830078125,-400000.0625
0.1585371494293213,-400000.0625,-14068.75,-2769.52001953125,-400000.0625,-8772.900390625,-400000.0625,-18843.560546875,-400000.0625
0.15871310234069824,-400000.0625,-14095.0703125,-2786.830078125,-400000.0625,-8797.3603515625,-400000.0625,-18869.58984375,-400000.0625
0.15874028205871582,-400000.0625,-14139.9404296875,-2819.780029296875,-400000.0625,-8833.98046875,-400000.0625,-18908.7890625,-400000.0625
0.15876150131225586,-400000.0625,-14131.259765625,-2814.719970703125,-400000.0625,-8829.9296875,-400000.0625,-18905.880859375,-400000.0625
0.1587820053100586,-400000.0625,-14093.4501953125,-2786.110107421875,-400000.0625,-8796.169921875,-400000.0625,-18864.009765625,-400000.0625
0.15880274772644043,-400000.0625,-14072.3701171875,-2764.64990234375,-400000.0625,-8775.0,-400000.0625,-18843.4609375,-400000.0625
0.15882253646850586,-400000.0625,-14103.3701171875,-2791.070068359375,-400000.0625,-8797.0302734375,-400000.0625,-18872.689453125,-400000.0625
0.1588420867919922,-400000.0625,-14140.7998046875,-2818.43994140625,-400000.0625,-8832.6904296875,-400000.0625,-18910.69921875,-400000.0625
0.15886187553405762,-400000.0625,-14140.990234375,-2818.580078125,-400000.0625,-8831.599609375,-400000.0625,-18905.2109375,-400000.0625
0.15888118743896484,-400000.0625,-14097.4501953125,-2788.929931640625,-400000.0625,-8794.5,-400000.0625,-18862.390625,-400000.0625
0.15891170501708984,-400000.0625,-14071.3203125,-2765.469970703125,-400000.0625,-8775.7099609375,-400000.0625,-18838.689453125,-400000.0625
0.1589343547821045,-400000.0625,-14103.6103515625,-2791.360107421875,-400000.0625,-8799.3603515625,-400000.0625,-18867.689453125,-400000.0625
0.15895509719848633,-400000.0625,-14140.849609375,-2818.919921875,-400000.0625,-8835.7001953125,-400000.0625,-18906.169921875,-400000.0625
0.15897488594055176,-400000.0625,-14140.9404296875,-2820.5400390625,-400000.0625,-8833.4599609375,-400000.0625,-18902.01953125,-400000.0625
0.1589946746826172,-400000.0625,-14098.0703125,-2786.679931640625,-400000.0625,-8797.1201171875,-400000.0625,-18860.869140625,-400000.0625
timestamp,ch7,ch2,ch3,ch5,is_pause
timestamp,ch7,ch2,ch3,ch5,is_pause
0.1935596466064453,-400000.0625,-14071.0400390625,-2766.89990234375,-400000.0625,-8772.3701171875,-400000.0625,-18837.029296875,-400000.0625
0.1938188076019287,-400000.0625,-14103.26953125,-2790.02001953125,-400000.0625,-8793.3095703125,-400000.0625,-18863.630859375,-400000.0625
0.19384288787841797,-400000.0625,-14145.3798828125,-2821.969970703125,-400000.0625,-8830.4501953125,-400000.0625,-18900.830078125,-400000.0625
0.19385623931884766,-400000.0625,-14143.330078125,-2820.969970703125,-400000.0625,-8833.5,-400000.0625,-18900.73046875,-400000.0625
0.19386816024780273,-400000.0625,-14103.7001953125,-2791.830078125,-400000.0625,-8797.5498046875,-400000.0625,-18864.400390625,-400000.0625
0.19388103485107422,-400000.0625,-14079.4296875,-2774.949951171875,-400000.0625,-8774.900390625,-400000.0625,-18843.890625,-400000.0625
0.19389653205871582,-400000.0625,-14104.9404296875,-2793.840087890625,-400000.0625,-8800.2197265625,-400000.0625,-18866.58984375,-400000.0625
0.1939089298248291,-400000.0625,-14151.5302734375,-2829.60009765625,-400000.0625,-8839.23046875,-400000.0625,-18901.830078125,-400000.0625
0.1939225196838379,-400000.0625,-14144.2802734375,-2823.5400390625,-400000.0625,-8835.75,-400000.0625,-18899.779296875,-400000.0625
0.19394421577453613,-400000.0625,-14095.3603515625,-2784.5400390625,-400000.0625,-8796.259765625,-400000.0625,-18860.390625,-400000.0625
0.19397449493408203,-400000.0625,-14075.08984375,-2770.760009765625,-400000.0625,-8772.2802734375,-400000.0625,-18838.689453125,-400000.0625
0.19399118423461914,-400000.0625,-14110.66015625,-2797.080078125,-400000.0625,-8802.26953125,-400000.0625,-18866.16015625,-400000.0625
0.19400286674499512,-400000.0625,-14152.0,-2829.219970703125,-400000.0625,-8838.0302734375,-400000.0625,-18908.689453125,-400000.0625
0.194014310836792,-400000.0625,-14142.3203125,-2819.06005859375,-400000.0625,-8831.3603515625,-400000.0625,-18900.6796875,-400000.0625
0.19402694702148438,-400000.0625,-14098.8798828125,-2785.300048828125,-400000.0625,-8797.3095703125,-400000.0625,-18857.529296875,-400000.0625
0.19404053688049316,-400000.0625,-14081.5302734375,-2775.0,-400000.0625,-8777.330078125,-400000.0625,-18838.55078125,-400000.0625
timestamp,ch7,ch2,ch3,ch5,is_pause
timestamp,ch7,ch2,ch3,ch5,is_pause
timestamp,ch7,ch2,ch3,ch5,is_pause
timestamp,ch7,ch2,ch3,ch5,is_pause
timestamp,ch7,ch2,ch3,ch5,is_pause
timestamp,ch7,ch2,ch3,ch5,is_pause
0.2725059986114502,-400000.0625,-14107.9404296875,-2798.179931640625,-400000.0625,-8804.080078125,-400000.0625,-18864.490234375,-400000.0625
timestamp,ch7,ch2,ch3,ch5,is_pause
0.30860471725463867,-400000.0625,-14145.9501953125,-2823.780029296875,-400000.0625,-8840.3701171875,-400000.0625,-18906.310546875,-400000.0625
timestamp,ch7,ch2,ch3,ch5,is_pause
0.32616567611694336,-400000.0625,-14144.23046875,-2823.780029296875,-400000.0625,-8836.3203125,-400000.0625,-18905.880859375,-400000.0625
timestamp,ch7,ch2,ch3,ch5,is_pause
0.3449981212615967,-400000.0625,-14103.650390625,-2792.639892578125,-400000.0625,-8798.650390625,-400000.0625,-18863.009765625,-400000.0625
timestamp,ch7,ch2,ch3,ch5,is_pause
0.3600642681121826,-400000.0625,-14075.5703125,-2772.280029296875,-400000.0625,-8778.48046875,-400000.0625,-18841.080078125,-400000.0625
timestamp,ch7,ch2,ch3,ch5,is_pause
0.37642550468444824,-400000.0625,-14104.7998046875,-2789.550048828125,-400000.0625,-8798.98046875,-400000.0625,-18870.58984375,-400000.0625
timestamp,ch7,ch2,ch3,ch5,is_pause
timestamp,ch7,ch2,ch3,ch5,is_pause
0.4107828140258789,-400000.0625,-14149.48046875,-2826.449951171875,-400000.0625,-8836.5595703125,-400000.0625,-18915.4609375,-400000.0625
timestamp,ch7,ch2,ch3,ch5,is_pause
timestamp,ch7,ch2,ch3,ch5,is_pause
0.43453335762023926,-400000.0625,-14142.5595703125,-2820.639892578125,-400000.0625,-8838.7998046875,-400000.0625,-18907.169921875,-400000.0625
timestamp,ch7,ch2,ch3,ch5,is_pause
0.4504976272583008,-400000.0625,-14098.4599609375,-2785.969970703125,-400000.0625,-8799.7900390625,-400000.0625,-18865.16015625,-400000.0625
timestamp,ch7,ch2,ch3,ch5,is_pause
0.4758493900299072,-400000.0625,-14072.1298828125,-2770.85009765625,-400000.0625,-8773.3798828125,-400000.0625,-18842.369140625,-400000.0625
timestamp,ch7,ch2,ch3,ch5,is_pause
0.4947192668914795,-400000.0625,-14098.740234375,-2791.8798828125,-400000.0625,-8800.509765625,-400000.0625,-18866.830078125,-400000.0625
timestamp,ch7,ch2,ch3,ch5,is_pause
timestamp,ch7,ch2,ch3,ch5,is_pause
timestamp,ch7,ch2,ch3,ch5,is_pause
0.5405306816101074,-400000.0625,-14144.759765625,-2825.02001953125,-400000.0625,-8838.3701171875,-400000.0625,-18905.689453125,-400000.0625
timestamp,ch7,ch2,ch3,ch5,is_pause
0.5556235313415527,-400000.0625,-14140.6103515625,-2819.489990234375,-400000.0625,-8835.1298828125,-400000.0625,-18905.119140625,-400000.0625
timestamp,ch7,ch2,ch3,ch5,is_pause
0.5694751739501953,-400000.0625,-14099.4599609375,-2787.639892578125,-400000.0625,-8799.3603515625,-400000.0625,-18869.349609375,-400000.0625
timestamp,ch7,ch2,ch3,ch5,is_pause
0.5902092456817627,-400000.0625,-14074.1796875,-2771.22998046875,-400000.0625,-8781.76953125,-400000.0625,-18838.689453125,-400000.0625
timestamp,ch7,ch2,ch3,ch5,is_pause
0.6073660850524902,-400000.0625,-14105.0400390625,-2794.840087890625,-400000.0625,-8804.26953125,-400000.0625,-18871.310546875,-400000.0625
timestamp,ch7,ch2,ch3,ch5,is_pause
timestamp,ch7,ch2,ch3,ch5,is_pause
0.6404922008514404,-400000.0625,-14147.9501953125,-2822.260009765625,-400000.0625,-8839.4697265625,-400000.0625,-18911.220703125,-400000.0625
timestamp,ch7,ch2,ch3,ch5,is_pause
0.6563007831573486,-400000.0625,-14140.990234375,-2821.06005859375,-400000.0625,-8839.0400390625,-400000.0625,-18908.169921875,-400000.0625
timestamp,ch7,ch2,ch3,ch5,is_pause
0.670665979385376,-400000.0625,-14092.830078125,-2786.02001953125,-400000.0625,-8801.41015625,-400000.0625,-18865.109375,-400000.0625
timestamp,ch7,ch2,ch3,ch5,is_pause
timestamp,ch7,ch2,ch3,ch5,is_pause
0.6925134658813477,-400000.0625,-14073.08984375,-2767.469970703125,-400000.0625,-8777.91015625,-400000.0625,-18836.830078125,-400000.0625
timestamp,ch7,ch2,ch3,ch5,is_pause
0.7175662517547607,-400000.0625,-14102.990234375,-2789.070068359375,-400000.0625,-8798.8896484375,-400000.0625,-18866.44921875,-400000.0625
timestamp,ch7,ch2,ch3,ch5,is_pause
timestamp,ch7,ch2,ch3,ch5,is_pause
timestamp,ch7,ch2,ch3,ch5,is_pause
0.7613928318023682,-400000.0625,-14146.900390625,-2824.35009765625,-400000.0625,-8834.8896484375,-400000.0625,-18907.640625,-400000.0625
timestamp,ch7,ch2,ch3,ch5,is_pause
0.7818465232849121,-400000.0625,-14145.66015625,-2828.169921875,-400000.0625,-8839.849609375,-400000.0625,-18901.830078125,-400000.0625
timestamp,ch7,ch2,ch3,ch5,is_pause
0.8012640476226807,-400000.0625,-14100.2197265625,-2794.169921875,-400000.0625,-8800.169921875,-400000.0625,-18862.30078125,-400000.0625
timestamp,ch7,ch2,ch3,ch5,is_pause
0.8200628757476807,-400000.0625,-14073.5595703125,-2773.7099609375,-400000.0625,-8777.2900390625,-400000.0625,-18842.650390625,-400000.0625
timestamp,ch7,ch2,ch3,ch5,is_pause
timestamp,ch7,ch2,ch3,ch5,is_pause
timestamp,ch7,ch2,ch3,ch5,is_pause
0.8601748943328857,-400000.0625,-14103.26953125,-2792.8798828125,-400000.0625,-8805.9404296875,-400000.0625,-18868.970703125,-400000.0625
timestamp,ch7,ch2,ch3,ch5,is_pause
0.875129222869873,-400000.0625,-14141.1796875,-2823.8798828125,-400000.0625,-8841.4697265625,-400000.0625,-18909.220703125,-400000.0625
timestamp,ch7,ch2,ch3,ch5,is_pause
0.892775297164917,-400000.0625,-14139.650390625,-2819.110107421875,-400000.0625,-8838.9404296875,-400000.0625,-18909.26953125,-400000.0625
timestamp,ch7,ch2,ch3,ch5,is_pause
0.9107468128204346,-400000.0625,-14099.41015625,-2791.449951171875,-400000.0625,-8800.1298828125,-400000.0625,-18864.30078125,-400000.0625
timestamp,ch7,ch2,ch3,ch5,is_pause
0.9256649017333984,-400000.0625,-14073.2802734375,-2770.949951171875,-400000.0625,-8778.48046875,-400000.0625,-18843.609375,-400000.0625
timestamp,ch7,ch2,ch3,ch5,is_pause
timestamp,ch7,ch2,ch3,ch5,is_pause
0.9600210189819336,-400000.0625,-14101.7001953125,-2792.169921875,-400000.0625,-8798.9296875,-400000.0625,-18872.41015625,-400000.0625
timestamp,ch7,ch2,ch3,ch5,is_pause
0.9776067733764648,-400000.0625,-14141.75,-2829.030029296875,-400000.0625,-8838.75,-400000.0625,-18909.650390625,-400000.0625
timestamp,ch7,ch2,ch3,ch5,is_pause
0.9932732582092285,-400000.0625,-14140.1796875,-2826.1201171875,-400000.0625,-8841.66015625,-400000.0625,-18903.349609375,-400000.0625
timestamp,ch7,ch2,ch3,ch5,is_pause
1.0080995559692383,-400000.0625,-14100.7900390625,-2789.2099609375,-400000.0625,-8802.41015625,-400000.0625,-18863.390625,-400000.0625
timestamp,ch7,ch2,ch3,ch5,is_pause
1.028710126876831,-400000.0625,-14073.1396484375,-2773.81005859375,-400000.0625,-8779.48046875,-400000.0625,-18838.599609375,-400000.0625
timestamp,ch7,ch2,ch3,ch5,is_pause
timestamp,ch7,ch2,ch3,ch5,is_pause
1.0604209899902344,-400000.0625,-14097.7900390625,-2784.679931640625,-400000.0625,-8799.9404296875,-400000.0625,-18871.2109375,-400000.0625
timestamp,ch7,ch2,ch3,ch5,is_pause
1.0765511989593506,-400000.0625,-14142.849609375,-2825.2099609375,-400000.0625,-8837.650390625,-400000.0625,-18908.7890625,-400000.0625
timestamp,ch7,ch2,ch3,ch5,is_pause
1.092923879623413,-400000.0625,-14141.3701171875,-2822.590087890625,-400000.0625,-8835.599609375,-400000.0625,-18904.640625,-400000.0625
timestamp,ch7,ch2,ch3,ch5,is_pause
1.1075561046600342,-400000.0625,-14094.16015625,-2790.39990234375,-400000.0625,-8798.3095703125,-400000.0625,-18863.060546875,-400000.0625
timestamp,ch7,ch2,ch3,ch5,is_pause
1.1228702068328857,-400000.0625,-14065.4599609375,-2764.989990234375,-400000.0625,-8778.240234375,-400000.0625,-18833.830078125,-400000.0625
timestamp,ch7,ch2,ch3,ch5,is_pause
1.1411352157592773,-400000.0625,-14093.3095703125,-2785.35009765625,-400000.0625,-8801.0302734375,-400000.0625,-18866.2109375,-400000.0625
timestamp,ch7,ch2,ch3,ch5,is_pause
timestamp,ch7,ch2,ch3,ch5,is_pause
1.173757553100586,-400000.0625,-14136.7900390625,-2820.43994140625,-400000.0625,-8839.4697265625,-400000.0625,-18905.400390625,-400000.0625
timestamp,ch7,ch2,ch3,ch5,is_pause
1.1926655769348145,-400000.0625,-14137.080078125,-2819.39990234375,-400000.0625,-8839.5595703125,-400000.0625,-18904.16015625,-400000.0625
timestamp,ch7,ch2,ch3,ch5,is_pause
1.2101492881774902,-400000.0625,-14091.2998046875,-2784.590087890625,-400000.0625,-8800.0302734375,-400000.0625,-18860.490234375,-400000.0625
timestamp,ch7,ch2,ch3,ch5,is_pause
1.2249798774719238,-400000.0625,-14063.169921875,-2769.179931640625,-400000.0625,-8777.5703125,-400000.0625,-18831.109375,-400000.0625
timestamp,ch7,ch2,ch3,ch5,is_pause
1.240875244140625,-400000.0625,-14089.73046875,-2787.449951171875,-400000.0625,-8805.9404296875,-400000.0625,-18860.869140625,-400000.0625
timestamp,ch7,ch2,ch3,ch5,is_pause
1.2603483200073242,-400000.0625,-14136.599609375,-2822.969970703125,-400000.0625,-8839.7998046875,-400000.0625,-18899.73046875,-400000.0625
timestamp,ch7,ch2,ch3,ch5,is_pause
timestamp,ch7,ch2,ch3,ch5,is_pause
1.2947156429290771,-400000.0625,-14133.41015625,-2819.35009765625,-400000.0625,-8836.83984375,-400000.0625,-18898.349609375,-400000.0625
timestamp,ch7,ch2,ch3,ch5,is_pause
timestamp,ch7,ch2,ch3,ch5,is_pause
1.3152875900268555,-400000.0625,-14089.4404296875,-2788.02001953125,-400000.0625,-8801.9404296875,-400000.0625,-18858.19921875,-400000.0625
timestamp,ch7,ch2,ch3,ch5,is_pause
1.3299381732940674,-400000.0625,-14059.8798828125,-2766.179931640625,-400000.0625,-8777.8603515625,-400000.0625,-18828.109375,-400000.0625
timestamp,ch7,ch2,ch3,ch5,is_pause
1.3530240058898926,-400000.0625,-14089.009765625,-2788.260009765625,-400000.0625,-8802.0302734375,-400000.0625,-18856.720703125,-400000.0625
timestamp,ch7,ch2,ch3,ch5,is_pause
1.368161678314209,-400000.0625,-14136.41015625,-2823.929931640625,-400000.0625,-8839.8896484375,-400000.0625,-18897.19921875,-400000.0625
timestamp,ch7,ch2,ch3,ch5,is_pause
timestamp,ch7,ch2,ch3,ch5,is_pause
timestamp,ch7,ch2,ch3,ch5,is_pause
1.4085204601287842,-400000.0625,-14135.080078125,-2821.39990234375,-400000.0625,-8840.1298828125,-400000.0625,-18895.060546875,-400000.0625
timestamp,ch7,ch2,ch3,ch5,is_pause
1.4251694679260254,-400000.0625,-14086.0595703125,-2786.35009765625,-400000.0625,-8804.66015625,-400000.0625,-18859.48046875,-400000.0625
timestamp,ch7,ch2,ch3,ch5,is_pause
1.4422829151153564,-400000.0625,-14070.6103515625,-2773.860107421875,-400000.0625,-8783.3896484375,-400000.0625,-18830.73046875,-400000.0625
timestamp,ch7,ch2,ch3,ch5,is_pause
1.4594764709472656,-400000.0625,-14097.599609375,-2790.39990234375,-400000.0625,-8802.509765625,-400000.0625,-18860.76953125,-400000.0625
timestamp,ch7,ch2,ch3,ch5,is_pause
1.4791090488433838,-400000.0625,-14136.7900390625,-2819.489990234375,-400000.0625,-8837.26953125,-400000.0625,-18902.349609375,-400000.0625
timestamp,ch7,ch2,ch3,ch5,is_pause
timestamp,ch7,ch2,ch3,ch5,is_pause
1.5110478401184082,-400000.0625,-14136.41015625,-2827.409912109375,-400000.0625,-8840.849609375,-400000.0625,-18898.630859375,-400000.0625
timestamp,ch7,ch2,ch3,ch5,is_pause
1.52778959274292,-400000.0625,-14093.73046875,-2794.889892578125,-400000.0625,-8806.66015625,-400000.0625,-18857.720703125,-400000.0625
timestamp,ch7,ch2,ch3,ch5,is_pause
1.5438838005065918,-400000.0625,-14064.650390625,-2769.090087890625,-400000.0625,-8781.4296875,-400000.0625,-18829.6796875,-400000.0625
timestamp,ch7,ch2,ch3,ch5,is_pause
1.561567783355713,-400000.0625,-14092.8798828125,-2789.590087890625,-400000.0625,-8802.990234375,-400000.0625,-18858.720703125,-400000.0625
timestamp,ch7,ch2,ch3,ch5,is_pause
1.578780174255371,-400000.0625,-14139.0302734375,-2825.39990234375,-400000.0625,-8841.23046875,-400000.0625,-18898.349609375,-400000.0625
timestamp,ch7,ch2,ch3,ch5,is_pause
1.592409372329712,-400000.0625,-14137.83984375,-2826.639892578125,-400000.0625,-8842.51953125,-400000.0625,-18899.869140625,-400000.0625
timestamp,ch7,ch2,ch3,ch5,is_pause
1.6223890781402588,-400000.0625,-14091.830078125,-2791.8798828125,-400000.0625,-8801.9404296875,-400000.0625,-18857.580078125,-400000.0625
timestamp,ch7,ch2,ch3,ch5,is_pause
1.6378483772277832,-400000.0625,-14068.41015625,-2774.669921875,-400000.0625,-8777.51953125,-400000.0625,-18836.5,-400000.0625
timestamp,ch7,ch2,ch3,ch5,is_pause
1.6538026332855225,-400000.0625,-14098.8798828125,-2796.60009765625,-400000.0625,-8805.3203125,-400000.0625,-18859.669921875,-400000.0625
timestamp,ch7,ch2,ch3,ch5,is_pause
1.6742045879364014,-400000.0625,-14140.849609375,-2822.639892578125,-400000.0625,-8841.900390625,-400000.0625,-18901.349609375,-400000.0625
timestamp,ch7,ch2,ch3,ch5,is_pause
1.689340591430664,-400000.0625,-14145.7099609375,-2832.219970703125,-400000.0625,-8844.08984375,-400000.0625,-18900.400390625,-400000.0625
timestamp,ch7,ch2,ch3,ch5,is_pause
1.7090697288513184,-400000.0625,-14103.7001953125,-2800.889892578125,-400000.0625,-8808.23046875,-400000.0625,-18861.33984375,-400000.0625
timestamp,ch7,ch2,ch3,ch5,is_pause
timestamp,ch7,ch2,ch3,ch5,is_pause
timestamp,ch7,ch2,ch3,ch5,is_pause
1.7484526634216309,-400000.0625,-14073.900390625,-2778.820068359375,-400000.0625,-8785.2001953125,-400000.0625,-18838.55078125,-400000.0625
1.7602722644805908,-400000.0625,-14098.599609375,-2798.27001953125,-400000.0625,-8804.8896484375,-400000.0625,-18864.060546875,-400000.0625
timestamp,ch7,ch2,ch3,ch5,is_pause
1.7761821746826172,-400000.0625,-14144.4697265625,-2829.7900390625,-400000.0625,-8840.3701171875,-400000.0625,-18905.5,-400000.0625
timestamp,ch7,ch2,ch3,ch5,is_pause
1.7950754165649414,-400000.0625,-14142.2802734375,-2830.360107421875,-400000.0625,-8840.08984375,-400000.0625,-18906.880859375,-400000.0625
timestamp,ch7,ch2,ch3,ch5,is_pause
1.8080389499664307,-400000.0625,-14100.740234375,-2802.419921875,-400000.0625,-8805.1298828125,-400000.0625,-18865.16015625,-400000.0625
timestamp,ch7,ch2,ch3,ch5,is_pause
1.8234119415283203,-400000.0625,-14073.849609375,-2777.050048828125,-400000.0625,-8780.669921875,-400000.0625,-18842.080078125,-400000.0625
timestamp,ch7,ch2,ch3,ch5,is_pause
timestamp,ch7,ch2,ch3,ch5,is_pause
1.8529717922210693,-400000.0625,-14100.509765625,-2796.080078125,-400000.0625,-8803.990234375,-400000.0625,-18869.44921875,-400000.0625
timestamp,ch7,ch2,ch3,ch5,is_pause
timestamp,ch7,ch2,ch3,ch5,is_pause
1.8713784217834473,-400000.0625,-14139.1298828125,-2829.27001953125,-400000.0625,-8842.1796875,-400000.0625,-18911.3203125,-400000.0625
timestamp,ch7,ch2,ch3,ch5,is_pause
1.8918547630310059,-400000.0625,-14142.1796875,-2831.169921875,-400000.0625,-8843.5703125,-400000.0625,-18906.2109375,-400000.0625
timestamp,ch7,ch2,ch3,ch5,is_pause
1.9055681228637695,-400000.0625,-14101.650390625,-2796.27001953125,-400000.0625,-8809.330078125,-400000.0625,-18864.109375,-400000.0625
timestamp,ch7,ch2,ch3,ch5,is_pause
1.9245829582214355,-400000.0625,-14076.330078125,-2775.139892578125,-400000.0625,-8786.0595703125,-400000.0625,-18842.990234375,-400000.0625
timestamp,ch7,ch2,ch3,ch5,is_pause
timestamp,ch7,ch2,ch3,ch5,is_pause
1.9571681022644043,-400000.0625,-14102.080078125,-2798.030029296875,-400000.0625,-8805.9404296875,-400000.0625,-18870.880859375,-400000.0625
timestamp,ch7,ch2,ch3,ch5,is_pause
1.9724862575531006,-400000.0625,-14142.990234375,-2831.320068359375,-400000.0625,-8840.66015625,-400000.0625,-18907.41015625,-400000.0625
timestamp,ch7,ch2,ch3,ch5,is_pause
1.9881091117858887,-400000.0625,-14142.0400390625,-2826.639892578125,-400000.0625,-8836.9404296875,-400000.0625,-18903.349609375,-400000.0625
timestamp,ch7,ch2,ch3,ch5,is_pause
timestamp,ch7,ch2,ch3,ch5,is_pause
2.017085552215576,-400000.0625,-14097.83984375,-2791.929931640625,-400000.0625,-8798.98046875,-400000.0625,-18861.869140625,-400000.0625
timestamp,ch7,ch2,ch3,ch5,is_pause
2.0325264930725098,-400000.0625,-14066.169921875,-2771.659912109375,-400000.0625,-8774.849609375,-400000.0625,-18833.2109375,-400000.0625
timestamp,ch7,ch2,ch3,ch5,is_pause
timestamp,ch7,ch2,ch3,ch5,is_pause
2.0713229179382324,-400000.0625,-14097.1201171875,-2792.070068359375,-400000.0625,-8803.990234375,-400000.0625,-18863.779296875,-400000.0625
timestamp,ch7,ch2,ch3,ch5,is_pause
timestamp,ch7,ch2,ch3,ch5,is_pause
2.0956830978393555,-400000.0625,-14140.23046875,-2820.159912109375,-400000.0625,-8841.3203125,-400000.0625,-18908.83984375,-400000.0625
timestamp,ch7,ch2,ch3,ch5,is_pause
2.115379810333252,-400000.0625,-14144.330078125,-2829.1201171875,-400000.0625,-8841.6103515625,-400000.0625,-18908.029296875,-400000.0625
timestamp,ch7,ch2,ch3,ch5,is_pause
2.1305630207061768,-400000.0625,-14103.83984375,-2796.889892578125,-400000.0625,-8803.849609375,-400000.0625,-18867.259765625,-400000.0625
timestamp,ch7,ch2,ch3,ch5,is_pause
2.151667356491089,-400000.0625,-14075.759765625,-2776.239990234375,-400000.0625,-8780.76953125,-400000.0625,-18842.169921875,-400000.0625
timestamp,ch7,ch2,ch3,ch5,is_pause
timestamp,ch7,ch2,ch3,ch5,is_pause
2.1880455017089844,-400000.0625,-14102.26953125,-2795.27001953125,-400000.0625,-8802.1298828125,-400000.0625,-18865.5390625,-400000.0625
timestamp,ch7,ch2,ch3,ch5,is_pause
timestamp,ch7,ch2,ch3,ch5,is_pause
2.2132773399353027,-400000.0625,-14144.0400390625,-2823.780029296875,-400000.0625,-8832.3603515625,-400000.0625,-18900.919921875,-400000.0625
timestamp,ch7,ch2,ch3,ch5,is_pause
2.230637550354004,-400000.0625,-14143.4697265625,-2830.030029296875,-400000.0625,-8834.5498046875,-400000.0625,-18903.310546875,-400000.0625
timestamp,ch7,ch2,ch3,ch5,is_pause
timestamp,ch7,ch2,ch3,ch5,is_pause
2.254041910171509,-400000.0625,-14109.330078125,-2798.989990234375,-400000.0625,-8804.26953125,-400000.0625,-18872.599609375,-400000.0625
timestamp,ch7,ch2,ch3,ch5,is_pause
timestamp,ch7,ch2,ch3,ch5,is_pause
2.287423849105835,-400000.0625,-14097.3095703125,-2777.0,-400000.0625,-8784.2998046875,-400000.0625,-18844.939453125,-400000.0625
timestamp,ch7,ch2,ch3,ch5,is_pause
2.3045449256896973,-400000.0625,-14132.3095703125,-2799.610107421875,-400000.0625,-8811.3798828125,-400000.0625,-18860.33984375,-400000.0625
timestamp,ch7,ch2,ch3,ch5,is_pause
2.3228814601898193,-400000.0625,-14179.9501953125,-2846.239990234375,-400000.0625,-8846.8095703125,-400000.0625,-18890.669921875,-400000.0625
2.337503433227539,-400000.0625,-14189.91015625,-2869.510009765625,-400000.0625,-8848.3798828125,-400000.0625,-18889.810546875,-400000.0625
timestamp,ch7,ch2,ch3,ch5,is_pause
2.3521201610565186,-400000.0625,-14152.1904296875,-2841.139892578125,-400000.0625,-8809.419921875,-400000.0625,-18841.55078125,-400000.0625
timestamp,ch7,ch2,ch3,ch5,is_pause
2.3625097274780273,-400000.0625,-14141.6103515625,-2835.4599609375,-400000.0625,-8789.25,-400000.0625,-18807.509765625,-400000.0625
timestamp,ch7,ch2,ch3,ch5,is_pause
2.3930394649505615,-400000.0625,-14180.3798828125,-2875.89990234375,-400000.0625,-8816.8203125,-400000.0625,-18822.05078125,-400000.0625
timestamp,ch7,ch2,ch3,ch5,is_pause
2.408430576324463,-400000.0625,-14234.58984375,-2928.8798828125,-400000.0625,-8855.919921875,-400000.0625,-18850.23046875,-400000.0625
timestamp,ch7,ch2,ch3,ch5,is_pause
2.427172899246216,-400000.0625,-14252.51953125,-2946.85009765625,-400000.0625,-8858.6298828125,-400000.0625,-18837.259765625,-400000.0625
timestamp,ch7,ch2,ch3,ch5,is_pause
2.4411938190460205,-400000.0625,-14219.7099609375,-2930.929931640625,-400000.0625,-8822.16015625,-400000.0625,-18783.05078125,-400000.0625
timestamp,ch7,ch2,ch3,ch5,is_pause
2.4554667472839355,-400000.0625,-14214.849609375,-2933.260009765625,-400000.0625,-8802.5595703125,-400000.0625,-18746.5703125,-400000.0625
timestamp,ch7,ch2,ch3,ch5,is_pause
2.472470998764038,-400000.0625,-14258.0,-2968.739990234375,-400000.0625,-8824.73046875,-400000.0625,-18758.630859375,-400000.0625
timestamp,ch7,ch2,ch3,ch5,is_pause
timestamp,ch7,ch2,ch3,ch5,is_pause
2.503995656967163,-400000.0625,-14300.2998046875,-3017.3798828125,-400000.0625,-8859.349609375,-400000.0625,-18778.990234375,-400000.0625
timestamp,ch7,ch2,ch3,ch5,is_pause
timestamp,ch7,ch2,ch3,ch5,is_pause
2.52797532081604,-400000.0625,-14321.419921875,-3041.080078125,-400000.0625,-8866.0302734375,-400000.0625,-18767.0703125,-400000.0625
timestamp,ch7,ch2,ch3,ch5,is_pause
2.5474908351898193,-400000.0625,-14293.7197265625,-3018.860107421875,-400000.0625,-8827.6396484375,-400000.0625,-18709.5703125,-400000.0625
timestamp,ch7,ch2,ch3,ch5,is_pause
timestamp,ch7,ch2,ch3,ch5,is_pause
2.5701639652252197,-400000.0625,-14266.830078125,-3001.31005859375,-400000.0625,-8799.650390625,-400000.0625,-18656.349609375,-400000.0625
2.5818493366241455,-400000.0625,-14321.419921875,-3054.0,-400000.0625,-8838.75,-400000.0625,-18686.390625,-400000.0625
timestamp,ch7,ch2,ch3,ch5,is_pause
timestamp,ch7,ch2,ch3,ch5,is_pause
2.6096653938293457,-400000.0625,-14378.2197265625,-3104.070068359375,-400000.0625,-8882.1396484375,-400000.0625,-18710.900390625,-400000.0625
timestamp,ch7,ch2,ch3,ch5,is_pause
2.6227760314941406,-400000.0625,-14380.9296875,-3110.360107421875,-400000.0625,-8874.849609375,-400000.0625,-18693.16015625,-400000.0625
timestamp,ch7,ch2,ch3,ch5,is_pause
2.6376099586486816,-400000.0625,-14343.9296875,-3085.570068359375,-400000.0625,-8843.7998046875,-400000.0625,-18638.1796875,-400000.0625
timestamp,ch7,ch2,ch3,ch5,is_pause
2.6557693481445312,-400000.0625,-14321.66015625,-3075.840087890625,-400000.0625,-8818.0595703125,-400000.0625,-18591.9296875,-400000.0625
timestamp,ch7,ch2,ch3,ch5,is_pause
2.669839859008789,-400000.0625,-14353.9404296875,-3101.679931640625,-400000.0625,-8841.5595703125,-400000.0625,-18603.759765625,-400000.0625
timestamp,ch7,ch2,ch3,ch5,is_pause
2.6860289573669434,-400000.0625,-14415.5,-3148.989990234375,-400000.0625,-8883.099609375,-400000.0625,-18637.369140625,-400000.0625
timestamp,ch7,ch2,ch3,ch5,is_pause
2.717010736465454,-400000.0625,-14420.83984375,-3151.610107421875,-400000.0625,-8882.7099609375,-400000.0625,-18623.55078125,-400000.0625
timestamp,ch7,ch2,ch3,ch5,is_pause
2.73239803314209,-400000.0625,-14382.3203125,-3129.860107421875,-400000.0625,-8850.1904296875,-400000.0625,-18570.23046875,-400000.0625
timestamp,ch7,ch2,ch3,ch5,is_pause
2.7467126846313477,-400000.0625,-14348.83984375,-3110.080078125,-400000.0625,-8822.490234375,-400000.0625,-18521.029296875,-400000.0625
timestamp,ch7,ch2,ch3,ch5,is_pause
2.766831398010254,-400000.0625,-14381.2197265625,-3125.139892578125,-400000.0625,-8841.0400390625,-400000.0625,-18532.990234375,-400000.0625
timestamp,ch7,ch2,ch3,ch5,is_pause
2.7821667194366455,-400000.0625,-14438.33984375,-3171.159912109375,-400000.0625,-8891.580078125,-400000.0625,-18574.810546875,-400000.0625
timestamp,ch7,ch2,ch3,ch5,is_pause
2.794646739959717,-400000.0625,-14440.919921875,-3183.699951171875,-400000.0625,-8896.400390625,-400000.0625,-18571.240234375,-400000.0625
timestamp,ch7,ch2,ch3,ch5,is_pause
timestamp,ch7,ch2,ch3,ch5,is_pause
2.825627565383911,-400000.0625,-14392.08984375,-3147.889892578125,-400000.0625,-8855.33984375,-400000.0625,-18519.310546875,-400000.0625
timestamp,ch7,ch2,ch3,ch5,is_pause
2.8397414684295654,-400000.0625,-14365.2001953125,-3124.570068359375,-400000.0625,-8829.169921875,-400000.0625,-18486.9296875,-400000.0625
timestamp,ch7,ch2,ch3,ch5,is_pause
2.8549790382385254,-400000.0625,-14387.509765625,-3137.780029296875,-400000.0625,-8846.5703125,-400000.0625,-18501.5703125,-400000.0625
timestamp,ch7,ch2,ch3,ch5,is_pause
2.866840124130249,-400000.0625,-14439.4404296875,-3178.31005859375,-400000.0625,-8890.919921875,-400000.0625,-18552.16015625,-400000.0625
timestamp,ch7,ch2,ch3,ch5,is_pause
2.882938861846924,-400000.0625,-14441.7802734375,-3181.030029296875,-400000.0625,-8895.490234375,-400000.0625,-18561.4609375,-400000.0625
2.8950002193450928,-400000.0625,-14397.099609375,-3143.219970703125,-400000.0625,-8855.0595703125,-400000.0625,-18521.169921875,-400000.0625
timestamp,ch7,ch2,ch3,ch5,is_pause
timestamp,ch7,ch2,ch3,ch5,is_pause
2.924459218978882,-400000.0625,-14363.2900390625,-3118.52001953125,-400000.0625,-8828.830078125,-400000.0625,-18492.75,-400000.0625
timestamp,ch7,ch2,ch3,ch5,is_pause
2.942283868789673,-400000.0625,-14381.2197265625,-3129.909912109375,-400000.0625,-8848.3798828125,-400000.0625,-18515.30078125,-400000.0625
timestamp,ch7,ch2,ch3,ch5,is_pause
2.958181142807007,-400000.0625,-14424.0400390625,-3163.2900390625,-400000.0625,-8885.240234375,-400000.0625,-18553.55078125,-400000.0625
timestamp,ch7,ch2,ch3,ch5,is_pause
2.975827932357788,-400000.0625,-14426.419921875,-3164.10009765625,-400000.0625,-8884.7197265625,-400000.0625,-18556.44921875,-400000.0625
timestamp,ch7,ch2,ch3,ch5,is_pause
2.9951980113983154,-400000.0625,-14386.3701171875,-3135.39990234375,-400000.0625,-8849.6201171875,-400000.0625,-18518.830078125,-400000.0625
timestamp,ch7,ch2,ch3,ch5,is_pause
timestamp,ch7,ch2,ch3,ch5,is_pause
3.026021718978882,-400000.0625,-14350.990234375,-3105.8798828125,-400000.0625,-8824.6796875,-400000.0625,-18490.359375,-400000.0625
timestamp,ch7,ch2,ch3,ch5,is_pause
3.0411038398742676,-400000.0625,-14374.1103515625,-3124.2900390625,-400000.0625,-8848.240234375,-400000.0625,-18519.119140625,-400000.0625
timestamp,ch7,ch2,ch3,ch5,is_pause
3.056037425994873,-400000.0625,-14427.8095703125,-3163.10009765625,-400000.0625,-8889.009765625,-400000.0625,-18567.369140625,-400000.0625
timestamp,ch7,ch2,ch3,ch5,is_pause
3.0681211948394775,-400000.0625,-14430.48046875,-3166.2900390625,-400000.0625,-8889.8701171875,-400000.0625,-18570.0,-400000.0625
3.082308292388916,-400000.0625,-14383.599609375,-3127.580078125,-400000.0625,-8851.76953125,-400000.0625,-18528.80078125,-400000.0625
timestamp,ch7,ch2,ch3,ch5,is_pause
3.0952932834625244,-400000.0625,-14353.5595703125,-3106.68994140625,-400000.0625,-8827.6904296875,-400000.0625,-18504.0,-400000.0625
timestamp,ch7,ch2,ch3,ch5,is_pause
timestamp,ch7,ch2,ch3,ch5,is_pause
timestamp,ch7,ch2,ch3,ch5,is_pause
3.1323814392089844,-400000.0625,-14380.169921875,-3126.0,-400000.0625,-8847.669921875,-400000.0625,-18535.380859375,-400000.0625
timestamp,ch7,ch2,ch3,ch5,is_pause
3.1462090015411377,-400000.0625,-14428.1904296875,-3157.22998046875,-400000.0625,-8884.6201171875,-400000.0625,-18578.869140625,-400000.0625
timestamp,ch7,ch2,ch3,ch5,is_pause
3.1612393856048584,-400000.0625,-14425.5703125,-3155.610107421875,-400000.0625,-8885.7197265625,-400000.0625,-18579.91015625,-400000.0625
timestamp,ch7,ch2,ch3,ch5,is_pause
3.179152488708496,-400000.0625,-14373.16015625,-3116.75,-400000.0625,-8846.8603515625,-400000.0625,-18538.0,-400000.0625
timestamp,ch7,ch2,ch3,ch5,is_pause
3.195026397705078,-400000.0625,-14347.3203125,-3099.25,-400000.0625,-8821.8203125,-400000.0625,-18514.400390625,-400000.0625
timestamp,ch7,ch2,ch3,ch5,is_pause
3.211700439453125,-400000.0625,-14378.98046875,-3118.659912109375,-400000.0625,-8845.4697265625,-400000.0625,-18538.2890625,-400000.0625
timestamp,ch7,ch2,ch3,ch5,is_pause
timestamp,ch7,ch2,ch3,ch5,is_pause
3.2429888248443604,-400000.0625,-14423.5595703125,-3152.510009765625,-400000.0625,-8883.099609375,-400000.0625,-18583.009765625,-400000.0625
timestamp,ch7,ch2,ch3,ch5,is_pause
3.2587807178497314,-400000.0625,-14431.48046875,-3159.239990234375,-400000.0625,-8890.2001953125,-400000.0625,-18591.259765625,-400000.0625
timestamp,ch7,ch2,ch3,ch5,is_pause
3.274261236190796,-400000.0625,-14388.1796875,-3124.330078125,-400000.0625,-8854.2900390625,-400000.0625,-18553.349609375,-400000.0625
timestamp,ch7,ch2,ch3,ch5,is_pause
3.29062819480896,-400000.0625,-14352.990234375,-3097.06005859375,-400000.0625,-8823.8701171875,-400000.0625,-18519.169921875,-400000.0625
timestamp,ch7,ch2,ch3,ch5,is_pause
3.304509401321411,-400000.0625,-14374.2099609375,-3114.64990234375,-400000.0625,-8839.7998046875,-400000.0625,-18552.5390625,-400000.0625
timestamp,ch7,ch2,ch3,ch5,is_pause
3.320983648300171,-400000.0625,-14421.1796875,-3147.64990234375,-400000.0625,-8875.7998046875,-400000.0625,-18592.5,-400000.0625
timestamp,ch7,ch2,ch3,ch5,is_pause
timestamp,ch7,ch2,ch3,ch5,is_pause
3.355971336364746,-400000.0625,-14420.83984375,-3146.840087890625,-400000.0625,-8877.330078125,-400000.0625,-18596.650390625,-400000.0625
timestamp,ch7,ch2,ch3,ch5,is_pause
3.3729283809661865,-400000.0625,-14377.5,-3113.3701171875,-400000.0625,-8840.6103515625,-400000.0625,-18564.560546875,-400000.0625
timestamp,ch7,ch2,ch3,ch5,is_pause
3.3876700401306152,-400000.0625,-14346.7001953125,-3096.389892578125,-400000.0625,-8817.6298828125,-400000.0625,-18533.94921875,-400000.0625
timestamp,ch7,ch2,ch3,ch5,is_pause
3.4040849208831787,-400000.0625,-14367.2998046875,-3105.639892578125,-400000.0625,-8834.4599609375,-400000.0625,-18556.310546875,-400000.0625
timestamp,ch7,ch2,ch3,ch5,is_pause
3.4200918674468994,-400000.0625,-14409.9697265625,-3134.72998046875,-400000.0625,-8869.83984375,-400000.0625,-18598.26953125,-400000.0625
timestamp,ch7,ch2,ch3,ch5,is_pause
3.433903217315674,-400000.0625,-14417.650390625,-3140.969970703125,-400000.0625,-8876.0400390625,-400000.0625,-18612.009765625,-400000.0625
timestamp,ch7,ch2,ch3,ch5,is_pause
timestamp,ch7,ch2,ch3,ch5,is_pause
3.4633066654205322,-400000.0625,-14375.6396484375,-3109.070068359375,-400000.0625,-8844.900390625,-400000.0625,-18572.669921875,-400000.0625
timestamp,ch7,ch2,ch3,ch5,is_pause
3.47776198387146,-400000.0625,-14351.419921875,-3090.909912109375,-400000.0625,-8823.73046875,-400000.0625,-18550.109375,-400000.0625
timestamp,ch7,ch2,ch3,ch5,is_pause
timestamp,ch7,ch2,ch3,ch5,is_pause
3.5000929832458496,-400000.0625,-14374.9697265625,-3108.260009765625,-400000.0625,-8842.419921875,-400000.0625,-18575.720703125,-400000.0625
3.5120673179626465,-400000.0625,-14420.2197265625,-3144.60009765625,-400000.0625,-8880.66015625,-400000.0625,-18615.390625,-400000.0625
timestamp,ch7,ch2,ch3,ch5,is_pause
3.526143789291382,-400000.0625,-14416.98046875,-3141.39990234375,-400000.0625,-8878.419921875,-400000.0625,-18619.30078125,-400000.0625
timestamp,ch7,ch2,ch3,ch5,is_pause
3.5437023639678955,-400000.0625,-14378.3095703125,-3112.409912109375,-400000.0625,-8843.0400390625,-400000.0625,-18582.19921875,-400000.0625
timestamp,ch7,ch2,ch3,ch5,is_pause
timestamp,ch7,ch2,ch3,ch5,is_pause
3.572389602661133,-400000.0625,-14348.4599609375,-3086.85009765625,-400000.0625,-8817.3896484375,-400000.0625,-18551.58984375,-400000.0625
timestamp,ch7,ch2,ch3,ch5,is_pause
3.586376428604126,-400000.0625,-14361.8603515625,-3096.199951171875,-400000.0625,-8835.41015625,-400000.0625,-18574.240234375,-400000.0625
timestamp,ch7,ch2,ch3,ch5,is_pause
3.5994791984558105,-400000.0625,-14408.8798828125,-3133.6298828125,-400000.0625,-8875.4697265625,-400000.0625,-18618.349609375,-400000.0625
3.611851453781128,-400000.0625,-14415.98046875,-3136.110107421875,-400000.0625,-8882.9501953125,-400000.0625,-18626.310546875,-400000.0625
timestamp,ch7,ch2,ch3,ch5,is_pause
3.627424478530884,-400000.0625,-14378.3095703125,-3108.31005859375,-400000.0625,-8848.1396484375,-400000.0625,-18592.55078125,-400000.0625
timestamp,ch7,ch2,ch3,ch5,is_pause
3.6456687450408936,-400000.0625,-14350.75,-3090.330078125,-400000.0625,-8820.580078125,-400000.0625,-18572.0,-400000.0625
timestamp,ch7,ch2,ch3,ch5,is_pause
timestamp,ch7,ch2,ch3,ch5,is_pause
3.67675518989563,-400000.0625,-14370.6298828125,-3104.110107421875,-400000.0625,-8838.26953125,-400000.0625,-18596.7890625,-400000.0625
timestamp,ch7,ch2,ch3,ch5,is_pause
3.6930456161499023,-400000.0625,-14415.1201171875,-3135.010009765625,-400000.0625,-8874.6103515625,-400000.0625,-18637.369140625,-400000.0625
timestamp,ch7,ch2,ch3,ch5,is_pause
3.7045421600341797,-400000.0625,-14416.3095703125,-3135.199951171875,-400000.0625,-8875.9404296875,-400000.0625,-18643.4296875,-400000.0625
timestamp,ch7,ch2,ch3,ch5,is_pause
timestamp,ch7,ch2,ch3,ch5,is_pause
3.7298223972320557,-400000.0625,-14370.490234375,-3103.5,-400000.0625,-8841.849609375,-400000.0625,-18603.990234375,-400000.0625
timestamp,ch7,ch2,ch3,ch5,is_pause
3.7427947521209717,-400000.0625,-14341.7900390625,-3083.090087890625,-400000.0625,-8819.25,-400000.0625,-18573.330078125,-400000.0625
timestamp,ch7,ch2,ch3,ch5,is_pause
3.759516954421997,-400000.0625,-14359.0,-3094.199951171875,-400000.0625,-8837.41015625,-400000.0625,-18601.939453125,-400000.0625
timestamp,ch7,ch2,ch3,ch5,is_pause
timestamp,ch7,ch2,ch3,ch5,is_pause
3.790224552154541,-400000.0625,-14407.16015625,-3131.719970703125,-400000.0625,-8879.3798828125,-400000.0625,-18648.009765625,-400000.0625
timestamp,ch7,ch2,ch3,ch5,is_pause
3.8077893257141113,-400000.0625,-14412.599609375,-3133.25,-400000.0625,-8881.330078125,-400000.0625,-18657.830078125,-400000.0625
timestamp,ch7,ch2,ch3,ch5,is_pause
3.8261911869049072,-400000.0625,-14370.349609375,-3100.010009765625,-400000.0625,-8843.1396484375,-400000.0625,-18618.5390625,-400000.0625
timestamp,ch7,ch2,ch3,ch5,is_pause
timestamp,ch7,ch2,ch3,ch5,is_pause
3.8428075313568115,-400000.0625,-14334.6298828125,-3073.7900390625,-400000.0625,-8810.8095703125,-400000.0625,-18587.9296875,-400000.0625
timestamp,ch7,ch2,ch3,ch5,is_pause
3.856212854385376,-400000.0625,-14363.91015625,-3094.239990234375,-400000.0625,-8835.509765625,-400000.0625,-18609.859375,-400000.0625
timestamp,ch7,ch2,ch3,ch5,is_pause
3.8732376098632812,-400000.0625,-14405.2001953125,-3126.239990234375,-400000.0625,-8876.849609375,-400000.0625,-18662.220703125,-400000.0625
timestamp,ch7,ch2,ch3,ch5,is_pause
timestamp,ch7,ch2,ch3,ch5,is_pause
3.9076342582702637,-400000.0625,-14409.9697265625,-3135.43994140625,-400000.0625,-8882.1904296875,-400000.0625,-18662.7890625,-400000.0625
timestamp,ch7,ch2,ch3,ch5,is_pause
3.920915126800537,-400000.0625,-14363.580078125,-3096.719970703125,-400000.0625,-8840.0400390625,-400000.0625,-18619.970703125,-400000.0625
timestamp,ch7,ch2,ch3,ch5,is_pause
3.935220718383789,-400000.0625,-14329.48046875,-3067.489990234375,-400000.0625,-8810.1904296875,-400000.0625,-18591.689453125,-400000.0625
timestamp,ch7,ch2,ch3,ch5,is_pause
3.949327230453491,-400000.0625,-14358.3798828125,-3090.239990234375,-400000.0625,-8835.2197265625,-400000.0625,-18619.349609375,-400000.0625
timestamp,ch7,ch2,ch3,ch5,is_pause
3.962996006011963,-400000.0625,-14406.4404296875,-3126.2900390625,-400000.0625,-8878.419921875,-400000.0625,-18663.7890625,-400000.0625
timestamp,ch7,ch2,ch3,ch5,is_pause
3.979604482650757,-400000.0625,-14404.9697265625,-3124.139892578125,-400000.0625,-8876.3701171875,-400000.0625,-18669.26953125,-400000.0625
timestamp,ch7,ch2,ch3,ch5,is_pause
timestamp,ch7,ch2,ch3,ch5,is_pause
4.011630296707153,-400000.0625,-14359.330078125,-3090.239990234375,-400000.0625,-8836.3203125,-400000.0625,-18625.310546875,-400000.0625
timestamp,ch7,ch2,ch3,ch5,is_pause
4.02483868598938,-400000.0625,-14326.669921875,-3064.389892578125,-400000.0625,-8807.51953125,-400000.0625,-18597.029296875,-400000.0625
timestamp,ch7,ch2,ch3,ch5,is_pause
4.041592121124268,-400000.0625,-14355.900390625,-3088.669921875,-400000.0625,-8838.23046875,-400000.0625,-18628.689453125,-400000.0625
timestamp,ch7,ch2,ch3,ch5,is_pause
4.0569798946380615,-400000.0625,-14407.6796875,-3128.199951171875,-400000.0625,-8880.5703125,-400000.0625,-18677.140625,-400000.0625
timestamp,ch7,ch2,ch3,ch5,is_pause
4.071325778961182,-400000.0625,-14403.6796875,-3123.239990234375,-400000.0625,-8876.51953125,-400000.0625,-18683.150390625,-400000.0625
timestamp,ch7,ch2,ch3,ch5,is_pause
4.088150262832642,-400000.0625,-14354.66015625,-3084.139892578125,-400000.0625,-8835.169921875,-400000.0625,-18637.130859375,-400000.0625
timestamp,ch7,ch2,ch3,ch5,is_pause
timestamp,ch7,ch2,ch3,ch5,is_pause
4.116672515869141,-400000.0625,-14327.3798828125,-3065.159912109375,-400000.0625,-8814.0,-400000.0625,-18612.669921875,-400000.0625
timestamp,ch7,ch2,ch3,ch5,is_pause
4.13180136680603,-400000.0625,-14355.7998046875,-3082.93994140625,-400000.0625,-8835.4599609375,-400000.0625,-18640.810546875,-400000.0625
timestamp,ch7,ch2,ch3,ch5,is_pause
4.148252964019775,-400000.0625,-14399.2900390625,-3116.610107421875,-400000.0625,-8872.1298828125,-400000.0625,-18686.490234375,-400000.0625
timestamp,ch7,ch2,ch3,ch5,is_pause
4.163299560546875,-400000.0625,-14402.2001953125,-3121.85009765625,-400000.0625,-8876.75,-400000.0625,-18689.919921875,-400000.0625
timestamp,ch7,ch2,ch3,ch5,is_pause
4.176643371582031,-400000.0625,-14360.330078125,-3086.89990234375,-400000.0625,-8838.990234375,-400000.0625,-18652.060546875,-400000.0625
timestamp,ch7,ch2,ch3,ch5,is_pause
4.193683385848999,-400000.0625,-14326.0,-3063.06005859375,-400000.0625,-8811.6201171875,-400000.0625,-18621.970703125,-400000.0625
timestamp,ch7,ch2,ch3,ch5,is_pause
timestamp,ch7,ch2,ch3,ch5,is_pause
4.2248780727386475,-400000.0625,-14350.9404296875,-3085.330078125,-400000.0625,-8835.650390625,-400000.0625,-18643.759765625,-400000.0625
timestamp,ch7,ch2,ch3,ch5,is_pause
4.244035482406616,-400000.0625,-14402.6298828125,-3124.239990234375,-400000.0625,-8884.0,-400000.0625,-18693.640625,-400000.0625
timestamp,ch7,ch2,ch3,ch5,is_pause
timestamp,ch7,ch2,ch3,ch5,is_pause
4.267583608627319,-400000.0625,-14403.5400390625,-3122.18994140625,-400000.0625,-8890.580078125,-400000.0625,-18697.98046875,-400000.0625
timestamp,ch7,ch2,ch3,ch5,is_pause
4.281578540802002,-400000.0625,-14343.740234375,-3072.97998046875,-400000.0625,-8838.419921875,-400000.0625,-18663.119140625,-400000.0625
4.2952117919921875,-400000.0625,-14292.9599609375,-3035.8798828125,-400000.0625,-8802.1298828125,-400000.0625,-18652.869140625,-400000.0625
timestamp,ch7,ch2,ch3,ch5,is_pause
timestamp,ch7,ch2,ch3,ch5,is_pause
4.32483172416687,-400000.0625,-14310.41015625,-3053.239990234375,-400000.0625,-8826.6904296875,-400000.0625,-18689.58984375,-400000.0625
timestamp,ch7,ch2,ch3,ch5,is_pause
4.344012498855591,-400000.0625,-14350.9404296875,-3086.52001953125,-400000.0625,-8867.3603515625,-400000.0625,-18742.75,-400000.0625
timestamp,ch7,ch2,ch3,ch5,is_pause
4.3582422733306885,-400000.0625,-14339.7802734375,-3079.64990234375,-400000.0625,-8868.98046875,-400000.0625,-18757.73046875,-400000.0625
timestamp,ch7,ch2,ch3,ch5,is_pause
4.3718483448028564,-400000.0625,-14280.6103515625,-3035.1201171875,-400000.0625,-8825.0595703125,-400000.0625,-18731.169921875,-400000.0625
timestamp,ch7,ch2,ch3,ch5,is_pause
4.386926889419556,-400000.0625,-14240.98046875,-3003.64990234375,-400000.0625,-8793.3603515625,-400000.0625,-18706.990234375,-400000.0625
timestamp,ch7,ch2,ch3,ch5,is_pause
4.400582551956177,-400000.0625,-14262.4404296875,-3018.81005859375,-400000.0625,-8814.5302734375,-400000.0625,-18727.44921875,-400000.0625
timestamp,ch7,ch2,ch3,ch5,is_pause
timestamp,ch7,ch2,ch3,ch5,is_pause
4.4378273487091064,-400000.0625,-14315.0302734375,-3055.760009765625,-400000.0625,-8857.8203125,-400000.0625,-18778.66015625,-400000.0625
timestamp,ch7,ch2,ch3,ch5,is_pause
4.456950426101685,-400000.0625,-14314.4599609375,-3058.860107421875,-400000.0625,-8863.16015625,-400000.0625,-18787.91015625,-400000.0625
timestamp,ch7,ch2,ch3,ch5,is_pause
4.474078178405762,-400000.0625,-14270.3603515625,-3028.43994140625,-400000.0625,-8829.259765625,-400000.0625,-18747.810546875,-400000.0625
timestamp,ch7,ch2,ch3,ch5,is_pause
4.492099761962891,-400000.0625,-14247.5595703125,-3007.27001953125,-400000.0625,-8803.5595703125,-400000.0625,-18720.919921875,-400000.0625
timestamp,ch7,ch2,ch3,ch5,is_pause
4.510315179824829,-400000.0625,-14270.830078125,-3023.0,-400000.0625,-8825.490234375,-400000.0625,-18746.330078125,-400000.0625
timestamp,ch7,ch2,ch3,ch5,is_pause
timestamp,ch7,ch2,ch3,ch5,is_pause
timestamp,ch7,ch2,ch3,ch5,is_pause
4.550487518310547,-400000.0625,-14314.26953125,-3054.949951171875,-400000.0625,-8861.7802734375,-400000.0625,-18789.25,-400000.0625
timestamp,ch7,ch2,ch3,ch5,is_pause
4.574712753295898,-400000.0625,-14327.240234375,-3064.43994140625,-400000.0625,-8868.5,-400000.0625,-18793.919921875,-400000.0625
timestamp,ch7,ch2,ch3,ch5,is_pause
4.592640161514282,-400000.0625,-14276.1201171875,-3023.860107421875,-400000.0625,-8826.7802734375,-400000.0625,-18756.73046875,-400000.0625
timestamp,ch7,ch2,ch3,ch5,is_pause
4.608427286148071,-400000.0625,-14244.9404296875,-2995.780029296875,-400000.0625,-8798.2197265625,-400000.0625,-18723.19921875,-400000.0625
timestamp,ch7,ch2,ch3,ch5,is_pause
4.625513076782227,-400000.0625,-14266.16015625,-3014.949951171875,-400000.0625,-8813.7197265625,-400000.0625,-18744.330078125,-400000.0625
timestamp,ch7,ch2,ch3,ch5,is_pause
timestamp,ch7,ch2,ch3,ch5,is_pause
4.654715061187744,-400000.0625,-14312.650390625,-3047.090087890625,-400000.0625,-8855.2998046875,-400000.0625,-18794.73046875,-400000.0625
timestamp,ch7,ch2,ch3,ch5,is_pause
4.669781446456909,-400000.0625,-14321.6201171875,-3054.47998046875,-400000.0625,-8860.400390625,-400000.0625,-18799.5,-400000.0625
4.682234525680542,-400000.0625,-14278.83984375,-3023.9599609375,-400000.0625,-8826.9697265625,-400000.0625,-18756.009765625,-400000.0625
timestamp,ch7,ch2,ch3,ch5,is_pause
4.695679187774658,-400000.0625,-14245.990234375,-2994.780029296875,-400000.0625,-8801.7001953125,-400000.0625,-18726.830078125,-400000.0625
timestamp,ch7,ch2,ch3,ch5,is_pause
4.711015939712524,-400000.0625,-14271.6904296875,-3017.860107421875,-400000.0625,-8823.1103515625,-400000.0625,-18750.240234375,-400000.0625
timestamp,ch7,ch2,ch3,ch5,is_pause
4.729156255722046,-400000.0625,-14320.3798828125,-3050.139892578125,-400000.0625,-8862.58984375,-400000.0625,-18794.400390625,-400000.0625
timestamp,ch7,ch2,ch3,ch5,is_pause
timestamp,ch7,ch2,ch3,ch5,is_pause
4.766097545623779,-400000.0625,-14324.2900390625,-3055.81005859375,-400000.0625,-8863.16015625,-400000.0625,-18801.98046875,-400000.0625
timestamp,ch7,ch2,ch3,ch5,is_pause
timestamp,ch7,ch2,ch3,ch5,is_pause
4.790932893753052,-400000.0625,-14282.3701171875,-3023.6201171875,-400000.0625,-8823.58984375,-400000.0625,-18757.76953125,-400000.0625
timestamp,ch7,ch2,ch3,ch5,is_pause
4.810963153839111,-400000.0625,-14245.7001953125,-2994.159912109375,-400000.0625,-8796.8798828125,-400000.0625,-18726.5390625,-400000.0625
timestamp,ch7,ch2,ch3,ch5,is_pause
4.825803518295288,-400000.0625,-14268.58984375,-3007.75,-400000.0625,-8816.2900390625,-400000.0625,-18747.4296875,-400000.0625
timestamp,ch7,ch2,ch3,ch5,is_pause
4.843395709991455,-400000.0625,-14312.599609375,-3040.97998046875,-400000.0625,-8856.73046875,-400000.0625,-18792.76953125,-400000.0625
timestamp,ch7,ch2,ch3,ch5,is_pause
timestamp,ch7,ch2,ch3,ch5,is_pause
timestamp,ch7,ch2,ch3,ch5,is_pause
4.892526865005493,-400000.0625,-14317.08984375,-3047.1298828125,-400000.0625,-8863.740234375,-400000.0625,-18799.400390625,-400000.0625
timestamp,ch7,ch2,ch3,ch5,is_pause
4.911200761795044,-400000.0625,-14274.2197265625,-3014.659912109375,-400000.0625,-8824.2099609375,-400000.0625,-18759.30078125,-400000.0625
timestamp,ch7,ch2,ch3,ch5,is_pause
timestamp,ch7,ch2,ch3,ch5,is_pause
4.929930210113525,-400000.0625,-14243.080078125,-2986.9599609375,-400000.0625,-8797.98046875,-400000.0625,-18722.580078125,-400000.0625
timestamp,ch7,ch2,ch3,ch5,is_pause
4.951232194900513,-400000.0625,-14266.400390625,-3006.219970703125,-400000.0625,-8819.150390625,-400000.0625,-18744.419921875,-400000.0625
timestamp,ch7,ch2,ch3,ch5,is_pause
timestamp,ch7,ch2,ch3,ch5,is_pause
timestamp,ch7,ch2,ch3,ch5,is_pause
4.998137712478638,-400000.0625,-14311.740234375,-3039.739990234375,-400000.0625,-8854.76953125,-400000.0625,-18789.580078125,-400000.0625
timestamp,ch7,ch2,ch3,ch5,is_pause
5.016828775405884,-400000.0625,-14312.7900390625,-3045.1298828125,-400000.0625,-8856.73046875,-400000.0625,-18795.349609375,-400000.0625
timestamp,ch7,ch2,ch3,ch5,is_pause
timestamp,ch7,ch2,ch3,ch5,is_pause
5.037697076797485,-400000.0625,-14265.2099609375,-3006.219970703125,-400000.0625,-8818.8701171875,-400000.0625,-18753.390625,-400000.0625
timestamp,ch7,ch2,ch3,ch5,is_pause
5.051726341247559,-400000.0625,-14234.5,-2980.179931640625,-400000.0625,-8793.8798828125,-400000.0625,-18722.919921875,-400000.0625
timestamp,ch7,ch2,ch3,ch5,is_pause
timestamp,ch7,ch2,ch3,ch5,is_pause
5.091733694076538,-400000.0625,-14266.6796875,-3002.260009765625,-400000.0625,-8821.6796875,-400000.0625,-18748.619140625,-400000.0625
timestamp,ch7,ch2,ch3,ch5,is_pause
5.105483293533325,-400000.0625,-14309.169921875,-3035.1201171875,-400000.0625,-8860.400390625,-400000.0625,-18792.919921875,-400000.0625
timestamp,ch7,ch2,ch3,ch5,is_pause
timestamp,ch7,ch2,ch3,ch5,is_pause
5.125596523284912,-400000.0625,-14314.7998046875,-3042.56005859375,-400000.0625,-8860.8798828125,-400000.0625,-18795.490234375,-400000.0625
timestamp,ch7,ch2,ch3,ch5,is_pause
5.151106834411621,-400000.0625,-14274.6904296875,-3009.889892578125,-400000.0625,-8830.3603515625,-400000.0625,-18755.390625,-400000.0625
timestamp,ch7,ch2,ch3,ch5,is_pause
5.1676390171051025,-400000.0625,-14236.740234375,-2977.75,-400000.0625,-8797.6904296875,-400000.0625,-18725.919921875,-400000.0625
timestamp,ch7,ch2,ch3,ch5,is_pause
timestamp,ch7,ch2,ch3,ch5,is_pause
timestamp,ch7,ch2,ch3,ch5,is_pause
5.217663526535034,-400000.0625,-14260.0595703125,-2992.340087890625,-400000.0625,-8811.2802734375,-400000.0625,-18744.5703125,-400000.0625
timestamp,ch7,ch2,ch3,ch5,is_pause
timestamp,ch7,ch2,ch3,ch5,is_pause
5.2434515953063965,-400000.0625,-14305.6904296875,-3031.39990234375,-400000.0625,-8851.5302734375,-400000.0625,-18787.48046875,-400000.0625
timestamp,ch7,ch2,ch3,ch5,is_pause
5.259308815002441,-400000.0625,-14308.740234375,-3033.590087890625,-400000.0625,-8856.6796875,-400000.0625,-18801.7890625,-400000.0625
timestamp,ch7,ch2,ch3,ch5,is_pause
5.278205871582031,-400000.0625,-14266.58984375,-2997.969970703125,-400000.0625,-8820.5302734375,-400000.0625,-18757.349609375,-400000.0625
timestamp,ch7,ch2,ch3,ch5,is_pause
timestamp,ch7,ch2,ch3,ch5,is_pause
timestamp,ch7,ch2,ch3,ch5,is_pause
5.325129508972168,-400000.0625,-14233.58984375,-2976.0400390625,-400000.0625,-8796.2197265625,-400000.0625,-18729.0703125,-400000.0625
timestamp,ch7,ch2,ch3,ch5,is_pause
5.34255838394165,-400000.0625,-14258.33984375,-2997.449951171875,-400000.0625,-8819.009765625,-400000.0625,-18755.30078125,-400000.0625
timestamp,ch7,ch2,ch3,ch5,is_pause
5.3569560050964355,-400000.0625,-14309.83984375,-3033.300048828125,-400000.0625,-8858.6298828125,-400000.0625,-18803.119140625,-400000.0625
timestamp,ch7,ch2,ch3,ch5,is_pause
5.3738014698028564,-400000.0625,-14315.7001953125,-3035.739990234375,-400000.0625,-8864.259765625,-400000.0625,-18804.26953125,-400000.0625
timestamp,ch7,ch2,ch3,ch5,is_pause
5.387794733047485,-400000.0625,-14274.8798828125,-2999.39990234375,-400000.0625,-8821.0595703125,-400000.0625,-18766.359375,-400000.0625
timestamp,ch7,ch2,ch3,ch5,is_pause
timestamp,ch7,ch2,ch3,ch5,is_pause
5.426456689834595,-400000.0625,-14244.75,-2977.659912109375,-400000.0625,-8793.6396484375,-400000.0625,-18722.970703125,-400000.0625
timestamp,ch7,ch2,ch3,ch5,is_pause
timestamp,ch7,ch2,ch3,ch5,is_pause
5.4534831047058105,-400000.0625,-14268.830078125,-3005.219970703125,-400000.0625,-8818.9599609375,-400000.0625,-18737.130859375,-400000.0625
timestamp,ch7,ch2,ch3,ch5,is_pause
5.47676682472229,-400000.0625,-14318.0400390625,-3047.3701171875,-400000.0625,-8861.5,-400000.0625,-18777.900390625,-400000.0625
timestamp,ch7,ch2,ch3,ch5,is_pause
5.4941792488098145,-400000.0625,-14330.2001953125,-3054.429931640625,-400000.0625,-8868.3603515625,-400000.0625,-18769.599609375,-400000.0625
timestamp,ch7,ch2,ch3,ch5,is_pause
timestamp,ch7,ch2,ch3,ch5,is_pause
timestamp,ch7,ch2,ch3,ch5,is_pause
5.537474155426025,-400000.0625,-14291.8603515625,-3027.919921875,-400000.0625,-8830.830078125,-400000.0625,-18715.240234375,-400000.0625
timestamp,ch7,ch2,ch3,ch5,is_pause
5.556500434875488,-400000.0625,-14268.9697265625,-3011.75,-400000.0625,-8806.75,-400000.0625,-18670.0390625,-400000.0625
timestamp,ch7,ch2,ch3,ch5,is_pause
timestamp,ch7,ch2,ch3,ch5,is_pause
5.582224369049072,-400000.0625,-14301.4404296875,-3042.4599609375,-400000.0625,-8830.41015625,-400000.0625,-18672.1796875,-400000.0625
timestamp,ch7,ch2,ch3,ch5,is_pause
5.600005865097046,-400000.0625,-14341.8798828125,-3077.27001953125,-400000.0625,-8868.3095703125,-400000.0625,-18701.169921875,-400000.0625
timestamp,ch7,ch2,ch3,ch5,is_pause
timestamp,ch7,ch2,ch3,ch5,is_pause
5.638714075088501,-400000.0625,-14353.66015625,-3088.18994140625,-400000.0625,-8873.419921875,-400000.0625,-18691.689453125,-400000.0625
timestamp,ch7,ch2,ch3,ch5,is_pause
5.654412508010864,-400000.0625,-14314.4599609375,-3065.780029296875,-400000.0625,-8841.51953125,-400000.0625,-18645.619140625,-400000.0625
timestamp,ch7,ch2,ch3,ch5,is_pause
5.6748645305633545,-400000.0625,-14281.0400390625,-3045.800048828125,-400000.0625,-8814.6201171875,-400000.0625,-18603.990234375,-400000.0625
timestamp,ch7,ch2,ch3,ch5,is_pause
5.692078351974487,-400000.0625,-14309.599609375,-3067.449951171875,-400000.0625,-8833.169921875,-400000.0625,-18617.490234375,-400000.0625
timestamp,ch7,ch2,ch3,ch5,is_pause
timestamp,ch7,ch2,ch3,ch5,is_pause
5.710572004318237,-400000.0625,-14362.5302734375,-3106.550048828125,-400000.0625,-8877.990234375,-400000.0625,-18660.359375,-400000.0625
timestamp,ch7,ch2,ch3,ch5,is_pause
timestamp,ch7,ch2,ch3,ch5,is_pause
5.75398588180542,-400000.0625,-14361.099609375,-3108.360107421875,-400000.0625,-8879.23046875,-400000.0625,-18664.220703125,-400000.0625
timestamp,ch7,ch2,ch3,ch5,is_pause
timestamp,ch7,ch2,ch3,ch5,is_pause
5.774861097335815,-400000.0625,-14314.8896484375,-3075.699951171875,-400000.0625,-8840.9404296875,-400000.0625,-18623.400390625,-400000.0625
timestamp,ch7,ch2,ch3,ch5,is_pause
5.798379898071289,-400000.0625,-14283.6103515625,-3049.949951171875,-400000.0625,-8817.150390625,-400000.0625,-18589.689453125,-400000.0625
timestamp,ch7,ch2,ch3,ch5,is_pause
timestamp,ch7,ch2,ch3,ch5,is_pause
5.824302911758423,-400000.0625,-14303.400390625,-3063.25,-400000.0625,-8837.26953125,-400000.0625,-18613.25,-400000.0625
timestamp,ch7,ch2,ch3,ch5,is_pause
timestamp,ch7,ch2,ch3,ch5,is_pause
5.859219074249268,-400000.0625,-14343.6904296875,-3094.14990234375,-400000.0625,-8871.2197265625,-400000.0625,-18662.169921875,-400000.0625
timestamp,ch7,ch2,ch3,ch5,is_pause
5.87583589553833,-400000.0625,-14350.4599609375,-3101.639892578125,-400000.0625,-8875.6103515625,-400000.0625,-18664.890625,-400000.0625
timestamp,ch7,ch2,ch3,ch5,is_pause
timestamp,ch7,ch2,ch3,ch5,is_pause
5.90126633644104,-400000.0625,-14311.3603515625,-3072.60009765625,-400000.0625,-8842.5595703125,-400000.0625,-18618.060546875,-400000.0625
timestamp,ch7,ch2,ch3,ch5,is_pause
5.922849655151367,-400000.0625,-14275.5,-3042.840087890625,-400000.0625,-8814.0,-400000.0625,-18589.880859375,-400000.0625
timestamp,ch7,ch2,ch3,ch5,is_pause
5.944878816604614,-400000.0625,-14301.6396484375,-3062.530029296875,-400000.0625,-8836.1796875,-400000.0625,-18614.9609375,-400000.0625
timestamp,ch7,ch2,ch3,ch5,is_pause
timestamp,ch7,ch2,ch3,ch5,is_pause
timestamp,ch7,ch2,ch3,ch5,is_pause
5.980537176132202,-400000.0625,-14347.75,-3095.580078125,-400000.0625,-8876.6103515625,-400000.0625,-18657.5,-400000.0625
timestamp,ch7,ch2,ch3,ch5,is_pause
6.0017616748809814,-400000.0625,-14352.7001953125,-3099.679931640625,-400000.0625,-8883.330078125,-400000.0625,-18661.689453125,-400000.0625
timestamp,ch7,ch2,ch3,ch5,is_pause
6.018122911453247,-400000.0625,-14308.41015625,-3067.919921875,-400000.0625,-8846.6201171875,-400000.0625,-18620.6796875,-400000.0625
timestamp,ch7,ch2,ch3,ch5,is_pause
6.033997058868408,-400000.0625,-14275.3603515625,-3041.64990234375,-400000.0625,-8820.1103515625,-400000.0625,-18585.5390625,-400000.0625
timestamp,ch7,ch2,ch3,ch5,is_pause
6.049438953399658,-400000.0625,-14296.8701171875,-3053.280029296875,-400000.0625,-8837.650390625,-400000.0625,-18602.66015625,-400000.0625
timestamp,ch7,ch2,ch3,ch5,is_pause
timestamp,ch7,ch2,ch3,ch5,is_pause
6.090749502182007,-400000.0625,-14340.6904296875,-3088.429931640625,-400000.0625,-8876.6103515625,-400000.0625,-18650.009765625,-400000.0625
timestamp,ch7,ch2,ch3,ch5,is_pause
6.105153322219849,-400000.0625,-14351.7998046875,-3096.010009765625,-400000.0625,-8881.4697265625,-400000.0625,-18661.689453125,-400000.0625
timestamp,ch7,ch2,ch3,ch5,is_pause
6.127124309539795,-400000.0625,-14310.5,-3063.389892578125,-400000.0625,-8846.08984375,-400000.0625,-18624.310546875,-400000.0625
timestamp,ch7,ch2,ch3,ch5,is_pause
6.142837285995483,-400000.0625,-14276.509765625,-3041.1201171875,-400000.0625,-8820.8203125,-400000.0625,-18592.55078125,-400000.0625
timestamp,ch7,ch2,ch3,ch5,is_pause
6.161086082458496,-400000.0625,-14299.8203125,-3053.0,-400000.0625,-8839.3203125,-400000.0625,-18616.5390625,-400000.0625
timestamp,ch7,ch2,ch3,ch5,is_pause
timestamp,ch7,ch2,ch3,ch5,is_pause
6.2038047313690186,-400000.0625,-14348.3203125,-3089.050048828125,-400000.0625,-8878.759765625,-400000.0625,-18659.0703125,-400000.0625
timestamp,ch7,ch2,ch3,ch5,is_pause
6.221046209335327,-400000.0625,-14351.8896484375,-3096.2900390625,-400000.0625,-8884.3798828125,-400000.0625,-18665.83984375,-400000.0625
timestamp,ch7,ch2,ch3,ch5,is_pause
6.235860109329224,-400000.0625,-14310.7001953125,-3066.35009765625,-400000.0625,-8851.580078125,-400000.0625,-18624.2109375,-400000.0625
timestamp,ch7,ch2,ch3,ch5,is_pause
6.252182960510254,-400000.0625,-14279.3701171875,-3038.68994140625,-400000.0625,-8823.6796875,-400000.0625,-18591.689453125,-400000.0625
timestamp,ch7,ch2,ch3,ch5,is_pause
6.263893127441406,-400000.0625,-14297.919921875,-3052.280029296875,-400000.0625,-8836.3203125,-400000.0625,-18611.240234375,-400000.0625
timestamp,ch7,ch2,ch3,ch5,is_pause
timestamp,ch7,ch2,ch3,ch5,is_pause
6.30236291885376,-400000.0625,-14341.2099609375,-3082.3701171875,-400000.0625,-8874.509765625,-400000.0625,-18657.349609375,-400000.0625
timestamp,ch7,ch2,ch3,ch5,is_pause
6.319245338439941,-400000.0625,-14347.509765625,-3090.6201171875,-400000.0625,-8881.0,-400000.0625,-18663.26953125,-400000.0625
timestamp,ch7,ch2,ch3,ch5,is_pause
6.33767294883728,-400000.0625,-14308.5,-3059.199951171875,-400000.0625,-8842.7998046875,-400000.0625,-18623.689453125,-400000.0625
timestamp,ch7,ch2,ch3,ch5,is_pause
6.354001045227051,-400000.0625,-14278.2197265625,-3034.31005859375,-400000.0625,-8810.8603515625,-400000.0625,-18590.359375,-400000.0625
timestamp,ch7,ch2,ch3,ch5,is_pause
6.3672895431518555,-400000.0625,-14302.01953125,-3052.18994140625,-400000.0625,-8831.650390625,-400000.0625,-18610.189453125,-400000.0625
timestamp,ch7,ch2,ch3,ch5,is_pause
timestamp,ch7,ch2,ch3,ch5,is_pause
6.407706260681152,-400000.0625,-14350.9404296875,-3091.2900390625,-400000.0625,-8877.330078125,-400000.0625,-18656.880859375,-400000.0625
timestamp,ch7,ch2,ch3,ch5,is_pause
6.425195932388306,-400000.0625,-14361.669921875,-3101.5400390625,-400000.0625,-8887.150390625,-400000.0625,-18667.509765625,-400000.0625
timestamp,ch7,ch2,ch3,ch5,is_pause
6.44050145149231,-400000.0625,-14316.0400390625,-3065.780029296875,-400000.0625,-8849.6201171875,-400000.0625,-18625.2109375,-400000.0625
timestamp,ch7,ch2,ch3,ch5,is_pause
6.457278251647949,-400000.0625,-14281.6103515625,-3039.4599609375,-400000.0625,-8818.91015625,-400000.0625,-18593.41015625,-400000.0625
timestamp,ch7,ch2,ch3,ch5,is_pause
6.47389554977417,-400000.0625,-14305.6396484375,-3057.580078125,-400000.0625,-8836.1298828125,-400000.0625,-18611.48046875,-400000.0625
timestamp,ch7,ch2,ch3,ch5,is_pause
timestamp,ch7,ch2,ch3,ch5,is_pause
6.511101961135864,-400000.0625,-14344.8798828125,-3084.22998046875,-400000.0625,-8873.6103515625,-400000.0625,-18656.919921875,-400000.0625
timestamp,ch7,ch2,ch3,ch5,is_pause
timestamp,ch7,ch2,ch3,ch5,is_pause
6.534965991973877,-400000.0625,-14353.6103515625,-3092.10009765625,-400000.0625,-8879.2802734375,-400000.0625,-18662.83984375,-400000.0625
6.5460124015808105,-400000.0625,-14314.5595703125,-3060.199951171875,-400000.0625,-8846.5703125,-400000.0625,-18622.5,-400000.0625
timestamp,ch7,ch2,ch3,ch5,is_pause
timestamp,ch7,ch2,ch3,ch5,is_pause
6.574793338775635,-400000.0625,-14280.8896484375,-3037.449951171875,-400000.0625,-8816.5302734375,-400000.0625,-18589.44921875,-400000.0625
timestamp,ch7,ch2,ch3,ch5,is_pause
timestamp,ch7,ch2,ch3,ch5,is_pause
timestamp,ch7,ch2,ch3,ch5,is_pause
6.622495412826538,-400000.0625,-14296.150390625,-3046.889892578125,-400000.0625,-8829.5498046875,-400000.0625,-18605.94921875,-400000.0625
timestamp,ch7,ch2,ch3,ch5,is_pause
6.63825798034668,-400000.0625,-14343.7900390625,-3082.93994140625,-400000.0625,-8872.7998046875,-400000.0625,-18652.390625,-400000.0625
timestamp,ch7,ch2,ch3,ch5,is_pause
6.656281471252441,-400000.0625,-14354.990234375,-3092.0,-400000.0625,-8882.6201171875,-400000.0625,-18658.119140625,-400000.0625
timestamp,ch7,ch2,ch3,ch5,is_pause
6.677731990814209,-400000.0625,-14313.599609375,-3060.25,-400000.0625,-8845.23046875,-400000.0625,-18619.970703125,-400000.0625
timestamp,ch7,ch2,ch3,ch5,is_pause
timestamp,ch7,ch2,ch3,ch5,is_pause
timestamp,ch7,ch2,ch3,ch5,is_pause
timestamp,ch7,ch2,ch3,ch5,is_pause
6.728041172027588,-400000.0625,-14278.75,-3034.8798828125,-400000.0625,-8815.3798828125,-400000.0625,-18588.259765625,-400000.0625
timestamp,ch7,ch2,ch3,ch5,is_pause
6.7462990283966064,-400000.0625,-14301.490234375,-3052.330078125,-400000.0625,-8831.3095703125,-400000.0625,-18609.380859375,-400000.0625
timestamp,ch7,ch2,ch3,ch5,is_pause
6.766309976577759,-400000.0625,-14349.41015625,-3089.239990234375,-400000.0625,-8868.9296875,-400000.0625,-18654.6796875,-400000.0625
timestamp,ch7,ch2,ch3,ch5,is_pause
timestamp,ch7,ch2,ch3,ch5,is_pause
6.787587881088257,-400000.0625,-14355.9501953125,-3096.909912109375,-400000.0625,-8877.759765625,-400000.0625,-18663.359375,-400000.0625
timestamp,ch7,ch2,ch3,ch5,is_pause
6.820677042007446,-400000.0625,-14320.4697265625,-3064.820068359375,-400000.0625,-8848.1396484375,-400000.0625,-18621.880859375,-400000.0625
timestamp,ch7,ch2,ch3,ch5,is_pause
6.834611892700195,-400000.0625,-14286.6201171875,-3038.929931640625,-400000.0625,-8820.490234375,-400000.0625,-18588.640625,-400000.0625
timestamp,ch7,ch2,ch3,ch5,is_pause
timestamp,ch7,ch2,ch3,ch5,is_pause
6.854833126068115,-400000.0625,-14301.6796875,-3053.050048828125,-400000.0625,-8837.4599609375,-400000.0625,-18609.240234375,-400000.0625
timestamp,ch7,ch2,ch3,ch5,is_pause
6.872219800949097,-400000.0625,-14349.080078125,-3087.949951171875,-400000.0625,-8875.3701171875,-400000.0625,-18651.6796875,-400000.0625
timestamp,ch7,ch2,ch3,ch5,is_pause
6.890055894851685,-400000.0625,-14360.4296875,-3094.389892578125,-400000.0625,-8882.240234375,-400000.0625,-18658.689453125,-400000.0625
timestamp,ch7,ch2,ch3,ch5,is_pause
timestamp,ch7,ch2,ch3,ch5,is_pause
6.929301500320435,-400000.0625,-14319.0400390625,-3061.489990234375,-400000.0625,-8847.5703125,-400000.0625,-18618.25,-400000.0625
timestamp,ch7,ch2,ch3,ch5,is_pause
timestamp,ch7,ch2,ch3,ch5,is_pause
6.947653532028198,-400000.0625,-14284.0400390625,-3036.830078125,-400000.0625,-8817.6298828125,-400000.0625,-18584.73046875,-400000.0625
6.961545467376709,-400000.0625,-14314.6103515625,-3053.239990234375,-400000.0625,-8835.98046875,-400000.0625,-18609.240234375,-400000.0625
timestamp,ch7,ch2,ch3,ch5,is_pause
6.977842330932617,-400000.0625,-14365.009765625,-3087.22998046875,-400000.0625,-8877.7099609375,-400000.0625,-18652.439453125,-400000.0625
timestamp,ch7,ch2,ch3,ch5,is_pause
timestamp,ch7,ch2,ch3,ch5,is_pause
7.003052711486816,-400000.0625,-14360.5703125,-3095.050048828125,-400000.0625,-8880.23046875,-400000.0625,-18656.779296875,-400000.0625
timestamp,ch7,ch2,ch3,ch5,is_pause
timestamp,ch7,ch2,ch3,ch5,is_pause
7.041804790496826,-400000.0625,-14311.98046875,-3064.820068359375,-400000.0625,-8840.1796875,-400000.0625,-18622.16015625,-400000.0625
timestamp,ch7,ch2,ch3,ch5,is_pause
7.056704759597778,-400000.0625,-14284.23046875,-3037.31005859375,-400000.0625,-8812.48046875,-400000.0625,-18603.1796875,-400000.0625
timestamp,ch7,ch2,ch3,ch5,is_pause
7.077605485916138,-400000.0625,-14306.5,-3043.27001953125,-400000.0625,-8823.4404296875,-400000.0625,-18624.359375,-400000.0625
timestamp,ch7,ch2,ch3,ch5,is_pause
timestamp,ch7,ch2,ch3,ch5,is_pause
7.10225510597229,-400000.0625,-14342.41015625,-3079.840087890625,-400000.0625,-8863.2099609375,-400000.0625,-18670.419921875,-400000.0625
timestamp,ch7,ch2,ch3,ch5,is_pause
7.12060809135437,-400000.0625,-14348.080078125,-3089.570068359375,-400000.0625,-8872.7001953125,-400000.0625,-18684.8203125,-400000.0625
timestamp,ch7,ch2,ch3,ch5,is_pause
timestamp,ch7,ch2,ch3,ch5,is_pause
7.159425497055054,-400000.0625,-14312.83984375,-3055.6201171875,-400000.0625,-8839.4697265625,-400000.0625,-18651.30078125,-400000.0625
timestamp,ch7,ch2,ch3,ch5,is_pause
timestamp,ch7,ch2,ch3,ch5,is_pause
7.186025142669678,-400000.0625,-14277.8896484375,-3027.9599609375,-400000.0625,-8809.1904296875,-400000.0625,-18621.640625,-400000.0625
timestamp,ch7,ch2,ch3,ch5,is_pause
7.20290732383728,-400000.0625,-14290.3798828125,-3042.699951171875,-400000.0625,-8823.58984375,-400000.0625,-18641.810546875,-400000.0625
timestamp,ch7,ch2,ch3,ch5,is_pause
7.219257116317749,-400000.0625,-14341.4501953125,-3078.27001953125,-400000.0625,-8864.1201171875,-400000.0625,-18687.25,-400000.0625
timestamp,ch7,ch2,ch3,ch5,is_pause
7.241518497467041,-400000.0625,-14356.4697265625,-3086.85009765625,-400000.0625,-8875.1796875,-400000.0625,-18694.58984375,-400000.0625
timestamp,ch7,ch2,ch3,ch5,is_pause
timestamp,ch7,ch2,ch3,ch5,is_pause
7.27393651008606,-400000.0625,-14315.1796875,-3054.0,-400000.0625,-8836.509765625,-400000.0625,-18660.119140625,-400000.0625
timestamp,ch7,ch2,ch3,ch5,is_pause
7.295538663864136,-400000.0625,-14280.419921875,-3029.679931640625,-400000.0625,-8803.1796875,-400000.0625,-18628.220703125,-400000.0625
timestamp,ch7,ch2,ch3,ch5,is_pause
7.31236720085144,-400000.0625,-14308.0302734375,-3046.419921875,-400000.0625,-8818.8203125,-400000.0625,-18646.76953125,-400000.0625
timestamp,ch7,ch2,ch3,ch5,is_pause
7.326889753341675,-400000.0625,-14359.5703125,-3084.22998046875,-400000.0625,-8864.98046875,-400000.0625,-18693.740234375,-400000.0625
timestamp,ch7,ch2,ch3,ch5,is_pause
7.342761278152466,-400000.0625,-14368.009765625,-3089.909912109375,-400000.0625,-8873.509765625,-400000.0625,-18706.7109375,-400000.0625
timestamp,ch7,ch2,ch3,ch5,is_pause
timestamp,ch7,ch2,ch3,ch5,is_pause
timestamp,ch7,ch2,ch3,ch5,is_pause
7.386461973190308,-400000.0625,-14325.669921875,-3055.719970703125,-400000.0625,-8837.3701171875,-400000.0625,-18658.830078125,-400000.0625
timestamp,ch7,ch2,ch3,ch5,is_pause
7.400469541549683,-400000.0625,-14289.51953125,-3029.780029296875,-400000.0625,-8807.1396484375,-400000.0625,-18625.2109375,-400000.0625
7.412254810333252,-400000.0625,-14306.7900390625,-3044.840087890625,-400000.0625,-8825.58984375,-400000.0625,-18645.669921875,-400000.0625
timestamp,ch7,ch2,ch3,ch5,is_pause
7.427208185195923,-400000.0625,-14355.1396484375,-3079.75,-400000.0625,-8864.169921875,-400000.0625,-18685.76953125,-400000.0625
timestamp,ch7,ch2,ch3,ch5,is_pause
timestamp,ch7,ch2,ch3,ch5,is_pause
7.450347900390625,-400000.0625,-14364.2900390625,-3087.18994140625,-400000.0625,-8870.9404296875,-400000.0625,-18691.259765625,-400000.0625
timestamp,ch7,ch2,ch3,ch5,is_pause
timestamp,ch7,ch2,ch3,ch5,is_pause
7.4858527183532715,-400000.0625,-14319.1796875,-3053.139892578125,-400000.0625,-8836.9404296875,-400000.0625,-18647.859375,-400000.0625
timestamp,ch7,ch2,ch3,ch5,is_pause
7.502309083938599,-400000.0625,-14288.7099609375,-3028.969970703125,-400000.0625,-8811.2802734375,-400000.0625,-18620.5390625,-400000.0625
timestamp,ch7,ch2,ch3,ch5,is_pause
7.522778034210205,-400000.0625,-14314.7998046875,-3050.949951171875,-400000.0625,-8832.650390625,-400000.0625,-18643.240234375,-400000.0625
timestamp,ch7,ch2,ch3,ch5,is_pause
7.53644871711731,-400000.0625,-14364.009765625,-3086.610107421875,-400000.0625,-8870.8896484375,-400000.0625,-18693.689453125,-400000.0625
timestamp,ch7,ch2,ch3,ch5,is_pause
timestamp,ch7,ch2,ch3,ch5,is_pause
7.559930801391602,-400000.0625,-14370.6298828125,-3089.909912109375,-400000.0625,-8876.2802734375,-400000.0625,-18695.7890625,-400000.0625
timestamp,ch7,ch2,ch3,ch5,is_pause
timestamp,ch7,ch2,ch3,ch5,is_pause
7.601569652557373,-400000.0625,-14326.1904296875,-3058.669921875,-400000.0625,-8838.990234375,-400000.0625,-18648.8203125,-400000.0625
timestamp,ch7,ch2,ch3,ch5,is_pause
7.614441394805908,-400000.0625,-14292.580078125,-3030.110107421875,-400000.0625,-8806.1298828125,-400000.0625,-18615.439453125,-400000.0625
timestamp,ch7,ch2,ch3,ch5,is_pause
timestamp,ch7,ch2,ch3,ch5,is_pause
7.635823726654053,-400000.0625,-14311.5498046875,-3044.93994140625,-400000.0625,-8827.9296875,-400000.0625,-18634.130859375,-400000.0625
timestamp,ch7,ch2,ch3,ch5,is_pause
7.653753995895386,-400000.0625,-14361.5703125,-3084.280029296875,-400000.0625,-8872.3701171875,-400000.0625,-18681.859375,-400000.0625
timestamp,ch7,ch2,ch3,ch5,is_pause
7.6683430671691895,-400000.0625,-14378.169921875,-3097.919921875,-400000.0625,-8882.669921875,-400000.0625,-18691.830078125,-400000.0625
timestamp,ch7,ch2,ch3,ch5,is_pause
timestamp,ch7,ch2,ch3,ch5,is_pause
7.704907178878784,-400000.0625,-14333.0595703125,-3063.580078125,-400000.0625,-8844.330078125,-400000.0625,-18650.25,-400000.0625
timestamp,ch7,ch2,ch3,ch5,is_pause
7.722182512283325,-400000.0625,-14292.669921875,-3035.5,-400000.0625,-8811.51953125,-400000.0625,-18613.869140625,-400000.0625
timestamp,ch7,ch2,ch3,ch5,is_pause
timestamp,ch7,ch2,ch3,ch5,is_pause
7.7400124073028564,-400000.0625,-14312.7001953125,-3051.139892578125,-400000.0625,-8827.16015625,-400000.0625,-18634.990234375,-400000.0625
timestamp,ch7,ch2,ch3,ch5,is_pause
7.758908271789551,-400000.0625,-14360.51953125,-3086.280029296875,-400000.0625,-8871.8896484375,-400000.0625,-18677.94921875,-400000.0625
timestamp,ch7,ch2,ch3,ch5,is_pause
7.774567127227783,-400000.0625,-14370.9697265625,-3095.719970703125,-400000.0625,-8879.0400390625,-400000.0625,-18687.919921875,-400000.0625
timestamp,ch7,ch2,ch3,ch5,is_pause
timestamp,ch7,ch2,ch3,ch5,is_pause
7.808046102523804,-400000.0625,-14333.2998046875,-3064.25,-400000.0625,-8843.51953125,-400000.0625,-18650.580078125,-400000.0625
timestamp,ch7,ch2,ch3,ch5,is_pause
7.825643301010132,-400000.0625,-14306.01953125,-3035.590087890625,-400000.0625,-8810.51953125,-400000.0625,-18618.400390625,-400000.0625
timestamp,ch7,ch2,ch3,ch5,is_pause
timestamp,ch7,ch2,ch3,ch5,is_pause
7.848549127578735,-400000.0625,-14324.240234375,-3048.56005859375,-400000.0625,-8827.259765625,-400000.0625,-18633.080078125,-400000.0625
timestamp,ch7,ch2,ch3,ch5,is_pause
7.863573789596558,-400000.0625,-14371.9697265625,-3093.530029296875,-400000.0625,-8873.9404296875,-400000.0625,-18668.560546875,-400000.0625
timestamp,ch7,ch2,ch3,ch5,is_pause
7.878823280334473,-400000.0625,-14393.0498046875,-3106.2099609375,-400000.0625,-8882.1904296875,-400000.0625,-18672.0390625,-400000.0625
timestamp,ch7,ch2,ch3,ch5,is_pause
timestamp,ch7,ch2,ch3,ch5,is_pause
7.910527944564819,-400000.0625,-14348.599609375,-3077.080078125,-400000.0625,-8842.6103515625,-400000.0625,-18621.16015625,-400000.0625
timestamp,ch7,ch2,ch3,ch5,is_pause
7.925286054611206,-400000.0625,-14321.900390625,-3058.050048828125,-400000.0625,-8811.51953125,-400000.0625,-18578.8203125,-400000.0625
timestamp,ch7,ch2,ch3,ch5,is_pause
7.9417033195495605,-400000.0625,-14349.83984375,-3076.510009765625,-400000.0625,-8827.5,-400000.0625,-18587.73046875,-400000.0625
timestamp,ch7,ch2,ch3,ch5,is_pause
7.959327936172485,-400000.0625,-14399.099609375,-3117.659912109375,-400000.0625,-8867.8798828125,-400000.0625,-18620.830078125,-400000.0625
timestamp,ch7,ch2,ch3,ch5,is_pause
7.973012447357178,-400000.0625,-14417.26953125,-3131.679931640625,-400000.0625,-8878.3798828125,-400000.0625,-18628.4609375,-400000.0625
timestamp,ch7,ch2,ch3,ch5,is_pause
7.996740102767944,-400000.0625,-14378.6396484375,-3104.260009765625,-400000.0625,-8845.1396484375,-400000.0625,-18579.33984375,-400000.0625
timestamp,ch7,ch2,ch3,ch5,is_pause
8.031485080718994,-400000.0625,-14344.650390625,-3082.22998046875,-400000.0625,-8813.9501953125,-400000.0625,-18537.4296875,-400000.0625
timestamp,ch7,ch2,ch3,ch5,is_pause
timestamp,ch7,ch2,ch3,ch5,is_pause
8.054205179214478,-400000.0625,-14366.25,-3099.489990234375,-400000.0625,-8828.4501953125,-400000.0625,-18551.0703125,-400000.0625
timestamp,ch7,ch2,ch3,ch5,is_pause
8.070233345031738,-400000.0625,-14417.0302734375,-3138.780029296875,-400000.0625,-8871.599609375,-400000.0625,-18596.509765625,-400000.0625
timestamp,ch7,ch2,ch3,ch5,is_pause
8.083601713180542,-400000.0625,-14425.6103515625,-3142.169921875,-400000.0625,-8878.330078125,-400000.0625,-18600.1796875,-400000.0625
8.095684051513672,-400000.0625,-14380.3095703125,-3108.68994140625,-400000.0625,-8839.66015625,-400000.0625,-18562.080078125,-400000.0625
timestamp,ch7,ch2,ch3,ch5,is_pause
8.11104130744934,-400000.0625,-14343.740234375,-3081.85009765625,-400000.0625,-8809.08984375,-400000.0625,-18529.609375,-400000.0625
timestamp,ch7,ch2,ch3,ch5,is_pause
timestamp,ch7,ch2,ch3,ch5,is_pause
timestamp,ch7,ch2,ch3,ch5,is_pause
8.15074372291565,-400000.0625,-14360.9501953125,-3096.77001953125,-400000.0625,-8825.4501953125,-400000.0625,-18552.349609375,-400000.0625
8.161772727966309,-400000.0625,-14411.3095703125,-3134.389892578125,-400000.0625,-8869.2197265625,-400000.0625,-18594.83984375,-400000.0625
timestamp,ch7,ch2,ch3,ch5,is_pause
timestamp,ch7,ch2,ch3,ch5,is_pause
8.180893898010254,-400000.0625,-14419.509765625,-3141.260009765625,-400000.0625,-8879.419921875,-400000.0625,-18602.94921875,-400000.0625
timestamp,ch7,ch2,ch3,ch5,is_pause
8.196594953536987,-400000.0625,-14376.4501953125,-3110.4599609375,-400000.0625,-8846.1396484375,-400000.0625,-18564.75,-400000.0625
timestamp,ch7,ch2,ch3,ch5,is_pause
8.209190368652344,-400000.0625,-14339.7802734375,-3079.27001953125,-400000.0625,-8812.759765625,-400000.0625,-18533.140625,-400000.0625
timestamp,ch7,ch2,ch3,ch5,is_pause
8.227654457092285,-400000.0625,-14357.4296875,-3093.199951171875,-400000.0625,-8829.6904296875,-400000.0625,-18554.169921875,-400000.0625
timestamp,ch7,ch2,ch3,ch5,is_pause
timestamp,ch7,ch2,ch3,ch5,is_pause
8.259373426437378,-400000.0625,-14409.1103515625,-3132.06005859375,-400000.0625,-8870.9404296875,-400000.0625,-18601.279296875,-400000.0625
timestamp,ch7,ch2,ch3,ch5,is_pause
8.273721694946289,-400000.0625,-14417.0302734375,-3135.919921875,-400000.0625,-8874.509765625,-400000.0625,-18612.19921875,-400000.0625
timestamp,ch7,ch2,ch3,ch5,is_pause
8.290572881698608,-400000.0625,-14369.3896484375,-3099.780029296875,-400000.0625,-8835.650390625,-400000.0625,-18566.279296875,-400000.0625
timestamp,ch7,ch2,ch3,ch5,is_pause
8.305726766586304,-400000.0625,-14331.150390625,-3071.590087890625,-400000.0625,-8802.990234375,-400000.0625,-18529.75,-400000.0625
timestamp,ch7,ch2,ch3,ch5,is_pause
8.31856369972229,-400000.0625,-14354.900390625,-3091.570068359375,-400000.0625,-8823.5400390625,-400000.0625,-18552.640625,-400000.0625
timestamp,ch7,ch2,ch3,ch5,is_pause
8.335288524627686,-400000.0625,-14405.58984375,-3131.199951171875,-400000.0625,-8866.6396484375,-400000.0625,-18601.0390625,-400000.0625
timestamp,ch7,ch2,ch3,ch5,is_pause
8.363241195678711,-400000.0625,-14417.1298828125,-3142.97998046875,-400000.0625,-8875.4697265625,-400000.0625,-18608.380859375,-400000.0625
timestamp,ch7,ch2,ch3,ch5,is_pause
timestamp,ch7,ch2,ch3,ch5,is_pause
8.385842084884644,-400000.0625,-14374.259765625,-3107.169921875,-400000.0625,-8841.23046875,-400000.0625,-18568.08984375,-400000.0625
timestamp,ch7,ch2,ch3,ch5,is_pause
8.40488576889038,-400000.0625,-14335.25,-3078.169921875,-400000.0625,-8809.23046875,-400000.0625,-18531.1796875,-400000.0625
timestamp,ch7,ch2,ch3,ch5,is_pause
8.421198844909668,-400000.0625,-14350.3203125,-3091.429931640625,-400000.0625,-8822.8701171875,-400000.0625,-18548.109375,-400000.0625
timestamp,ch7,ch2,ch3,ch5,is_pause
8.435901403427124,-400000.0625,-14399.009765625,-3125.949951171875,-400000.0625,-8862.73046875,-400000.0625,-18599.80078125,-400000.0625
timestamp,ch7,ch2,ch3,ch5,is_pause
timestamp,ch7,ch2,ch3,ch5,is_pause
8.465524673461914,-400000.0625,-14413.98046875,-3136.25,-400000.0625,-8874.23046875,-400000.0625,-18611.05078125,-400000.0625
timestamp,ch7,ch2,ch3,ch5,is_pause
timestamp,ch7,ch2,ch3,ch5,is_pause
8.486520051956177,-400000.0625,-14370.490234375,-3104.159912109375,-400000.0625,-8838.0302734375,-400000.0625,-18573.5703125,-400000.0625
timestamp,ch7,ch2,ch3,ch5,is_pause
8.5024733543396,-400000.0625,-14336.919921875,-3077.840087890625,-400000.0625,-8806.2802734375,-400000.0625,-18536.619140625,-400000.0625
timestamp,ch7,ch2,ch3,ch5,is_pause
8.51480484008789,-400000.0625,-14349.509765625,-3085.52001953125,-400000.0625,-8821.8203125,-400000.0625,-18554.169921875,-400000.0625
timestamp,ch7,ch2,ch3,ch5,is_pause
8.53129506111145,-400000.0625,-14391.1904296875,-3117.510009765625,-400000.0625,-8861.919921875,-400000.0625,-18598.650390625,-400000.0625
timestamp,ch7,ch2,ch3,ch5,is_pause
8.546734094619751,-400000.0625,-14406.2998046875,-3127.77001953125,-400000.0625,-8874.23046875,-400000.0625,-18609.9609375,-400000.0625
timestamp,ch7,ch2,ch3,ch5,is_pause
timestamp,ch7,ch2,ch3,ch5,is_pause
8.577351093292236,-400000.0625,-14361.0498046875,-3094.719970703125,-400000.0625,-8836.26953125,-400000.0625,-18568.900390625,-400000.0625
timestamp,ch7,ch2,ch3,ch5,is_pause
8.594457149505615,-400000.0625,-14321.6201171875,-3064.300048828125,-400000.0625,-8799.4599609375,-400000.0625,-18533.419921875,-400000.0625
timestamp,ch7,ch2,ch3,ch5,is_pause
8.611732006072998,-400000.0625,-14343.41015625,-3080.85009765625,-400000.0625,-8815.9599609375,-400000.0625,-18549.30078125,-400000.0625
timestamp,ch7,ch2,ch3,ch5,is_pause
8.627584218978882,-400000.0625,-14391.849609375,-3118.89990234375,-400000.0625,-8861.400390625,-400000.0625,-18595.75,-400000.0625
timestamp,ch7,ch2,ch3,ch5,is_pause
8.64403748512268,-400000.0625,-14402.8203125,-3126.47998046875,-400000.0625,-8870.5595703125,-400000.0625,-18606.05078125,-400000.0625
timestamp,ch7,ch2,ch3,ch5,is_pause
8.65894889831543,-400000.0625,-14364.91015625,-3100.110107421875,-400000.0625,-8841.3203125,-400000.0625,-18567.1796875,-400000.0625
timestamp,ch7,ch2,ch3,ch5,is_pause
timestamp,ch7,ch2,ch3,ch5,is_pause
8.688318490982056,-400000.0625,-14327.76953125,-3072.639892578125,-400000.0625,-8811.3798828125,-400000.0625,-18533.900390625,-400000.0625
timestamp,ch7,ch2,ch3,ch5,is_pause
8.702504396438599,-400000.0625,-14350.0302734375,-3090.530029296875,-400000.0625,-8825.73046875,-400000.0625,-18555.880859375,-400000.0625
timestamp,ch7,ch2,ch3,ch5,is_pause
8.719266176223755,-400000.0625,-14401.76953125,-3131.25,-400000.0625,-8866.169921875,-400000.0625,-18606.140625,-400000.0625
timestamp,ch7,ch2,ch3,ch5,is_pause
8.735839366912842,-400000.0625,-14414.650390625,-3136.830078125,-400000.0625,-8875.1796875,-400000.0625,-18618.16015625,-400000.0625
timestamp,ch7,ch2,ch3,ch5,is_pause
8.752135992050171,-400000.0625,-14371.490234375,-3105.260009765625,-400000.0625,-8838.990234375,-400000.0625,-18577.2890625,-400000.0625
timestamp,ch7,ch2,ch3,ch5,is_pause
8.765937566757202,-400000.0625,-14331.91015625,-3076.93994140625,-400000.0625,-8804.7998046875,-400000.0625,-18542.630859375,-400000.0625
timestamp,ch7,ch2,ch3,ch5,is_pause
timestamp,ch7,ch2,ch3,ch5,is_pause
8.79443359375,-400000.0625,-14352.5595703125,-3092.14990234375,-400000.0625,-8824.830078125,-400000.0625,-18560.029296875,-400000.0625
timestamp,ch7,ch2,ch3,ch5,is_pause
8.81051778793335,-400000.0625,-14402.2998046875,-3126.139892578125,-400000.0625,-8863.740234375,-400000.0625,-18609.5703125,-400000.0625
timestamp,ch7,ch2,ch3,ch5,is_pause
timestamp,ch7,ch2,ch3,ch5,is_pause
8.82904314994812,-400000.0625,-14411.6396484375,-3134.969970703125,-400000.0625,-8871.650390625,-400000.0625,-18623.0703125,-400000.0625
8.841470956802368,-400000.0625,-14376.01953125,-3106.929931640625,-400000.0625,-8837.75,-400000.0625,-18590.169921875,-400000.0625
timestamp,ch7,ch2,ch3,ch5,is_pause
8.858390808105469,-400000.0625,-14354.1796875,-3080.4599609375,-400000.0625,-8807.6103515625,-400000.0625,-18553.9296875,-400000.0625
timestamp,ch7,ch2,ch3,ch5,is_pause
8.873574018478394,-400000.0625,-14374.259765625,-3091.530029296875,-400000.0625,-8822.009765625,-400000.0625,-18547.390625,-400000.0625
timestamp,ch7,ch2,ch3,ch5,is_pause
timestamp,ch7,ch2,ch3,ch5,is_pause
8.909879922866821,-400000.0625,-14430.669921875,-3128.580078125,-400000.0625,-8862.6904296875,-400000.0625,-18582.919921875,-400000.0625
timestamp,ch7,ch2,ch3,ch5,is_pause
8.924119472503662,-400000.0625,-14469.669921875,-3131.6298828125,-400000.0625,-8871.509765625,-400000.0625,-18584.349609375,-400000.0625
timestamp,ch7,ch2,ch3,ch5,is_pause
8.940532684326172,-400000.0625,-14429.0,-3107.260009765625,-400000.0625,-8836.1796875,-400000.0625,-18546.490234375,-400000.0625
timestamp,ch7,ch2,ch3,ch5,is_pause
8.957442045211792,-400000.0625,-14399.6298828125,-3096.06005859375,-400000.0625,-8802.0302734375,-400000.0625,-18540.2890625,-400000.0625
timestamp,ch7,ch2,ch3,ch5,is_pause
8.97413182258606,-400000.0625,-14397.4296875,-3108.739990234375,-400000.0625,-8821.150390625,-400000.0625,-18489.7890625,-400000.0625
timestamp,ch7,ch2,ch3,ch5,is_pause
timestamp,ch7,ch2,ch3,ch5,is_pause
9.002211809158325,-400000.0625,-14454.8896484375,-3180.68994140625,-400000.0625,-8867.4599609375,-400000.0625,-18566.51953125,-400000.0625
timestamp,ch7,ch2,ch3,ch5,is_pause
9.017883539199829,-400000.0625,-14530.6103515625,-3214.929931640625,-400000.0625,-8875.66015625,-400000.0625,-18625.169921875,-400000.0625
9.027971267700195,-400000.0625,-14516.6396484375,-3212.260009765625,-400000.0625,-8827.9697265625,-400000.0625,-18505.4296875,-400000.0625
timestamp,ch7,ch2,ch3,ch5,is_pause
9.04528546333313,-400000.0625,-14433.9599609375,-3160.6201171875,-400000.0625,-8789.919921875,-400000.0625,-18473.76953125,-400000.0625
timestamp,ch7,ch2,ch3,ch5,is_pause
timestamp,ch7,ch2,ch3,ch5,is_pause
9.061232328414917,-400000.0625,-14510.490234375,-3215.169921875,-400000.0625,-8824.830078125,-400000.0625,-18456.26953125,-400000.0625
timestamp,ch7,ch2,ch3,ch5,is_pause
9.075976610183716,-400000.0625,-14574.6201171875,-3266.0,-400000.0625,-8857.7802734375,-400000.0625,-18553.259765625,-400000.0625
timestamp,ch7,ch2,ch3,ch5,is_pause
timestamp,ch7,ch2,ch3,ch5,is_pause
9.104708671569824,-400000.0625,-14549.6396484375,-3310.5400390625,-400000.0625,-8847.8095703125,-400000.0625,-18565.23046875,-400000.0625
timestamp,ch7,ch2,ch3,ch5,is_pause
9.123053789138794,-400000.0625,-14539.91015625,-3290.64990234375,-400000.0625,-8790.58984375,-400000.0625,-18513.30078125,-400000.0625
timestamp,ch7,ch2,ch3,ch5,is_pause
9.138751029968262,-400000.0625,-14622.5498046875,-3248.070068359375,-400000.0625,-8746.240234375,-400000.0625,-18503.5703125,-400000.0625
timestamp,ch7,ch2,ch3,ch5,is_pause
9.153033018112183,-400000.0625,-14537.669921875,-3276.300048828125,-400000.0625,-8773.419921875,-400000.0625,-18500.759765625,-400000.0625
timestamp,ch7,ch2,ch3,ch5,is_pause
9.173157215118408,-400000.0625,-14511.400390625,-3325.75,-400000.0625,-8811.900390625,-400000.0625,-18536.7109375,-400000.0625
timestamp,ch7,ch2,ch3,ch5,is_pause
timestamp,ch7,ch2,ch3,ch5,is_pause
9.189082622528076,-400000.0625,-14559.8896484375,-3338.77001953125,-400000.0625,-8813.48046875,-400000.0625,-18539.859375,-400000.0625
timestamp,ch7,ch2,ch3,ch5,is_pause
timestamp,ch7,ch2,ch3,ch5,is_pause
9.223318099975586,-400000.0625,-14477.58984375,-3313.919921875,-400000.0625,-8763.41015625,-400000.0625,-18497.80078125,-400000.0625
timestamp,ch7,ch2,ch3,ch5,is_pause
9.2405104637146,-400000.0625,-14418.599609375,-3283.929931640625,-400000.0625,-8722.01953125,-400000.0625,-18446.58984375,-400000.0625
timestamp,ch7,ch2,ch3,ch5,is_pause
9.254029989242554,-400000.0625,-14364.7197265625,-3305.47998046875,-400000.0625,-8723.259765625,-400000.0625,-18433.4296875,-400000.0625
timestamp,ch7,ch2,ch3,ch5,is_pause
9.27289080619812,-400000.0625,-14374.349609375,-3354.929931640625,-400000.0625,-8759.3603515625,-400000.0625,-18480.16015625,-400000.0625
timestamp,ch7,ch2,ch3,ch5,is_pause
9.28707480430603,-400000.0625,-14370.400390625,-3362.85009765625,-400000.0625,-8765.3203125,-400000.0625,-18476.6796875,-400000.0625
timestamp,ch7,ch2,ch3,ch5,is_pause
9.302847623825073,-400000.0625,-14300.919921875,-3315.2099609375,-400000.0625,-8714.5302734375,-400000.0625,-18418.119140625,-400000.0625
timestamp,ch7,ch2,ch3,ch5,is_pause
timestamp,ch7,ch2,ch3,ch5,is_pause
timestamp,ch7,ch2,ch3,ch5,is_pause
9.341118097305298,-400000.0625,-14208.83984375,-3301.18994140625,-400000.0625,-8687.6904296875,-400000.0625,-18386.26953125,-400000.0625
9.35335111618042,-400000.0625,-14211.509765625,-3322.169921875,-400000.0625,-8693.7900390625,-400000.0625,-18412.259765625,-400000.0625
timestamp,ch7,ch2,ch3,ch5,is_pause
timestamp,ch7,ch2,ch3,ch5,is_pause
9.370439052581787,-400000.0625,-14219.8603515625,-3356.97998046875,-400000.0625,-8727.650390625,-400000.0625,-18462.759765625,-400000.0625
timestamp,ch7,ch2,ch3,ch5,is_pause
9.393574714660645,-400000.0625,-14207.080078125,-3369.860107421875,-400000.0625,-8733.1796875,-400000.0625,-18463.7109375,-400000.0625
timestamp,ch7,ch2,ch3,ch5,is_pause
9.412097692489624,-400000.0625,-14135.3603515625,-3345.820068359375,-400000.0625,-8698.1298828125,-400000.0625,-18422.3203125,-400000.0625
timestamp,ch7,ch2,ch3,ch5,is_pause
timestamp,ch7,ch2,ch3,ch5,is_pause
timestamp,ch7,ch2,ch3,ch5,is_pause
9.454147100448608,-400000.0625,-14067.3701171875,-3313.39990234375,-400000.0625,-8661.7998046875,-400000.0625,-18399.33984375,-400000.0625
timestamp,ch7,ch2,ch3,ch5,is_pause
9.46932339668274,-400000.0625,-14033.83984375,-3312.780029296875,-400000.0625,-8663.4599609375,-400000.0625,-18427.279296875,-400000.0625
timestamp,ch7,ch2,ch3,ch5,is_pause
9.483669519424438,-400000.0625,-14041.9501953125,-3350.31005859375,-400000.0625,-8703.330078125,-400000.0625,-18478.109375,-400000.0625
9.496539831161499,-400000.0625,-14017.5400390625,-3355.840087890625,-400000.0625,-8722.5400390625,-400000.0625,-18490.560546875,-400000.0625
timestamp,ch7,ch2,ch3,ch5,is_pause
9.510956048965454,-400000.0625,-13941.76953125,-3321.169921875,-400000.0625,-8693.080078125,-400000.0625,-18455.029296875,-400000.0625
timestamp,ch7,ch2,ch3,ch5,is_pause
9.52711296081543,-400000.0625,-13881.7802734375,-3282.8798828125,-400000.0625,-8665.51953125,-400000.0625,-18421.3203125,-400000.0625
timestamp,ch7,ch2,ch3,ch5,is_pause
timestamp,ch7,ch2,ch3,ch5,is_pause
9.554903984069824,-400000.0625,-13876.2001953125,-3280.5,-400000.0625,-8684.1103515625,-400000.0625,-18434.76953125,-400000.0625
timestamp,ch7,ch2,ch3,ch5,is_pause
9.569793939590454,-400000.0625,-13919.2099609375,-3298.7099609375,-400000.0625,-8723.98046875,-400000.0625,-18470.580078125,-400000.0625
timestamp,ch7,ch2,ch3,ch5,is_pause
9.583654642105103,-400000.0625,-13941.8095703125,-3302.47998046875,-400000.0625,-8742.0498046875,-400000.0625,-18485.259765625,-400000.0625
timestamp,ch7,ch2,ch3,ch5,is_pause
9.5986168384552,-400000.0625,-13919.5,-3268.81005859375,-400000.0625,-8720.2998046875,-400000.0625,-18447.259765625,-400000.0625
timestamp,ch7,ch2,ch3,ch5,is_pause
9.611781120300293,-400000.0625,-13894.080078125,-3223.510009765625,-400000.0625,-8694.1298828125,-400000.0625,-18409.060546875,-400000.0625
timestamp,ch7,ch2,ch3,ch5,is_pause
9.62736701965332,-400000.0625,-13933.23046875,-3233.669921875,-400000.0625,-8713.6298828125,-400000.0625,-18426.130859375,-400000.0625
timestamp,ch7,ch2,ch3,ch5,is_pause
timestamp,ch7,ch2,ch3,ch5,is_pause
9.659926176071167,-400000.0625,-14001.1298828125,-3264.280029296875,-400000.0625,-8758.5,-400000.0625,-18467.189453125,-400000.0625
timestamp,ch7,ch2,ch3,ch5,is_pause
9.675755739212036,-400000.0625,-14037.23046875,-3269.010009765625,-400000.0625,-8782.6298828125,-400000.0625,-18473.91015625,-400000.0625
timestamp,ch7,ch2,ch3,ch5,is_pause
9.6892249584198,-400000.0625,-14014.33984375,-3230.81005859375,-400000.0625,-8757.740234375,-400000.0625,-18434.380859375,-400000.0625
timestamp,ch7,ch2,ch3,ch5,is_pause
9.70765495300293,-400000.0625,-13993.4599609375,-3194.860107421875,-400000.0625,-8730.98046875,-400000.0625,-18386.650390625,-400000.0625
timestamp,ch7,ch2,ch3,ch5,is_pause
9.724805355072021,-400000.0625,-14019.919921875,-3203.820068359375,-400000.0625,-8748.099609375,-400000.0625,-18399.4296875,-400000.0625
timestamp,ch7,ch2,ch3,ch5,is_pause
9.737664222717285,-400000.0625,-14083.7197265625,-3238.6298828125,-400000.0625,-8791.01953125,-400000.0625,-18441.060546875,-400000.0625
timestamp,ch7,ch2,ch3,ch5,is_pause
9.766422986984253,-400000.0625,-14108.849609375,-3241.679931640625,-400000.0625,-8804.849609375,-400000.0625,-18451.689453125,-400000.0625
timestamp,ch7,ch2,ch3,ch5,is_pause
timestamp,ch7,ch2,ch3,ch5,is_pause
9.78429889678955,-400000.0625,-14077.1396484375,-3214.070068359375,-400000.0625,-8789.25,-400000.0625,-18417.4609375,-400000.0625
timestamp,ch7,ch2,ch3,ch5,is_pause
9.804101467132568,-400000.0625,-14045.5703125,-3181.64990234375,-400000.0625,-8761.5,-400000.0625,-18379.830078125,-400000.0625
timestamp,ch7,ch2,ch3,ch5,is_pause
9.816444635391235,-400000.0625,-14055.7802734375,-3176.97998046875,-400000.0625,-8772.330078125,-400000.0625,-18389.080078125,-400000.0625
timestamp,ch7,ch2,ch3,ch5,is_pause
9.833821535110474,-400000.0625,-14107.9404296875,-3207.780029296875,-400000.0625,-8819.76953125,-400000.0625,-18434.720703125,-400000.0625
timestamp,ch7,ch2,ch3,ch5,is_pause
9.8494393825531,-400000.0625,-14119.580078125,-3214.929931640625,-400000.0625,-8838.0302734375,-400000.0625,-18447.9296875,-400000.0625
timestamp,ch7,ch2,ch3,ch5,is_pause
timestamp,ch7,ch2,ch3,ch5,is_pause
9.886137962341309,-400000.0625,-14077.6201171875,-3176.02001953125,-400000.0625,-8809.0400390625,-400000.0625,-18408.060546875,-400000.0625
timestamp,ch7,ch2,ch3,ch5,is_pause
timestamp,ch7,ch2,ch3,ch5,is_pause
9.90350341796875,-400000.0625,-14036.2802734375,-3141.97998046875,-400000.0625,-8783.2001953125,-400000.0625,-18366.009765625,-400000.0625
timestamp,ch7,ch2,ch3,ch5,is_pause
9.92056131362915,-400000.0625,-14038.990234375,-3144.68994140625,-400000.0625,-8798.9296875,-400000.0625,-18373.779296875,-400000.0625
timestamp,ch7,ch2,ch3,ch5,is_pause
9.93397855758667,-400000.0625,-14077.51953125,-3171.159912109375,-400000.0625,-8835.650390625,-400000.0625,-18415.599609375,-400000.0625
9.944929838180542,-400000.0625,-14075.419921875,-3167.389892578125,-400000.0625,-8847.0498046875,-400000.0625,-18422.1796875,-400000.0625
timestamp,ch7,ch2,ch3,ch5,is_pause
9.959217071533203,-400000.0625,-14035.9404296875,-3136.43994140625,-400000.0625,-8820.580078125,-400000.0625,-18383.83984375,-400000.0625
timestamp,ch7,ch2,ch3,ch5,is_pause
timestamp,ch7,ch2,ch3,ch5,is_pause
9.99169397354126,-400000.0625,-13992.0302734375,-3101.110107421875,-400000.0625,-8785.4404296875,-400000.0625,-18344.9296875,-400000.0625
timestamp,ch7,ch2,ch3,ch5,is_pause
10.005439519882202,-400000.0625,-13992.650390625,-3097.14990234375,-400000.0625,-8794.400390625,-400000.0625,-18356.849609375,-400000.0625
timestamp,ch7,ch2,ch3,ch5,is_pause
10.020695686340332,-400000.0625,-14038.990234375,-3128.530029296875,-400000.0625,-8841.1298828125,-400000.0625,-18404.060546875,-400000.0625
timestamp,ch7,ch2,ch3,ch5,is_pause
10.039883613586426,-400000.0625,-14051.76953125,-3136.35009765625,-400000.0625,-8860.16015625,-400000.0625,-18418.029296875,-400000.0625
timestamp,ch7,ch2,ch3,ch5,is_pause
10.053792953491211,-400000.0625,-14004.1796875,-3103.8798828125,-400000.0625,-8824.0595703125,-400000.0625,-18379.55078125,-400000.0625
timestamp,ch7,ch2,ch3,ch5,is_pause
10.0687997341156,-400000.0625,-13966.3203125,-3073.64990234375,-400000.0625,-8792.01953125,-400000.0625,-18339.970703125,-400000.0625
timestamp,ch7,ch2,ch3,ch5,is_pause
timestamp,ch7,ch2,ch3,ch5,is_pause
10.09832501411438,-400000.0625,-13984.58984375,-3079.3701171875,-400000.0625,-8804.990234375,-400000.0625,-18354.1796875,-400000.0625
timestamp,ch7,ch2,ch3,ch5,is_pause
10.114340782165527,-400000.0625,-14043.3798828125,-3110.4599609375,-400000.0625,-8845.0400390625,-400000.0625,-18395.279296875,-400000.0625
timestamp,ch7,ch2,ch3,ch5,is_pause
10.128616571426392,-400000.0625,-14043.4296875,-3106.929931640625,-400000.0625,-8853.91015625,-400000.0625,-18395.140625,-400000.0625
timestamp,ch7,ch2,ch3,ch5,is_pause
10.144906759262085,-400000.0625,-14036.849609375,-3088.330078125,-400000.0625,-8823.349609375,-400000.0625,-18365.810546875,-400000.0625
timestamp,ch7,ch2,ch3,ch5,is_pause
timestamp,ch7,ch2,ch3,ch5,is_pause
10.167496919631958,-400000.0625,-13993.3095703125,-3058.050048828125,-400000.0625,-8792.2099609375,-400000.0625,-18334.19921875,-400000.0625
timestamp,ch7,ch2,ch3,ch5,is_pause
10.180647850036621,-400000.0625,-14040.5703125,-3066.110107421875,-400000.0625,-8804.8896484375,-400000.0625,-18340.16015625,-400000.0625
timestamp,ch7,ch2,ch3,ch5,is_pause
timestamp,ch7,ch2,ch3,ch5,is_pause
10.214557409286499,-400000.0625,-14068.080078125,-3119.610107421875,-400000.0625,-8832.3095703125,-400000.0625,-18385.4609375,-400000.0625
timestamp,ch7,ch2,ch3,ch5,is_pause
10.232463359832764,-400000.0625,-14099.3095703125,-3150.610107421875,-400000.0625,-8838.849609375,-400000.0625,-18389.990234375,-400000.0625
timestamp,ch7,ch2,ch3,ch5,is_pause
10.247687578201294,-400000.0625,-14087.2001953125,-3143.5,-400000.0625,-8805.509765625,-400000.0625,-18384.41015625,-400000.0625
timestamp,ch7,ch2,ch3,ch5,is_pause
timestamp,ch7,ch2,ch3,ch5,is_pause
10.26443099975586,-400000.0625,-14082.150390625,-3119.090087890625,-400000.0625,-8769.080078125,-400000.0625,-18364.240234375,-400000.0625
10.27506947517395,-400000.0625,-14105.5595703125,-3166.25,-400000.0625,-8762.8896484375,-400000.0625,-18368.630859375,-400000.0625
timestamp,ch7,ch2,ch3,ch5,is_pause
timestamp,ch7,ch2,ch3,ch5,is_pause
10.295345067977905,-400000.0625,-14144.900390625,-3252.550048828125,-400000.0625,-8804.990234375,-400000.0625,-18422.1796875,-400000.0625
timestamp,ch7,ch2,ch3,ch5,is_pause
10.322720050811768,-400000.0625,-14203.41015625,-3256.889892578125,-400000.0625,-8805.1298828125,-400000.0625,-18471.19921875,-400000.0625
timestamp,ch7,ch2,ch3,ch5,is_pause
timestamp,ch7,ch2,ch3,ch5,is_pause
10.344327926635742,-400000.0625,-14216.51953125,-3241.35009765625,-400000.0625,-8755.2998046875,-400000.0625,-18491.509765625,-400000.0625
timestamp,ch7,ch2,ch3,ch5,is_pause
10.358201503753662,-400000.0625,-14112.240234375,-3279.590087890625,-400000.0625,-8699.4697265625,-400000.0625,-18441.009765625,-400000.0625
timestamp,ch7,ch2,ch3,ch5,is_pause
10.373328924179077,-400000.0625,-14031.7001953125,-3265.429931640625,-400000.0625,-8736.1796875,-400000.0625,-18380.98046875,-400000.0625
timestamp,ch7,ch2,ch3,ch5,is_pause
10.389822244644165,-400000.0625,-14096.0703125,-3260.419921875,-400000.0625,-8755.8798828125,-400000.0625,-18397.759765625,-400000.0625
timestamp,ch7,ch2,ch3,ch5,is_pause
10.404223203659058,-400000.0625,-14067.7900390625,-3295.280029296875,-400000.0625,-8746.9599609375,-400000.0625,-18435.529296875,-400000.0625
timestamp,ch7,ch2,ch3,ch5,is_pause
timestamp,ch7,ch2,ch3,ch5,is_pause
10.43780779838562,-400000.0625,-13997.9404296875,-3273.010009765625,-400000.0625,-8718.7802734375,-400000.0625,-18383.310546875,-400000.0625
timestamp,ch7,ch2,ch3,ch5,is_pause
timestamp,ch7,ch2,ch3,ch5,is_pause
10.457680940628052,-400000.0625,-13880.2099609375,-3239.010009765625,-400000.0625,-8670.1396484375,-400000.0625,-18328.05078125,-400000.0625
10.493305683135986,-400000.0625,-7597.2998046875,2585.60009765625,-400000.0625,-7241.2001953125,-400000.0625,-14165.9296875,-400000.0625
10.579771280288696,-400000.0625,-7798.91015625,2511.5,-400000.0625,-7296.75,-400000.0625,-14287.6201171875,-400000.0625
10.632142782211304,-400000.0625,-8004.759765625,2412.4599609375,-400000.0625,-7362.18017578125,-400000.0625,-14422.0400390625,-400000.0625
10.774483919143677,-400000.0625,-8346.1796875,2294.2099609375,-400000.0625,-7435.990234375,-400000.0625,-14561.75,-400000.0625
10.830849885940552,-400000.0625,-8596.990234375,2224.35009765625,-400000.0625,-7474.47021484375,-400000.0625,-14645.48046875,-400000.0625
10.88440465927124,-400000.0625,-8729.41015625,2140.429931640625,-400000.0625,-7511.43017578125,-400000.0625,-14667.1298828125,-400000.0625
11.104806184768677,-400000.0625,-9019.08984375,1934.4300537109375,-400000.0625,-7630.43994140625,-400000.0625,-14891.009765625,-400000.0625
11.134082078933716,-400000.0625,-9108.16015625,1866.47998046875,-400000.0625,-7661.43994140625,-400000.0625,-14948.1796875,-400000.0625
11.333411455154419,-400000.0625,-9397.4599609375,1658.43994140625,-400000.0625,-7772.2998046875,-400000.0625,-15148.5,-400000.0625
11.449833869934082,-400000.0625,-9451.2001953125,1617.6700439453125,-400000.0625,-7787.990234375,-400000.0625,-15207.5302734375,-400000.0625
11.52681851387024,-400000.0625,-9586.2900390625,1505.1800537109375,-400000.0625,-7853.3701171875,-400000.0625,-15327.98046875,-400000.0625
11.584461450576782,-400000.0625,-9671.6396484375,1430.3699951171875,-400000.0625,-7904.14990234375,-400000.0625,-15410.4296875,-400000.0625
11.67566180229187,-400000.0625,-9745.9296875,1364.0400390625,-400000.0625,-7937.240234375,-400000.0625,-15474.509765625,-400000.0625
11.798642635345459,-400000.0625,-9849.98046875,1255.1800537109375,-400000.0625,-7977.77001953125,-400000.0625,-15576.2197265625,-400000.0625
11.83734655380249,-400000.0625,-9924.8896484375,1183.1800537109375,-400000.0625,-8014.919921875,-400000.0625,-15669.6796875,-400000.0625
11.978484392166138,-400000.0625,-10013.0595703125,1099.8699951171875,-400000.0625,-8060.02978515625,-400000.0625,-15763.759765625,-400000.0625
12.037784576416016,-400000.0625,-10047.8203125,1061.489990234375,-400000.0625,-8067.22998046875,-400000.0625,-15808.16015625,-400000.0625
12.183160305023193,-400000.0625,-10141.5595703125,958.489990234375,-400000.0625,-8116.91015625,-400000.0625,-15917.9697265625,-400000.0625
12.243123054504395,-400000.0625,-10199.6396484375,898.739990234375,-400000.0625,-8153.14990234375,-400000.0625,-15988.5400390625,-400000.0625
12.319773197174072,-400000.0625,-10236.3095703125,850.72998046875,-400000.0625,-8177.47021484375,-400000.0625,-16033.9404296875,-400000.0625
12.354888677597046,-400000.0625,-10258.2900390625,813.77001953125,-400000.0625,-8180.669921875,-400000.0625,-16071.6103515625,-400000.0625
12.426823377609253,-400000.0625,-10309.5498046875,758.8400268554688,-400000.0625,-8202.169921875,-400000.0625,-16126.400390625,-400000.0625
12.50369119644165,-400000.0625,-10348.7998046875,715.72998046875,-400000.0625,-8220.76953125,-400000.0625,-16169.3603515625,-400000.0625
12.55934453010559,-400000.0625,-10429.8095703125,639.489990234375,-400000.0625,-8274.080078125,-400000.0625,-16249.7099609375,-400000.0625
12.61309552192688,-400000.0625,-10467.240234375,596.0900268554688,-400000.0625,-8283.66015625,-400000.0625,-16289.669921875,-400000.0625
12.676239967346191,-400000.0625,-10477.259765625,568.4400024414062,-400000.0625,-8269.5498046875,-400000.0625,-16304.0703125,-400000.0625
12.7326340675354,-400000.0625,-10518.83984375,523.0399780273438,-400000.0625,-8286.8095703125,-400000.0625,-16357.2802734375,-400000.0625
12.79621171951294,-400000.0625,-10550.599609375,487.1400146484375,-400000.0625,-8292.33984375,-400000.0625,-16397.859375,-400000.0625
12.907729387283325,-400000.0625,-10728.740234375,250.24000549316406,-400000.0625,-8367.58984375,-400000.0625,-16277.0302734375,-400000.0625
12.959255695343018,-400000.0625,-10763.98046875,214.5800018310547,-400000.0625,-8383.4697265625,-400000.0625,-16301.73046875,-400000.0625
12.991398572921753,-400000.0625,-10765.9404296875,195.25999450683594,-400000.0625,-8370.73046875,-400000.0625,-16306.6396484375,-400000.0625
13.058489322662354,-400000.0625,-10809.759765625,147.00999450683594,-400000.0625,-8390.900390625,-400000.0625,-16337.919921875,-400000.0625
13.1325204372406,-400000.0625,-10843.1796875,107.19000244140625,-400000.0625,-8406.6904296875,-400000.0625,-16367.150390625,-400000.0625
13.187327146530151,-400000.0625,-10913.7099609375,37.150001525878906,-400000.0625,-8434.5400390625,-400000.0625,-16439.25,-400000.0625
13.276313543319702,-400000.0625,-10927.6298828125,12.869999885559082,-400000.0625,-8434.8203125,-400000.0625,-16447.880859375,-400000.0625
13.314367771148682,-400000.0625,-10953.6201171875,-26.65999984741211,-400000.0625,-8447.98046875,-400000.0625,-16480.400390625,-400000.0625
13.374936819076538,-400000.0625,-10984.23046875,-70.76000213623047,-400000.0625,-8452.419921875,-400000.0625,-16491.029296875,-400000.0625
13.437383890151978,-400000.0625,-11012.650390625,-109.29000091552734,-400000.0625,-8457.1396484375,-400000.0625,-16515.58984375,-400000.0625
13.504597425460815,-400000.0625,-11077.6904296875,-176.10000610351562,-400000.0625,-8491.6103515625,-400000.0625,-16571.7109375,-400000.0625
13.602510213851929,-400000.0625,-11094.0498046875,-202.3699951171875,-400000.0625,-8490.330078125,-400000.0625,-16583.5390625,-400000.0625
13.672632932662964,-400000.0625,-11151.650390625,-278.0899963378906,-400000.0625,-8514.3603515625,-400000.0625,-16609.859375,-400000.0625
13.775898218154907,-400000.0625,-11193.75,-328.29998779296875,-400000.0625,-8525.900390625,-400000.0625,-16648.009765625,-400000.0625
13.833810567855835,-400000.0625,-11217.5,-361.9700012207031,-400000.0625,-8532.48046875,-400000.0625,-16669.849609375,-400000.0625
14.02762246131897,-400000.0625,-11281.830078125,-471.2099914550781,-400000.0625,-8531.2900390625,-400000.0625,-16707.990234375,-400000.0625
14.143162965774536,-400000.0625,-11341.6201171875,-542.4500122070312,-400000.0625,-8557.9404296875,-400000.0625,-16752.529296875,-400000.0625
14.238927841186523,-400000.0625,-11370.5595703125,-583.97998046875,-400000.0625,-8565.4697265625,-400000.0625,-16771.130859375,-400000.0625
14.273659229278564,-400000.0625,-11369.990234375,-605.4400024414062,-400000.0625,-8558.26953125,-400000.0625,-16763.779296875,-400000.0625
14.374030351638794,-400000.0625,-11397.5498046875,-639.0599975585938,-400000.0625,-8562.849609375,-400000.0625,-16778.1796875,-400000.0625
14.464993953704834,-400000.0625,-11484.0498046875,-743.1500244140625,-400000.0625,-8599.4296875,-400000.0625,-16852.48046875,-400000.0625
14.524760723114014,-400000.0625,-11493.919921875,-757.7899780273438,-400000.0625,-8599.849609375,-400000.0625,-16862.25,-400000.0625
14.59729528427124,-400000.0625,-11493.2998046875,-780.8699951171875,-400000.0625,-8582.2099609375,-400000.0625,-16842.650390625,-400000.0625
14.652660369873047,-400000.0625,-11513.66015625,-812.1500244140625,-400000.0625,-8586.9296875,-400000.0625,-16846.23046875,-400000.0625
14.760218381881714,-400000.0625,-11529.6904296875,-844.1900024414062,-400000.0625,-8596.1396484375,-400000.0625,-16861.5390625,-400000.0625
14.879055738449097,-400000.0625,-11629.919921875,-936.75,-400000.0625,-8610.2998046875,-400000.0625,-16890.2890625,-400000.0625
14.97780704498291,-400000.0625,-11637.5498046875,-930.02001953125,-400000.0625,-8579.58984375,-400000.0625,-17186.5,-400000.0625
15.040408372879028,-400000.0625,-11574.080078125,-893.6400146484375,-400000.0625,-8557.26953125,-400000.0625,-17144.779296875,-400000.0625
15.102294206619263,-400000.0625,-11567.16015625,-905.469970703125,-400000.0625,-8585.4501953125,-400000.0625,-17151.44921875,-400000.0625
15.177689790725708,-400000.0625,-11590.099609375,-939.8900146484375,-400000.0625,-8607.33984375,-400000.0625,-17159.369140625,-400000.0625
15.23365569114685,-400000.0625,-11599.6396484375,-974.27001953125,-400000.0625,-8603.0498046875,-400000.0625,-17147.830078125,-400000.0625
15.357299566268921,-400000.0625,-11622.759765625,-1043.699951171875,-400000.0625,-8595.6103515625,-400000.0625,-17151.9296875,-400000.0625
15.460476636886597,-400000.0625,-11648.9404296875,-1065.1099853515625,-400000.0625,-8612.349609375,-400000.0625,-17175.009765625,-400000.0625
15.520924806594849,-400000.0625,-11668.25,-1098.25,-400000.0625,-8615.1103515625,-400000.0625,-17180.490234375,-400000.0625
15.556393384933472,-400000.0625,-11660.4296875,-1110.27001953125,-400000.0625,-8603.1904296875,-400000.0625,-17166.0,-400000.0625
15.62381625175476,-400000.0625,-11685.23046875,-1137.969970703125,-400000.0625,-8596.990234375,-400000.0625,-17175.91015625,-400000.0625
15.677657842636108,-400000.0625,-11708.3095703125,-1184.030029296875,-400000.0625,-8602.51953125,-400000.0625,-17187.119140625,-400000.0625
15.740947723388672,-400000.0625,-11744.6904296875,-1213.1700439453125,-400000.0625,-8629.6103515625,-400000.0625,-17223.55078125,-400000.0625
15.872046709060669,-400000.0625,-11573.509765625,-1031.489990234375,-400000.0625,-8586.0302734375,-400000.0625,-17438.369140625,-400000.0625
15.932818412780762,-400000.0625,-11580.08984375,-1043.4599609375,-400000.0625,-8577.4404296875,-400000.0625,-17412.51953125,-400000.0625
16.0781888961792,-400000.0625,-11720.3701171875,-1248.68994140625,-400000.0625,-8614.9697265625,-400000.0625,-17319.970703125,-400000.0625
16.179237365722656,-400000.0625,-11723.6201171875,-1286.4100341796875,-400000.0625,-8603.099609375,-400000.0625,-17296.169921875,-400000.0625
16.23193645477295,-400000.0625,-11740.8798828125,-1296.1400146484375,-400000.0625,-8606.91015625,-400000.0625,-17310.099609375,-400000.0625
16.253865957260132,-400000.0625,-11787.3701171875,-1386.97998046875,-400000.0625,-8620.5,-400000.0625,-17235.759765625,-400000.0625
16.32181191444397,-400000.0625,-11839.8203125,-1441.530029296875,-400000.0625,-8645.1103515625,-400000.0625,-17254.830078125,-400000.0625
16.380969047546387,-400000.0625,-11836.580078125,-1442.9599609375,-400000.0625,-8645.919921875,-400000.0625,-17247.30078125,-400000.0625
16.545199871063232,-400000.0625,-11698.580078125,-1281.550048828125,-400000.0625,-8596.849609375,-400000.0625,-17443.23046875,-400000.0625
16.58806824684143,-400000.0625,-11719.2802734375,-1294.989990234375,-400000.0625,-8593.1298828125,-400000.0625,-17443.900390625,-400000.0625
16.63750386238098,-400000.0625,-11762.4296875,-1333.760009765625,-400000.0625,-8611.73046875,-400000.0625,-17466.880859375,-400000.0625
16.709580898284912,-400000.0625,-11774.01953125,-1354.27001953125,-400000.0625,-8613.0595703125,-400000.0625,-17466.58984375,-400000.0625
16.831515312194824,-400000.0625,-11796.08984375,-1391.93994140625,-400000.0625,-8603.1396484375,-400000.0625,-17471.359375,-400000.0625
16.933504104614258,-400000.0625,-11818.1201171875,-1416.25,-400000.0625,-8608.2900390625,-400000.0625,-17477.509765625,-400000.0625
17.028213500976562,-400000.0625,-11927.3203125,-1570.3199462890625,-400000.0625,-8644.6796875,-400000.0625,-17453.099609375,-400000.0625
17.088033199310303,-400000.0625,-12003.6103515625,-1703.31005859375,-400000.0625,-8666.1298828125,-400000.0625,-17369.369140625,-400000.0625
17.150497436523438,-400000.0625,-11982.8203125,-1701.739990234375,-400000.0625,-8647.1103515625,-400000.0625,-17325.9296875,-400000.0625
17.22966194152832,-400000.0625,-12019.4404296875,-1735.1600341796875,-400000.0625,-8679.9599609375,-400000.0625,-17354.919921875,-400000.0625
17.30683207511902,-400000.0625,-11993.3095703125,-1738.1700439453125,-400000.0625,-8652.16015625,-400000.0625,-17293.5,-400000.0625
17.34561800956726,-400000.0625,-12042.330078125,-1786.5699462890625,-400000.0625,-8691.83984375,-400000.0625,-17330.98046875,-400000.0625
17.434199571609497,-400000.0625,-12027.3603515625,-1777.6500244140625,-400000.0625,-8664.509765625,-400000.0625,-17346.380859375,-400000.0625
17.47211742401123,-400000.0625,-11970.66015625,-1744.56005859375,-400000.0625,-8655.41015625,-400000.0625,-17385.6796875,-400000.0625
17.533199787139893,-400000.0625,-11899.1904296875,-1625.300048828125,-400000.0625,-8631.7998046875,-400000.0625,-17513.75,-400000.0625
17.597948789596558,-400000.0625,-11915.5400390625,-1626.300048828125,-400000.0625,-8627.4599609375,-400000.0625,-17506.169921875,-400000.0625
17.69143509864807,-400000.0625,-11959.509765625,-1655.6700439453125,-400000.0625,-8630.75,-400000.0625,-17535.640625,-400000.0625
17.743752241134644,-400000.0625,-12486.8896484375,-1885.3199462890625,-400000.0625,-8516.2197265625,-400000.0625,-17729.189453125,-400000.0625
17.79253625869751,-400000.0625,-12416.509765625,-1924.6600341796875,-400000.0625,-8537.009765625,-400000.0625,-17705.630859375,-400000.0625
17.854419469833374,-400000.0625,-12188.25,-1856.3699951171875,-400000.0625,-8580.0703125,-400000.0625,-17586.759765625,-400000.0625
17.922406911849976,-400000.0625,-12075.6201171875,-1804.72998046875,-400000.0625,-8626.1298828125,-400000.0625,-17521.759765625,-400000.0625
18.092502117156982,-400000.0625,-12071.5595703125,-1850.1800537109375,-400000.0625,-8681.6796875,-400000.0625,-17500.44921875,-400000.0625
18.2419331073761,-400000.0625,-12137.26953125,-1992.800048828125,-400000.0625,-8697.26953125,-400000.0625,-17367.890625,-400000.0625
18.301172018051147,-400000.0625,-12151.580078125,-2013.489990234375,-400000.0625,-8695.3203125,-400000.0625,-17350.060546875,-400000.0625
18.421528100967407,-400000.0625,-12194.2998046875,-2049.06005859375,-400000.0625,-8713.5302734375,-400000.0625,-17380.4296875,-400000.0625
18.57655143737793,-400000.0625,-12189.6298828125,-2045.06005859375,-400000.0625,-8695.0302734375,-400000.0625,-17357.2109375,-400000.0625
timestamp,ch7,ch2,ch3,ch5,is_pause
18.63304567337036,-400000.0625,-12204.080078125,-2071.81005859375,-400000.0625,-8698.4599609375,-400000.0625,-17350.150390625,-400000.0625
18.654999256134033,-400000.0625,-12223.099609375,-2086.5,-400000.0625,-8718.830078125,-400000.0625,-17371.939453125,-400000.0625
18.67011857032776,-400000.0625,-12222.33984375,-2087.159912109375,-400000.0625,-8719.01953125,-400000.0625,-17369.419921875,-400000.0625
18.691198587417603,-400000.0625,-12204.740234375,-2077.6298828125,-400000.0625,-8703.1904296875,-400000.0625,-17352.060546875,-400000.0625
18.723621606826782,-400000.0625,-12194.1103515625,-2070.6201171875,-400000.0625,-8693.740234375,-400000.0625,-17337.369140625,-400000.0625
18.740461587905884,-400000.0625,-12208.3701171875,-2080.35009765625,-400000.0625,-8703.3798828125,-400000.0625,-17351.099609375,-400000.0625
18.75441074371338,-400000.0625,-12233.400390625,-2097.510009765625,-400000.0625,-8722.5,-400000.0625,-17374.94921875,-400000.0625
18.771771907806396,-400000.0625,-12230.830078125,-2097.080078125,-400000.0625,-8725.740234375,-400000.0625,-17372.08984375,-400000.0625
18.788269996643066,-400000.0625,-12203.8896484375,-2080.06005859375,-400000.0625,-8705.8095703125,-400000.0625,-17350.76953125,-400000.0625
18.801467895507812,-400000.0625,-12196.259765625,-2072.47998046875,-400000.0625,-8694.4599609375,-400000.0625,-17338.94921875,-400000.0625
18.827393293380737,-400000.0625,-12214.51953125,-2081.780029296875,-400000.0625,-8703.2802734375,-400000.0625,-17350.580078125,-400000.0625
18.849456787109375,-400000.0625,-12231.1103515625,-2094.699951171875,-400000.0625,-8716.0595703125,-400000.0625,-17370.66015625,-400000.0625
18.863324642181396,-400000.0625,-12229.2998046875,-2093.97998046875,-400000.0625,-8718.25,-400000.0625,-17369.3203125,-400000.0625
18.87572193145752,-400000.0625,-12207.9404296875,-2079.199951171875,-400000.0625,-8702.330078125,-400000.0625,-17349.48046875,-400000.0625
18.894801378250122,-400000.0625,-12194.01953125,-2070.6201171875,-400000.0625,-8688.5,-400000.0625,-17337.369140625,-400000.0625
18.90991759300232,-400000.0625,-12208.26953125,-2081.25,-400000.0625,-8701.1796875,-400000.0625,-17350.580078125,-400000.0625
18.944119215011597,-400000.0625,-12231.73046875,-2095.320068359375,-400000.0625,-8717.7802734375,-400000.0625,-17372.3203125,-400000.0625
18.963399410247803,-400000.0625,-12229.9697265625,-2093.409912109375,-400000.0625,-8714.8701171875,-400000.0625,-17371.939453125,-400000.0625
18.979337692260742,-400000.0625,-12211.509765625,-2080.5400390625,-400000.0625,-8698.4599609375,-400000.0625,-17350.009765625,-400000.0625
18.995356559753418,-400000.0625,-12194.830078125,-2070.239990234375,-400000.0625,-8687.830078125,-400000.0625,-17340.7109375,-400000.0625
19.011190176010132,-400000.0625,-12205.41015625,-2079.199951171875,-400000.0625,-8697.8896484375,-400000.0625,-17353.73046875,-400000.0625
19.04261350631714,-400000.0625,-12229.490234375,-2096.93994140625,-400000.0625,-8717.2998046875,-400000.0625,-17375.189453125,-400000.0625
19.05718231201172,-400000.0625,-12230.349609375,-2097.989990234375,-400000.0625,-8718.16015625,-400000.0625,-17373.609375,-400000.0625
19.074066400527954,-400000.0625,-12209.509765625,-2087.68994140625,-400000.0625,-8701.990234375,-400000.0625,-17351.19921875,-400000.0625
19.088310480117798,-400000.0625,-12199.98046875,-2081.969970703125,-400000.0625,-8691.169921875,-400000.0625,-17341.900390625,-400000.0625
19.102821588516235,-400000.0625,-12216.6201171875,-2090.60009765625,-400000.0625,-8701.3701171875,-400000.0625,-17353.580078125,-400000.0625
19.115550994873047,-400000.0625,-12236.9296875,-2104.760009765625,-400000.0625,-8720.259765625,-400000.0625,-17376.23046875,-400000.0625
19.145643711090088,-400000.0625,-12234.259765625,-2107.669921875,-400000.0625,-8721.0703125,-400000.0625,-17374.849609375,-400000.0625
19.164469003677368,-400000.0625,-12220.48046875,-2097.22998046875,-400000.0625,-8708.0,-400000.0625,-17352.869140625,-400000.0625
19.18299651145935,-400000.0625,-12209.080078125,-2088.739990234375,-400000.0625,-8696.75,-400000.0625,-17340.5703125,-400000.0625
19.198305130004883,-400000.0625,-12224.009765625,-2098.56005859375,-400000.0625,-8706.3798828125,-400000.0625,-17353.73046875,-400000.0625
19.21358609199524,-400000.0625,-12245.23046875,-2112.6298828125,-400000.0625,-8723.400390625,-400000.0625,-17375.810546875,-400000.0625
19.23079228401184,-400000.0625,-12239.4599609375,-2110.199951171875,-400000.0625,-8720.4501953125,-400000.0625,-17372.939453125,-400000.0625
19.263798236846924,-400000.0625,-12221.669921875,-2098.989990234375,-400000.0625,-8704.4697265625,-400000.0625,-17352.009765625,-400000.0625
19.283692121505737,-400000.0625,-12209.849609375,-2092.27001953125,-400000.0625,-8695.080078125,-400000.0625,-17340.5703125,-400000.0625
19.30125117301941,-400000.0625,-12223.009765625,-2101.760009765625,-400000.0625,-8706.8603515625,-400000.0625,-17358.01953125,-400000.0625
19.315054655075073,-400000.0625,-12248.9501953125,-2118.2099609375,-400000.0625,-8724.259765625,-400000.0625,-17376.619140625,-400000.0625
19.332436323165894,-400000.0625,-12248.9501953125,-2121.070068359375,-400000.0625,-8725.3603515625,-400000.0625,-17378.900390625,-400000.0625
19.37314534187317,-400000.0625,-12224.0595703125,-2105.090087890625,-400000.0625,-8710.33984375,-400000.0625,-17360.400390625,-400000.0625
19.391930103302002,-400000.0625,-12212.75,-2098.3701171875,-400000.0625,-8698.1796875,-400000.0625,-17346.720703125,-400000.0625
19.408590078353882,-400000.0625,-12232.9697265625,-2110.2900390625,-400000.0625,-8711.2900390625,-400000.0625,-17359.0703125,-400000.0625
19.424310207366943,-400000.0625,-12254.759765625,-2125.68994140625,-400000.0625,-8729.080078125,-400000.0625,-17381.859375,-400000.0625
19.44042944908142,-400000.0625,-12251.51953125,-2124.830078125,-400000.0625,-8724.740234375,-400000.0625,-17381.240234375,-400000.0625
19.484318256378174,-400000.0625,-12229.490234375,-2111.239990234375,-400000.0625,-8707.9501953125,-400000.0625,-17360.0703125,-400000.0625
