time,ch1,ch2,ch3,ch4,ch5,ch6,ch7,ch8
122.8918240070343,-400000.0625,-11174.0595703125,-3059.669921875,-400000.0625,-12484.0302734375,-400000.0625,2436.159912109375,-400000.0625
122.89840388298035,-400000.0625,-11113.0703125,-2997.110107421875,-400000.0625,-12419.3203125,-400000.0625,2499.489990234375,-400000.0625
122.90397429466248,-400000.0625,-11146.169921875,-3028.389892578125,-400000.0625,-12453.990234375,-400000.0625,2461.580078125,-400000.0625
122.9090416431427,-400000.0625,-11224.8896484375,-3112.75,-400000.0625,-12531.4296875,-400000.0625,2374.7900390625,-400000.0625
122.91483497619629,-400000.0625,-11238.669921875,-3127.3798828125,-400000.0625,-12544.7802734375,-400000.0625,2354.0,-400000.0625
122.92006492614746,-400000.0625,-11166.8095703125,-3053.6201171875,-400000.0625,-12487.75,-400000.0625,2432.300048828125,-400000.0625
122.92507863044739,-400000.0625,-11100.0595703125,-2990.47998046875,-400000.0625,-12425.8095703125,-400000.0625,2494.10009765625,-400000.0625
122.93118476867676,-400000.0625,-11137.4404296875,-3027.06005859375,-400000.0625,-12458.759765625,-400000.0625,2460.81005859375,-400000.0625
122.93698143959045,-400000.0625,-11228.0400390625,-3114.989990234375,-400000.0625,-12534.0,-400000.0625,2371.68994140625,-400000.0625
122.94207620620728,-400000.0625,-11246.009765625,-3130.8701171875,-400000.0625,-12549.4501953125,-400000.0625,2352.139892578125,-400000.0625
122.94845533370972,-400000.0625,-11170.3896484375,-3055.10009765625,-400000.0625,-12477.73046875,-400000.0625,2432.969970703125,-400000.0625
122.95325350761414,-400000.0625,-11107.2998046875,-2993.14990234375,-400000.0625,-12417.2197265625,-400000.0625,2494.3798828125,-400000.0625
122.95734477043152,-400000.0625,-11140.6298828125,-3027.25,-400000.0625,-12457.6103515625,-400000.0625,2457.2900390625,-400000.0625
122.96220350265503,-400000.0625,-11223.990234375,-3117.3701171875,-400000.0625,-12542.5400390625,-400000.0625,2373.360107421875,-400000.0625
122.96221470832825,-400000.0625,-11235.5703125,-3128.719970703125,-400000.0625,-12554.0302734375,-400000.0625,2354.0,-400000.0625
122.96221947669983,-400000.0625,-11167.91015625,-3059.43994140625,-400000.0625,-12483.5498046875,-400000.0625,2431.679931640625,-400000.0625
122.9622232913971,-400000.0625,-11115.83984375,-3000.070068359375,-400000.0625,-12422.849609375,-400000.0625,2489.85009765625,-400000.0625
122.96222734451294,-400000.0625,-11151.1201171875,-3032.969970703125,-400000.0625,-12455.419921875,-400000.0625,2454.81005859375,-400000.0625
122.96223092079163,-400000.0625,-11220.740234375,-3109.64990234375,-400000.0625,-12531.8095703125,-400000.0625,2377.699951171875,-400000.0625
122.96223497390747,-400000.0625,-11239.8203125,-3130.77001953125,-400000.0625,-12551.5,-400000.0625,2355.669921875,-400000.0625
122.96223855018616,-400000.0625,-11170.9599609375,-3058.2900390625,-400000.0625,-12478.1103515625,-400000.0625,2430.919921875,-400000.0625
122.962242603302,-400000.0625,-11109.8798828125,-2991.010009765625,-400000.0625,-12427.5703125,-400000.0625,2490.330078125,-400000.0625
122.96224665641785,-400000.0625,-11145.349609375,-3033.590087890625,-400000.0625,-12464.6201171875,-400000.0625,2454.7099609375,-400000.0625
122.96225118637085,-400000.0625,-11222.1298828125,-3116.419921875,-400000.0625,-12541.25,-400000.0625,2369.97998046875,-400000.0625
122.96225547790527,-400000.0625,-11236.7197265625,-3130.050048828125,-400000.0625,-12555.7900390625,-400000.0625,2352.949951171875,-400000.0625
122.96226024627686,-400000.0625,-11164.7099609375,-3051.22998046875,-400000.0625,-12474.400390625,-400000.0625,2434.780029296875,-400000.0625
122.96226406097412,-400000.0625,-11109.400390625,-2992.9599609375,-400000.0625,-12415.7001953125,-400000.0625,2498.8701171875,-400000.0625
122.96226787567139,-400000.0625,-11146.830078125,-3036.02001953125,-400000.0625,-12458.419921875,-400000.0625,2458.139892578125,-400000.0625
122.96227216720581,-400000.0625,-11224.8896484375,-3115.75,-400000.0625,-12539.76953125,-400000.0625,2373.60009765625,-400000.0625
122.96227645874023,-400000.0625,-11241.4404296875,-3132.580078125,-400000.0625,-12562.849609375,-400000.0625,2355.18994140625,-400000.0625
122.96228003501892,-400000.0625,-11164.669921875,-3055.570068359375,-400000.0625,-12484.599609375,-400000.0625,2434.35009765625,-400000.0625
122.96228408813477,-400000.0625,-11109.9296875,-2994.389892578125,-400000.0625,-12421.9404296875,-400000.0625,2497.050048828125,-400000.0625
122.96228766441345,-400000.0625,-11148.5,-3032.02001953125,-400000.0625,-12457.51953125,-400000.0625,2461.10009765625,-400000.0625
122.96229600906372,-400000.0625,-11224.41015625,-3112.60009765625,-400000.0625,-12538.3896484375,-400000.0625,2374.030029296875,-400000.0625
122.96230006217957,-400000.0625,-11238.0498046875,-3131.719970703125,-400000.0625,-12549.1201171875,-400000.0625,2355.14990234375,-400000.0625
122.96230363845825,-400000.0625,-11167.7197265625,-3055.81005859375,-400000.0625,-12466.48046875,-400000.0625,2431.199951171875,-400000.0625
122.96230745315552,-400000.0625,-11110.740234375,-2993.6298828125,-400000.0625,-12421.66015625,-400000.0625,2497.199951171875,-400000.0625
122.96231126785278,-400000.0625,-11150.5498046875,-3033.300048828125,-400000.0625,-12463.7099609375,-400000.0625,2459.3798828125,-400000.0625
122.96231532096863,-400000.0625,-11230.0400390625,-3114.989990234375,-400000.0625,-12543.009765625,-400000.0625,2370.169921875,-400000.0625
122.96231937408447,-400000.0625,-11241.490234375,-3129.909912109375,-400000.0625,-12556.8896484375,-400000.0625,2355.47998046875,-400000.0625
122.96232295036316,-400000.0625,-11168.2900390625,-3056.81005859375,-400000.0625,-12477.6396484375,-400000.0625,2432.780029296875,-400000.0625
122.962327003479,-400000.0625,-11115.1201171875,-2999.35009765625,-400000.0625,-12421.2802734375,-400000.0625,2493.050048828125,-400000.0625
122.96233129501343,-400000.0625,-11151.7900390625,-3038.31005859375,-400000.0625,-12461.9501953125,-400000.0625,2458.0,-400000.0625
122.96233487129211,-400000.0625,-11230.2802734375,-3119.659912109375,-400000.0625,-12537.5302734375,-400000.0625,2364.35009765625,-400000.0625
122.96233892440796,-400000.0625,-11250.58984375,-3135.6298828125,-400000.0625,-12553.3095703125,-400000.0625,2347.7099609375,-400000.0625
122.9623429775238,-400000.0625,-11171.8701171875,-3059.10009765625,-400000.0625,-12484.0302734375,-400000.0625,2428.2900390625,-400000.0625
122.96234655380249,-400000.0625,-11108.349609375,-2995.110107421875,-400000.0625,-12423.4697265625,-400000.0625,2492.139892578125,-400000.0625
122.96247053146362,-400000.0625,-11156.6103515625,-3039.4599609375,-400000.0625,-12463.4296875,-400000.0625,2451.56005859375,-400000.0625
122.96845579147339,-400000.0625,-11237.1904296875,-3121.610107421875,-400000.0625,-12541.580078125,-400000.0625,2367.929931640625,-400000.0625
122.97365212440491,-400000.0625,-11248.400390625,-3136.489990234375,-400000.0625,-12553.0302734375,-400000.0625,2350.7099609375,-400000.0625
122.97943425178528,-400000.0625,-11176.5400390625,-3062.820068359375,-400000.0625,-12487.0302734375,-400000.0625,2432.06005859375,-400000.0625
122.98455905914307,-400000.0625,-11117.1298828125,-3002.1201171875,-400000.0625,-12433.6298828125,-400000.0625,2491.050048828125,-400000.0625
122.9895031452179,-400000.0625,-11159.51953125,-3042.97998046875,-400000.0625,-12472.9599609375,-400000.0625,2454.0400390625,-400000.0625
122.98951148986816,-400000.0625,-11240.3896484375,-3127.860107421875,-400000.0625,-12548.8798828125,-400000.0625,2368.1201171875,-400000.0625
122.98951578140259,-400000.0625,-11248.919921875,-3137.780029296875,-400000.0625,-12553.41015625,-400000.0625,2352.139892578125,-400000.0625
122.98951983451843,-400000.0625,-11177.259765625,-3064.300048828125,-400000.0625,-12481.6396484375,-400000.0625,2433.969970703125,-400000.0625
122.9895236492157,-400000.0625,-11116.3203125,-2999.969970703125,-400000.0625,-12422.900390625,-400000.0625,2496.050048828125,-400000.0625
122.98952746391296,-400000.0625,-11151.26953125,-3032.969970703125,-400000.0625,-12455.7998046875,-400000.0625,2453.22998046875,-400000.0625
122.98953151702881,-400000.0625,-11235.669921875,-3122.85009765625,-400000.0625,-12545.7802734375,-400000.0625,2369.8798828125,-400000.0625
122.98953533172607,-400000.0625,-11246.58984375,-3134.300048828125,-400000.0625,-12558.599609375,-400000.0625,2355.18994140625,-400000.0625
122.98953938484192,-400000.0625,-11166.6201171875,-3057.429931640625,-400000.0625,-12483.3095703125,-400000.0625,2432.489990234375,-400000.0625
122.98954367637634,-400000.0625,-11114.9296875,-2999.5400390625,-400000.0625,-12423.759765625,-400000.0625,2497.239990234375,-400000.0625
122.98954749107361,-400000.0625,-11154.1298828125,-3038.219970703125,-400000.0625,-12463.9501953125,-400000.0625,2453.610107421875,-400000.0625
122.98955130577087,-400000.0625,-11234.240234375,-3119.330078125,-400000.0625,-12543.580078125,-400000.0625,2367.39990234375,-400000.0625
122.9895555973053,-400000.0625,-11246.9697265625,-3138.780029296875,-400000.0625,-12558.5595703125,-400000.0625,2348.949951171875,-400000.0625
122.98956036567688,-400000.0625,-11176.0595703125,-3063.06005859375,-400000.0625,-12485.5498046875,-400000.0625,2425.9599609375,-400000.0625
123.00095510482788,-400000.0625,-11120.6103515625,-3003.409912109375,-400000.0625,-12433.240234375,-400000.0625,2490.7099609375,-400000.0625
123.00608086585999,-400000.0625,-11159.23046875,-3043.1298828125,-400000.0625,-12465.6201171875,-400000.0625,2447.840087890625,-400000.0625
123.01074123382568,-400000.0625,-11233.1396484375,-3120.469970703125,-400000.0625,-12539.91015625,-400000.0625,2360.14990234375,-400000.0625
123.01074862480164,-400000.0625,-11246.58984375,-3133.35009765625,-400000.0625,-12550.4501953125,-400000.0625,2351.429931640625,-400000.0625
123.01075291633606,-400000.0625,-11175.349609375,-3054.949951171875,-400000.0625,-12470.7197265625,-400000.0625,2431.580078125,-400000.0625
123.01075673103333,-400000.0625,-11120.650390625,-2997.590087890625,-400000.0625,-12416.4599609375,-400000.0625,2493.429931640625,-400000.0625
123.01076054573059,-400000.0625,-11156.4599609375,-3040.929931640625,-400000.0625,-12463.1396484375,-400000.0625,2448.64990234375,-400000.0625
123.01076459884644,-400000.0625,-11236.0498046875,-3122.3798828125,-400000.0625,-12552.0703125,-400000.0625,2362.389892578125,-400000.0625
123.01076817512512,-400000.0625,-11250.349609375,-3137.969970703125,-400000.0625,-12562.6103515625,-400000.0625,2347.179931640625,-400000.0625
123.01077175140381,-400000.0625,-11173.1103515625,-3058.050048828125,-400000.0625,-12482.3095703125,-400000.0625,2426.050048828125,-400000.0625
123.0107753276825,-400000.0625,-11111.98046875,-2995.159912109375,-400000.0625,-12420.509765625,-400000.0625,2493.050048828125,-400000.0625
123.0107810497284,-400000.0625,-11156.3701171875,-3040.739990234375,-400000.0625,-12455.9404296875,-400000.0625,2450.510009765625,-400000.0625
123.01078486442566,-400000.0625,-11235.099609375,-3120.469970703125,-400000.0625,-12536.240234375,-400000.0625,2368.969970703125,-400000.0625
123.01078844070435,-400000.0625,-11242.009765625,-3131.2900390625,-400000.0625,-12545.8701171875,-400000.0625,2348.469970703125,-400000.0625
123.01079249382019,-400000.0625,-11173.5400390625,-3057.47998046875,-400000.0625,-12477.5400390625,-400000.0625,2431.300048828125,-400000.0625
123.0107958316803,-400000.0625,-11113.7900390625,-2998.8798828125,-400000.0625,-12428.669921875,-400000.0625,2497.239990234375,-400000.0625
123.06106948852539,-400000.0625,-11151.26953125,-3037.639892578125,-400000.0625,-12464.91015625,-400000.0625,2453.610107421875,-400000.0625
123.0708339214325,-400000.0625,-11233.9501953125,-3119.52001953125,-400000.0625,-12545.2998046875,-400000.0625,2362.43994140625,-400000.0625
123.07564043998718,-400000.0625,-11249.7802734375,-3138.260009765625,-400000.0625,-12558.990234375,-400000.0625,2352.669921875,-400000.0625
123.07564878463745,-400000.0625,-11174.6796875,-3059.239990234375,-400000.0625,-12488.080078125,-400000.0625,2430.489990234375,-400000.0625
123.07565307617188,-400000.0625,-11115.41015625,-2996.639892578125,-400000.0625,-12425.2802734375,-400000.0625,2490.89990234375,-400000.0625
123.0756573677063,-400000.0625,-11151.599609375,-3034.39990234375,-400000.0625,-12455.080078125,-400000.0625,2449.469970703125,-400000.0625
123.07566118240356,-400000.0625,-11231.9501953125,-3118.800048828125,-400000.0625,-12542.150390625,-400000.0625,2367.449951171875,-400000.0625
123.07566499710083,-400000.0625,-11246.8701171875,-3132.919921875,-400000.0625,-12557.599609375,-400000.0625,2357.389892578125,-400000.0625
123.07566928863525,-400000.0625,-11166.5703125,-3052.570068359375,-400000.0625,-12477.830078125,-400000.0625,2434.72998046875,-400000.0625
123.07567286491394,-400000.0625,-11105.7802734375,-2992.9599609375,-400000.0625,-12420.849609375,-400000.0625,2496.860107421875,-400000.0625
123.07567691802979,-400000.0625,-11147.1201171875,-3034.8798828125,-400000.0625,-12459.3701171875,-400000.0625,2458.52001953125,-400000.0625
123.07568168640137,-400000.0625,-11225.650390625,-3116.080078125,-400000.0625,-12539.009765625,-400000.0625,2376.800048828125,-400000.0625
123.07568526268005,-400000.0625,-11240.8701171875,-3131.10009765625,-400000.0625,-12551.98046875,-400000.0625,2362.489990234375,-400000.0625
123.07568883895874,-400000.0625,-11168.8203125,-3053.469970703125,-400000.0625,-12470.2001953125,-400000.0625,2440.5,-400000.0625
123.075692653656,-400000.0625,-11106.58984375,-2988.239990234375,-400000.0625,-12415.9404296875,-400000.0625,2501.8701171875,-400000.0625
123.07569670677185,-400000.0625,-11150.4599609375,-3034.780029296875,-400000.0625,-12471.6298828125,-400000.0625,2453.949951171875,-400000.0625
123.16356921195984,-400000.0625,-11231.3798828125,-3121.22998046875,-400000.0625,-12549.16015625,-400000.0625,2369.929931640625,-400000.0625
123.17485117912292,-400000.0625,-11247.16015625,-3136.35009765625,-400000.0625,-12555.650390625,-400000.0625,2354.81005859375,-400000.0625
123.17984819412231,-400000.0625,-11166.4296875,-3049.85009765625,-400000.0625,-12476.16015625,-400000.0625,2434.830078125,-400000.0625
123.17986035346985,-400000.0625,-11106.01953125,-2989.010009765625,-400000.0625,-12419.0302734375,-400000.0625,2496.389892578125,-400000.0625
123.18574047088623,-400000.0625,-11153.9404296875,-3035.830078125,-400000.0625,-12460.4697265625,-400000.0625,2457.52001953125,-400000.0625
123.19087433815002,-400000.0625,-11232.759765625,-3117.320068359375,-400000.0625,-12533.759765625,-400000.0625,2370.169921875,-400000.0625
123.1970157623291,-400000.0625,-11241.7197265625,-3131.2900390625,-400000.0625,-12553.8798828125,-400000.0625,2353.570068359375,-400000.0625
123.20222234725952,-400000.0625,-11163.1904296875,-3052.85009765625,-400000.0625,-12484.5498046875,-400000.0625,2434.300048828125,-400000.0625
123.20719051361084,-400000.0625,-11105.73046875,-2989.820068359375,-400000.0625,-12422.1298828125,-400000.0625,2493.909912109375,-400000.0625
123.20719933509827,-400000.0625,-11149.259765625,-3036.1201171875,-400000.0625,-12462.240234375,-400000.0625,2450.989990234375,-400000.0625
123.20720386505127,-400000.0625,-11228.75,-3117.0400390625,-400000.0625,-12538.580078125,-400000.0625,2368.8798828125,-400000.0625
123.20720839500427,-400000.0625,-11240.099609375,-3127.18994140625,-400000.0625,-12549.6396484375,-400000.0625,2354.10009765625,-400000.0625
123.20721244812012,-400000.0625,-11165.240234375,-3051.330078125,-400000.0625,-12477.6904296875,-400000.0625,2426.820068359375,-400000.0625
123.2072160243988,-400000.0625,-11110.830078125,-2991.9599609375,-400000.0625,-12417.41015625,-400000.0625,2491.570068359375,-400000.0625
123.20722007751465,-400000.0625,-11154.9404296875,-3037.169921875,-400000.0625,-12459.849609375,-400000.0625,2447.93994140625,-400000.0625
123.2072241306305,-400000.0625,-11237.9599609375,-3124.669921875,-400000.0625,-12543.2001953125,-400000.0625,2362.679931640625,-400000.0625
123.20722818374634,-400000.0625,-11240.669921875,-3131.820068359375,-400000.0625,-12550.259765625,-400000.0625,2351.570068359375,-400000.0625
123.21207761764526,-400000.0625,-11172.3896484375,-3058.429931640625,-400000.0625,-12478.7802734375,-400000.0625,2430.340087890625,-400000.0625
123.21208810806274,-400000.0625,-11111.6396484375,-2996.489990234375,-400000.0625,-12423.759765625,-400000.0625,2486.280029296875,-400000.0625
123.21209216117859,-400000.0625,-11154.8896484375,-3038.64990234375,-400000.0625,-12466.150390625,-400000.0625,2447.510009765625,-400000.0625
123.21209621429443,-400000.0625,-11234.330078125,-3122.18994140625,-400000.0625,-12546.0595703125,-400000.0625,2364.8701171875,-400000.0625
123.21210026741028,-400000.0625,-11247.6796875,-3135.72998046875,-400000.0625,-12557.4599609375,-400000.0625,2352.429931640625,-400000.0625
123.21210384368896,-400000.0625,-11171.2001953125,-3058.669921875,-400000.0625,-12481.6396484375,-400000.0625,2425.81005859375,-400000.0625
123.21210837364197,-400000.0625,-11113.169921875,-2998.449951171875,-400000.0625,-12421.23046875,-400000.0625,2487.85009765625,-400000.0625
123.21211242675781,-400000.0625,-11156.7001953125,-3040.169921875,-400000.0625,-12457.849609375,-400000.0625,2447.1298828125,-400000.0625
123.21211647987366,-400000.0625,-11230.66015625,-3119.7099609375,-400000.0625,-12534.1904296875,-400000.0625,2364.300048828125,-400000.0625
123.2121205329895,-400000.0625,-11244.9697265625,-3136.489990234375,-400000.0625,-12552.2197265625,-400000.0625,2352.669921875,-400000.0625
123.2121250629425,-400000.0625,-11174.3896484375,-3063.110107421875,-400000.0625,-12486.7900390625,-400000.0625,2425.81005859375,-400000.0625
123.21212911605835,-400000.0625,-11119.509765625,-3001.639892578125,-400000.0625,-12425.759765625,-400000.0625,2485.1298828125,-400000.0625
123.2121331691742,-400000.0625,-11173.8203125,-3048.75,-400000.0625,-12466.6201171875,-400000.0625,2435.8798828125,-400000.0625
123.21213698387146,-400000.0625,-11258.7001953125,-3135.5400390625,-400000.0625,-12548.5400390625,-400000.0625,2350.139892578125,-400000.0625
123.21214175224304,-400000.0625,-11267.1396484375,-3145.27001953125,-400000.0625,-12553.259765625,-400000.0625,2341.56005859375,-400000.0625
123.25396084785461,-400000.0625,-11195.759765625,-3072.260009765625,-400000.0625,-12467.76953125,-400000.0625,2421.7099609375,-400000.0625
123.25934886932373,-400000.0625,-11145.6904296875,-3017.330078125,-400000.0625,-12406.400390625,-400000.0625,2481.840087890625,-400000.0625
123.26423788070679,-400000.0625,-11191.849609375,-3063.010009765625,-400000.0625,-12448.7900390625,-400000.0625,2436.5400390625,-400000.0625
123.2682569026947,-400000.0625,-11280.6796875,-3151.1298828125,-400000.0625,-12531.3798828125,-400000.0625,2345.7099609375,-400000.0625
123.27314329147339,-400000.0625,-11306.3798828125,-3171.300048828125,-400000.0625,-12544.73046875,-400000.0625,2325.72998046875,-400000.0625
123.2731511592865,-400000.0625,-11240.099609375,-3100.919921875,-400000.0625,-12461.5703125,-400000.0625,2399.300048828125,-400000.0625
123.27315545082092,-400000.0625,-11196.1396484375,-3050.330078125,-400000.0625,-12409.16015625,-400000.0625,2454.85009765625,-400000.0625
123.27315926551819,-400000.0625,-11252.2099609375,-3099.72998046875,-400000.0625,-12457.1298828125,-400000.0625,2405.2099609375,-400000.0625
123.27316355705261,-400000.0625,-11338.66015625,-3187.280029296875,-400000.0625,-12525.509765625,-400000.0625,2315.81005859375,-400000.0625
123.27316737174988,-400000.0625,-11355.740234375,-3203.110107421875,-400000.0625,-12534.669921875,-400000.0625,2304.4599609375,-400000.0625
123.27317094802856,-400000.0625,-11287.1201171875,-3124.090087890625,-400000.0625,-12460.66015625,-400000.0625,2380.280029296875,-400000.0625
123.27317476272583,-400000.0625,-11236.8603515625,-3070.02001953125,-400000.0625,-12401.6298828125,-400000.0625,2433.6298828125,-400000.0625
123.2731785774231,-400000.0625,-11290.3095703125,-3122.85009765625,-400000.0625,-12446.3603515625,-400000.0625,2387.570068359375,-400000.0625
123.27318215370178,-400000.0625,-11371.330078125,-3203.389892578125,-400000.0625,-12523.509765625,-400000.0625,2303.60009765625,-400000.0625
123.27318572998047,-400000.0625,-11391.16015625,-3219.080078125,-400000.0625,-12534.4296875,-400000.0625,2289.43994140625,-400000.0625
123.27318906784058,-400000.0625,-11323.7900390625,-3149.409912109375,-400000.0625,-12464.669921875,-400000.0625,2365.02001953125,-400000.0625
123.32229375839233,-400000.0625,-11265.5703125,-3090.239990234375,-400000.0625,-12403.2998046875,-400000.0625,2424.669921875,-400000.0625
123.32772254943848,-400000.0625,-11306.6201171875,-3133.110107421875,-400000.0625,-12451.1298828125,-400000.0625,2383.419921875,-400000.0625
123.33278942108154,-400000.0625,-11383.8701171875,-3210.739990234375,-400000.0625,-12529.5703125,-400000.0625,2303.550048828125,-400000.0625
123.33789777755737,-400000.0625,-11390.259765625,-3215.219970703125,-400000.0625,-12535.1904296875,-400000.0625,2291.35009765625,-400000.0625
123.3428361415863,-400000.0625,-11316.6796875,-3141.97998046875,-400000.0625,-12460.2802734375,-400000.0625,2369.260009765625,-400000.0625
123.34284377098083,-400000.0625,-11259.599609375,-3082.989990234375,-400000.0625,-12407.6396484375,-400000.0625,2421.570068359375,-400000.0625
123.34284853935242,-400000.0625,-11298.849609375,-3123.949951171875,-400000.0625,-12449.5498046875,-400000.0625,2382.85009765625,-400000.0625
123.34285235404968,-400000.0625,-11377.1904296875,-3207.8701171875,-400000.0625,-12525.509765625,-400000.0625,2302.5,-400000.0625
123.34285616874695,-400000.0625,-11386.58984375,-3216.840087890625,-400000.0625,-12530.51953125,-400000.0625,2290.43994140625,-400000.0625
123.34285998344421,-400000.0625,-11315.3896484375,-3140.780029296875,-400000.0625,-12462.7099609375,-400000.0625,2373.030029296875,-400000.0625
123.3428635597229,-400000.0625,-11259.080078125,-3082.419921875,-400000.0625,-12413.83984375,-400000.0625,2432.6298828125,-400000.0625
123.34286737442017,-400000.0625,-11301.759765625,-3128.820068359375,-400000.0625,-12455.8896484375,-400000.0625,2383.52001953125,-400000.0625
123.34287071228027,-400000.0625,-11380.240234375,-3210.639892578125,-400000.0625,-12529.990234375,-400000.0625,2303.550048828125,-400000.0625
123.3428750038147,-400000.0625,-11387.4404296875,-3217.75,-400000.0625,-12535.91015625,-400000.0625,2290.43994140625,-400000.0625
123.34287810325623,-400000.0625,-11312.9599609375,-3139.68994140625,-400000.0625,-12466.669921875,-400000.0625,2372.27001953125,-400000.0625
123.34288144111633,-400000.0625,-11256.3095703125,-3080.699951171875,-400000.0625,-12411.7900390625,-400000.0625,2431.820068359375,-400000.0625
123.38966155052185,-400000.0625,-11297.23046875,-3121.659912109375,-400000.0625,-12449.7900390625,-400000.0625,2394.6298828125,-400000.0625
123.40128517150879,-400000.0625,-11383.33984375,-3210.260009765625,-400000.0625,-12531.330078125,-400000.0625,2309.1298828125,-400000.0625
123.40642166137695,-400000.0625,-11397.5498046875,-3224.7099609375,-400000.0625,-12546.25,-400000.0625,2293.590087890625,-400000.0625
123.41162586212158,-400000.0625,-11325.3095703125,-3145.550048828125,-400000.0625,-12474.16015625,-400000.0625,2369.070068359375,-400000.0625
123.41707038879395,-400000.0625,-11268.0,-3082.56005859375,-400000.0625,-12411.98046875,-400000.0625,2433.35009765625,-400000.0625
123.42232370376587,-400000.0625,-11301.51953125,-3123.330078125,-400000.0625,-12450.740234375,-400000.0625,2392.580078125,-400000.0625
123.42767119407654,-400000.0625,-11377.76953125,-3210.5,-400000.0625,-12527.2802734375,-400000.0625,2308.3701171875,-400000.0625
123.43286633491516,-400000.0625,-11390.58984375,-3222.280029296875,-400000.0625,-12536.5703125,-400000.0625,2296.830078125,-400000.0625
123.43767237663269,-400000.0625,-11324.41015625,-3150.56005859375,-400000.0625,-12464.1396484375,-400000.0625,2377.179931640625,-400000.0625
123.43768000602722,-400000.0625,-11273.580078125,-3094.14990234375,-400000.0625,-12410.1201171875,-400000.0625,2438.39990234375,-400000.0625
123.43768405914307,-400000.0625,-11320.3095703125,-3139.110107421875,-400000.0625,-12448.5,-400000.0625,2397.199951171875,-400000.0625
123.43768954277039,-400000.0625,-11394.650390625,-3222.659912109375,-400000.0625,-12527.419921875,-400000.0625,2308.699951171875,-400000.0625
123.43769335746765,-400000.0625,-11406.0400390625,-3234.2900390625,-400000.0625,-12546.5400390625,-400000.0625,2295.830078125,-400000.0625
123.43769860267639,-400000.0625,-11341.3798828125,-3164.2900390625,-400000.0625,-12474.6796875,-400000.0625,2381.0400390625,-400000.0625
123.43770217895508,-400000.0625,-11283.2998046875,-3108.1201171875,-400000.0625,-12412.8798828125,-400000.0625,2446.699951171875,-400000.0625
123.43770575523376,-400000.0625,-11327.599609375,-3155.7099609375,-400000.0625,-12455.75,-400000.0625,2401.5,-400000.0625
123.45075535774231,-400000.0625,-11406.849609375,-3236.14990234375,-400000.0625,-12540.2001953125,-400000.0625,2311.989990234375,-400000.0625
123.45708751678467,-400000.0625,-11413.8603515625,-3246.1201171875,-400000.0625,-12548.9697265625,-400000.0625,2304.030029296875,-400000.0625
123.46236276626587,-400000.0625,-11333.1796875,-3167.489990234375,-400000.0625,-12470.3896484375,-400000.0625,2391.9599609375,-400000.0625
123.4678463935852,-400000.0625,-11275.9599609375,-3107.739990234375,-400000.0625,-12414.7001953125,-400000.0625,2450.85009765625,-400000.0625
123.47290539741516,-400000.0625,-11323.6904296875,-3154.659912109375,-400000.0625,-12453.75,-400000.0625,2401.639892578125,-400000.0625
123.47800540924072,-400000.0625,-11411.3798828125,-3242.5400390625,-400000.0625,-12534.4296875,-400000.0625,2317.7099609375,-400000.0625
123.48437023162842,-400000.0625,-11416.48046875,-3250.409912109375,-400000.0625,-12547.2099609375,-400000.0625,2307.699951171875,-400000.0625
123.48981809616089,-400000.0625,-11333.509765625,-3165.820068359375,-400000.0625,-12466.669921875,-400000.0625,2393.06005859375,-400000.0625
123.50002932548523,-400000.0625,-11285.9697265625,-3110.889892578125,-400000.0625,-12406.16015625,-400000.0625,2451.56005859375,-400000.0625
123.50545358657837,-400000.0625,-11329.41015625,-3156.280029296875,-400000.0625,-12457.419921875,-400000.0625,2402.260009765625,-400000.0625
123.51039361953735,-400000.0625,-11404.7998046875,-3238.6298828125,-400000.0625,-12540.6796875,-400000.0625,2317.6201171875,-400000.0625
123.51040172576904,-400000.0625,-11414.7197265625,-3247.929931640625,-400000.0625,-12547.490234375,-400000.0625,2304.27001953125,-400000.0625
123.51040601730347,-400000.0625,-11336.23046875,-3164.239990234375,-400000.0625,-12464.8603515625,-400000.0625,2388.050048828125,-400000.0625
123.51040983200073,-400000.0625,-11280.009765625,-3107.02001953125,-400000.0625,-12408.3095703125,-400000.0625,2453.419921875,-400000.0625
123.51041626930237,-400000.0625,-11327.1201171875,-3156.949951171875,-400000.0625,-12452.83984375,-400000.0625,2406.68994140625,-400000.0625
123.51042008399963,-400000.0625,-11408.7099609375,-3240.199951171875,-400000.0625,-12533.5703125,-400000.0625,2314.22998046875,-400000.0625
123.51218867301941,-400000.0625,-11416.009765625,-3247.7900390625,-400000.0625,-12544.1103515625,-400000.0625,2306.409912109375,-400000.0625
123.5179717540741,-400000.0625,-11338.0,-3165.77001953125,-400000.0625,-12467.669921875,-400000.0625,2389.77001953125,-400000.0625
123.52296996116638,-400000.0625,-11278.150390625,-3104.72998046875,-400000.0625,-12410.3603515625,-400000.0625,2453.330078125,-400000.0625
123.52297949790955,-400000.0625,-11323.3095703125,-3155.179931640625,-400000.0625,-12460.900390625,-400000.0625,2398.06005859375,-400000.0625
123.52847576141357,-400000.0625,-11407.6201171875,-3243.110107421875,-400000.0625,-12542.4404296875,-400000.0625,2314.3798828125,-400000.0625
123.53401732444763,-400000.0625,-11421.2001953125,-3251.64990234375,-400000.0625,-12543.8701171875,-400000.0625,2307.989990234375,-400000.0625
123.53896427154541,-400000.0625,-11338.0400390625,-3161.719970703125,-400000.0625,-12458.3701171875,-400000.0625,2393.6298828125,-400000.0625
123.53897309303284,-400000.0625,-11276.009765625,-3100.679931640625,-400000.0625,-12400.490234375,-400000.0625,2452.469970703125,-400000.0625
123.53897738456726,-400000.0625,-11326.3095703125,-3151.0400390625,-400000.0625,-12451.83984375,-400000.0625,2401.919921875,-400000.0625
123.53898167610168,-400000.0625,-11407.419921875,-3235.2900390625,-400000.0625,-12543.0595703125,-400000.0625,2313.090087890625,-400000.0625
123.53898525238037,-400000.0625,-11415.9599609375,-3243.159912109375,-400000.0625,-12547.6904296875,-400000.0625,2303.409912109375,-400000.0625
123.53898906707764,-400000.0625,-11330.8896484375,-3156.18994140625,-400000.0625,-12463.0,-400000.0625,2387.949951171875,-400000.0625
123.5389928817749,-400000.0625,-11276.8203125,-3098.300048828125,-400000.0625,-12408.349609375,-400000.0625,2445.030029296875,-400000.0625
123.53899621963501,-400000.0625,-11321.7802734375,-3143.8798828125,-400000.0625,-12453.3203125,-400000.0625,2396.300048828125,-400000.0625
123.53900003433228,-400000.0625,-11401.0302734375,-3227.429931640625,-400000.0625,-12533.0498046875,-400000.0625,2314.52001953125,-400000.0625
123.53900361061096,-400000.0625,-11411.1904296875,-3236.8701171875,-400000.0625,-12536.5703125,-400000.0625,2306.409912109375,-400000.0625
123.59215569496155,-400000.0625,-11327.3603515625,-3152.22998046875,-400000.0625,-12457.5595703125,-400000.0625,2388.860107421875,-400000.0625
123.6027569770813,-400000.0625,-11267.0400390625,-3093.340087890625,-400000.0625,-12405.5400390625,-400000.0625,2449.56005859375,-400000.0625
123.6080002784729,-400000.0625,-11321.830078125,-3145.409912109375,-400000.0625,-12456.990234375,-400000.0625,2401.300048828125,-400000.0625
123.61289930343628,-400000.0625,-11404.2802734375,-3233.530029296875,-400000.0625,-12532.8603515625,-400000.0625,2315.81005859375,-400000.0625
123.61290645599365,-400000.0625,-11407.1396484375,-3235.530029296875,-400000.0625,-12538.150390625,-400000.0625,2306.93994140625,-400000.0625
123.6129105091095,-400000.0625,-11320.9296875,-3149.27001953125,-400000.0625,-12461.3798828125,-400000.0625,2394.389892578125,-400000.0625
123.61291432380676,-400000.0625,-11269.9501953125,-3095.530029296875,-400000.0625,-12408.9697265625,-400000.0625,2450.280029296875,-400000.0625
123.61291790008545,-400000.0625,-11318.349609375,-3147.219970703125,-400000.0625,-12456.509765625,-400000.0625,2396.919921875,-400000.0625
123.6129219532013,-400000.0625,-11398.9404296875,-3227.429931640625,-400000.0625,-12523.83984375,-400000.0625,2308.0400390625,-400000.0625
123.61292600631714,-400000.0625,-11405.990234375,-3233.0,-400000.0625,-12530.8095703125,-400000.0625,2302.7900390625,-400000.0625
123.61292958259583,-400000.0625,-11328.26953125,-3153.85009765625,-400000.0625,-12463.0498046875,-400000.0625,2390.909912109375,-400000.0625
123.61293315887451,-400000.0625,-11271.5302734375,-3097.389892578125,-400000.0625,-12408.58984375,-400000.0625,2449.320068359375,-400000.0625
123.61293697357178,-400000.0625,-11320.8798828125,-3145.219970703125,-400000.0625,-12452.9404296875,-400000.0625,2401.5,-400000.0625
123.61294054985046,-400000.0625,-11409.240234375,-3230.3798828125,-400000.0625,-12537.0,-400000.0625,2313.139892578125,-400000.0625
123.61294412612915,-400000.0625,-11412.6201171875,-3235.050048828125,-400000.0625,-12546.7802734375,-400000.0625,2307.419921875,-400000.0625
123.61294746398926,-400000.0625,-11318.01953125,-3143.97998046875,-400000.0625,-12454.990234375,-400000.0625,2385.81005859375,-400000.0625
123.6448450088501,-400000.0625,-11257.83984375,-3080.93994140625,-400000.0625,-12393.1904296875,-400000.0625,2441.7900390625,-400000.0625
123.65025854110718,-400000.0625,-11307.150390625,-3127.669921875,-400000.0625,-12443.400390625,-400000.0625,2386.469970703125,-400000.0625
123.65577387809753,-400000.0625,-11389.0703125,-3206.43994140625,-400000.0625,-12528.23046875,-400000.0625,2296.159912109375,-400000.0625
123.66062784194946,-400000.0625,-11393.3603515625,-3207.110107421875,-400000.0625,-12535.669921875,-400000.0625,2288.8701171875,-400000.0625
123.66063523292542,-400000.0625,-11308.0498046875,-3117.989990234375,-400000.0625,-12452.2197265625,-400000.0625,2366.919921875,-400000.0625
123.66063952445984,-400000.0625,-11255.3095703125,-3059.719970703125,-400000.0625,-12401.580078125,-400000.0625,2419.0400390625,-400000.0625
123.6606433391571,-400000.0625,-11298.990234375,-3104.35009765625,-400000.0625,-12448.9296875,-400000.0625,2364.2099609375,-400000.0625
123.660649061203,-400000.0625,-11380.9599609375,-3184.3701171875,-400000.0625,-12523.8896484375,-400000.0625,2272.64990234375,-400000.0625
123.66065311431885,-400000.0625,-11388.400390625,-3189.22998046875,-400000.0625,-12528.849609375,-400000.0625,2259.919921875,-400000.0625
123.66065669059753,-400000.0625,-11304.5703125,-3103.35009765625,-400000.0625,-12449.599609375,-400000.0625,2346.659912109375,-400000.0625
123.66066026687622,-400000.0625,-11251.01953125,-3043.409912109375,-400000.0625,-12398.6298828125,-400000.0625,2411.080078125,-400000.0625
123.66066384315491,-400000.0625,-11298.75,-3092.3798828125,-400000.0625,-12438.919921875,-400000.0625,2351.81005859375,-400000.0625
123.6606674194336,-400000.0625,-11381.48046875,-3180.219970703125,-400000.0625,-12516.9296875,-400000.0625,2268.929931640625,-400000.0625
123.6606707572937,-400000.0625,-11389.6904296875,-3187.0400390625,-400000.0625,-12538.099609375,-400000.0625,2261.5400390625,-400000.0625
123.66067457199097,-400000.0625,-11310.8203125,-3105.780029296875,-400000.0625,-12458.3701171875,-400000.0625,2345.85009765625,-400000.0625
123.66067814826965,-400000.0625,-11255.3603515625,-3044.4599609375,-400000.0625,-12403.58984375,-400000.0625,2404.360107421875,-400000.0625
123.70575833320618,-400000.0625,-11302.900390625,-3093.860107421875,-400000.0625,-12452.4599609375,-400000.0625,2354.77001953125,-400000.0625
123.71502661705017,-400000.0625,-11383.8701171875,-3180.360107421875,-400000.0625,-12530.1396484375,-400000.0625,2267.030029296875,-400000.0625
123.7197265625,-400000.0625,-11392.0703125,-3189.280029296875,-400000.0625,-12534.099609375,-400000.0625,2258.830078125,-400000.0625
123.71973299980164,-400000.0625,-11309.33984375,-3105.02001953125,-400000.0625,-12452.26953125,-400000.0625,2339.550048828125,-400000.0625
123.71973729133606,-400000.0625,-11254.2197265625,-3047.56005859375,-400000.0625,-12398.669921875,-400000.0625,2400.830078125,-400000.0625
123.71974086761475,-400000.0625,-11311.8701171875,-3102.02001953125,-400000.0625,-12447.41015625,-400000.0625,2349.090087890625,-400000.0625
123.71974444389343,-400000.0625,-11394.7900390625,-3187.510009765625,-400000.0625,-12532.4296875,-400000.0625,2259.969970703125,-400000.0625
123.7197482585907,-400000.0625,-11395.5498046875,-3190.949951171875,-400000.0625,-12536.6201171875,-400000.0625,2251.77001953125,-400000.0625
123.71975183486938,-400000.0625,-11309.580078125,-3106.929931640625,-400000.0625,-12454.7998046875,-400000.0625,2343.3701171875,-400000.0625
123.71975541114807,-400000.0625,-11253.7900390625,-3050.85009765625,-400000.0625,-12402.2001953125,-400000.0625,2398.110107421875,-400000.0625
123.71975922584534,-400000.0625,-11307.5703125,-3098.35009765625,-400000.0625,-12452.7001953125,-400000.0625,2343.56005859375,-400000.0625
123.71976351737976,-400000.0625,-11382.4404296875,-3179.409912109375,-400000.0625,-12529.23046875,-400000.0625,2259.780029296875,-400000.0625
123.71976733207703,-400000.0625,-11384.5400390625,-3185.56005859375,-400000.0625,-12530.9501953125,-400000.0625,2259.06005859375,-400000.0625
123.71977090835571,-400000.0625,-11310.5302734375,-3108.929931640625,-400000.0625,-12456.7001953125,-400000.0625,2342.080078125,-400000.0625
123.71977472305298,-400000.0625,-11256.169921875,-3052.18994140625,-400000.0625,-12401.9599609375,-400000.0625,2399.830078125,-400000.0625
123.71977829933167,-400000.0625,-11308.48046875,-3100.590087890625,-400000.0625,-12445.4501953125,-400000.0625,2349.469970703125,-400000.0625
123.7744529247284,-400000.0625,-11387.58984375,-3184.93994140625,-400000.0625,-12521.169921875,-400000.0625,2264.639892578125,-400000.0625
123.77924990653992,-400000.0625,-11388.490234375,-3186.080078125,-400000.0625,-12531.330078125,-400000.0625,2258.2099609375,-400000.0625
123.77925777435303,-400000.0625,-11304.9501953125,-3101.969970703125,-400000.0625,-12456.9404296875,-400000.0625,2343.989990234375,-400000.0625
123.77926182746887,-400000.0625,-11251.58984375,-3045.56005859375,-400000.0625,-12401.33984375,-400000.0625,2401.5400390625,-400000.0625
123.7792649269104,-400000.0625,-11305.8095703125,-3096.489990234375,-400000.0625,-12449.98046875,-400000.0625,2350.469970703125,-400000.0625
123.77926850318909,-400000.0625,-11389.9697265625,-3186.610107421875,-400000.0625,-12534.48046875,-400000.0625,2267.550048828125,-400000.0625
123.77927231788635,-400000.0625,-11388.349609375,-3187.419921875,-400000.0625,-12537.669921875,-400000.0625,2259.5400390625,-400000.0625
123.77927589416504,-400000.0625,-11306.240234375,-3101.919921875,-400000.0625,-12452.990234375,-400000.0625,2343.64990234375,-400000.0625
123.77927947044373,-400000.0625,-11256.5498046875,-3048.56005859375,-400000.0625,-12398.8203125,-400000.0625,2399.489990234375,-400000.0625
123.77928256988525,-400000.0625,-11306.5302734375,-3102.969970703125,-400000.0625,-12454.080078125,-400000.0625,2348.469970703125,-400000.0625
123.77928590774536,-400000.0625,-11385.9697265625,-3187.75,-400000.0625,-12538.9599609375,-400000.0625,2265.8798828125,-400000.0625
123.7792911529541,-400000.0625,-11390.349609375,-3190.85009765625,-400000.0625,-12541.9599609375,-400000.0625,2258.110107421875,-400000.0625
123.77929449081421,-400000.0625,-11307.5302734375,-3106.929931640625,-400000.0625,-12454.650390625,-400000.0625,2346.22998046875,-400000.0625
123.77929782867432,-400000.0625,-11254.3095703125,-3050.280029296875,-400000.0625,-12402.349609375,-400000.0625,2402.68994140625,-400000.0625
123.77930116653442,-400000.0625,-11305.0498046875,-3099.5400390625,-400000.0625,-12451.509765625,-400000.0625,2347.7099609375,-400000.0625
123.77930474281311,-400000.0625,-11385.2001953125,-3181.169921875,-400000.0625,-12526.990234375,-400000.0625,2259.590087890625,-400000.0625
123.87933993339539,-400000.0625,-11387.73046875,-3187.93994140625,-400000.0625,-12535.48046875,-400000.0625,2257.25,-400000.0625
123.88915300369263,-400000.0625,-11307.0498046875,-3105.969970703125,-400000.0625,-12459.849609375,-400000.0625,2341.219970703125,-400000.0625
123.89429712295532,-400000.0625,-11257.650390625,-3047.75,-400000.0625,-12393.759765625,-400000.0625,2395.489990234375,-400000.0625
123.8993821144104,-400000.0625,-11312.009765625,-3100.25,-400000.0625,-12449.8896484375,-400000.0625,2348.090087890625,-400000.0625
123.90426874160767,-400000.0625,-11390.16015625,-3193.659912109375,-400000.0625,-12539.6298828125,-400000.0625,2271.179931640625,-400000.0625
123.90427708625793,-400000.0625,-11394.4501953125,-3208.72998046875,-400000.0625,-12549.6396484375,-400000.0625,2270.60009765625,-400000.0625
123.90428161621094,-400000.0625,-11310.8203125,-3130.2900390625,-400000.0625,-12465.1904296875,-400000.0625,2366.2099609375,-400000.0625
123.9042854309082,-400000.0625,-11263.7998046875,-3079.64990234375,-400000.0625,-12411.8798828125,-400000.0625,2429.010009765625,-400000.0625
123.90428924560547,-400000.0625,-11319.7802734375,-3140.739990234375,-400000.0625,-12460.8095703125,-400000.0625,2383.570068359375,-400000.0625
123.90429306030273,-400000.0625,-11395.3095703125,-3230.47998046875,-400000.0625,-12538.7197265625,-400000.0625,2309.85009765625,-400000.0625
123.904296875,-400000.0625,-11398.9404296875,-3240.159912109375,-400000.0625,-12543.5400390625,-400000.0625,2311.330078125,-400000.0625
123.90430045127869,-400000.0625,-11318.0703125,-3162.340087890625,-400000.0625,-12463.7099609375,-400000.0625,2401.780029296875,-400000.0625
123.90430402755737,-400000.0625,-11267.0,-3107.5,-400000.0625,-12408.0703125,-400000.0625,2460.050048828125,-400000.0625
123.90430784225464,-400000.0625,-11316.25,-3164.6298828125,-400000.0625,-12455.0400390625,-400000.0625,2408.5,-400000.0625
123.90431141853333,-400000.0625,-11399.4599609375,-3250.4599609375,-400000.0625,-12539.8701171875,-400000.0625,2323.06005859375,-400000.0625
123.90431499481201,-400000.0625,-11398.75,-3252.97998046875,-400000.0625,-12540.48046875,-400000.0625,2321.010009765625,-400000.0625
123.90431928634644,-400000.0625,-11312.33984375,-3165.530029296875,-400000.0625,-12458.2802734375,-400000.0625,2408.840087890625,-400000.0625
123.90432286262512,-400000.0625,-11262.080078125,-3111.699951171875,-400000.0625,-12411.9296875,-400000.0625,2468.25,-400000.0625
123.90432667732239,-400000.0625,-11315.8701171875,-3164.47998046875,-400000.0625,-12465.240234375,-400000.0625,2411.889892578125,-400000.0625
123.90433025360107,-400000.0625,-11391.5498046875,-3246.739990234375,-400000.0625,-12541.0595703125,-400000.0625,2326.06005859375,-400000.0625
123.90433406829834,-400000.0625,-11388.6396484375,-3248.5,-400000.0625,-12538.8203125,-400000.0625,2325.72998046875,-400000.0625
123.90433764457703,-400000.0625,-11307.099609375,-3161.3798828125,-400000.0625,-12457.6103515625,-400000.0625,2415.179931640625,-400000.0625
123.90434145927429,-400000.0625,-11255.8896484375,-3107.639892578125,-400000.0625,-12407.16015625,-400000.0625,2467.919921875,-400000.0625
123.90434527397156,-400000.0625,-11309.2001953125,-3163.860107421875,-400000.0625,-12461.900390625,-400000.0625,2414.1298828125,-400000.0625
123.90434908866882,-400000.0625,-11388.830078125,-3244.2099609375,-400000.0625,-12539.150390625,-400000.0625,2328.780029296875,-400000.0625
123.90435290336609,-400000.0625,-11391.830078125,-3247.02001953125,-400000.0625,-12542.150390625,-400000.0625,2325.8701171875,-400000.0625
123.90435647964478,-400000.0625,-11312.2001953125,-3165.050048828125,-400000.0625,-12464.9501953125,-400000.0625,2410.56005859375,-400000.0625
123.90436005592346,-400000.0625,-11254.3603515625,-3110.699951171875,-400000.0625,-12408.4501953125,-400000.0625,2463.25,-400000.0625
123.90436363220215,-400000.0625,-11310.7197265625,-3168.300048828125,-400000.0625,-12468.91015625,-400000.0625,2410.409912109375,-400000.0625
123.90436744689941,-400000.0625,-11390.01953125,-3249.929931640625,-400000.0625,-12550.5498046875,-400000.0625,2320.719970703125,-400000.0625
123.90437078475952,-400000.0625,-11395.0302734375,-3256.22998046875,-400000.0625,-12555.0302734375,-400000.0625,2317.0,-400000.0625
123.90437436103821,-400000.0625,-11310.8203125,-3168.199951171875,-400000.0625,-12467.9599609375,-400000.0625,2405.2099609375,-400000.0625
123.96254920959473,-400000.0625,-11261.3203125,-3115.179931640625,-400000.0625,-12413.1201171875,-400000.0625,2457.669921875,-400000.0625
123.96830606460571,-400000.0625,-11318.16015625,-3168.77001953125,-400000.0625,-12462.4697265625,-400000.0625,2407.169921875,-400000.0625
123.97323417663574,-400000.0625,-11396.740234375,-3251.080078125,-400000.0625,-12539.33984375,-400000.0625,2318.429931640625,-400000.0625
123.97324252128601,-400000.0625,-11397.3203125,-3254.699951171875,-400000.0625,-12543.0595703125,-400000.0625,2314.7099609375,-400000.0625
123.97324657440186,-400000.0625,-11322.599609375,-3173.489990234375,-400000.0625,-12465.7197265625,-400000.0625,2406.97998046875,-400000.0625
123.97325086593628,-400000.0625,-11272.0498046875,-3114.800048828125,-400000.0625,-12411.4501953125,-400000.0625,2459.239990234375,-400000.0625
123.9732551574707,-400000.0625,-11321.58984375,-3167.6298828125,-400000.0625,-12461.6201171875,-400000.0625,2407.68994140625,-400000.0625
123.97325873374939,-400000.0625,-11393.5498046875,-3243.780029296875,-400000.0625,-12538.9599609375,-400000.0625,2330.449951171875,-400000.0625
123.97326254844666,-400000.0625,-11390.16015625,-3243.300048828125,-400000.0625,-12531.0,-400000.0625,2330.639892578125,-400000.0625
123.97326636314392,-400000.0625,-11313.2001953125,-3165.909912109375,-400000.0625,-12460.3798828125,-400000.0625,2412.93994140625,-400000.0625
123.97327017784119,-400000.0625,-11269.3798828125,-3119.800048828125,-400000.0625,-12423.7998046875,-400000.0625,2468.8701171875,-400000.0625
123.97327423095703,-400000.0625,-11324.41015625,-3172.969970703125,-400000.0625,-12471.490234375,-400000.0625,2410.889892578125,-400000.0625
123.97327971458435,-400000.0625,-11409.3798828125,-3251.219970703125,-400000.0625,-12547.7802734375,-400000.0625,2333.590087890625,-400000.0625
123.97328329086304,-400000.0625,-11435.8896484375,-3238.300048828125,-400000.0625,-12542.150390625,-400000.0625,2340.889892578125,-400000.0625
123.9732871055603,-400000.0625,-11354.7802734375,-3141.1201171875,-400000.0625,-12458.08984375,-400000.0625,2433.590087890625,-400000.0625
123.97329044342041,-400000.0625,-11293.7900390625,-3109.5,-400000.0625,-12406.0595703125,-400000.0625,2479.030029296875,-400000.0625
124.02920150756836,-400000.0625,-11353.7802734375,-3167.489990234375,-400000.0625,-12458.1396484375,-400000.0625,2423.18994140625,-400000.0625
124.03945779800415,-400000.0625,-11452.8203125,-3252.60009765625,-400000.0625,-12528.4697265625,-400000.0625,2326.679931640625,-400000.0625
124.04413366317749,-400000.0625,-11437.1796875,-3264.949951171875,-400000.0625,-12530.5703125,-400000.0625,2321.2900390625,-400000.0625
124.04414105415344,-400000.0625,-11374.1396484375,-3195.3798828125,-400000.0625,-12446.259765625,-400000.0625,2406.64990234375,-400000.0625
124.04414534568787,-400000.0625,-11355.8798828125,-3185.75,-400000.0625,-12384.1298828125,-400000.0625,2467.25,-400000.0625
124.04414963722229,-400000.0625,-11425.8798828125,-3200.719970703125,-400000.0625,-12432.91015625,-400000.0625,2428.340087890625,-400000.0625
124.04415321350098,-400000.0625,-11503.75,-3270.580078125,-400000.0625,-12510.1103515625,-400000.0625,2315.469970703125,-400000.0625
124.0441575050354,-400000.0625,-11523.4404296875,-3305.47998046875,-400000.0625,-12495.4697265625,-400000.0625,2297.5400390625,-400000.0625
124.04416131973267,-400000.0625,-11484.2001953125,-3233.050048828125,-400000.0625,-12400.91015625,-400000.0625,2384.280029296875,-400000.0625
124.04416513442993,-400000.0625,-11474.7099609375,-3195.6201171875,-400000.0625,-12335.6796875,-400000.0625,2444.550048828125,-400000.0625
124.04416847229004,-400000.0625,-11559.919921875,-3262.139892578125,-400000.0625,-12379.9296875,-400000.0625,2384.280029296875,-400000.0625
124.04417204856873,-400000.0625,-11667.2998046875,-3373.81005859375,-400000.0625,-12458.0400390625,-400000.0625,2287.389892578125,-400000.0625
124.04417586326599,-400000.0625,-11680.9404296875,-3386.31005859375,-400000.0625,-12451.650390625,-400000.0625,2284.18994140625,-400000.0625
124.04417943954468,-400000.0625,-11615.0400390625,-3301.949951171875,-400000.0625,-12360.48046875,-400000.0625,2364.919921875,-400000.0625
124.04418301582336,-400000.0625,-11590.669921875,-3254.1298828125,-400000.0625,-12306.7900390625,-400000.0625,2421.3798828125,-400000.0625
124.04418683052063,-400000.0625,-11655.48046875,-3312.06005859375,-400000.0625,-12356.6201171875,-400000.0625,2366.919921875,-400000.0625
124.08943796157837,-400000.0625,-11744.7900390625,-3392.320068359375,-400000.0625,-12429.5703125,-400000.0625,2287.43994140625,-400000.0625
124.09543871879578,-400000.0625,-11751.26953125,-3383.679931640625,-400000.0625,-12422.990234375,-400000.0625,2288.2900390625,-400000.0625
124.10099697113037,-400000.0625,-11668.7802734375,-3292.469970703125,-400000.0625,-12342.8798828125,-400000.0625,2370.739990234375,-400000.0625
124.10650968551636,-400000.0625,-11624.2900390625,-3245.780029296875,-400000.0625,-12293.4404296875,-400000.0625,2414.56005859375,-400000.0625
124.11165595054626,-400000.0625,-11677.169921875,-3300.81005859375,-400000.0625,-12352.900390625,-400000.0625,2350.81005859375,-400000.0625
124.11742520332336,-400000.0625,-11748.26953125,-3376.719970703125,-400000.0625,-12437.3896484375,-400000.0625,2256.300048828125,-400000.0625
124.12260675430298,-400000.0625,-11745.41015625,-3372.6201171875,-400000.0625,-12439.5400390625,-400000.0625,2254.9599609375,-400000.0625
124.12772727012634,-400000.0625,-11650.990234375,-3283.260009765625,-400000.0625,-12361.48046875,-400000.0625,2339.739990234375,-400000.0625
124.13252902030945,-400000.0625,-11590.91015625,-3229.330078125,-400000.0625,-12316.66015625,-400000.0625,2388.570068359375,-400000.0625
124.1373200416565,-400000.0625,-11627.48046875,-3278.919921875,-400000.0625,-12369.7802734375,-400000.0625,2329.159912109375,-400000.0625
124.14210295677185,-400000.0625,-11693.33984375,-3358.60009765625,-400000.0625,-12455.3203125,-400000.0625,2246.139892578125,-400000.0625
124.14210987091064,-400000.0625,-11674.5,-3353.97998046875,-400000.0625,-12457.0400390625,-400000.0625,2249.429931640625,-400000.0625
124.14211440086365,-400000.0625,-11575.7998046875,-3265.050048828125,-400000.0625,-12380.3603515625,-400000.0625,2339.1201171875,-400000.0625
124.14211940765381,-400000.0625,-11513.1904296875,-3206.06005859375,-400000.0625,-12337.400390625,-400000.0625,2393.14990234375,-400000.0625
124.14212322235107,-400000.0625,-11552.5703125,-3252.4599609375,-400000.0625,-12393.08984375,-400000.0625,2339.1201171875,-400000.0625
124.14212918281555,-400000.0625,-11607.080078125,-3321.31005859375,-400000.0625,-12470.25,-400000.0625,2264.31005859375,-400000.0625
124.15084314346313,-400000.0625,-11596.2998046875,-3318.169921875,-400000.0625,-12479.740234375,-400000.0625,2264.97998046875,-400000.0625
124.15663266181946,-400000.0625,-11506.5595703125,-3233.6201171875,-400000.0625,-12407.9697265625,-400000.0625,2353.330078125,-400000.0625
124.1614146232605,-400000.0625,-11440.9501953125,-3174.39990234375,-400000.0625,-12358.1396484375,-400000.0625,2404.1201171875,-400000.0625
124.16142225265503,-400000.0625,-11481.3798828125,-3221.22998046875,-400000.0625,-12412.740234375,-400000.0625,2350.239990234375,-400000.0625
124.16142678260803,-400000.0625,-11542.66015625,-3290.219970703125,-400000.0625,-12489.1796875,-400000.0625,2276.56005859375,-400000.0625
124.16143155097961,-400000.0625,-11531.6396484375,-3286.4599609375,-400000.0625,-12495.419921875,-400000.0625,2285.530029296875,-400000.0625
124.16143560409546,-400000.0625,-11439.990234375,-3194.669921875,-400000.0625,-12416.3603515625,-400000.0625,2373.840087890625,-400000.0625
124.16143989562988,-400000.0625,-11380.099609375,-3139.2099609375,-400000.0625,-12368.6298828125,-400000.0625,2431.300048828125,-400000.0625
124.16144394874573,-400000.0625,-11423.7802734375,-3189.280029296875,-400000.0625,-12430.48046875,-400000.0625,2374.219970703125,-400000.0625
124.16144824028015,-400000.0625,-11494.400390625,-3266.81005859375,-400000.0625,-12513.3095703125,-400000.0625,2295.830078125,-400000.0625
124.161452293396,-400000.0625,-11481.1396484375,-3260.570068359375,-400000.0625,-12516.0703125,-400000.0625,2302.60009765625,-400000.0625
124.16145634651184,-400000.0625,-11393.2099609375,-3177.929931640625,-400000.0625,-12437.76953125,-400000.0625,2393.14990234375,-400000.0625
124.16146063804626,-400000.0625,-11336.1796875,-3120.7099609375,-400000.0625,-12391.1904296875,-400000.0625,2442.8798828125,-400000.0625
124.16146469116211,-400000.0625,-11385.009765625,-3172.2099609375,-400000.0625,-12449.3603515625,-400000.0625,2388.10009765625,-400000.0625
124.1614682674408,-400000.0625,-11450.5302734375,-3245.1201171875,-400000.0625,-12529.7998046875,-400000.0625,2311.419921875,-400000.0625
124.16147232055664,-400000.0625,-11434.990234375,-3235.25,-400000.0625,-12529.7998046875,-400000.0625,2319.239990234375,-400000.0625
124.25553369522095,-400000.0625,-11353.58984375,-3153.989990234375,-400000.0625,-12455.4599609375,-400000.0625,2402.68994140625,-400000.0625
124.26734852790833,-400000.0625,-11303.0400390625,-3103.02001953125,-400000.0625,-12408.3095703125,-400000.0625,2455.52001953125,-400000.0625
124.27305507659912,-400000.0625,-11352.73046875,-3158.7099609375,-400000.0625,-12459.9501953125,-400000.0625,2400.449951171875,-400000.0625
124.27873206138611,-400000.0625,-11425.3095703125,-3237.389892578125,-400000.0625,-12544.349609375,-400000.0625,2317.81005859375,-400000.0625
124.28511548042297,-400000.0625,-11419.009765625,-3235.199951171875,-400000.0625,-12539.8701171875,-400000.0625,2322.199951171875,-400000.0625
124.29048109054565,-400000.0625,-11331.650390625,-3147.320068359375,-400000.0625,-12459.1796875,-400000.0625,2408.409912109375,-400000.0625
124.29625487327576,-400000.0625,-11281.349609375,-3092.429931640625,-400000.0625,-12417.41015625,-400000.0625,2464.580078125,-400000.0625
124.30163025856018,-400000.0625,-11335.419921875,-3148.64990234375,-400000.0625,-12472.6796875,-400000.0625,2406.070068359375,-400000.0625
124.3072783946991,-400000.0625,-11403.3701171875,-3229.18994140625,-400000.0625,-12543.7802734375,-400000.0625,2326.489990234375,-400000.0625
124.31224584579468,-400000.0625,-11390.7802734375,-3217.889892578125,-400000.0625,-12539.3896484375,-400000.0625,2330.070068359375,-400000.0625
124.31225490570068,-400000.0625,-11307.669921875,-3129.429931640625,-400000.0625,-12461.9501953125,-400000.0625,2415.090087890625,-400000.0625
124.31225943565369,-400000.0625,-11261.1298828125,-3080.419921875,-400000.0625,-12409.6396484375,-400000.0625,2471.02001953125,-400000.0625
124.31226420402527,-400000.0625,-11311.48046875,-3135.679931640625,-400000.0625,-12462.2802734375,-400000.0625,2415.93994140625,-400000.0625
124.31226849555969,-400000.0625,-11385.8701171875,-3217.889892578125,-400000.0625,-12552.4501953125,-400000.0625,2332.31005859375,-400000.0625
124.31227254867554,-400000.0625,-11380.099609375,-3210.639892578125,-400000.0625,-12547.01953125,-400000.0625,2336.449951171875,-400000.0625
124.31227707862854,-400000.0625,-11296.849609375,-3123.0,-400000.0625,-12456.0400390625,-400000.0625,2427.77001953125,-400000.0625
124.31228184700012,-400000.0625,-11245.16015625,-3071.550048828125,-400000.0625,-12407.01953125,-400000.0625,2480.889892578125,-400000.0625
124.31228590011597,-400000.0625,-11307.4296875,-3133.72998046875,-400000.0625,-12471.5302734375,-400000.0625,2416.280029296875,-400000.0625
124.31834959983826,-400000.0625,-11391.1201171875,-3216.60009765625,-400000.0625,-12552.98046875,-400000.0625,2330.489990234375,-400000.0625
124.32336759567261,-400000.0625,-11382.5302734375,-3209.590087890625,-400000.0625,-12547.830078125,-400000.0625,2336.550048828125,-400000.0625
124.32868242263794,-400000.0625,-11298.849609375,-3126.340087890625,-400000.0625,-12465.8095703125,-400000.0625,2426.340087890625,-400000.0625
124.3343152999878,-400000.0625,-11247.1103515625,-3074.360107421875,-400000.0625,-12421.1796875,-400000.0625,2476.1201171875,-400000.0625
124.33918237686157,-400000.0625,-11296.080078125,-3126.0,-400000.0625,-12473.919921875,-400000.0625,2419.139892578125,-400000.0625
124.33919215202332,-400000.0625,-11373.759765625,-3207.679931640625,-400000.0625,-12545.2998046875,-400000.0625,2337.739990234375,-400000.0625
124.33919715881348,-400000.0625,-11369.990234375,-3208.639892578125,-400000.0625,-12546.9697265625,-400000.0625,2340.1298828125,-400000.0625
124.3392014503479,-400000.0625,-11291.0302734375,-3121.330078125,-400000.0625,-12465.8603515625,-400000.0625,2426.14990234375,-400000.0625
124.33920645713806,-400000.0625,-11246.400390625,-3071.39990234375,-400000.0625,-12421.5595703125,-400000.0625,2473.590087890625,-400000.0625
124.3392105102539,-400000.0625,-11303.7099609375,-3132.679931640625,-400000.0625,-12478.2099609375,-400000.0625,2419.419921875,-400000.0625
124.33921480178833,-400000.0625,-11380.8603515625,-3213.739990234375,-400000.0625,-12555.2197265625,-400000.0625,2331.68994140625,-400000.0625
124.33921885490417,-400000.0625,-11376.0498046875,-3206.780029296875,-400000.0625,-12552.4501953125,-400000.0625,2334.97998046875,-400000.0625
124.33922290802002,-400000.0625,-11295.83984375,-3122.18994140625,-400000.0625,-12468.150390625,-400000.0625,2426.820068359375,-400000.0625
124.3392288684845,-400000.0625,-11243.5400390625,-3073.260009765625,-400000.0625,-12419.9404296875,-400000.0625,2480.080078125,-400000.0625
124.34629893302917,-400000.0625,-11303.1904296875,-3132.14990234375,-400000.0625,-12474.9697265625,-400000.0625,2423.050048828125,-400000.0625
124.35173773765564,-400000.0625,-11378.0498046875,-3210.590087890625,-400000.0625,-12554.1201171875,-400000.0625,2338.60009765625,-400000.0625
124.35664463043213,-400000.0625,-11370.08984375,-3202.530029296875,-400000.0625,-12546.6796875,-400000.0625,2340.510009765625,-400000.0625
124.36107087135315,-400000.0625,-11281.58984375,-3112.699951171875,-400000.0625,-12457.0400390625,-400000.0625,2433.679931640625,-400000.0625
124.36599016189575,-400000.0625,-11231.3798828125,-3061.580078125,-400000.0625,-12417.080078125,-400000.0625,2484.85009765625,-400000.0625
124.36599898338318,-400000.0625,-11295.419921875,-3127.530029296875,-400000.0625,-12479.9697265625,-400000.0625,2419.52001953125,-400000.0625
124.36600351333618,-400000.0625,-11375.3798828125,-3211.830078125,-400000.0625,-12555.2197265625,-400000.0625,2337.169921875,-400000.0625
124.36600756645203,-400000.0625,-11375.7099609375,-3207.300048828125,-400000.0625,-12555.26953125,-400000.0625,2338.360107421875,-400000.0625
124.36601138114929,-400000.0625,-11287.830078125,-3118.93994140625,-400000.0625,-12470.0595703125,-400000.0625,2426.0,-400000.0625
124.36601519584656,-400000.0625,-11239.6298828125,-3069.260009765625,-400000.0625,-12418.26953125,-400000.0625,2483.27001953125,-400000.0625
124.3660192489624,-400000.0625,-11299.419921875,-3130.6298828125,-400000.0625,-12476.2099609375,-400000.0625,2416.989990234375,-400000.0625
124.36602306365967,-400000.0625,-11377.240234375,-3210.2099609375,-400000.0625,-12551.5,-400000.0625,2332.159912109375,-400000.0625
124.36602663993835,-400000.0625,-11370.5595703125,-3206.5400390625,-400000.0625,-12551.3603515625,-400000.0625,2337.889892578125,-400000.0625
124.36603021621704,-400000.0625,-11288.3603515625,-3119.56005859375,-400000.0625,-12473.6796875,-400000.0625,2427.43994140625,-400000.0625
124.3660340309143,-400000.0625,-11238.150390625,-3071.1201171875,-400000.0625,-12419.1796875,-400000.0625,2479.169921875,-400000.0625
124.36603808403015,-400000.0625,-11294.599609375,-3129.77001953125,-400000.0625,-12474.73046875,-400000.0625,2416.659912109375,-400000.0625
124.41536331176758,-400000.0625,-11371.330078125,-3210.8798828125,-400000.0625,-12556.3603515625,-400000.0625,2339.889892578125,-400000.0625
124.421062707901,-400000.0625,-11367.7998046875,-3207.110107421875,-400000.0625,-12555.169921875,-400000.0625,2340.4599609375,-400000.0625
124.4266107082367,-400000.0625,-11284.3095703125,-3119.56005859375,-400000.0625,-12471.3896484375,-400000.0625,2433.25,-400000.0625
124.43147563934326,-400000.0625,-11237.669921875,-3071.169921875,-400000.0625,-12421.990234375,-400000.0625,2481.989990234375,-400000.0625
124.43148469924927,-400000.0625,-11295.990234375,-3129.909912109375,-400000.0625,-12475.0595703125,-400000.0625,2414.610107421875,-400000.0625
124.43148899078369,-400000.0625,-11375.1396484375,-3210.39990234375,-400000.0625,-12558.5595703125,-400000.0625,2335.639892578125,-400000.0625
124.43149304389954,-400000.0625,-11372.7099609375,-3207.110107421875,-400000.0625,-12554.8896484375,-400000.0625,2340.93994140625,-400000.0625
124.4314968585968,-400000.0625,-11288.1201171875,-3120.0400390625,-400000.0625,-12467.91015625,-400000.0625,2431.5400390625,-400000.0625
124.43150043487549,-400000.0625,-11240.76953125,-3069.35009765625,-400000.0625,-12422.66015625,-400000.0625,2481.510009765625,-400000.0625
124.43150401115417,-400000.0625,-11296.849609375,-3128.6201171875,-400000.0625,-12483.2197265625,-400000.0625,2417.139892578125,-400000.0625
124.43150782585144,-400000.0625,-11371.1796875,-3207.969970703125,-400000.0625,-12557.2197265625,-400000.0625,2338.080078125,-400000.0625
124.43151116371155,-400000.0625,-11363.26953125,-3203.6298828125,-400000.0625,-12549.259765625,-400000.0625,2344.989990234375,-400000.0625
124.43151473999023,-400000.0625,-11282.2998046875,-3117.85009765625,-400000.0625,-12465.7197265625,-400000.0625,2432.110107421875,-400000.0625
124.4315185546875,-400000.0625,-11234.6201171875,-3067.489990234375,-400000.0625,-12419.4599609375,-400000.0625,2484.4599609375,-400000.0625
124.4315230846405,-400000.0625,-11284.830078125,-3122.85009765625,-400000.0625,-12474.5400390625,-400000.0625,2426.429931640625,-400000.0625
124.43152666091919,-400000.0625,-11362.3603515625,-3202.8701171875,-400000.0625,-12554.6904296875,-400000.0625,2344.659912109375,-400000.0625
124.47442126274109,-400000.0625,-11364.1796875,-3200.77001953125,-400000.0625,-12552.8798828125,-400000.0625,2349.89990234375,-400000.0625
124.4853093624115,-400000.0625,-11284.2099609375,-3117.56005859375,-400000.0625,-12468.0498046875,-400000.0625,2431.14990234375,-400000.0625
124.49034786224365,-400000.0625,-11234.1904296875,-3065.679931640625,-400000.0625,-12420.4697265625,-400000.0625,2479.4599609375,-400000.0625
124.49528121948242,-400000.0625,-11293.7900390625,-3130.909912109375,-400000.0625,-12484.5,-400000.0625,2417.659912109375,-400000.0625
124.49528932571411,-400000.0625,-11374.0498046875,-3214.260009765625,-400000.0625,-12558.41015625,-400000.0625,2337.409912109375,-400000.0625
124.49529385566711,-400000.0625,-11363.4599609375,-3200.77001953125,-400000.0625,-12546.25,-400000.0625,2342.75,-400000.0625
124.49529767036438,-400000.0625,-11275.580078125,-3109.5,-400000.0625,-12460.5703125,-400000.0625,2430.43994140625,-400000.0625
124.49530172348022,-400000.0625,-11232.51953125,-3066.2099609375,-400000.0625,-12416.98046875,-400000.0625,2479.97998046875,-400000.0625
124.49530577659607,-400000.0625,-11295.6103515625,-3130.199951171875,-400000.0625,-12480.6904296875,-400000.0625,2420.7099609375,-400000.0625
124.49530959129333,-400000.0625,-11366.6103515625,-3204.159912109375,-400000.0625,-12554.599609375,-400000.0625,2339.030029296875,-400000.0625
124.49531364440918,-400000.0625,-11357.740234375,-3196.139892578125,-400000.0625,-12544.7802734375,-400000.0625,2348.469970703125,-400000.0625
124.4953179359436,-400000.0625,-11275.8203125,-3113.60009765625,-400000.0625,-12463.6201171875,-400000.0625,2436.02001953125,-400000.0625
124.49532198905945,-400000.0625,-11232.330078125,-3066.25,-400000.0625,-12416.169921875,-400000.0625,2486.090087890625,-400000.0625
124.49532580375671,-400000.0625,-11294.7001953125,-3127.14990234375,-400000.0625,-12476.01953125,-400000.0625,2420.0400390625,-400000.0625
124.4953293800354,-400000.0625,-11364.83984375,-3199.820068359375,-400000.0625,-12549.740234375,-400000.0625,2342.75,-400000.0625
124.49533367156982,-400000.0625,-11355.5400390625,-3191.330078125,-400000.0625,-12539.48046875,-400000.0625,2350.090087890625,-400000.0625
124.54585266113281,-400000.0625,-11276.91015625,-3109.97998046875,-400000.0625,-12466.8603515625,-400000.0625,2430.199951171875,-400000.0625
124.55129027366638,-400000.0625,-11230.900390625,-3063.199951171875,-400000.0625,-12418.7998046875,-400000.0625,2479.739990234375,-400000.0625
124.55669569969177,-400000.0625,-11289.3095703125,-3125.239990234375,-400000.0625,-12473.4404296875,-400000.0625,2408.60009765625,-400000.0625
124.56147813796997,-400000.0625,-11363.4599609375,-3202.340087890625,-400000.0625,-12547.2099609375,-400000.0625,2335.02001953125,-400000.0625
124.5614857673645,-400000.0625,-11361.169921875,-3199.530029296875,-400000.0625,-12548.4501953125,-400000.0625,2342.889892578125,-400000.0625
124.5614902973175,-400000.0625,-11277.2998046875,-3113.56005859375,-400000.0625,-12470.580078125,-400000.0625,2428.10009765625,-400000.0625
124.56149411201477,-400000.0625,-11230.08984375,-3063.969970703125,-400000.0625,-12419.990234375,-400000.0625,2476.02001953125,-400000.0625
124.56149911880493,-400000.0625,-11292.9404296875,-3123.81005859375,-400000.0625,-12472.009765625,-400000.0625,2417.469970703125,-400000.0625
124.5615029335022,-400000.0625,-11366.7001953125,-3203.8701171875,-400000.0625,-12545.7802734375,-400000.0625,2334.8798828125,-400000.0625
124.56150650978088,-400000.0625,-11361.2197265625,-3199.10009765625,-400000.0625,-12542.2001953125,-400000.0625,2342.27001953125,-400000.0625
124.56151032447815,-400000.0625,-11281.919921875,-3116.320068359375,-400000.0625,-12468.5302734375,-400000.0625,2428.010009765625,-400000.0625
124.56151390075684,-400000.0625,-11234.8603515625,-3066.06005859375,-400000.0625,-12422.7099609375,-400000.0625,2476.02001953125,-400000.0625
124.56151747703552,-400000.0625,-11289.0703125,-3125.6201171875,-400000.0625,-12476.73046875,-400000.0625,2417.22998046875,-400000.0625
124.56152129173279,-400000.0625,-11373.1904296875,-3208.449951171875,-400000.0625,-12558.1796875,-400000.0625,2337.070068359375,-400000.0625
124.56152486801147,-400000.0625,-11373.5703125,-3204.5400390625,-400000.0625,-12556.41015625,-400000.0625,2344.320068359375,-400000.0625
124.56152868270874,-400000.0625,-11281.25,-3110.699951171875,-400000.0625,-12463.7099609375,-400000.0625,2431.199951171875,-400000.0625
124.61873126029968,-400000.0625,-11223.1298828125,-3055.949951171875,-400000.0625,-12411.4501953125,-400000.0625,2472.31005859375,-400000.0625
124.62803959846497,-400000.0625,-11283.259765625,-3113.60009765625,-400000.0625,-12467.8095703125,-400000.0625,2408.27001953125,-400000.0625
124.6329619884491,-400000.0625,-11363.75,-3190.760009765625,-400000.0625,-12551.8798828125,-400000.0625,2329.02001953125,-400000.0625
124.63297152519226,-400000.0625,-11347.099609375,-3170.110107421875,-400000.0625,-12543.6298828125,-400000.0625,2326.389892578125,-400000.0625
124.63297653198242,-400000.0625,-11258.3701171875,-3074.260009765625,-400000.0625,-12459.2802734375,-400000.0625,2413.27001953125,-400000.0625
124.632981300354,-400000.0625,-11218.599609375,-3025.719970703125,-400000.0625,-12413.5498046875,-400000.0625,2461.47998046875,-400000.0625
124.63298535346985,-400000.0625,-11276.6298828125,-3084.760009765625,-400000.0625,-12464.8603515625,-400000.0625,2389.2900390625,-400000.0625
124.63298988342285,-400000.0625,-11341.1904296875,-3153.7099609375,-400000.0625,-12538.2900390625,-400000.0625,2304.739990234375,-400000.0625
124.63299417495728,-400000.0625,-11326.7001953125,-3139.159912109375,-400000.0625,-12535.240234375,-400000.0625,2303.27001953125,-400000.0625
124.63299870491028,-400000.0625,-11250.2099609375,-3054.139892578125,-400000.0625,-12453.6103515625,-400000.0625,2383.570068359375,-400000.0625
124.6330029964447,-400000.0625,-11208.919921875,-3005.030029296875,-400000.0625,-12403.2998046875,-400000.0625,2432.489990234375,-400000.0625
124.6330075263977,-400000.0625,-11264.990234375,-3061.8701171875,-400000.0625,-12468.8203125,-400000.0625,2366.780029296875,-400000.0625
124.63301181793213,-400000.0625,-11341.2900390625,-3138.300048828125,-400000.0625,-12547.1103515625,-400000.0625,2284.340087890625,-400000.0625
124.63301610946655,-400000.0625,-11339.1396484375,-3135.5400390625,-400000.0625,-12537.4296875,-400000.0625,2295.969970703125,-400000.0625
124.6330201625824,-400000.0625,-11252.3095703125,-3047.419921875,-400000.0625,-12451.169921875,-400000.0625,2386.239990234375,-400000.0625
124.63302421569824,-400000.0625,-11203.580078125,-2997.260009765625,-400000.0625,-12404.9697265625,-400000.0625,2433.919921875,-400000.0625
124.66000294685364,-400000.0625,-11268.1904296875,-3062.530029296875,-400000.0625,-12466.9599609375,-400000.0625,2373.030029296875,-400000.0625
124.66721367835999,-400000.0625,-11336.9501953125,-3136.919921875,-400000.0625,-12540.8701171875,-400000.0625,2297.1201171875,-400000.0625
124.67198252677917,-400000.0625,-11327.7900390625,-3126.719970703125,-400000.0625,-12531.0400390625,-400000.0625,2301.68994140625,-400000.0625
124.67199158668518,-400000.0625,-11253.2197265625,-3048.1298828125,-400000.0625,-12461.0400390625,-400000.0625,2381.610107421875,-400000.0625
124.67199635505676,-400000.0625,-11211.25,-3004.169921875,-400000.0625,-12416.3203125,-400000.0625,2432.25,-400000.0625
124.67200064659119,-400000.0625,-11271.8603515625,-3063.72998046875,-400000.0625,-12476.8701171875,-400000.0625,2370.169921875,-400000.0625
124.67200517654419,-400000.0625,-11348.76953125,-3144.030029296875,-400000.0625,-12553.4501953125,-400000.0625,2291.72998046875,-400000.0625
124.67200946807861,-400000.0625,-11337.849609375,-3134.35009765625,-400000.0625,-12539.8701171875,-400000.0625,2303.169921875,-400000.0625
124.67201352119446,-400000.0625,-11250.349609375,-3041.840087890625,-400000.0625,-12450.98046875,-400000.0625,2390.6201171875,-400000.0625
124.67201781272888,-400000.0625,-11207.4404296875,-2995.919921875,-400000.0625,-12407.830078125,-400000.0625,2434.639892578125,-400000.0625
124.67202186584473,-400000.0625,-11271.5703125,-3064.5400390625,-400000.0625,-12474.16015625,-400000.0625,2373.4599609375,-400000.0625
124.67202615737915,-400000.0625,-11346.8701171875,-3143.409912109375,-400000.0625,-12551.740234375,-400000.0625,2290.340087890625,-400000.0625
124.67202997207642,-400000.0625,-11340.5703125,-3130.050048828125,-400000.0625,-12538.7197265625,-400000.0625,2296.449951171875,-400000.0625
124.67203402519226,-400000.0625,-11260.8896484375,-3046.179931640625,-400000.0625,-12458.1396484375,-400000.0625,2382.280029296875,-400000.0625
124.6720380783081,-400000.0625,-11215.740234375,-3004.60009765625,-400000.0625,-12413.599609375,-400000.0625,2428.719970703125,-400000.0625
124.67204165458679,-400000.0625,-11272.76953125,-3064.010009765625,-400000.0625,-12471.6298828125,-400000.0625,2368.830078125,-400000.0625
124.72924661636353,-400000.0625,-11346.6796875,-3143.070068359375,-400000.0625,-12549.9296875,-400000.0625,2288.9599609375,-400000.0625
124.73848342895508,-400000.0625,-11342.1904296875,-3134.5400390625,-400000.0625,-12541.009765625,-400000.0625,2298.97998046875,-400000.0625
124.74324798583984,-400000.0625,-11259.509765625,-3048.22998046875,-400000.0625,-12455.8896484375,-400000.0625,2386.139892578125,-400000.0625
124.74325513839722,-400000.0625,-11218.169921875,-3004.409912109375,-400000.0625,-12414.3095703125,-400000.0625,2435.39990234375,-400000.0625
124.74325966835022,-400000.0625,-11280.6298828125,-3066.43994140625,-400000.0625,-12477.830078125,-400000.0625,2371.5,-400000.0625
124.74326372146606,-400000.0625,-11357.58984375,-3146.27001953125,-400000.0625,-12551.01953125,-400000.0625,2292.780029296875,-400000.0625
124.74326753616333,-400000.0625,-11348.73046875,-3134.110107421875,-400000.0625,-12541.6796875,-400000.0625,2296.780029296875,-400000.0625
124.74327158927917,-400000.0625,-11263.1796875,-3046.800048828125,-400000.0625,-12458.3701171875,-400000.0625,2385.0,-400000.0625
124.74327564239502,-400000.0625,-11219.5498046875,-3000.360107421875,-400000.0625,-12414.3095703125,-400000.0625,2435.35009765625,-400000.0625
124.74327993392944,-400000.0625,-11283.490234375,-3068.35009765625,-400000.0625,-12476.5400390625,-400000.0625,2370.68994140625,-400000.0625
124.74328398704529,-400000.0625,-11351.2998046875,-3140.739990234375,-400000.0625,-12551.1201171875,-400000.0625,2290.300048828125,-400000.0625
124.74328827857971,-400000.0625,-11345.580078125,-3135.35009765625,-400000.0625,-12540.5302734375,-400000.0625,2300.02001953125,-400000.0625
124.74329233169556,-400000.0625,-11263.3203125,-3046.320068359375,-400000.0625,-12453.8896484375,-400000.0625,2389.0,-400000.0625
124.74329614639282,-400000.0625,-11217.6904296875,-2999.969970703125,-400000.0625,-12415.0302734375,-400000.0625,2438.1201171875,-400000.0625
124.74330043792725,-400000.0625,-11286.4501953125,-3070.449951171875,-400000.0625,-12481.5,-400000.0625,2368.590087890625,-400000.0625
124.74330449104309,-400000.0625,-11360.5498046875,-3148.409912109375,-400000.0625,-12549.6904296875,-400000.0625,2288.820068359375,-400000.0625
124.78706645965576,-400000.0625,-11350.58984375,-3139.929931640625,-400000.0625,-12542.6796875,-400000.0625,2299.5,-400000.0625
124.79233503341675,-400000.0625,-11263.66015625,-3048.7099609375,-400000.0625,-12459.7998046875,-400000.0625,2385.52001953125,-400000.0625
124.79702019691467,-400000.0625,-11215.5498046875,-3004.60009765625,-400000.0625,-12409.8798828125,-400000.0625,2433.489990234375,-400000.0625
124.79702877998352,-400000.0625,-11288.0703125,-3073.1201171875,-400000.0625,-12471.3896484375,-400000.0625,2363.590087890625,-400000.0625
124.79703330993652,-400000.0625,-11367.419921875,-3153.989990234375,-400000.0625,-12549.9296875,-400000.0625,2292.820068359375,-400000.0625
124.79703783988953,-400000.0625,-11352.919921875,-3149.3701171875,-400000.0625,-12545.0595703125,-400000.0625,2313.469970703125,-400000.0625
124.79704165458679,-400000.0625,-11273.91015625,-3073.5,-400000.0625,-12462.0498046875,-400000.0625,2408.4599609375,-400000.0625
124.79704713821411,-400000.0625,-11232.4697265625,-3039.64990234375,-400000.0625,-12419.1298828125,-400000.0625,2467.780029296875,-400000.0625
124.79705142974854,-400000.0625,-11297.8896484375,-3117.989990234375,-400000.0625,-12479.400390625,-400000.0625,2407.97998046875,-400000.0625
124.79705500602722,-400000.0625,-11382.2001953125,-3214.1201171875,-400000.0625,-12560.6103515625,-400000.0625,2331.8798828125,-400000.0625
124.79705929756165,-400000.0625,-11380.91015625,-3216.219970703125,-400000.0625,-12554.5498046875,-400000.0625,2350.090087890625,-400000.0625
124.79706335067749,-400000.0625,-11293.2197265625,-3136.5400390625,-400000.0625,-12466.099609375,-400000.0625,2451.85009765625,-400000.0625
124.79706716537476,-400000.0625,-11252.6904296875,-3105.31005859375,-400000.0625,-12422.0400390625,-400000.0625,2503.110107421875,-400000.0625
124.7970712184906,-400000.0625,-11329.26953125,-3183.219970703125,-400000.0625,-12492.08984375,-400000.0625,2440.169921875,-400000.0625
124.79707479476929,-400000.0625,-11403.990234375,-3265.47998046875,-400000.0625,-12567.330078125,-400000.0625,2374.60009765625,-400000.0625
124.79707908630371,-400000.0625,-11388.8798828125,-3251.739990234375,-400000.0625,-12555.3603515625,-400000.0625,2385.18994140625,-400000.0625
124.85836815834045,-400000.0625,-11301.849609375,-3167.719970703125,-400000.0625,-12469.4404296875,-400000.0625,2469.5400390625,-400000.0625
124.86880159378052,-400000.0625,-11254.9296875,-3124.909912109375,-400000.0625,-12427.759765625,-400000.0625,2517.699951171875,-400000.0625
124.87413263320923,-400000.0625,-11318.16015625,-3191.760009765625,-400000.0625,-12495.23046875,-400000.0625,2450.85009765625,-400000.0625
124.87884426116943,-400000.0625,-11389.2998046875,-3264.760009765625,-400000.0625,-12566.759765625,-400000.0625,2371.97998046875,-400000.0625
124.8788514137268,-400000.0625,-11381.48046875,-3254.93994140625,-400000.0625,-12559.2197265625,-400000.0625,2381.469970703125,-400000.0625
124.87885594367981,-400000.0625,-11300.419921875,-3175.070068359375,-400000.0625,-12486.5498046875,-400000.0625,2472.68994140625,-400000.0625
124.87885975837708,-400000.0625,-11254.169921875,-3128.530029296875,-400000.0625,-12440.5400390625,-400000.0625,2516.320068359375,-400000.0625
124.87886357307434,-400000.0625,-11314.73046875,-3187.469970703125,-400000.0625,-12497.51953125,-400000.0625,2450.800048828125,-400000.0625
124.87886762619019,-400000.0625,-11389.6904296875,-3263.52001953125,-400000.0625,-12568.1904296875,-400000.0625,2375.56005859375,-400000.0625
124.87887167930603,-400000.0625,-11376.240234375,-3247.02001953125,-400000.0625,-12549.6396484375,-400000.0625,2389.10009765625,-400000.0625
124.8788754940033,-400000.0625,-11292.650390625,-3161.239990234375,-400000.0625,-12473.009765625,-400000.0625,2476.639892578125,-400000.0625
124.87887978553772,-400000.0625,-11253.599609375,-3122.469970703125,-400000.0625,-12436.5302734375,-400000.0625,2521.7099609375,-400000.0625
124.8788833618164,-400000.0625,-11319.5,-3188.090087890625,-400000.0625,-12499.099609375,-400000.0625,2456.0,-400000.0625
124.87888741493225,-400000.0625,-11389.259765625,-3261.3798828125,-400000.0625,-12572.9599609375,-400000.0625,2379.27001953125,-400000.0625
124.87889122962952,-400000.0625,-11371.2802734375,-3244.8798828125,-400000.0625,-12559.75,-400000.0625,2391.6201171875,-400000.0625
124.87889528274536,-400000.0625,-11286.01953125,-3155.949951171875,-400000.0625,-12478.9697265625,-400000.0625,2481.989990234375,-400000.0625
124.91456389427185,-400000.0625,-11248.8798828125,-3117.85009765625,-400000.0625,-12437.3896484375,-400000.0625,2524.469970703125,-400000.0625
124.92010188102722,-400000.0625,-11313.5400390625,-3184.93994140625,-400000.0625,-12496.1904296875,-400000.0625,2455.429931640625,-400000.0625
124.92543506622314,-400000.0625,-11386.400390625,-3259.090087890625,-400000.0625,-12571.099609375,-400000.0625,2373.7900390625,-400000.0625
124.93087673187256,-400000.0625,-11375.0,-3247.39990234375,-400000.0625,-12563.08984375,-400000.0625,2387.429931640625,-400000.0625
124.93609547615051,-400000.0625,-11290.0302734375,-3156.659912109375,-400000.0625,-12476.73046875,-400000.0625,2479.97998046875,-400000.0625
124.94118666648865,-400000.0625,-11253.6904296875,-3113.4599609375,-400000.0625,-12434.580078125,-400000.0625,2525.469970703125,-400000.0625
124.94619798660278,-400000.0625,-11320.6396484375,-3179.409912109375,-400000.0625,-12496.6201171875,-400000.0625,2455.0,-400000.0625
124.95124387741089,-400000.0625,-11390.1201171875,-3252.27001953125,-400000.0625,-12566.23046875,-400000.0625,2372.550048828125,-400000.0625
124.95657896995544,-400000.0625,-11371.2802734375,-3239.389892578125,-400000.0625,-12553.259765625,-400000.0625,2385.429931640625,-400000.0625
124.96133828163147,-400000.0625,-11287.01953125,-3152.699951171875,-400000.0625,-12474.8701171875,-400000.0625,2475.070068359375,-400000.0625
124.96681499481201,-400000.0625,-11252.01953125,-3112.64990234375,-400000.0625,-12436.2001953125,-400000.0625,2518.179931640625,-400000.0625
124.97155857086182,-400000.0625,-11316.4404296875,-3175.31005859375,-400000.0625,-12493.7099609375,-400000.0625,2453.760009765625,-400000.0625
124.97156810760498,-400000.0625,-11386.4404296875,-3249.97998046875,-400000.0625,-12572.0498046875,-400000.0625,2380.22998046875,-400000.0625
124.97157263755798,-400000.0625,-11375.51953125,-3241.06005859375,-400000.0625,-12559.7998046875,-400000.0625,2396.77001953125,-400000.0625
124.97157669067383,-400000.0625,-11294.990234375,-3155.89990234375,-400000.0625,-12473.73046875,-400000.0625,2483.64990234375,-400000.0625
124.97158098220825,-400000.0625,-11257.98046875,-3114.320068359375,-400000.0625,-12429.91015625,-400000.0625,2531.239990234375,-400000.0625
124.98583364486694,-400000.0625,-11313.919921875,-3173.72998046875,-400000.0625,-12486.3203125,-400000.0625,2464.489990234375,-400000.0625
124.99104189872742,-400000.0625,-11384.0595703125,-3244.31005859375,-400000.0625,-12557.1298828125,-400000.0625,2383.659912109375,-400000.0625
124.9961290359497,-400000.0625,-11373.240234375,-3234.909912109375,-400000.0625,-12551.01953125,-400000.0625,2397.35009765625,-400000.0625
125.00094056129456,-400000.0625,-11292.7900390625,-3152.320068359375,-400000.0625,-12469.5302734375,-400000.0625,2479.739990234375,-400000.0625
125.00094962120056,-400000.0625,-11250.5,-3112.699951171875,-400000.0625,-12430.48046875,-400000.0625,2523.469970703125,-400000.0625
125.00095438957214,-400000.0625,-11321.400390625,-3184.320068359375,-400000.0625,-12505.009765625,-400000.0625,2462.14990234375,-400000.0625
125.00095868110657,-400000.0625,-11388.16015625,-3251.739990234375,-400000.0625,-12568.669921875,-400000.0625,2389.669921875,-400000.0625
125.00096273422241,-400000.0625,-11370.7099609375,-3236.580078125,-400000.0625,-12548.259765625,-400000.0625,2403.780029296875,-400000.0625
125.00096654891968,-400000.0625,-11292.0302734375,-3154.3701171875,-400000.0625,-12467.7197265625,-400000.0625,2487.090087890625,-400000.0625
125.00097012519836,-400000.0625,-11253.3603515625,-3111.320068359375,-400000.0625,-12426.8095703125,-400000.0625,2531.860107421875,-400000.0625
125.00097417831421,-400000.0625,-11318.6796875,-3176.550048828125,-400000.0625,-12490.3203125,-400000.0625,2465.77001953125,-400000.0625
125.00097823143005,-400000.0625,-11386.73046875,-3249.840087890625,-400000.0625,-12564.4697265625,-400000.0625,2387.6201171875,-400000.0625
125.00098204612732,-400000.0625,-11378.150390625,-3241.489990234375,-400000.0625,-12551.3603515625,-400000.0625,2400.260009765625,-400000.0625
125.000985622406,-400000.0625,-11303.3798828125,-3156.090087890625,-400000.0625,-12478.9697265625,-400000.0625,2484.22998046875,-400000.0625
125.00098943710327,-400000.0625,-11263.1796875,-3111.889892578125,-400000.0625,-12439.7802734375,-400000.0625,2532.389892578125,-400000.0625
125.00099301338196,-400000.0625,-11315.3896484375,-3169.199951171875,-400000.0625,-12489.9404296875,-400000.0625,2465.580078125,-400000.0625
125.05358862876892,-400000.0625,-11373.900390625,-3239.580078125,-400000.0625,-12553.740234375,-400000.0625,2379.3701171875,-400000.0625
125.0586256980896,-400000.0625,-11362.0302734375,-3224.89990234375,-400000.0625,-12549.5400390625,-400000.0625,2386.280029296875,-400000.0625
125.06356739997864,-400000.0625,-11283.58984375,-3132.9599609375,-400000.0625,-12475.2099609375,-400000.0625,2468.39990234375,-400000.0625
125.06801795959473,-400000.0625,-11236.5302734375,-3080.179931640625,-400000.0625,-12423.5595703125,-400000.0625,2502.35009765625,-400000.0625
125.07298755645752,-400000.0625,-11290.3095703125,-3139.830078125,-400000.0625,-12481.740234375,-400000.0625,2427.14990234375,-400000.0625
125.07299661636353,-400000.0625,-11361.599609375,-3208.070068359375,-400000.0625,-12559.0302734375,-400000.0625,2349.330078125,-400000.0625
125.07300114631653,-400000.0625,-11350.5400390625,-3188.800048828125,-400000.0625,-12541.25,-400000.0625,2359.919921875,-400000.0625
125.0730049610138,-400000.0625,-11267.7099609375,-3102.72998046875,-400000.0625,-12458.3701171875,-400000.0625,2441.409912109375,-400000.0625
125.07300901412964,-400000.0625,-11227.990234375,-3060.25,-400000.0625,-12419.3203125,-400000.0625,2486.090087890625,-400000.0625
125.0730128288269,-400000.0625,-11292.169921875,-3123.239990234375,-400000.0625,-12485.169921875,-400000.0625,2416.52001953125,-400000.0625
125.07301688194275,-400000.0625,-11365.75,-3200.43994140625,-400000.0625,-12554.5,-400000.0625,2342.030029296875,-400000.0625
125.07302045822144,-400000.0625,-11354.259765625,-3186.800048828125,-400000.0625,-12542.919921875,-400000.0625,2358.47998046875,-400000.0625
125.07302403450012,-400000.0625,-11272.4296875,-3103.68994140625,-400000.0625,-12461.7099609375,-400000.0625,2448.93994140625,-400000.0625
125.0783896446228,-400000.0625,-11230.66015625,-3058.2900390625,-400000.0625,-12421.75,-400000.0625,2489.949951171875,-400000.0625
125.08380246162415,-400000.0625,-11299.1796875,-3126.669921875,-400000.0625,-12487.4599609375,-400000.0625,2419.760009765625,-400000.0625
125.08891010284424,-400000.0625,-11368.849609375,-3196.3798828125,-400000.0625,-12557.1298828125,-400000.0625,2342.4599609375,-400000.0625
125.11437654495239,-400000.0625,-11351.2998046875,-3184.179931640625,-400000.0625,-12539.76953125,-400000.0625,2361.43994140625,-400000.0625
125.11980700492859,-400000.0625,-11275.580078125,-3099.389892578125,-400000.0625,-12457.5595703125,-400000.0625,2449.419921875,-400000.0625
125.12521123886108,-400000.0625,-11236.1396484375,-3057.340087890625,-400000.0625,-12418.7998046875,-400000.0625,2492.7099609375,-400000.0625
125.13040399551392,-400000.0625,-11303.8603515625,-3128.9599609375,-400000.0625,-12486.5498046875,-400000.0625,2423.429931640625,-400000.0625
125.13525986671448,-400000.0625,-11369.419921875,-3198.429931640625,-400000.0625,-12557.0302734375,-400000.0625,2348.469970703125,-400000.0625
125.13526773452759,-400000.0625,-11356.400390625,-3182.97998046875,-400000.0625,-12542.2001953125,-400000.0625,2362.72998046875,-400000.0625
125.13527178764343,-400000.0625,-11278.33984375,-3104.31005859375,-400000.0625,-12465.1904296875,-400000.0625,2449.22998046875,-400000.0625
125.13527584075928,-400000.0625,-11234.48046875,-3061.719970703125,-400000.0625,-12431.0,-400000.0625,2490.469970703125,-400000.0625
125.13527989387512,-400000.0625,-11303.6201171875,-3128.9599609375,-400000.0625,-12493.419921875,-400000.0625,2426.909912109375,-400000.0625
125.13528370857239,-400000.0625,-11375.8095703125,-3205.969970703125,-400000.0625,-12558.8896484375,-400000.0625,2349.760009765625,-400000.0625
125.13528776168823,-400000.0625,-11360.0302734375,-3190.139892578125,-400000.0625,-12549.6396484375,-400000.0625,2364.300048828125,-400000.0625
125.13529181480408,-400000.0625,-11275.8603515625,-3101.679931640625,-400000.0625,-12472.2998046875,-400000.0625,2452.090087890625,-400000.0625
125.13529562950134,-400000.0625,-11238.2900390625,-3064.389892578125,-400000.0625,-12430.5703125,-400000.0625,2495.239990234375,-400000.0625
125.13529920578003,-400000.0625,-11301.4697265625,-3130.47998046875,-400000.0625,-12489.0302734375,-400000.0625,2426.77001953125,-400000.0625
125.1353030204773,-400000.0625,-11375.8095703125,-3199.239990234375,-400000.0625,-12556.83984375,-400000.0625,2357.050048828125,-400000.0625
125.13530659675598,-400000.0625,-11361.1201171875,-3186.889892578125,-400000.0625,-12546.9697265625,-400000.0625,2368.639892578125,-400000.0625
125.1792905330658,-400000.0625,-11281.6298828125,-3103.8798828125,-400000.0625,-12467.91015625,-400000.0625,2446.409912109375,-400000.0625
125.1890275478363,-400000.0625,-11247.6396484375,-3068.110107421875,-400000.0625,-12433.009765625,-400000.0625,2485.56005859375,-400000.0625
125.19377064704895,-400000.0625,-11304.5703125,-3131.43994140625,-400000.0625,-12494.9501953125,-400000.0625,2417.330078125,-400000.0625
125.19377827644348,-400000.0625,-11372.6201171875,-3200.47998046875,-400000.0625,-12558.41015625,-400000.0625,2344.3701171875,-400000.0625
125.19378304481506,-400000.0625,-11354.73046875,-3179.60009765625,-400000.0625,-12538.7197265625,-400000.0625,2365.969970703125,-400000.0625
125.19378709793091,-400000.0625,-11274.8603515625,-3096.909912109375,-400000.0625,-12465.8095703125,-400000.0625,2449.1298828125,-400000.0625
125.1937906742096,-400000.0625,-11240.3896484375,-3059.9599609375,-400000.0625,-12423.7099609375,-400000.0625,2491.6201171875,-400000.0625
125.19379448890686,-400000.0625,-11303.240234375,-3125.239990234375,-400000.0625,-12489.0302734375,-400000.0625,2416.22998046875,-400000.0625
125.1937985420227,-400000.0625,-11373.3798828125,-3200.389892578125,-400000.0625,-12570.1904296875,-400000.0625,2346.0400390625,-400000.0625
125.19380235671997,-400000.0625,-11362.740234375,-3187.320068359375,-400000.0625,-12556.169921875,-400000.0625,2356.719970703125,-400000.0625
125.19380593299866,-400000.0625,-11280.9697265625,-3101.5400390625,-400000.0625,-12469.33984375,-400000.0625,2440.260009765625,-400000.0625
125.19380950927734,-400000.0625,-11238.6201171875,-3060.530029296875,-400000.0625,-12427.900390625,-400000.0625,2485.22998046875,-400000.0625
125.19381356239319,-400000.0625,-11310.2900390625,-3131.489990234375,-400000.0625,-12494.1396484375,-400000.0625,2415.800048828125,-400000.0625
125.19381713867188,-400000.0625,-11380.8203125,-3201.8701171875,-400000.0625,-12566.0400390625,-400000.0625,2338.080078125,-400000.0625
125.19382095336914,-400000.0625,-11361.9296875,-3186.080078125,-400000.0625,-12543.73046875,-400000.0625,2354.340087890625,-400000.0625
125.19382452964783,-400000.0625,-11282.919921875,-3103.02001953125,-400000.0625,-12466.0498046875,-400000.0625,2435.830078125,-400000.0625
125.24086117744446,-400000.0625,-11246.490234375,-3066.02001953125,-400000.0625,-12436.919921875,-400000.0625,2478.97998046875,-400000.0625
125.24669432640076,-400000.0625,-11307.0498046875,-3127.530029296875,-400000.0625,-12496.08984375,-400000.0625,2409.840087890625,-400000.0625
125.25149250030518,-400000.0625,-11373.330078125,-3197.239990234375,-400000.0625,-12562.66015625,-400000.0625,2338.219970703125,-400000.0625
125.25150108337402,-400000.0625,-11359.0703125,-3183.080078125,-400000.0625,-12548.2099609375,-400000.0625,2355.10009765625,-400000.0625
125.25150537490845,-400000.0625,-11281.349609375,-3102.110107421875,-400000.0625,-12471.1103515625,-400000.0625,2437.72998046875,-400000.0625
125.25150942802429,-400000.0625,-11248.400390625,-3064.300048828125,-400000.0625,-12432.580078125,-400000.0625,2480.97998046875,-400000.0625
125.25151348114014,-400000.0625,-11308.5302734375,-3129.580078125,-400000.0625,-12494.330078125,-400000.0625,2408.5,-400000.0625
125.2515172958374,-400000.0625,-11378.1904296875,-3198.340087890625,-400000.0625,-12560.0400390625,-400000.0625,2341.56005859375,-400000.0625
125.25152087211609,-400000.0625,-11368.1796875,-3189.949951171875,-400000.0625,-12543.7802734375,-400000.0625,2370.639892578125,-400000.0625
125.25152492523193,-400000.0625,-11291.26953125,-3120.52001953125,-400000.0625,-12477.5400390625,-400000.0625,2451.89990234375,-400000.0625
125.25152850151062,-400000.0625,-11260.650390625,-3094.530029296875,-400000.0625,-12445.01953125,-400000.0625,2492.330078125,-400000.0625
125.25153255462646,-400000.0625,-11325.3095703125,-3165.010009765625,-400000.0625,-12503.2001953125,-400000.0625,2434.969970703125,-400000.0625
125.25153613090515,-400000.0625,-11400.9404296875,-3244.35009765625,-400000.0625,-12570.1904296875,-400000.0625,2375.320068359375,-400000.0625
125.25153994560242,-400000.0625,-11380.2900390625,-3232.719970703125,-400000.0625,-12552.169921875,-400000.0625,2395.340087890625,-400000.0625
125.2515435218811,-400000.0625,-11295.5595703125,-3158.7099609375,-400000.0625,-12475.7802734375,-400000.0625,2489.330078125,-400000.0625
125.25154733657837,-400000.0625,-11265.1396484375,-3131.580078125,-400000.0625,-12441.400390625,-400000.0625,2541.35009765625,-400000.0625
125.3305652141571,-400000.0625,-11329.75,-3199.909912109375,-400000.0625,-12508.6796875,-400000.0625,2483.64990234375,-400000.0625
125.3431465625763,-400000.0625,-11391.5,-3267.0,-400000.0625,-12576.2001953125,-400000.0625,2413.179931640625,-400000.0625
125.3482015132904,-400000.0625,-11377.1904296875,-3256.080078125,-400000.0625,-12562.3203125,-400000.0625,2428.10009765625,-400000.0625
125.35341763496399,-400000.0625,-11294.509765625,-3175.929931640625,-400000.0625,-12478.0703125,-400000.0625,2504.300048828125,-400000.0625
125.35878014564514,-400000.0625,-11258.3701171875,-3137.39990234375,-400000.0625,-12441.830078125,-400000.0625,2542.31005859375,-400000.0625
125.36436891555786,-400000.0625,-11319.58984375,-3200.530029296875,-400000.0625,-12511.5400390625,-400000.0625,2477.7900390625,-400000.0625
125.36942982673645,-400000.0625,-11387.2998046875,-3270.820068359375,-400000.0625,-12579.16015625,-400000.0625,2405.1201171875,-400000.0625
125.37506079673767,-400000.0625,-11372.849609375,-3260.179931640625,-400000.0625,-12559.75,-400000.0625,2427.010009765625,-400000.0625
125.38064336776733,-400000.0625,-11294.5595703125,-3177.260009765625,-400000.0625,-12481.259765625,-400000.0625,2506.159912109375,-400000.0625
125.38618874549866,-400000.0625,-11258.0302734375,-3139.159912109375,-400000.0625,-12444.58984375,-400000.0625,2547.840087890625,-400000.0625
125.39112162590027,-400000.0625,-11318.349609375,-3205.25,-400000.0625,-12505.2001953125,-400000.0625,2483.030029296875,-400000.0625
125.39113068580627,-400000.0625,-11385.9697265625,-3275.679931640625,-400000.0625,-12575.91015625,-400000.0625,2412.219970703125,-400000.0625
125.39113569259644,-400000.0625,-11374.0498046875,-3257.800048828125,-400000.0625,-12560.7998046875,-400000.0625,2427.010009765625,-400000.0625
125.39113998413086,-400000.0625,-11290.3603515625,-3172.830078125,-400000.0625,-12478.9697265625,-400000.0625,2510.02001953125,-400000.0625
125.39114451408386,-400000.0625,-11249.8798828125,-3130.9599609375,-400000.0625,-12440.5400390625,-400000.0625,2548.840087890625,-400000.0625
125.3911485671997,-400000.0625,-11315.349609375,-3197.77001953125,-400000.0625,-12500.2900390625,-400000.0625,2481.030029296875,-400000.0625
125.39115262031555,-400000.0625,-11383.8701171875,-3268.9599609375,-400000.0625,-12574.7197265625,-400000.0625,2409.510009765625,-400000.0625
125.3911566734314,-400000.0625,-11367.849609375,-3252.1298828125,-400000.0625,-12558.83984375,-400000.0625,2426.0,-400000.0625
125.39116048812866,-400000.0625,-11296.1298828125,-3175.780029296875,-400000.0625,-12479.400390625,-400000.0625,2502.199951171875,-400000.0625
125.3911645412445,-400000.0625,-11259.599609375,-3138.39990234375,-400000.0625,-12446.98046875,-400000.0625,2531.81005859375,-400000.0625
125.3911681175232,-400000.0625,-11322.7900390625,-3205.35009765625,-400000.0625,-12509.8203125,-400000.0625,2475.360107421875,-400000.0625
125.39117240905762,-400000.0625,-11390.0703125,-3270.669921875,-400000.0625,-12572.91015625,-400000.0625,2409.169921875,-400000.0625
125.39117646217346,-400000.0625,-11371.66015625,-3250.889892578125,-400000.0625,-12554.0703125,-400000.0625,2424.239990234375,-400000.0625
125.39118027687073,-400000.0625,-11292.41015625,-3170.35009765625,-400000.0625,-12479.9296875,-400000.0625,2500.8701171875,-400000.0625
125.391184091568,-400000.0625,-11258.41015625,-3137.2099609375,-400000.0625,-12450.080078125,-400000.0625,2538.6298828125,-400000.0625
125.39118790626526,-400000.0625,-11327.8896484375,-3203.580078125,-400000.0625,-12511.2099609375,-400000.0625,2476.5,-400000.0625
125.39119148254395,-400000.0625,-11392.98046875,-3269.6298828125,-400000.0625,-12572.6201171875,-400000.0625,2405.070068359375,-400000.0625
125.39119505882263,-400000.0625,-11373.08984375,-3253.889892578125,-400000.0625,-12558.83984375,-400000.0625,2419.0400390625,-400000.0625
125.39678478240967,-400000.0625,-11294.4599609375,-3171.06005859375,-400000.0625,-12483.9296875,-400000.0625,2506.449951171875,-400000.0625
125.40183401107788,-400000.0625,-11256.4599609375,-3130.43994140625,-400000.0625,-12444.259765625,-400000.0625,2545.5,-400000.0625
125.40694975852966,-400000.0625,-11321.400390625,-3199.669921875,-400000.0625,-12505.3896484375,-400000.0625,2477.60009765625,-400000.0625
125.41171741485596,-400000.0625,-11383.73046875,-3265.429931640625,-400000.0625,-12571.0498046875,-400000.0625,2407.1201171875,-400000.0625
125.42906880378723,-400000.0625,-11367.419921875,-3247.1201171875,-400000.0625,-12558.26953125,-400000.0625,2422.6201171875,-400000.0625
125.4349422454834,-400000.0625,-11295.8896484375,-3169.25,-400000.0625,-12481.6396484375,-400000.0625,2499.43994140625,-400000.0625
125.44396233558655,-400000.0625,-11266.330078125,-3137.06005859375,-400000.0625,-12450.7900390625,-400000.0625,2532.909912109375,-400000.0625
125.44857788085938,-400000.0625,-11332.990234375,-3204.780029296875,-400000.0625,-12512.9697265625,-400000.0625,2459.10009765625,-400000.0625
125.44858646392822,-400000.0625,-11393.6904296875,-3274.6298828125,-400000.0625,-12578.580078125,-400000.0625,2394.9599609375,-400000.0625
125.44859075546265,-400000.0625,-11385.6298828125,-3263.139892578125,-400000.0625,-12564.7099609375,-400000.0625,2430.8701171875,-400000.0625
125.44859433174133,-400000.0625,-11310.2900390625,-3189.090087890625,-400000.0625,-12487.1298828125,-400000.0625,2518.610107421875,-400000.0625
125.4485981464386,-400000.0625,-11272.150390625,-3165.389892578125,-400000.0625,-12460.66015625,-400000.0625,2569.6298828125,-400000.0625
125.44860172271729,-400000.0625,-11338.5703125,-3244.260009765625,-400000.0625,-12521.7900390625,-400000.0625,2521.800048828125,-400000.0625
125.44860529899597,-400000.0625,-11406.6103515625,-3326.85009765625,-400000.0625,-12588.599609375,-400000.0625,2457.52001953125,-400000.0625
125.44860887527466,-400000.0625,-11390.58984375,-3324.4599609375,-400000.0625,-12575.8701171875,-400000.0625,2492.860107421875,-400000.0625
125.44861245155334,-400000.0625,-11303.759765625,-3257.659912109375,-400000.0625,-12501.48046875,-400000.0625,2592.89990234375,-400000.0625
125.44861650466919,-400000.0625,-11253.169921875,-3228.949951171875,-400000.0625,-12459.08984375,-400000.0625,2645.2099609375,-400000.0625
125.4486198425293,-400000.0625,-11321.1201171875,-3305.820068359375,-400000.0625,-12519.26953125,-400000.0625,2593.139892578125,-400000.0625
125.44862341880798,-400000.0625,-11391.3095703125,-3390.60009765625,-400000.0625,-12591.0302734375,-400000.0625,2543.35009765625,-400000.0625
125.44862699508667,-400000.0625,-11368.1796875,-3383.159912109375,-400000.0625,-12573.7197265625,-400000.0625,2585.699951171875,-400000.0625
125.49580574035645,-400000.0625,-11292.2197265625,-3316.550048828125,-400000.0625,-12496.4296875,-400000.0625,2685.97998046875,-400000.0625
125.50196647644043,-400000.0625,-11265.7099609375,-3296.469970703125,-400000.0625,-12474.25,-400000.0625,2740.18994140625,-400000.0625
125.50659394264221,-400000.0625,-11324.3095703125,-3375.580078125,-400000.0625,-12542.76953125,-400000.0625,2686.68994140625,-400000.0625
125.50660014152527,-400000.0625,-11390.5,-3454.8798828125,-400000.0625,-12611.76953125,-400000.0625,2636.0,-400000.0625
125.50660371780396,-400000.0625,-11371.3798828125,-3445.820068359375,-400000.0625,-12596.3701171875,-400000.0625,2674.8701171875,-400000.0625
125.50660729408264,-400000.0625,-11293.83984375,-3371.669921875,-400000.0625,-12518.8798828125,-400000.0625,2772.89990234375,-400000.0625
125.50661039352417,-400000.0625,-11255.5498046875,-3335.18994140625,-400000.0625,-12482.9296875,-400000.0625,2828.8798828125,-400000.0625
125.50661396980286,-400000.0625,-11317.5400390625,-3408.669921875,-400000.0625,-12546.16015625,-400000.0625,2776.47998046875,-400000.0625
125.50661730766296,-400000.0625,-11378.240234375,-3482.6298828125,-400000.0625,-12615.1103515625,-400000.0625,2726.840087890625,-400000.0625
125.50662064552307,-400000.0625,-11350.73046875,-3471.22998046875,-400000.0625,-12598.849609375,-400000.0625,2765.22998046875,-400000.0625
125.5066237449646,-400000.0625,-11275.48046875,-3395.409912109375,-400000.0625,-12522.080078125,-400000.0625,2857.02001953125,-400000.0625
125.50662755966187,-400000.0625,-11255.4599609375,-3365.3701171875,-400000.0625,-12486.7001953125,-400000.0625,2906.56005859375,-400000.0625
125.50663089752197,-400000.0625,-11319.7802734375,-3444.239990234375,-400000.0625,-12557.1298828125,-400000.0625,2851.389892578125,-400000.0625
125.50663423538208,-400000.0625,-11377.1904296875,-3514.909912109375,-400000.0625,-12625.98046875,-400000.0625,2791.68994140625,-400000.0625
125.50663757324219,-400000.0625,-11353.7802734375,-3495.31005859375,-400000.0625,-12606.6201171875,-400000.0625,2815.6298828125,-400000.0625
125.5066409111023,-400000.0625,-11275.8203125,-3419.830078125,-400000.0625,-12529.1396484375,-400000.0625,2914.239990234375,-400000.0625
125.55571222305298,-400000.0625,-11249.7802734375,-3392.510009765625,-400000.0625,-12497.240234375,-400000.0625,2959.06005859375,-400000.0625
125.56494760513306,-400000.0625,-11311.25,-3458.02001953125,-400000.0625,-12561.419921875,-400000.0625,2894.260009765625,-400000.0625
125.56965732574463,-400000.0625,-11378.0,-3531.409912109375,-400000.0625,-12627.7900390625,-400000.0625,2836.56005859375,-400000.0625
125.56966519355774,-400000.0625,-11362.8896484375,-3515.580078125,-400000.0625,-12609.4404296875,-400000.0625,2862.68994140625,-400000.0625
125.56966924667358,-400000.0625,-11276.9599609375,-3434.22998046875,-400000.0625,-12531.1396484375,-400000.0625,2947.760009765625,-400000.0625
125.56967353820801,-400000.0625,-11231.9501953125,-3399.419921875,-400000.0625,-12495.1904296875,-400000.0625,2989.719970703125,-400000.0625
125.56967735290527,-400000.0625,-11302.08984375,-3468.699951171875,-400000.0625,-12562.6103515625,-400000.0625,2927.830078125,-400000.0625
125.56968116760254,-400000.0625,-11373.8603515625,-3541.179931640625,-400000.0625,-12627.7900390625,-400000.0625,2864.97998046875,-400000.0625
125.56968474388123,-400000.0625,-11347.9599609375,-3520.820068359375,-400000.0625,-12607.33984375,-400000.0625,2886.77001953125,-400000.0625
125.56968855857849,-400000.0625,-11266.08984375,-3442.6201171875,-400000.0625,-12530.759765625,-400000.0625,2978.52001953125,-400000.0625
125.56969213485718,-400000.0625,-11232.6201171875,-3407.760009765625,-400000.0625,-12493.08984375,-400000.0625,3006.889892578125,-400000.0625
125.56969594955444,-400000.0625,-11301.7099609375,-3479.199951171875,-400000.0625,-12562.4697265625,-400000.0625,2929.68994140625,-400000.0625
125.56969952583313,-400000.0625,-11369.849609375,-3547.570068359375,-400000.0625,-12633.5595703125,-400000.0625,2859.550048828125,-400000.0625
125.5697033405304,-400000.0625,-11353.919921875,-3529.02001953125,-400000.0625,-12615.5400390625,-400000.0625,2876.81005859375,-400000.0625
125.56970715522766,-400000.0625,-11277.7197265625,-3446.010009765625,-400000.0625,-12534.48046875,-400000.0625,2957.77001953125,-400000.0625
125.56971073150635,-400000.0625,-11235.0498046875,-3403.429931640625,-400000.0625,-12494.3701171875,-400000.0625,2995.5400390625,-400000.0625
125.62993359565735,-400000.0625,-11300.51953125,-3471.659912109375,-400000.0625,-12563.2802734375,-400000.0625,2918.429931640625,-400000.0625
125.63513207435608,-400000.0625,-11371.900390625,-3542.949951171875,-400000.0625,-12633.51953125,-400000.0625,2846.050048828125,-400000.0625
125.63989901542664,-400000.0625,-11352.16015625,-3519.340087890625,-400000.0625,-12612.6796875,-400000.0625,2866.409912109375,-400000.0625
125.63990783691406,-400000.0625,-11273.8095703125,-3437.469970703125,-400000.0625,-12530.51953125,-400000.0625,2948.429931640625,-400000.0625
125.63991260528564,-400000.0625,-11243.5400390625,-3399.419921875,-400000.0625,-12498.0,-400000.0625,2979.419921875,-400000.0625
125.63991641998291,-400000.0625,-11312.4404296875,-3468.93994140625,-400000.0625,-12569.3798828125,-400000.0625,2906.800048828125,-400000.0625
125.6399199962616,-400000.0625,-11377.8603515625,-3537.1298828125,-400000.0625,-12634.2802734375,-400000.0625,2838.0400390625,-400000.0625
125.63992381095886,-400000.0625,-11354.259765625,-3510.760009765625,-400000.0625,-12607.76953125,-400000.0625,2853.5400390625,-400000.0625
125.63992738723755,-400000.0625,-11273.48046875,-3427.320068359375,-400000.0625,-12529.08984375,-400000.0625,2933.31005859375,-400000.0625
125.63993120193481,-400000.0625,-11242.919921875,-3392.739990234375,-400000.0625,-12498.8095703125,-400000.0625,2971.27001953125,-400000.0625
125.63993501663208,-400000.0625,-11308.8603515625,-3459.409912109375,-400000.0625,-12559.75,-400000.0625,2898.360107421875,-400000.0625
125.63993859291077,-400000.0625,-11380.009765625,-3529.409912109375,-400000.0625,-12628.599609375,-400000.0625,2822.780029296875,-400000.0625
125.63994193077087,-400000.0625,-11355.9697265625,-3508.85009765625,-400000.0625,-12609.5302734375,-400000.0625,2842.090087890625,-400000.0625
125.63994550704956,-400000.0625,-11274.4296875,-3423.550048828125,-400000.0625,-12528.990234375,-400000.0625,2923.969970703125,-400000.0625
125.63994908332825,-400000.0625,-11245.6298828125,-3389.169921875,-400000.0625,-12496.759765625,-400000.0625,2961.72998046875,-400000.0625
125.63995265960693,-400000.0625,-11310.5302734375,-3457.739990234375,-400000.0625,-12563.75,-400000.0625,2893.159912109375,-400000.0625
125.73653244972229,-400000.0625,-11378.33984375,-3523.110107421875,-400000.0625,-12629.990234375,-400000.0625,2819.35009765625,-400000.0625
125.74792504310608,-400000.0625,-11355.5400390625,-3500.409912109375,-400000.0625,-12610.2001953125,-400000.0625,2835.889892578125,-400000.0625
125.7527539730072,-400000.0625,-11271.6201171875,-3411.340087890625,-400000.0625,-12524.7001953125,-400000.0625,2926.5400390625,-400000.0625
125.75276231765747,-400000.0625,-11239.669921875,-3379.199951171875,-400000.0625,-12495.3798828125,-400000.0625,2957.06005859375,-400000.0625
125.75276684761047,-400000.0625,-11314.490234375,-3454.2099609375,-400000.0625,-12567.8603515625,-400000.0625,2880.81005859375,-400000.0625
125.75277066230774,-400000.0625,-11385.009765625,-3526.31005859375,-400000.0625,-12635.23046875,-400000.0625,2801.93994140625,-400000.0625
125.75277495384216,-400000.0625,-11362.4599609375,-3500.610107421875,-400000.0625,-12608.33984375,-400000.0625,2823.5,-400000.0625
125.75277876853943,-400000.0625,-11278.2001953125,-3416.489990234375,-400000.0625,-12523.1796875,-400000.0625,2908.610107421875,-400000.0625
125.7527825832367,-400000.0625,-11246.9697265625,-3380.6298828125,-400000.0625,-12491.6103515625,-400000.0625,2943.280029296875,-400000.0625
125.75278615951538,-400000.0625,-11316.009765625,-3450.580078125,-400000.0625,-12563.849609375,-400000.0625,2866.080078125,-400000.0625
125.75278973579407,-400000.0625,-11386.009765625,-3519.300048828125,-400000.0625,-12626.2197265625,-400000.0625,2794.360107421875,-400000.0625
125.75279331207275,-400000.0625,-11357.740234375,-3494.840087890625,-400000.0625,-12607.0498046875,-400000.0625,2818.820068359375,-400000.0625
125.75279688835144,-400000.0625,-11273.0,-3405.909912109375,-400000.0625,-12526.900390625,-400000.0625,2907.56005859375,-400000.0625
125.75280046463013,-400000.0625,-11243.76953125,-3373.340087890625,-400000.0625,-12497.4697265625,-400000.0625,2936.550048828125,-400000.0625
125.75280404090881,-400000.0625,-11317.349609375,-3446.669921875,-400000.0625,-12571.0,-400000.0625,2861.68994140625,-400000.0625
125.7528076171875,-400000.0625,-11385.73046875,-3517.010009765625,-400000.0625,-12634.3701171875,-400000.0625,2788.2099609375,-400000.0625
125.76309275627136,-400000.0625,-11363.599609375,-3493.639892578125,-400000.0625,-12610.9599609375,-400000.0625,2809.18994140625,-400000.0625
125.7685079574585,-400000.0625,-11283.919921875,-3410.199951171875,-400000.0625,-12524.83984375,-400000.0625,2895.260009765625,-400000.0625
125.77329230308533,-400000.0625,-11254.740234375,-3380.43994140625,-400000.0625,-12494.08984375,-400000.0625,2922.199951171875,-400000.0625
125.77330040931702,-400000.0625,-11324.169921875,-3448.489990234375,-400000.0625,-12567.4697265625,-400000.0625,2851.530029296875,-400000.0625
125.77330470085144,-400000.0625,-11383.8701171875,-3506.949951171875,-400000.0625,-12620.3095703125,-400000.0625,2786.449951171875,-400000.0625
125.77330803871155,-400000.0625,-11364.509765625,-3486.679931640625,-400000.0625,-12603.0498046875,-400000.0625,2799.080078125,-400000.0625
125.77331209182739,-400000.0625,-11289.4501953125,-3409.239990234375,-400000.0625,-12531.8095703125,-400000.0625,2881.47998046875,-400000.0625
125.77331829071045,-400000.0625,-11254.0302734375,-3374.429931640625,-400000.0625,-12503.76953125,-400000.0625,2919.050048828125,-400000.0625
125.77332186698914,-400000.0625,-11321.1201171875,-3443.429931640625,-400000.0625,-12571.0498046875,-400000.0625,2843.669921875,-400000.0625
125.77332544326782,-400000.0625,-11387.1103515625,-3510.760009765625,-400000.0625,-12629.3203125,-400000.0625,2772.280029296875,-400000.0625
125.77332925796509,-400000.0625,-11365.1796875,-3486.590087890625,-400000.0625,-12603.08984375,-400000.0625,2799.080078125,-400000.0625
125.77333378791809,-400000.0625,-11284.5400390625,-3401.3798828125,-400000.0625,-12520.080078125,-400000.0625,2886.10009765625,-400000.0625
125.77333736419678,-400000.0625,-11252.6904296875,-3368.760009765625,-400000.0625,-12490.419921875,-400000.0625,2920.25,-400000.0625
125.77334117889404,-400000.0625,-11322.6396484375,-3441.860107421875,-400000.0625,-12565.900390625,-400000.0625,2842.139892578125,-400000.0625
125.77334475517273,-400000.0625,-11391.3095703125,-3510.330078125,-400000.0625,-12627.080078125,-400000.0625,2773.6201171875,-400000.0625
125.77334833145142,-400000.0625,-11370.4697265625,-3487.830078125,-400000.0625,-12601.7099609375,-400000.0625,2798.080078125,-400000.0625
125.81231260299683,-400000.0625,-11285.01953125,-3402.81005859375,-400000.0625,-12521.5498046875,-400000.0625,2876.659912109375,-400000.0625
125.81815004348755,-400000.0625,-11254.599609375,-3370.139892578125,-400000.0625,-12494.08984375,-400000.0625,2905.989990234375,-400000.0625
125.82244968414307,-400000.0625,-11326.4599609375,-3444.47998046875,-400000.0625,-12567.8603515625,-400000.0625,2837.469970703125,-400000.0625
125.82245779037476,-400000.0625,-11392.98046875,-3510.760009765625,-400000.0625,-12629.419921875,-400000.0625,2769.330078125,-400000.0625
125.82246232032776,-400000.0625,-11365.9404296875,-3483.919921875,-400000.0625,-12604.240234375,-400000.0625,2794.7900390625,-400000.0625
125.82246661186218,-400000.0625,-11287.259765625,-3404.669921875,-400000.0625,-12526.3203125,-400000.0625,2878.429931640625,-400000.0625
125.82247066497803,-400000.0625,-11254.9296875,-3370.860107421875,-400000.0625,-12495.849609375,-400000.0625,2905.659912109375,-400000.0625
125.82247424125671,-400000.0625,-11321.740234375,-3438.659912109375,-400000.0625,-12563.9501953125,-400000.0625,2835.1298828125,-400000.0625
125.82247805595398,-400000.0625,-11393.6396484375,-3509.139892578125,-400000.0625,-12626.7900390625,-400000.0625,2761.030029296875,-400000.0625
125.82248210906982,-400000.0625,-11372.51953125,-3488.06005859375,-400000.0625,-12605.3798828125,-400000.0625,2786.969970703125,-400000.0625
125.82248616218567,-400000.0625,-11293.2197265625,-3403.7099609375,-400000.0625,-12526.23046875,-400000.0625,2874.0400390625,-400000.0625
125.82249021530151,-400000.0625,-11263.849609375,-3372.860107421875,-400000.0625,-12497.8095703125,-400000.0625,2902.93994140625,-400000.0625
125.8224937915802,-400000.0625,-11325.9296875,-3440.81005859375,-400000.0625,-12563.330078125,-400000.0625,2828.7900390625,-400000.0625
125.82249808311462,-400000.0625,-11389.2998046875,-3505.89990234375,-400000.0625,-12625.9296875,-400000.0625,2762.1298828125,-400000.0625
125.82250213623047,-400000.0625,-11366.7998046875,-3483.340087890625,-400000.0625,-12598.2802734375,-400000.0625,2787.72998046875,-400000.0625
125.82250595092773,-400000.0625,-11287.6396484375,-3401.469970703125,-400000.0625,-12522.169921875,-400000.0625,2869.75,-400000.0625
125.89263153076172,-400000.0625,-11259.0302734375,-3370.090087890625,-400000.0625,-12497.3798828125,-400000.0625,2903.4599609375,-400000.0625
125.9056875705719,-400000.0625,-11332.080078125,-3442.340087890625,-400000.0625,-12568.1904296875,-400000.0625,2829.840087890625,-400000.0625
125.9107141494751,-400000.0625,-11395.83984375,-3508.22998046875,-400000.0625,-12631.6103515625,-400000.0625,2763.800048828125,-400000.0625
125.91629552841187,-400000.0625,-11371.7998046875,-3481.580078125,-400000.0625,-12599.1796875,-400000.0625,2793.1201171875,-400000.0625
125.9211893081665,-400000.0625,-11291.3095703125,-3397.989990234375,-400000.0625,-12518.0703125,-400000.0625,2874.800048828125,-400000.0625
125.92120003700256,-400000.0625,-11262.6103515625,-3369.52001953125,-400000.0625,-12490.849609375,-400000.0625,2904.27001953125,-400000.0625
125.92120456695557,-400000.0625,-11329.9404296875,-3439.949951171875,-400000.0625,-12568.0498046875,-400000.0625,2828.030029296875,-400000.0625
125.92120885848999,-400000.0625,-11392.7900390625,-3504.3701171875,-400000.0625,-12630.0302734375,-400000.0625,2757.360107421875,-400000.0625
125.92121267318726,-400000.0625,-11372.4697265625,-3479.81005859375,-400000.0625,-12604.759765625,-400000.0625,2785.35009765625,-400000.0625
125.9212167263031,-400000.0625,-11292.7001953125,-3397.800048828125,-400000.0625,-12526.080078125,-400000.0625,2869.989990234375,-400000.0625
125.92122077941895,-400000.0625,-11264.3701171875,-3372.719970703125,-400000.0625,-12500.669921875,-400000.0625,2903.3701171875,-400000.0625
125.92122459411621,-400000.0625,-11334.7099609375,-3443.2900390625,-400000.0625,-12568.3798828125,-400000.0625,2829.97998046875,-400000.0625
125.92122864723206,-400000.0625,-11397.2197265625,-3510.81005859375,-400000.0625,-12629.9404296875,-400000.0625,2764.85009765625,-400000.0625
125.9212327003479,-400000.0625,-11374.2802734375,-3482.2900390625,-400000.0625,-12605.1396484375,-400000.0625,2791.169921875,-400000.0625
125.92123627662659,-400000.0625,-11295.419921875,-3397.75,-400000.0625,-12522.75,-400000.0625,2875.139892578125,-400000.0625
125.92124009132385,-400000.0625,-11263.7998046875,-3367.469970703125,-400000.0625,-12489.1796875,-400000.0625,2907.89990234375,-400000.0625
125.9443290233612,-400000.0625,-11330.7001953125,-3435.7099609375,-400000.0625,-12556.4599609375,-400000.0625,2831.169921875,-400000.0625
125.94993948936462,-400000.0625,-11399.0302734375,-3509.090087890625,-400000.0625,-12629.9404296875,-400000.0625,2761.889892578125,-400000.0625
125.95531821250916,-400000.0625,-11375.3798828125,-3485.35009765625,-400000.0625,-12606.2900390625,-400000.0625,2791.31005859375,-400000.0625
125.96008467674255,-400000.0625,-11301.08984375,-3406.3798828125,-400000.0625,-12531.1396484375,-400000.0625,2871.510009765625,-400000.0625
125.96009397506714,-400000.0625,-11275.0498046875,-3380.489990234375,-400000.0625,-12500.48046875,-400000.0625,2900.7900390625,-400000.0625
125.96009874343872,-400000.0625,-11346.6298828125,-3452.969970703125,-400000.0625,-12567.08984375,-400000.0625,2831.889892578125,-400000.0625
125.96010279655457,-400000.0625,-11407.1396484375,-3514.389892578125,-400000.0625,-12626.509765625,-400000.0625,2764.989990234375,-400000.0625
125.96010661125183,-400000.0625,-11378.76953125,-3484.919921875,-400000.0625,-12599.419921875,-400000.0625,2799.320068359375,-400000.0625
125.96011018753052,-400000.0625,-11298.900390625,-3402.949951171875,-400000.0625,-12527.23046875,-400000.0625,2879.909912109375,-400000.0625
125.96011424064636,-400000.0625,-11273.150390625,-3374.530029296875,-400000.0625,-12499.91015625,-400000.0625,2907.320068359375,-400000.0625
125.96011805534363,-400000.0625,-11348.150390625,-3451.06005859375,-400000.0625,-12567.900390625,-400000.0625,2839.610107421875,-400000.0625
125.9601218700409,-400000.0625,-11401.990234375,-3512.719970703125,-400000.0625,-12629.7001953125,-400000.0625,2776.340087890625,-400000.0625
125.96012544631958,-400000.0625,-11376.5703125,-3484.5400390625,-400000.0625,-12607.1904296875,-400000.0625,2802.469970703125,-400000.0625
125.96012902259827,-400000.0625,-11297.5595703125,-3403.22998046875,-400000.0625,-12526.5595703125,-400000.0625,2879.52001953125,-400000.0625
125.96013283729553,-400000.0625,-11266.08984375,-3368.3798828125,-400000.0625,-12492.1298828125,-400000.0625,2914.81005859375,-400000.0625
125.96013689041138,-400000.0625,-11335.849609375,-3441.18994140625,-400000.0625,-12561.080078125,-400000.0625,2847.239990234375,-400000.0625
126.00572538375854,-400000.0625,-11397.599609375,-3504.3701171875,-400000.0625,-12623.1201171875,-400000.0625,2780.06005859375,-400000.0625
126.01579475402832,-400000.0625,-11376.669921875,-3481.10009765625,-400000.0625,-12597.75,-400000.0625,2806.330078125,-400000.0625
126.0206868648529,-400000.0625,-11299.7099609375,-3401.0400390625,-400000.0625,-12521.5498046875,-400000.0625,2891.300048828125,-400000.0625
126.02069520950317,-400000.0625,-11268.7099609375,-3371.429931640625,-400000.0625,-12497.8603515625,-400000.0625,2918.10009765625,-400000.0625
126.02070021629333,-400000.0625,-11344.5302734375,-3441.139892578125,-400000.0625,-12573.580078125,-400000.0625,2844.2900390625,-400000.0625
126.0207040309906,-400000.0625,-11422.0595703125,-3515.429931640625,-400000.0625,-12645.48046875,-400000.0625,2784.06005859375,-400000.0625
126.02070784568787,-400000.0625,-11401.849609375,-3494.739990234375,-400000.0625,-12626.080078125,-400000.0625,2809.6201171875,-400000.0625
126.02071166038513,-400000.0625,-11301.419921875,-3395.64990234375,-400000.0625,-12528.0400390625,-400000.0625,2874.330078125,-400000.0625
126.0207154750824,-400000.0625,-11254.5,-3350.31005859375,-400000.0625,-12491.6103515625,-400000.0625,2886.389892578125,-400000.0625
126.02071952819824,-400000.0625,-11321.58984375,-3417.830078125,-400000.0625,-12557.080078125,-400000.0625,2796.320068359375,-400000.0625
126.02072334289551,-400000.0625,-11383.8701171875,-3466.179931640625,-400000.0625,-12616.490234375,-400000.0625,2712.25,-400000.0625
126.02072787284851,-400000.0625,-11339.3798828125,-3425.219970703125,-400000.0625,-12584.7802734375,-400000.0625,2719.1201171875,-400000.0625
126.02073168754578,-400000.0625,-11251.740234375,-3331.760009765625,-400000.0625,-12506.3896484375,-400000.0625,2767.090087890625,-400000.0625
126.02073550224304,-400000.0625,-11213.16015625,-3289.219970703125,-400000.0625,-12479.1201171875,-400000.0625,2771.89990234375,-400000.0625
126.02073907852173,-400000.0625,-11274.2900390625,-3341.14990234375,-400000.0625,-12540.2900390625,-400000.0625,2670.909912109375,-400000.0625
126.02074337005615,-400000.0625,-11321.6396484375,-3383.5400390625,-400000.0625,-12588.6904296875,-400000.0625,2577.2099609375,-400000.0625
126.0859603881836,-400000.0625,-11294.83984375,-3340.669921875,-400000.0625,-12566.51953125,-400000.0625,2574.6298828125,-400000.0625
126.09137725830078,-400000.0625,-11219.7900390625,-3248.739990234375,-400000.0625,-12486.5498046875,-400000.0625,2626.610107421875,-400000.0625
126.09671950340271,-400000.0625,-11181.7900390625,-3197.239990234375,-400000.0625,-12452.5595703125,-400000.0625,2623.3701171875,-400000.0625
126.10163903236389,-400000.0625,-11241.7197265625,-3247.360107421875,-400000.0625,-12515.16015625,-400000.0625,2521.89990234375,-400000.0625
126.10164833068848,-400000.0625,-11296.3203125,-3283.5,-400000.0625,-12571.0498046875,-400000.0625,2436.260009765625,-400000.0625
126.10165238380432,-400000.0625,-11266.9501953125,-3237.580078125,-400000.0625,-12540.2001953125,-400000.0625,2440.60009765625,-400000.0625
126.10165667533875,-400000.0625,-11192.2802734375,-3139.110107421875,-400000.0625,-12461.849609375,-400000.0625,2496.239990234375,-400000.0625
126.10166025161743,-400000.0625,-11155.7001953125,-3086.3798828125,-400000.0625,-12430.0498046875,-400000.0625,2501.77001953125,-400000.0625
126.10166454315186,-400000.0625,-11225.419921875,-3135.72998046875,-400000.0625,-12502.48046875,-400000.0625,2403.8798828125,-400000.0625
126.10166835784912,-400000.0625,-11281.58984375,-3180.4599609375,-400000.0625,-12559.080078125,-400000.0625,2327.159912109375,-400000.0625
126.10167217254639,-400000.0625,-11251.0703125,-3131.10009765625,-400000.0625,-12525.0400390625,-400000.0625,2336.1201171875,-400000.0625
126.10167622566223,-400000.0625,-11169.48046875,-3033.449951171875,-400000.0625,-12446.1201171875,-400000.0625,2402.2099609375,-400000.0625
126.1016800403595,-400000.0625,-11142.9697265625,-2992.06005859375,-400000.0625,-12420.7998046875,-400000.0625,2414.0400390625,-400000.0625
126.10168409347534,-400000.0625,-11212.6796875,-3047.0400390625,-400000.0625,-12485.4599609375,-400000.0625,2327.969970703125,-400000.0625
126.10168790817261,-400000.0625,-11275.099609375,-3095.530029296875,-400000.0625,-12545.16015625,-400000.0625,2259.39990234375,-400000.0625
126.10169196128845,-400000.0625,-11255.3603515625,-3061.719970703125,-400000.0625,-12526.7001953125,-400000.0625,2275.0400390625,-400000.0625
126.13881802558899,-400000.0625,-11179.2099609375,-2978.179931640625,-400000.0625,-12451.26953125,-400000.0625,2350.280029296875,-400000.0625
126.14931178092957,-400000.0625,-11150.4599609375,-2946.89990234375,-400000.0625,-12424.4697265625,-400000.0625,2373.409912109375,-400000.0625
126.15538120269775,-400000.0625,-11213.2099609375,-3012.89990234375,-400000.0625,-12488.3701171875,-400000.0625,2302.31005859375,-400000.0625
126.16067218780518,-400000.0625,-11280.0595703125,-3077.7900390625,-400000.0625,-12554.98046875,-400000.0625,2242.0400390625,-400000.0625
126.16593503952026,-400000.0625,-11258.2197265625,-3055.860107421875,-400000.0625,-12531.3798828125,-400000.0625,2270.97998046875,-400000.0625
126.1706919670105,-400000.0625,-11181.7900390625,-2977.989990234375,-400000.0625,-12442.0703125,-400000.0625,2351.949951171875,-400000.0625
126.17070055007935,-400000.0625,-11158.5595703125,-2952.10009765625,-400000.0625,-12418.3701171875,-400000.0625,2383.570068359375,-400000.0625
126.17070508003235,-400000.0625,-11227.23046875,-3027.389892578125,-400000.0625,-12494.0400390625,-400000.0625,2309.889892578125,-400000.0625
126.1707091331482,-400000.0625,-11288.259765625,-3090.10009765625,-400000.0625,-12553.5498046875,-400000.0625,2245.760009765625,-400000.0625
126.17071318626404,-400000.0625,-11266.2802734375,-3063.06005859375,-400000.0625,-12529.419921875,-400000.0625,2276.800048828125,-400000.0625
