time,ch1,ch2,ch3,ch4,ch5,ch6,ch7,ch8
0.04599618911743164,-7262.419921875,-15973.9501953125,-603.719970703125,-400000.0625,-400000.0625,-400000.0625,-400000.0625,-400000.0625
0.09229397773742676,-7238.91015625,-15956.2099609375,-582.7899780273438,-400000.0625,-400000.0625,-400000.0625,-400000.0625,-400000.0625
0.12423110008239746,-7286.60009765625,-15992.830078125,-622.219970703125,-400000.0625,-400000.0625,-400000.0625,-400000.0625,-400000.0625
0.14751267433166504,-7337.759765625,-16034.7998046875,-670.239990234375,-400000.0625,-400000.0625,-400000.0625,-400000.0625,-400000.0625
0.16566133499145508,-7323.080078125,-16016.2001953125,-655.5999755859375,-400000.0625,-400000.0625,-400000.0625,-400000.0625,-400000.0625
0.17912793159484863,-7261.7099609375,-15960.650390625,-597.3800048828125,-400000.0625,-400000.0625,-400000.0625,-400000.0625,-400000.0625
0.1945781707763672,-7244.2099609375,-15942.6201171875,-583.9299926757812,-400000.0625,-400000.0625,-400000.0625,-400000.0625,-400000.0625
0.21291279792785645,-7292.56005859375,-15987.0595703125,-630.0,-400000.0625,-400000.0625,-400000.0625,-400000.0625,-400000.0625
0.2310495376586914,-7337.08984375,-16023.349609375,-672.0499877929688,-400000.0625,-400000.0625,-400000.0625,-400000.0625,-400000.0625
0.2576785087585449,-7316.72998046875,-16010.099609375,-657.0800170898438,-400000.0625,-400000.0625,-400000.0625,-400000.0625,-400000.0625
0.27484130859375,-7254.41015625,-15959.7900390625,-602.4400024414062,-400000.0625,-400000.0625,-400000.0625,-400000.0625,-400000.0625
0.29087042808532715,-7225.7998046875,-15926.169921875,-575.780029296875,-400000.0625,-400000.0625,-400000.0625,-400000.0625,-400000.0625
0.30112791061401367,-7271.43017578125,-15964.6103515625,-618.5999755859375,-400000.0625,-400000.0625,-400000.0625,-400000.0625,-400000.0625
0.32215189933776855,-7322.02978515625,-15996.5498046875,-662.8499755859375,-400000.0625,-400000.0625,-400000.0625,-400000.0625,-400000.0625
0.34227919578552246,-7306.81982421875,-15976.5302734375,-644.489990234375,-400000.0625,-400000.0625,-400000.0625,-400000.0625,-400000.0625
0.3580284118652344,-7246.39990234375,-15928.0302734375,-586.3699951171875,-400000.0625,-400000.0625,-400000.0625,-400000.0625,-400000.0625
0.37474656105041504,-7220.56005859375,-15903.669921875,-564.8599853515625,-400000.0625,-400000.0625,-400000.0625,-400000.0625,-400000.0625
0.3867800235748291,-7268.759765625,-15939.08984375,-607.0599975585938,-400000.0625,-400000.0625,-400000.0625,-400000.0625,-400000.0625
0.4106619358062744,-7324.4599609375,-15988.400390625,-658.8900146484375,-400000.0625,-400000.0625,-400000.0625,-400000.0625,-400000.0625
0.4268684387207031,-7310.6298828125,-15968.849609375,-640.6300048828125,-400000.0625,-400000.0625,-400000.0625,-400000.0625,-400000.0625
0.4480001926422119,-7248.4501953125,-15921.4501953125,-583.97998046875,-400000.0625,-400000.0625,-400000.0625,-400000.0625,-400000.0625
0.46356773376464844,-7224.3701171875,-15906.8095703125,-566.2899780273438,-400000.0625,-400000.0625,-400000.0625,-400000.0625,-400000.0625
0.4827613830566406,-7272.72021484375,-15941.0,-604.010009765625,-400000.0625,-400000.0625,-400000.0625,-400000.0625,-400000.0625
0.4970850944519043,-7324.22021484375,-15989.6396484375,-653.3599853515625,-400000.0625,-400000.0625,-400000.0625,-400000.0625,-400000.0625
0.5153403282165527,-7308.0498046875,-15973.0498046875,-637.010009765625,-400000.0625,-400000.0625,-400000.0625,-400000.0625,-400000.0625
0.5287950038909912,-7248.58984375,-15921.8798828125,-580.97998046875,-400000.0625,-400000.0625,-400000.0625,-400000.0625,-400000.0625
0.5480928421020508,-7222.27001953125,-15902.330078125,-560.3300170898438,-400000.0625,-400000.0625,-400000.0625,-400000.0625,-400000.0625
0.5614509582519531,-7269.14013671875,-15936.66015625,-603.719970703125,-400000.0625,-400000.0625,-400000.0625,-400000.0625,-400000.0625
0.5891785621643066,-7323.31005859375,-15986.7802734375,-654.5499877929688,-400000.0625,-400000.0625,-400000.0625,-400000.0625,-400000.0625
0.6021265983581543,-7309.490234375,-15980.2001953125,-645.72998046875,-400000.0625,-400000.0625,-400000.0625,-400000.0625,-400000.0625
0.624579668045044,-7250.1201171875,-15925.8896484375,-585.8900146484375,-400000.0625,-400000.0625,-400000.0625,-400000.0625,-400000.0625
0.6349265575408936,-7226.08984375,-15909.48046875,-566.010009765625,-400000.0625,-400000.0625,-400000.0625,-400000.0625,-400000.0625
0.6484510898590088,-7277.490234375,-15949.8203125,-613.02001953125,-400000.0625,-400000.0625,-400000.0625,-400000.0625,-400000.0625
0.6627476215362549,-7331.0400390625,-15989.400390625,-657.6099853515625,-400000.0625,-400000.0625,-400000.0625,-400000.0625,-400000.0625
0.6767313480377197,-7311.009765625,-15966.990234375,-633.5700073242188,-400000.0625,-400000.0625,-400000.0625,-400000.0625,-400000.0625
0.6888079643249512,-7245.64013671875,-15916.400390625,-578.1699829101562,-400000.0625,-400000.0625,-400000.0625,-400000.0625,-400000.0625
0.703763484954834,-7221.60009765625,-15904.0498046875,-562.719970703125,-400000.0625,-400000.0625,-400000.0625,-400000.0625,-400000.0625
0.7199671268463135,-7272.85986328125,-15945.2001953125,-603.9600219726562,-400000.0625,-400000.0625,-400000.0625,-400000.0625,-400000.0625
0.7346286773681641,-7323.27001953125,-15986.400390625,-651.739990234375,-400000.0625,-400000.0625,-400000.0625,-400000.0625,-400000.0625
0.7470798492431641,-7304.6201171875,-15971.759765625,-633.9099731445312,-400000.0625,-400000.0625,-400000.0625,-400000.0625,-400000.0625
0.7647864818572998,-7244.58984375,-15926.080078125,-583.3599853515625,-400000.0625,-400000.0625,-400000.0625,-400000.0625,-400000.0625
0.7756621837615967,-7222.509765625,-15910.7197265625,-562.9500122070312,-400000.0625,-400000.0625,-400000.0625,-400000.0625,-400000.0625
0.7909936904907227,-7269.669921875,-15946.490234375,-604.25,-400000.0625,-400000.0625,-400000.0625,-400000.0625,-400000.0625
0.8043625354766846,-7322.8798828125,-15989.9697265625,-655.9400024414062,-400000.0625,-400000.0625,-400000.0625,-400000.0625,-400000.0625
0.8221137523651123,-7304.56982421875,-15981.2001953125,-640.3400268554688,-400000.0625,-400000.0625,-400000.0625,-400000.0625,-400000.0625
0.8374392986297607,-7241.68017578125,-15934.330078125,-586.3699951171875,-400000.0625,-400000.0625,-400000.0625,-400000.0625,-400000.0625
0.8462224006652832,-7219.5498046875,-15908.0,-561.6699829101562,-400000.0625,-400000.0625,-400000.0625,-400000.0625,-400000.0625
0.8582346439361572,-7265.6201171875,-15946.4404296875,-604.1500244140625,-400000.0625,-400000.0625,-400000.0625,-400000.0625,-400000.0625
0.870887041091919,-7314.10986328125,-15984.580078125,-649.5,-400000.0625,-400000.0625,-400000.0625,-400000.0625,-400000.0625
0.8840723037719727,-7292.93994140625,-15969.23046875,-631.1900024414062,-400000.0625,-400000.0625,-400000.0625,-400000.0625,-400000.0625
0.893665075302124,-7234.91015625,-15921.6396484375,-572.25,-400000.0625,-400000.0625,-400000.0625,-400000.0625,-400000.0625
0.9052343368530273,-7221.27001953125,-15910.2001953125,-563.0,-400000.0625,-400000.0625,-400000.0625,-400000.0625,-400000.0625
0.9198696613311768,-7266.47021484375,-15950.1103515625,-605.77001953125,-400000.0625,-400000.0625,-400000.0625,-400000.0625,-400000.0625
0.9327106475830078,-7317.5400390625,-15989.6396484375,-653.9299926757812,-400000.0625,-400000.0625,-400000.0625,-400000.0625,-400000.0625
0.945279598236084,-7297.330078125,-15969.330078125,-633.4299926757812,-400000.0625,-400000.0625,-400000.0625,-400000.0625,-400000.0625
0.9578690528869629,-7238.580078125,-15928.83984375,-578.9299926757812,-400000.0625,-400000.0625,-400000.0625,-400000.0625,-400000.0625
0.9703226089477539,-7224.3701171875,-15936.900390625,-567.6300048828125,-400000.0625,-400000.0625,-400000.0625,-400000.0625,-400000.0625
0.9833545684814453,-7276.39013671875,-15994.98046875,-613.5499877929688,-400000.0625,-400000.0625,-400000.0625,-400000.0625,-400000.0625
0.997769832611084,-7326.31982421875,-16015.8701171875,-652.6500244140625,-400000.0625,-400000.0625,-400000.0625,-400000.0625,-400000.0625
1.0136058330535889,-7309.580078125,-15987.259765625,-630.3800048828125,-400000.0625,-400000.0625,-400000.0625,-400000.0625,-400000.0625
1.0276598930358887,-7257.41015625,-15955.9296875,-584.8400268554688,-400000.0625,-400000.0625,-400000.0625,-400000.0625,-400000.0625
1.040510892868042,-7252.5498046875,-15967.0400390625,-572.8200073242188,-400000.0625,-400000.0625,-400000.0625,-400000.0625,-400000.0625
1.0534770488739014,-7319.5,-16017.3896484375,-624.6099853515625,-400000.0625,-400000.0625,-400000.0625,-400000.0625,-400000.0625
1.0666885375976562,-7386.35009765625,-16076.8095703125,-671.47998046875,-400000.0625,-400000.0625,-400000.0625,-400000.0625,-400000.0625
1.0804383754730225,-7376.669921875,-16070.1796875,-651.4600219726562,-400000.0625,-400000.0625,-400000.0625,-400000.0625,-400000.0625
1.094334363937378,-7321.7900390625,-16020.2001953125,-591.0399780273438,-400000.0625,-400000.0625,-400000.0625,-400000.0625,-400000.0625
1.102306842803955,-7316.64013671875,-16016.2900390625,-577.3099975585938,-400000.0625,-400000.0625,-400000.0625,-400000.0625,-400000.0625
1.1177494525909424,-7373.330078125,-16061.259765625,-619.8400268554688,-400000.0625,-400000.0625,-400000.0625,-400000.0625,-400000.0625
1.1294879913330078,-7434.93994140625,-16112.1396484375,-661.5599975585938,-400000.0625,-400000.0625,-400000.0625,-400000.0625,-400000.0625
1.1402785778045654,-7413.81982421875,-16078.5703125,-633.1400146484375,-400000.0625,-400000.0625,-400000.0625,-400000.0625,-400000.0625
1.1540045738220215,-7359.60009765625,-16036.1796875,-579.7899780273438,-400000.0625,-400000.0625,-400000.0625,-400000.0625,-400000.0625
1.1614084243774414,-7356.740234375,-16031.169921875,-566.6699829101562,-400000.0625,-400000.0625,-400000.0625,-400000.0625,-400000.0625
1.1733851432800293,-7410.47998046875,-16066.5498046875,-606.8200073242188,-400000.0625,-400000.0625,-400000.0625,-400000.0625,-400000.0625
1.1831152439117432,-7459.68994140625,-16105.3203125,-644.1599731445312,-400000.0625,-400000.0625,-400000.0625,-400000.0625,-400000.0625
1.1952881813049316,-7439.66015625,-16082.33984375,-621.510009765625,-400000.0625,-400000.0625,-400000.0625,-400000.0625,-400000.0625
1.204507827758789,-7385.830078125,-16040.1796875,-567.6300048828125,-400000.0625,-400000.0625,-400000.0625,-400000.0625,-400000.0625
1.2205710411071777,-7368.990234375,-16032.509765625,-549.97998046875,-400000.0625,-400000.0625,-400000.0625,-400000.0625,-400000.0625
1.2323389053344727,-7419.16015625,-16078.759765625,-597.0999755859375,-400000.0625,-400000.0625,-400000.0625,-400000.0625,-400000.0625
1.244555950164795,-7473.66015625,-16118.9599609375,-641.3499755859375,-400000.0625,-400000.0625,-400000.0625,-400000.0625,-400000.0625
1.2598490715026855,-7457.919921875,-16093.8798828125,-617.7899780273438,-400000.0625,-400000.0625,-400000.0625,-400000.0625,-400000.0625
1.272907018661499,-7397.64990234375,-16041.759765625,-556.0900268554688,-400000.0625,-400000.0625,-400000.0625,-400000.0625,-400000.0625
1.285508632659912,-7383.81982421875,-16044.669921875,-543.260009765625,-400000.0625,-400000.0625,-400000.0625,-400000.0625,-400000.0625
1.2953810691833496,-7436.1298828125,-16091.400390625,-590.7999877929688,-400000.0625,-400000.0625,-400000.0625,-400000.0625,-400000.0625
1.3158986568450928,-7480.6201171875,-16127.16015625,-632.719970703125,-400000.0625,-400000.0625,-400000.0625,-400000.0625,-400000.0625
1.3268914222717285,-7454.43994140625,-16100.169921875,-606.72998046875,-400000.0625,-400000.0625,-400000.0625,-400000.0625,-400000.0625
1.339507818222046,-7401.08984375,-16067.9404296875,-562.760009765625,-400000.0625,-400000.0625,-400000.0625,-400000.0625,-400000.0625
1.3485496044158936,-7393.68994140625,-16067.5498046875,-554.0800170898438,-400000.0625,-400000.0625,-400000.0625,-400000.0625,-400000.0625
1.3617327213287354,-7444.81005859375,-16103.4599609375,-597.0499877929688,-400000.0625,-400000.0625,-400000.0625,-400000.0625,-400000.0625
1.3721859455108643,-7488.58984375,-16143.23046875,-644.5399780273438,-400000.0625,-400000.0625,-400000.0625,-400000.0625,-400000.0625
1.3837363719940186,-7460.7900390625,-16119.5302734375,-620.0800170898438,-400000.0625,-400000.0625,-400000.0625,-400000.0625,-400000.0625
1.3928368091583252,-7394.60009765625,-16061.5498046875,-558.4199829101562,-400000.0625,-400000.0625,-400000.0625,-400000.0625,-400000.0625
1.412675142288208,-7378.39013671875,-16049.2001953125,-543.6900024414062,-400000.0625,-400000.0625,-400000.0625,-400000.0625,-400000.0625
1.4243757724761963,-7430.27001953125,-16087.25,-588.989990234375,-400000.0625,-400000.0625,-400000.0625,-400000.0625,-400000.0625
1.434647560119629,-7467.27001953125,-16116.1904296875,-626.1799926757812,-400000.0625,-400000.0625,-400000.0625,-400000.0625,-400000.0625
1.4464428424835205,-7449.91015625,-16106.080078125,-611.4000244140625,-400000.0625,-400000.0625,-400000.0625,-400000.0625,-400000.0625
1.4591286182403564,-7394.509765625,-16057.2998046875,-560.3800048828125,-400000.0625,-400000.0625,-400000.0625,-400000.0625,-400000.0625
1.471043586730957,-7374.9599609375,-16045.759765625,-543.5900268554688,-400000.0625,-400000.0625,-400000.0625,-400000.0625,-400000.0625
1.4806451797485352,-7432.7998046875,-16093.16015625,-597.8099975585938,-400000.0625,-400000.0625,-400000.0625,-400000.0625,-400000.0625
1.4928364753723145,-7478.0498046875,-16128.5400390625,-637.9099731445312,-400000.0625,-400000.0625,-400000.0625,-400000.0625,-400000.0625
1.5038857460021973,-7451.33984375,-16105.83984375,-614.1199951171875,-400000.0625,-400000.0625,-400000.0625,-400000.0625,-400000.0625
1.5228660106658936,-7387.97021484375,-16058.2099609375,-559.0399780273438,-400000.0625,-400000.0625,-400000.0625,-400000.0625,-400000.0625
1.5363140106201172,-7368.52001953125,-16039.2802734375,-539.2999877929688,-400000.0625,-400000.0625,-400000.0625,-400000.0625,-400000.0625
1.5447475910186768,-7416.43994140625,-16074.9501953125,-582.0800170898438,-400000.0625,-400000.0625,-400000.0625,-400000.0625,-400000.0625
1.5569815635681152,-7459.259765625,-16115.240234375,-625.4199829101562,-400000.0625,-400000.0625,-400000.0625,-400000.0625,-400000.0625
1.5649211406707764,-7442.18994140625,-16097.8798828125,-610.5399780273438,-400000.0625,-400000.0625,-400000.0625,-400000.0625,-400000.0625
1.580636978149414,-7384.919921875,-16053.8203125,-559.52001953125,-400000.0625,-400000.0625,-400000.0625,-400000.0625,-400000.0625
1.5924222469329834,-7366.60986328125,-16050.0498046875,-543.4500122070312,-400000.0625,-400000.0625,-400000.0625,-400000.0625,-400000.0625
1.6065411567687988,-7427.5498046875,-16102.509765625,-595.5700073242188,-400000.0625,-400000.0625,-400000.0625,-400000.0625,-400000.0625
1.654726505279541,-7250.5498046875,-16405.5390625,-1001.1199951171875,-400000.0625,-400000.0625,-400000.0625,-400000.0625,-400000.0625
1.7238636016845703,-7141.2099609375,-16275.740234375,-892.6900024414062,-400000.0625,-400000.0625,-400000.0625,-400000.0625,-400000.0625
1.8566834926605225,-7167.10009765625,-16282.5595703125,-926.489990234375,-400000.0625,-400000.0625,-400000.0625,-400000.0625,-400000.0625
1.901756763458252,-7129.0498046875,-16236.349609375,-881.0499877929688,-400000.0625,-400000.0625,-400000.0625,-400000.0625,-400000.0625
1.9729869365692139,-7130.72021484375,-16224.240234375,-886.5399780273438,-400000.0625,-400000.0625,-400000.0625,-400000.0625,-400000.0625
2.0495429039001465,-7183.1201171875,-16254.1396484375,-944.280029296875,-400000.0625,-400000.0625,-400000.0625,-400000.0625,-400000.0625
2.099188804626465,-6983.85009765625,-16109.900390625,-974.0399780273438,-400000.0625,-400000.0625,-400000.0625,-400000.0625,-400000.0625
2.1584935188293457,-6890.580078125,-16078.0400390625,-980.3800048828125,-400000.0625,-400000.0625,-400000.0625,-400000.0625,-400000.0625
2.2310211658477783,-6790.02001953125,-16041.1396484375,-936.4600219726562,-400000.0625,-400000.0625,-400000.0625,-400000.0625,-400000.0625
2.288053512573242,-6885.9599609375,-16113.6201171875,-990.4400024414062,-400000.0625,-400000.0625,-400000.0625,-400000.0625,-400000.0625
2.3525755405426025,-7115.02978515625,-16297.2001953125,-1189.469970703125,-400000.0625,-400000.0625,-400000.0625,-400000.0625,-400000.0625
2.4273838996887207,-7220.35986328125,-16173.8896484375,-1134.43994140625,-400000.0625,-400000.0625,-400000.0625,-400000.0625,-400000.0625
2.4928600788116455,-7084.56005859375,-16006.5703125,-914.3400268554688,-400000.0625,-400000.0625,-400000.0625,-400000.0625,-400000.0625
2.5437686443328857,-6956.240234375,-15931.4697265625,-730.5599975585938,-400000.0625,-400000.0625,-400000.0625,-400000.0625,-400000.0625
2.6264710426330566,-7101.43994140625,-16432.94921875,-1009.0800170898438,-400000.0625,-400000.0625,-400000.0625,-400000.0625,-400000.0625
2.6893577575683594,-7110.5,-16555.9296875,-1077.5999755859375,-400000.0625,-400000.0625,-400000.0625,-400000.0625,-400000.0625
2.7633731365203857,-7039.169921875,-16232.5400390625,-929.3099975585938,-400000.0625,-400000.0625,-400000.0625,-400000.0625,-400000.0625
2.8073368072509766,-6980.7998046875,-16020.009765625,-830.9400024414062,-400000.0625,-400000.0625,-400000.0625,-400000.0625,-400000.0625
2.9078876972198486,-7014.7001953125,-16052.919921875,-855.260009765625,-400000.0625,-400000.0625,-400000.0625,-400000.0625,-400000.0625
2.9252893924713135,-7008.89013671875,-16045.330078125,-859.2100219726562,-400000.0625,-400000.0625,-400000.0625,-400000.0625,-400000.0625
3.069186210632324,-7015.7099609375,-16039.4697265625,-851.969970703125,-400000.0625,-400000.0625,-400000.0625,-400000.0625,-400000.0625
3.131871223449707,-6989.669921875,-16022.73046875,-833.22998046875,-400000.0625,-400000.0625,-400000.0625,-400000.0625,-400000.0625
3.1821014881134033,-7275.81982421875,-15990.9296875,-712.9199829101562,-400000.0625,-400000.0625,-400000.0625,-400000.0625,-400000.0625
3.244889497756958,-7271.580078125,-15969.1396484375,-664.3800048828125,-400000.0625,-400000.0625,-400000.0625,-400000.0625,-400000.0625
3.3340067863464355,-7281.39990234375,-16001.8896484375,-713.9199829101562,-400000.0625,-400000.0625,-400000.0625,-400000.0625,-400000.0625
3.3801567554473877,-7215.35986328125,-16030.740234375,-726.5599975585938,-400000.0625,-400000.0625,-400000.0625,-400000.0625,-400000.0625
3.4472951889038086,-7246.2099609375,-16073.990234375,-759.4099731445312,-400000.0625,-400000.0625,-400000.0625,-400000.0625,-400000.0625
3.5044777393341064,-7207.58984375,-16099.3603515625,-793.9299926757812,-400000.0625,-400000.0625,-400000.0625,-400000.0625,-400000.0625
3.6999714374542236,-7224.3701171875,-16130.4501953125,-825.260009765625,-400000.0625,-400000.0625,-400000.0625,-400000.0625,-400000.0625
3.7817304134368896,-7174.16015625,-16145.759765625,-822.8300170898438,-400000.0625,-400000.0625,-400000.0625,-400000.0625,-400000.0625
3.886723756790161,-7167.72021484375,-16229.919921875,-858.5900268554688,-400000.0625,-400000.0625,-400000.0625,-400000.0625,-400000.0625
3.9571421146392822,-7180.97998046875,-16298.76953125,-906.6099853515625,-400000.0625,-400000.0625,-400000.0625,-400000.0625,-400000.0625
4.020267963409424,-7143.2099609375,-16294.5302734375,-849.0999755859375,-400000.0625,-400000.0625,-400000.0625,-400000.0625,-400000.0625
4.087692499160767,-7183.35986328125,-16334.5400390625,-879.9099731445312,-400000.0625,-400000.0625,-400000.0625,-400000.0625,-400000.0625
4.142911672592163,-7203.39013671875,-16412.9296875,-941.5599975585938,-400000.0625,-400000.0625,-400000.0625,-400000.0625,-400000.0625
4.212831258773804,-7196.08984375,-16416.7890625,-909.760009765625,-400000.0625,-400000.0625,-400000.0625,-400000.0625,-400000.0625
4.2800798416137695,-7219.97998046875,-16436.19921875,-948.52001953125,-400000.0625,-400000.0625,-400000.0625,-400000.0625,-400000.0625
4.399486780166626,-7448.52978515625,-16680.529296875,-1108.030029296875,-400000.0625,-400000.0625,-400000.0625,-400000.0625,-21684.4609375
4.481584310531616,-7409.669921875,-16632.650390625,-975.4199829101562,-400000.0625,-400000.0625,-400000.0625,-400000.0625,-21392.919921875
4.545658826828003,-7412.91015625,-16676.859375,-873.3800048828125,-400000.0625,-400000.0625,-400000.0625,-400000.0625,-21264.26953125
4.590772867202759,-7531.169921875,-16861.349609375,-867.0800170898438,-400000.0625,-400000.0625,-400000.0625,-400000.0625,-21227.509765625
4.652637720108032,-7519.14990234375,-16870.7890625,-731.3300170898438,-400000.0625,-400000.0625,-400000.0625,-400000.0625,-21142.529296875
4.731014013290405,-7479.6201171875,-16873.310546875,-572.72998046875,-400000.0625,-400000.0625,-400000.0625,-400000.0625,-21099.7109375
4.798083543777466,-7382.81982421875,-16977.599609375,-426.9599914550781,-400000.0625,-400000.0625,-400000.0625,-400000.0625,-21066.669921875
4.85283899307251,-7063.91015625,-17092.66015625,132.50999450683594,-400000.0625,-400000.0625,-400000.0625,-400000.0625,-20975.779296875
4.94156289100647,-6476.93017578125,-17087.650390625,658.9400024414062,-400000.0625,-400000.0625,-400000.0625,-400000.0625,-20850.470703125
4.991676092147827,-6361.52978515625,-17114.98046875,637.719970703125,-400000.0625,-400000.0625,-400000.0625,-400000.0625,-20773.599609375
5.107889890670776,-5777.83984375,-17085.83984375,560.7100219726562,-400000.0625,-400000.0625,-400000.0625,-400000.0625,-20481.880859375
5.176575660705566,-5672.259765625,-17054.080078125,601.5800170898438,-400000.0625,-400000.0625,-400000.0625,-400000.0625,-20300.060546875
5.2391438484191895,-5570.169921875,-17173.2890625,627.52001953125,-400000.0625,-400000.0625,-400000.0625,-400000.0625,-20190.669921875
5.293835163116455,-5547.52001953125,-17040.970703125,684.1699829101562,-400000.0625,-400000.0625,-400000.0625,-400000.0625,-20144.75
5.431405305862427,-5504.47021484375,-17013.599609375,667.8099975585938,-400000.0625,-400000.0625,-400000.0625,-400000.0625,-20079.330078125
5.483269453048706,-5463.83984375,-16970.490234375,655.1300048828125,-400000.0625,-400000.0625,-400000.0625,-400000.0625,-20107.369140625
5.550407886505127,-5343.14990234375,-16895.490234375,752.260009765625,-400000.0625,-400000.0625,-400000.0625,-400000.0625,-20059.869140625
5.622234106063843,-5402.9501953125,-17012.689453125,691.75,-400000.0625,-400000.0625,-400000.0625,-400000.0625,-20081.7109375
5.690130233764648,-5402.3701171875,-16679.720703125,971.75,-400000.0625,-400000.0625,-400000.0625,-400000.0625,-19966.509765625
5.758138179779053,-5420.919921875,-16683.490234375,1056.719970703125,-400000.0625,-400000.0625,-400000.0625,-400000.0625,-20039.0390625
5.805873155593872,-5388.35986328125,-16765.5,1130.3900146484375,-400000.0625,-400000.0625,-400000.0625,-400000.0625,-20003.849609375
5.877545595169067,-5414.009765625,-16890.33984375,1167.199951171875,-400000.0625,-400000.0625,-400000.0625,-400000.0625,-20001.83984375
5.941618204116821,-5328.990234375,-16854.5703125,1331.81005859375,-400000.0625,-400000.0625,-400000.0625,-400000.0625,-19952.109375
6.105608701705933,-5276.43994140625,-16829.2109375,1363.1800537109375,-400000.0625,-400000.0625,-400000.0625,-400000.0625,-19963.55078125
6.206225872039795,-5240.35009765625,-16690.349609375,1596.8800048828125,-400000.0625,-400000.0625,-400000.0625,-400000.0625,-19864.369140625
6.3264970779418945,-5174.830078125,-16560.029296875,1574.4200439453125,-400000.0625,-400000.0625,-400000.0625,-400000.0625,-19858.080078125
6.390258550643921,-5222.419921875,-16581.5390625,1517.300048828125,-400000.0625,-400000.0625,-400000.0625,-400000.0625,-19923.740234375
6.453275203704834,-5208.490234375,-16547.73046875,1460.97998046875,-400000.0625,-400000.0625,-400000.0625,-400000.0625,-19905.619140625
6.5250563621521,-5178.5,-16532.759765625,1508.949951171875,-400000.0625,-400000.0625,-400000.0625,-400000.0625,-19979.5703125
6.704313278198242,-5180.41015625,-16574.669921875,1542.6600341796875,-400000.0625,-400000.0625,-400000.0625,-400000.0625,-19988.439453125
6.7652599811553955,-5160.759765625,-16553.830078125,1569.3699951171875,-400000.0625,-400000.0625,-400000.0625,-400000.0625,-19949.76953125
6.8337578773498535,-5182.509765625,-16589.119140625,1572.4200439453125,-400000.0625,-400000.0625,-400000.0625,-400000.0625,-19961.880859375
6.9019856452941895,-5202.14990234375,-16653.58984375,1567.8900146484375,-400000.0625,-400000.0625,-400000.0625,-400000.0625,-20021.439453125
7.040626049041748,-5191.0400390625,-16693.5,1612.3800048828125,-400000.0625,-400000.0625,-400000.0625,-400000.0625,-20010.51953125
7.089825868606567,-5181.740234375,-16674.380859375,1659.9200439453125,-400000.0625,-400000.0625,-400000.0625,-400000.0625,-19928.080078125
7.284963369369507,-5187.85009765625,-13442.6103515625,2757.68994140625,-400000.0625,-400000.0625,-400000.0625,-400000.0625,-19819.119140625
7.351684093475342,-5147.169921875,-13026.8095703125,3253.97998046875,-400000.0625,-400000.0625,-400000.0625,-400000.0625,-19780.5
7.410099029541016,-5173.77978515625,-12842.9404296875,3655.2900390625,-400000.0625,-400000.0625,-400000.0625,-400000.0625,-19757.419921875
7.471584320068359,-5240.580078125,-12653.7802734375,4051.159912109375,-400000.0625,-400000.0625,-400000.0625,-400000.0625,-19641.9296875
7.543956995010376,-5254.64990234375,-12352.849609375,4866.64990234375,-400000.0625,-400000.0625,-400000.0625,-400000.0625,-19517.759765625
7.601811647415161,-5276.58984375,-12834.41015625,4903.83984375,-400000.0625,-400000.0625,-400000.0625,-400000.0625,-19525.19921875
7.676887512207031,-5267.81005859375,-13235.3798828125,4890.58984375,-400000.0625,-400000.0625,-400000.0625,-400000.0625,-19474.369140625
7.736650705337524,-5212.5,-13295.599609375,4910.60986328125,-400000.0625,-400000.0625,-400000.0625,-400000.0625,-19504.689453125
7.788961887359619,-5231.18994140625,-13750.26953125,4574.10986328125,-400000.0625,-400000.0625,-400000.0625,-400000.0625,-43640.328125
7.868477821350098,-5254.89013671875,-13902.1904296875,4459.43017578125,-400000.0625,-400000.0625,-400000.0625,-400000.0625,-69732.7734375
7.92739200592041,-5274.009765625,-13953.5,4433.72998046875,-400000.0625,-400000.0625,-400000.0625,-400000.0625,-81555.7578125
7.9919633865356445,-5327.080078125,-14115.4296875,4305.89013671875,-400000.0625,-400000.0625,-400000.0625,-400000.0625,-107798.640625
8.048327207565308,-5336.85986328125,-14187.76953125,4259.2998046875,-400000.0625,-400000.0625,-400000.0625,-400000.0625,-131291.546875
8.11032748222351,-5355.31005859375,-14264.3896484375,4198.27001953125,-400000.0625,-400000.0625,-400000.0625,-400000.0625,-158123.125
8.175899267196655,-5376.6298828125,-14362.150390625,4142.43017578125,-400000.0625,-400000.0625,-400000.0625,-400000.0625,-182971.453125
8.24199628829956,-5514.18994140625,-14848.08984375,3954.030029296875,-400000.0625,-400000.0625,-400000.0625,-400000.0625,-207304.359375
8.43211579322815,-5428.97998046875,-14903.740234375,3841.969970703125,-400000.0625,-400000.0625,-400000.0625,-400000.0625,-271284.9375
8.55948781967163,-5409.0,-14924.099609375,3842.5,-400000.0625,-400000.0625,-400000.0625,-400000.0625,-20208.689453125
8.633687496185303,-5529.97998046875,-15086.83984375,3793.139892578125,-400000.0625,-400000.0625,-400000.0625,-400000.0625,-20229.76953125
8.689249992370605,-5470.7099609375,-15073.6298828125,3850.64990234375,-400000.0625,-400000.0625,-400000.0625,-400000.0625,-20258.720703125
8.756534576416016,-5478.18994140625,-15207.6298828125,3849.550048828125,-400000.0625,-400000.0625,-400000.0625,-400000.0625,-20284.4609375
8.884420156478882,-5490.64013671875,-15246.919921875,3833.10009765625,-400000.0625,-400000.0625,-400000.0625,-400000.0625,-20451.689453125
8.95745849609375,-5488.58984375,-15229.66015625,3956.3701171875,-400000.0625,-400000.0625,-400000.0625,-400000.0625,-20374.490234375
9.024217367172241,-5784.419921875,-15374.5703125,4032.7099609375,-400000.0625,-400000.0625,-400000.0625,-400000.0625,-20404.33984375
9.082977771759033,-5614.85009765625,-15297.83984375,4107.47998046875,-400000.0625,-400000.0625,-400000.0625,-400000.0625,-20448.310546875
9.151246070861816,-5270.52978515625,-15070.490234375,4381.93994140625,-400000.0625,-400000.0625,-400000.0625,-400000.0625,-20283.990234375
9.21911907196045,-5132.9599609375,-14996.76953125,4448.990234375,-400000.0625,-400000.0625,-400000.0625,-400000.0625,-20383.4609375
9.328239917755127,-5196.2900390625,-15194.26953125,4300.740234375,-400000.0625,-400000.0625,-400000.0625,-400000.0625,-20508.91015625
9.390398025512695,-4974.56005859375,-14900.6396484375,4226.72998046875,-400000.0625,-400000.0625,-400000.0625,-400000.0625,-20481.060546875
9.539594173431396,-5509.14013671875,-12663.990234375,3818.22998046875,-400000.0625,-400000.0625,-400000.0625,-400000.0625,-20564.220703125
9.6483895778656,-5519.68017578125,-6350.52001953125,3804.02001953125,-400000.0625,-400000.0625,-400000.0625,-400000.0625,-20572.279296875
9.732088804244995,-5575.75,-4400.58984375,3848.219970703125,-400000.0625,-400000.0625,-400000.0625,-400000.0625,-20598.509765625
9.78264832496643,-5645.60986328125,-3125.949951171875,3910.35009765625,-400000.0625,-400000.0625,-400000.0625,-400000.0625,-20670.3203125
9.838265895843506,-5604.02978515625,-2009.199951171875,4049.2099609375,-400000.0625,-400000.0625,-400000.0625,-400000.0625,-20747.759765625
10.040273666381836,-5640.080078125,293.8699951171875,4275.47021484375,-400000.0625,-400000.0625,-400000.0625,-400000.0625,-20669.560546875
10.100579500198364,-5826.43017578125,770.8599853515625,4188.10986328125,-400000.0625,-400000.0625,-400000.0625,-400000.0625,-20619.060546875
10.18538522720337,-5826.7099609375,961.8800048828125,4285.10009765625,-400000.0625,-400000.0625,-400000.0625,-400000.0625,-20642.330078125
10.232810497283936,-5822.3701171875,728.22998046875,4362.43994140625,-400000.0625,-400000.0625,-400000.0625,-400000.0625,-20694.880859375
10.286773920059204,-5869.52978515625,-963.969970703125,4253.33984375,-400000.0625,-400000.0625,-400000.0625,-400000.0625,-39609.8203125
10.354487895965576,-5894.60986328125,-2677.489990234375,4005.10009765625,-400000.0625,-400000.0625,-400000.0625,-400000.0625,-65575.703125
10.421121835708618,-6047.68017578125,-3965.7099609375,3790.760009765625,-400000.0625,-400000.0625,-400000.0625,-400000.0625,-96352.3515625
10.500328302383423,-6034.22998046875,-4227.16015625,3827.18994140625,-400000.0625,-400000.0625,-400000.0625,-400000.0625,-118388.671875
10.543558120727539,-5953.1201171875,-4444.7001953125,3893.760009765625,-400000.0625,-400000.0625,-400000.0625,-400000.0625,-136928.046875
10.604311466217041,-6165.31005859375,-4791.93017578125,3905.110107421875,-400000.0625,-400000.0625,-400000.0625,-400000.0625,-158370.125
10.678289413452148,-6207.1298828125,-4992.43994140625,3959.800048828125,-400000.0625,-400000.0625,-400000.0625,-400000.0625,-181826.46875
10.74269437789917,-6199.06982421875,-5191.330078125,3948.739990234375,-400000.0625,-400000.0625,-400000.0625,-400000.0625,-205781.09375
10.800744771957397,-6167.22021484375,-5388.35986328125,3926.22998046875,-400000.0625,-400000.0625,-400000.0625,-400000.0625,-227984.6875
11.005903482437134,-5984.02001953125,-6321.85986328125,3712.989990234375,-400000.0625,-400000.0625,-400000.0625,-400000.0625,-315509.40625
11.063209056854248,-5968.669921875,-6374.259765625,3741.60009765625,-400000.0625,-400000.0625,-400000.0625,-400000.0625,-330275.53125
11.245369911193848,-6196.169921875,-6931.64013671875,3580.47998046875,-400000.0625,-400000.0625,-400000.0625,-400000.0625,-400000.0625
11.329056978225708,-6232.5498046875,-6815.81982421875,3589.8701171875,-400000.0625,-400000.0625,-400000.0625,-400000.0625,-400000.0625
11.439990520477295,-6247.3798828125,-6778.77001953125,3580.3798828125,-400000.0625,-400000.0625,-400000.0625,-400000.0625,-400000.0625
11.526377201080322,-6260.2099609375,-6882.72021484375,3551.77001953125,-400000.0625,-400000.0625,-400000.0625,-400000.0625,-400000.0625
11.788275718688965,-6428.10009765625,-7058.6201171875,3613.52001953125,-400000.0625,-400000.0625,-400000.0625,-400000.0625,-400000.0625
11.883982181549072,-6364.72998046875,-7433.02978515625,3394.080078125,-400000.0625,-400000.0625,-400000.0625,-400000.0625,-400000.0625
11.969056844711304,-6331.5400390625,-7677.22021484375,3319.68994140625,-400000.0625,-400000.0625,-400000.0625,-400000.0625,-400000.0625
12.051966190338135,-6361.33984375,-7789.89990234375,3310.389892578125,-400000.0625,-400000.0625,-400000.0625,-400000.0625,-400000.0625
12.084210395812988,-6418.990234375,-7907.68017578125,3288.699951171875,-400000.0625,-400000.0625,-400000.0625,-400000.0625,-400000.0625
12.142945289611816,-6470.25,-8119.2998046875,3242.919921875,-400000.0625,-400000.0625,-400000.0625,-400000.0625,-400000.0625
12.213864803314209,-6587.080078125,-8424.51953125,3091.860107421875,-400000.0625,-400000.0625,-400000.0625,-400000.0625,-400000.0625
12.270598649978638,-6651.740234375,-8429.7197265625,3147.97998046875,-400000.0625,-400000.0625,-400000.0625,-400000.0625,-400000.0625
12.341348886489868,-6571.91015625,-8202.1201171875,3261.0400390625,-400000.0625,-400000.0625,-400000.0625,-400000.0625,-400000.0625
12.40756630897522,-6539.2001953125,-8248.0400390625,3265.139892578125,-400000.0625,-400000.0625,-400000.0625,-400000.0625,-400000.0625
12.505490779876709,-6533.72021484375,-8324.150390625,3249.68994140625,-400000.0625,-400000.0625,-400000.0625,-400000.0625,-400000.0625
12.532697916030884,-6635.91015625,-8320.0,3321.97998046875,-400000.0625,-400000.0625,-400000.0625,-400000.0625,-400000.0625
12.595399379730225,-6639.580078125,-8337.7802734375,3318.409912109375,-400000.0625,-400000.0625,-400000.0625,-400000.0625,-400000.0625
12.651415348052979,-6605.39013671875,-8664.0400390625,3140.39990234375,-400000.0625,-400000.0625,-400000.0625,-400000.0625,-400000.0625
12.794963359832764,-6598.66015625,-8963.6796875,2974.179931640625,-400000.0625,-400000.0625,-400000.0625,-400000.0625,-400000.0625
12.861224889755249,-6593.0400390625,-9008.3095703125,3004.030029296875,-400000.0625,-400000.0625,-400000.0625,-400000.0625,-400000.0625
12.931750059127808,-6590.080078125,-9053.66015625,2999.5,-400000.0625,-400000.0625,-400000.0625,-400000.0625,-400000.0625
12.994470834732056,-6603.0498046875,-9121.990234375,2971.64990234375,-400000.0625,-400000.0625,-400000.0625,-400000.0625,-400000.0625
13.041306018829346,-6699.47021484375,-9057.5703125,3049.22998046875,-400000.0625,-400000.0625,-400000.0625,-400000.0625,-400000.0625
13.102904319763184,-6762.27001953125,-9091.7099609375,3082.419921875,-400000.0625,-400000.0625,-400000.0625,-400000.0625,-400000.0625
13.294844388961792,-6837.1298828125,-9390.740234375,3005.97998046875,-400000.0625,-400000.0625,-400000.0625,-400000.0625,-400000.0625
13.377196073532104,-6829.4501953125,-9490.9697265625,2959.25,-400000.0625,-400000.0625,-400000.0625,-400000.0625,-400000.0625
13.490316152572632,-6643.68017578125,-9840.25,2695.0400390625,-400000.0625,-400000.0625,-400000.0625,-400000.0625,-400000.0625
13.613534927368164,-6657.97998046875,-9998.75,2643.5400390625,-400000.0625,-400000.0625,-400000.0625,-400000.0625,-400000.0625
13.687542915344238,-6665.27978515625,-10074.9501953125,2609.06005859375,-400000.0625,-400000.0625,-400000.0625,-400000.0625,-400000.0625
13.74288272857666,-6667.18994140625,-10116.5302734375,2604.25,-400000.0625,-400000.0625,-400000.0625,-400000.0625,-400000.0625
13.807591199874878,-6680.25,-10208.509765625,2560.090087890625,-400000.0625,-400000.0625,-400000.0625,-400000.0625,-400000.0625
13.884535312652588,-6700.0400390625,-10260.6298828125,2551.030029296875,-400000.0625,-400000.0625,-400000.0625,-400000.0625,-400000.0625
13.939133882522583,-6710.72021484375,-10343.2197265625,2521.179931640625,-400000.0625,-400000.0625,-400000.0625,-400000.0625,-400000.0625
14.001206636428833,-6719.64013671875,-10419.7998046875,2483.419921875,-400000.0625,-400000.0625,-400000.0625,-400000.0625,-400000.0625
14.066540241241455,-6708.240234375,-10474.01953125,2476.409912109375,-400000.0625,-400000.0625,-400000.0625,-400000.0625,-400000.0625
14.135685443878174,-6707.52978515625,-10529.5703125,2455.280029296875,-400000.0625,-400000.0625,-400000.0625,-400000.0625,-400000.0625
14.277781248092651,-6736.08984375,-10636.0400390625,2405.070068359375,-400000.0625,-400000.0625,-400000.0625,-400000.0625,-400000.0625
14.32280969619751,-6739.330078125,-10713.8603515625,2373.27001953125,-400000.0625,-400000.0625,-400000.0625,-400000.0625,-400000.0625
14.390247106552124,-6735.27978515625,-10789.8701171875,2336.739990234375,-400000.0625,-400000.0625,-400000.0625,-400000.0625,-400000.0625
14.523894548416138,-6735.75,-10922.5302734375,2270.889892578125,-400000.0625,-400000.0625,-400000.0625,-400000.0625,-400000.0625
14.702588319778442,-6714.06005859375,-11079.3603515625,2182.340087890625,-400000.0625,-400000.0625,-400000.0625,-400000.0625,-400000.0625
14.784066200256348,-6710.43017578125,-11166.8603515625,2145.239990234375,-400000.0625,-400000.0625,-400000.0625,-400000.0625,-400000.0625
14.845714807510376,-6870.31982421875,-11592.2001953125,1942.969970703125,-400000.0625,-400000.0625,-400000.0625,-400000.0625,-400000.0625
14.901992559432983,-6842.7998046875,-11469.41015625,1997.760009765625,-400000.0625,-400000.0625,-400000.0625,-400000.0625,-400000.0625
14.97390365600586,-6797.35986328125,-11386.349609375,2035.0899658203125,-400000.0625,-400000.0625,-400000.0625,-400000.0625,-400000.0625
15.14876413345337,-6599.52001953125,-11170.5302734375,2052.360107421875,-400000.0625,-400000.0625,-400000.0625,-400000.0625,-400000.0625
15.215737104415894,-6560.60986328125,-11184.259765625,2052.1201171875,-400000.0625,-400000.0625,-400000.0625,-400000.0625,-400000.0625
15.356144189834595,-6611.39990234375,-11236.3798828125,2051.68994140625,-400000.0625,-400000.0625,-400000.0625,-400000.0625,-400000.0625
15.435348510742188,-6632.7099609375,-11197.51953125,2083.590087890625,-400000.0625,-400000.0625,-400000.0625,-400000.0625,-400000.0625
15.469252586364746,-6679.43994140625,-11249.4501953125,2077.199951171875,-400000.0625,-400000.0625,-400000.0625,-400000.0625,-400000.0625
15.534357070922852,-6673.6201171875,-11285.9697265625,2065.85009765625,-400000.0625,-400000.0625,-400000.0625,-400000.0625,-400000.0625
15.599373817443848,-6755.06982421875,-11521.150390625,1941.010009765625,-400000.0625,-400000.0625,-400000.0625,-400000.0625,-400000.0625
15.745649099349976,-6798.35986328125,-11785.1298828125,1828.9100341796875,-400000.0625,-400000.0625,-400000.0625,-400000.0625,-400000.0625
15.791179180145264,-6805.7998046875,-11832.099609375,1810.8800048828125,-400000.0625,-400000.0625,-400000.0625,-400000.0625,-400000.0625
15.855687141418457,-6798.509765625,-11851.259765625,1801.8199462890625,-400000.0625,-400000.0625,-400000.0625,-400000.0625,-400000.0625
15.930623769760132,-6809.14013671875,-11924.080078125,1761.8699951171875,-400000.0625,-400000.0625,-400000.0625,-400000.0625,-400000.0625
16.047017335891724,-6814.240234375,-11971.4296875,1735.1600341796875,-400000.0625,-400000.0625,-400000.0625,-400000.0625,-400000.0625
16.11125349998474,-6805.85009765625,-12011.9599609375,1717.6199951171875,-400000.0625,-400000.0625,-400000.0625,-400000.0625,-400000.0625
16.17267370223999,-6750.6298828125,-12080.9599609375,1649.0,-400000.0625,-400000.0625,-400000.0625,-400000.0625,-400000.0625
16.238046169281006,-6750.43994140625,-12108.66015625,1638.510009765625,-400000.0625,-400000.0625,-400000.0625,-400000.0625,-400000.0625
16.34316372871399,-6746.52978515625,-12145.8095703125,1624.5799560546875,-400000.0625,-400000.0625,-400000.0625,-400000.0625,-400000.0625
16.373533248901367,-6902.31005859375,-11776.73046875,1865.4300537109375,-400000.0625,-400000.0625,-400000.0625,-400000.0625,-400000.0625
16.42893409729004,-6909.1298828125,-11787.75,1862.239990234375,-400000.0625,-400000.0625,-400000.0625,-400000.0625,-400000.0625
16.496692657470703,-6907.4599609375,-11870.7197265625,1854.93994140625,-400000.0625,-400000.0625,-400000.0625,-400000.0625,-400000.0625
16.639578819274902,-6883.2900390625,-12496.1904296875,1442.719970703125,-400000.0625,-400000.0625,-400000.0625,-400000.0625,-400000.0625
16.687844276428223,-6846.330078125,-12322.8095703125,1537.9000244140625,-400000.0625,-400000.0625,-400000.0625,-400000.0625,-400000.0625
16.751946926116943,-6823.39990234375,-12289.0,1560.8299560546875,-400000.0625,-400000.0625,-400000.0625,-400000.0625,-400000.0625
16.82256555557251,-6826.64013671875,-12307.2197265625,1549.9599609375,-400000.0625,-400000.0625,-400000.0625,-400000.0625,-400000.0625
16.949876070022583,-6716.68017578125,-12415.9404296875,1458.9300537109375,-400000.0625,-400000.0625,-400000.0625,-400000.0625,-400000.0625
17.00692367553711,-6718.830078125,-12440.25,1448.6800537109375,-400000.0625,-400000.0625,-400000.0625,-400000.0625,-400000.0625
17.089593648910522,-6713.9599609375,-12455.26953125,1442.1500244140625,-400000.0625,-400000.0625,-400000.0625,-400000.0625,-400000.0625
17.13472843170166,-6796.5498046875,-12387.23046875,1481.43994140625,-400000.0625,-400000.0625,-400000.0625,-400000.0625,-400000.0625
17.201940059661865,-6822.009765625,-12390.5703125,1491.7900390625,-400000.0625,-400000.0625,-400000.0625,-400000.0625,-400000.0625
17.39840579032898,-6799.02978515625,-12454.1298828125,1469.56005859375,-400000.0625,-400000.0625,-400000.0625,-400000.0625,-400000.0625
17.46509623527527,-6797.41015625,-12479.1201171875,1464.27001953125,-400000.0625,-400000.0625,-400000.0625,-400000.0625,-400000.0625
17.528916835784912,-6795.60009765625,-12498.0498046875,1447.25,-400000.0625,-400000.0625,-400000.0625,-400000.0625,-400000.0625
17.657244205474854,-7058.3798828125,-13107.1103515625,1264.239990234375,-400000.0625,-400000.0625,-400000.0625,-400000.0625,-400000.0625
17.76091480255127,-7236.2001953125,-13294.8896484375,1298.6700439453125,-400000.0625,-400000.0625,-400000.0625,-400000.0625,-400000.0625
17.781975507736206,-7425.5498046875,-13329.1298828125,1421.0699462890625,-400000.0625,-400000.0625,-400000.0625,-400000.0625,-400000.0625
17.92155647277832,-7463.41015625,-13353.400390625,1452.489990234375,-400000.0625,-400000.0625,-400000.0625,-400000.0625,-400000.0625
17.977930068969727,-7470.89013671875,-13360.3095703125,1454.1600341796875,-400000.0625,-400000.0625,-400000.0625,-400000.0625,-400000.0625
18.038355350494385,-7482.81982421875,-13383.6796875,1452.8800048828125,-400000.0625,-400000.0625,-400000.0625,-400000.0625,-400000.0625
18.19031023979187,-7505.0400390625,-13420.0595703125,1417.5899658203125,-400000.0625,-400000.0625,-400000.0625,-400000.0625,-400000.0625
18.2517671585083,-7476.18994140625,-13456.7802734375,1386.550048828125,-400000.0625,-400000.0625,-400000.0625,-400000.0625,-400000.0625
18.29031729698181,-7423.8798828125,-13468.9296875,1328.6099853515625,-400000.0625,-400000.0625,-400000.0625,-400000.0625,-400000.0625
18.351773262023926,-7354.1201171875,-13476.7998046875,1205.6400146484375,-400000.0625,-400000.0625,-400000.0625,-400000.0625,-400000.0625
18.42124652862549,-7277.43994140625,-13445.330078125,1139.31005859375,-400000.0625,-400000.0625,-400000.0625,-400000.0625,-400000.0625
18.483871936798096,-7275.52978515625,-13438.9404296875,1146.8399658203125,-400000.0625,-400000.0625,-400000.0625,-400000.0625,-400000.0625
18.547345638275146,-7291.990234375,-13468.2197265625,1143.5,-400000.0625,-400000.0625,-400000.0625,-400000.0625,-400000.0625
18.604780673980713,-7341.580078125,-13518.669921875,1165.489990234375,-400000.0625,-400000.0625,-400000.0625,-400000.0625,-400000.0625
18.739150762557983,-7251.1201171875,-13230.419921875,1159.81005859375,-400000.0625,-400000.0625,-400000.0625,-400000.0625,-400000.0625
18.80618643760681,-7158.56982421875,-13070.25,1175.5899658203125,-400000.0625,-400000.0625,-400000.0625,-400000.0625,-400000.0625
18.93226146697998,-6973.169921875,-12774.0400390625,1303.9599609375,-400000.0625,-400000.0625,-400000.0625,-400000.0625,-400000.0625
18.99432945251465,-6954.0,-12772.509765625,1312.1099853515625,-400000.0625,-400000.0625,-400000.0625,-400000.0625,-400000.0625
19.14042830467224,-6793.1201171875,-12861.2099609375,1200.43994140625,-400000.0625,-400000.0625,-400000.0625,-400000.0625,-400000.0625
19.19793391227722,-6778.14990234375,-12875.83984375,1206.5899658203125,-400000.0625,-400000.0625,-400000.0625,-400000.0625,-400000.0625
19.328206777572632,-6793.259765625,-12923.0498046875,1185.989990234375,-400000.0625,-400000.0625,-400000.0625,-400000.0625,-400000.0625
19.38177227973938,-6795.35986328125,-12950.7099609375,1181.27001953125,-400000.0625,-400000.0625,-400000.0625,-400000.0625,-400000.0625
19.462403059005737,-6796.60009765625,-12987.330078125,1169.25,-400000.0625,-400000.0625,-400000.0625,-400000.0625,-400000.0625
19.543666124343872,-6785.35009765625,-12997.76953125,1167.8199462890625,-400000.0625,-400000.0625,-400000.0625,-400000.0625,-400000.0625
19.570752382278442,-6790.830078125,-13006.16015625,1160.3399658203125,-400000.0625,-400000.0625,-400000.0625,-400000.0625,-400000.0625
19.64017105102539,-6814.2900390625,-12990.1396484375,1175.68994140625,-400000.0625,-400000.0625,-400000.0625,-400000.0625,-400000.0625
19.694143295288086,-6814.10009765625,-13000.6298828125,1177.1199951171875,-400000.0625,-400000.0625,-400000.0625,-400000.0625,-400000.0625
19.77963423728943,-6810.9501953125,-13014.650390625,1174.780029296875,-400000.0625,-400000.0625,-400000.0625,-400000.0625,-400000.0625
19.890544414520264,-6812.56982421875,-13023.23046875,1183.699951171875,-400000.0625,-400000.0625,-400000.0625,-400000.0625,-400000.0625
19.96584725379944,-6821.25,-13039.400390625,1173.1099853515625,-400000.0625,-400000.0625,-400000.0625,-400000.0625,-400000.0625
20.02688479423523,-6827.93017578125,-13097.33984375,1161.239990234375,-400000.0625,-400000.0625,-400000.0625,-400000.0625,-400000.0625
20.100520610809326,-6830.68994140625,-13283.6396484375,1035.2099609375,-400000.0625,-400000.0625,-400000.0625,-400000.0625,-400000.0625
20.20604395866394,-6779.0,-13165.7099609375,1100.72998046875,-400000.0625,-400000.0625,-400000.0625,-400000.0625,-400000.0625
20.288778066635132,-6759.68994140625,-13130.8603515625,1124.4300537109375,-400000.0625,-400000.0625,-400000.0625,-400000.0625,-400000.0625
20.342605590820312,-6765.93994140625,-13138.3896484375,1123.239990234375,-400000.0625,-400000.0625,-400000.0625,-400000.0625,-400000.0625
20.39775562286377,-6790.2998046875,-13116.169921875,1143.6500244140625,-400000.0625,-400000.0625,-400000.0625,-400000.0625,-400000.0625
20.535073041915894,-6794.02001953125,-13134.6201171875,1141.97998046875,-400000.0625,-400000.0625,-400000.0625,-400000.0625,-400000.0625
20.60600471496582,-6787.43994140625,-13144.2099609375,1145.8900146484375,-400000.0625,-400000.0625,-400000.0625,-400000.0625,-400000.0625
20.740975618362427,-6774.7099609375,-13169.9599609375,1126.18994140625,-400000.0625,-400000.0625,-400000.0625,-400000.0625,-400000.0625
20.79433298110962,-6773.56982421875,-13178.6396484375,1124.949951171875,-400000.0625,-400000.0625,-400000.0625,-400000.0625,-400000.0625
20.847721576690674,-6773.52001953125,-13191.4599609375,1119.9000244140625,-400000.0625,-400000.0625,-400000.0625,-400000.0625,-400000.0625
20.986356258392334,-6786.2998046875,-13225.509765625,1117.52001953125,-400000.0625,-400000.0625,-400000.0625,-400000.0625,-400000.0625
21.056918144226074,-6790.2099609375,-13230.6103515625,1114.3199462890625,-400000.0625,-400000.0625,-400000.0625,-400000.0625,-400000.0625
21.09993600845337,-6785.97021484375,-13232.7998046875,1116.56005859375,-400000.0625,-400000.0625,-400000.0625,-400000.0625,-400000.0625
21.242838621139526,-6804.08984375,-13232.330078125,1116.1800537109375,-400000.0625,-400000.0625,-400000.0625,-400000.0625,-400000.0625
21.291534662246704,-6805.85009765625,-13241.2900390625,1113.0799560546875,-400000.0625,-400000.0625,-400000.0625,-400000.0625,-400000.0625
21.381409883499146,-6767.419921875,-13243.4404296875,1097.3900146484375,-400000.0625,-400000.0625,-400000.0625,-400000.0625,-400000.0625
21.47089982032776,-6758.97998046875,-13255.740234375,1094.25,-400000.0625,-400000.0625,-400000.0625,-400000.0625,-400000.0625
21.572083473205566,-6772.14013671875,-13282.400390625,1079.1800537109375,-400000.0625,-400000.0625,-400000.0625,-400000.0625,-400000.0625
21.620692014694214,-6764.7001953125,-13372.3798828125,1039.739990234375,-400000.0625,-400000.0625,-400000.0625,-400000.0625,-400000.0625
21.685209035873413,-6858.77978515625,-13533.58984375,954.8699951171875,-400000.0625,-400000.0625,-400000.0625,-400000.0625,-400000.0625
21.739279985427856,-6839.93994140625,-13506.599609375,976.8499755859375,-400000.0625,-400000.0625,-400000.0625,-400000.0625,-400000.0625
21.82248878479004,-6798.31982421875,-13411.8603515625,1027.5799560546875,-400000.0625,-400000.0625,-400000.0625,-400000.0625,-400000.0625
21.942615747451782,-6777.3798828125,-13367.9404296875,1048.1400146484375,-400000.0625,-400000.0625,-400000.0625,-400000.0625,-400000.0625
22.00827121734619,-6779.47998046875,-13317.8701171875,1078.75,-400000.0625,-400000.0625,-400000.0625,-400000.0625,-400000.0625
22.07280158996582,-6781.52978515625,-13327.080078125,1075.3599853515625,-400000.0625,-400000.0625,-400000.0625,-400000.0625,-400000.0625
22.133667707443237,-6783.39013671875,-13334.1796875,1071.550048828125,-400000.0625,-400000.0625,-400000.0625,-400000.0625,-400000.0625
22.21415376663208,-6770.47021484375,-13358.6904296875,1055.9100341796875,-400000.0625,-400000.0625,-400000.0625,-400000.0625,-400000.0625
22.25284719467163,-6755.31005859375,-13383.33984375,1039.9300537109375,-400000.0625,-400000.0625,-400000.0625,-400000.0625,-400000.0625
22.391151189804077,-6762.41015625,-13392.8798828125,1035.8800048828125,-400000.0625,-400000.0625,-400000.0625,-400000.0625,-400000.0625
22.55738878250122,-6936.64990234375,-13232.51953125,1186.510009765625,-400000.0625,-400000.0625,-400000.0625,-400000.0625,-400000.0625
22.57901406288147,-6896.68994140625,-13281.7802734375,1151.510009765625,-400000.0625,-400000.0625,-400000.0625,-400000.0625,-400000.0625
22.638997554779053,-6773.27978515625,-13398.3203125,1021.6699829101562,-400000.0625,-400000.0625,-400000.0625,-400000.0625,-400000.0625
22.702539682388306,-6770.7998046875,-13423.0595703125,1014.0399780273438,-400000.0625,-400000.0625,-400000.0625,-400000.0625,-400000.0625
22.830050945281982,-6775.240234375,-13464.400390625,999.4000244140625,-400000.0625,-400000.0625,-400000.0625,-400000.0625,-400000.0625
23.040818452835083,-6790.16015625,-13453.9599609375,1018.239990234375,-400000.0625,-400000.0625,-400000.0625,-400000.0625,-400000.0625
23.11199951171875,-6808.3798828125,-13455.8701171875,1012.6599731445312,-400000.0625,-400000.0625,-400000.0625,-400000.0625,-400000.0625
23.155723094940186,-6808.0,-13441.6103515625,1028.5899658203125,-400000.0625,-400000.0625,-400000.0625,-400000.0625,-400000.0625
23.239232301712036,-6823.02001953125,-13480.66015625,1016.1900024414062,-400000.0625,-400000.0625,-400000.0625,-400000.0625,-400000.0625
23.29638361930847,-6791.2099609375,-13516.1396484375,981.6599731445312,-400000.0625,-400000.0625,-400000.0625,-400000.0625,-400000.0625
23.34833526611328,-6779.2900390625,-13506.1298828125,988.8200073242188,-400000.0625,-400000.0625,-400000.0625,-400000.0625,-400000.0625
23.405457973480225,-6779.14990234375,-13506.75,982.4299926757812,-400000.0625,-400000.0625,-400000.0625,-400000.0625,-400000.0625
23.540523529052734,-6788.02001953125,-13521.240234375,971.510009765625,-400000.0625,-400000.0625,-400000.0625,-400000.0625,-400000.0625
23.607595443725586,-6772.7099609375,-13521.76953125,976.5599975585938,-400000.0625,-400000.0625,-400000.0625,-400000.0625,-400000.0625
23.664178371429443,-6768.85009765625,-13518.8095703125,974.1799926757812,-400000.0625,-400000.0625,-400000.0625,-400000.0625,-400000.0625
23.794200658798218,-6899.740234375,-13905.1904296875,789.9299926757812,-400000.0625,-400000.0625,-400000.0625,-400000.0625,-400000.0625
23.861758947372437,-6856.009765625,-13713.3603515625,881.3900146484375,-400000.0625,-400000.0625,-400000.0625,-400000.0625,-400000.0625
23.930012464523315,-6812.85986328125,-13586.3798828125,943.9500122070312,-400000.0625,-400000.0625,-400000.0625,-400000.0625,-400000.0625
23.982516050338745,-6796.93017578125,-13538.41015625,971.9400024414062,-400000.0625,-400000.0625,-400000.0625,-400000.0625,-400000.0625
24.052539348602295,-6792.2099609375,-13535.1201171875,967.8800048828125,-400000.0625,-400000.0625,-400000.0625,-400000.0625,-400000.0625
24.127637147903442,-6772.330078125,-13533.400390625,966.1199951171875,-400000.0625,-400000.0625,-400000.0625,-400000.0625,-400000.0625
24.17641019821167,-6778.91015625,-13544.66015625,962.780029296875,-400000.0625,-400000.0625,-400000.0625,-400000.0625,-400000.0625
24.236927032470703,-6781.77001953125,-13544.8896484375,963.260009765625,-400000.0625,-400000.0625,-400000.0625,-400000.0625,-400000.0625
24.391642332077026,-6778.72021484375,-13576.83984375,934.5499877929688,-400000.0625,-400000.0625,-400000.0625,-400000.0625,-400000.0625
24.498153686523438,-6787.5400390625,-13586.5703125,934.739990234375,-400000.0625,-400000.0625,-400000.0625,-400000.0625,-400000.0625
24.576743364334106,-6775.43017578125,-13599.5400390625,921.6799926757812,-400000.0625,-400000.0625,-400000.0625,-400000.0625,-400000.0625
24.673871517181396,-6773.08984375,-13597.58984375,925.25,-400000.0625,-400000.0625,-400000.0625,-400000.0625,-400000.0625
24.750452041625977,-6768.990234375,-13599.490234375,927.4000244140625,-400000.0625,-400000.0625,-400000.0625,-400000.0625,-400000.0625
24.89176630973816,-6769.75,-13615.9404296875,918.4400024414062,-400000.0625,-400000.0625,-400000.0625,-400000.0625,-400000.0625
24.951528549194336,-6808.22998046875,-13552.51953125,956.3400268554688,-400000.0625,-400000.0625,-400000.0625,-400000.0625,-400000.0625
25.004279851913452,-6809.08984375,-13565.5400390625,952.1500244140625,-400000.0625,-400000.0625,-400000.0625,-400000.0625,-400000.0625
25.09267783164978,-6805.85009765625,-13571.4501953125,956.010009765625,-400000.0625,-400000.0625,-400000.0625,-400000.0625,-400000.0625
25.14881658554077,-6798.22021484375,-13589.2900390625,943.3300170898438,-400000.0625,-400000.0625,-400000.0625,-400000.0625,-400000.0625
25.205860137939453,-6810.669921875,-13604.1201171875,932.97998046875,-400000.0625,-400000.0625,-400000.0625,-400000.0625,-400000.0625
25.332208395004272,-6804.18017578125,-13620.7099609375,924.72998046875,-400000.0625,-400000.0625,-400000.0625,-400000.0625,-400000.0625
25.395263195037842,-6807.14013671875,-13629.6796875,930.8300170898438,-400000.0625,-400000.0625,-400000.0625,-400000.0625,-400000.0625
25.45166540145874,-6804.08984375,-13629.580078125,927.5,-400000.0625,-400000.0625,-400000.0625,-400000.0625,-400000.0625
25.601937532424927,-6799.080078125,-13652.990234375,906.9000244140625,-400000.0625,-400000.0625,-400000.0625,-400000.0625,-400000.0625
25.656622171401978,-6797.83984375,-13662.8203125,907.9000244140625,-400000.0625,-400000.0625,-400000.0625,-400000.0625,-400000.0625
25.716242790222168,-6803.22998046875,-13671.4501953125,897.3099975585938,-400000.0625,-400000.0625,-400000.0625,-400000.0625,-400000.0625
25.77543044090271,-6789.830078125,-13666.6796875,908.0399780273438,-400000.0625,-400000.0625,-400000.0625,-400000.0625,-400000.0625
25.90878987312317,-6936.5,-13503.9296875,1037.219970703125,-400000.0625,-400000.0625,-400000.0625,-400000.0625,-400000.0625
25.982625722885132,-6936.8798828125,-13515.6201171875,1029.43994140625,-400000.0625,-400000.0625,-400000.0625,-400000.0625,-400000.0625
26.000259399414062,-6934.1201171875,-13519.1904296875,1028.199951171875,-400000.0625,-400000.0625,-400000.0625,-400000.0625,-400000.0625
26.014466047286987,-6933.06982421875,-13520.3896484375,1028.9200439453125,-400000.0625,-400000.0625,-400000.0625,-400000.0625,-400000.0625
26.02478265762329,-6931.1201171875,-13515.0400390625,1034.9300537109375,-400000.0625,-400000.0625,-400000.0625,-400000.0625,-400000.0625
26.034568786621094,-6931.72998046875,-13521.669921875,1029.1600341796875,-400000.0625,-400000.0625,-400000.0625,-400000.0625,-400000.0625
26.041620016098022,-6934.41015625,-13524.9599609375,1026.9200439453125,-400000.0625,-400000.0625,-400000.0625,-400000.0625,-400000.0625
26.05121922492981,-6937.27001953125,-13523.5302734375,1024.2900390625,-400000.0625,-400000.0625,-400000.0625,-400000.0625,-400000.0625
26.058861255645752,-6933.169921875,-13520.8095703125,1030.1099853515625,-400000.0625,-400000.0625,-400000.0625,-400000.0625,-400000.0625
26.07242727279663,-6931.830078125,-13518.0,1033.6400146484375,-400000.0625,-400000.0625,-400000.0625,-400000.0625,-400000.0625
26.078603267669678,-6930.68994140625,-13522.91015625,1033.3499755859375,-400000.0625,-400000.0625,-400000.0625,-400000.0625,-400000.0625
26.083667755126953,-6933.06982421875,-13525.0595703125,1034.0699462890625,-400000.0625,-400000.0625,-400000.0625,-400000.0625,-400000.0625
26.093934774398804,-6930.919921875,-13521.0498046875,1035.6400146484375,-400000.0625,-400000.0625,-400000.0625,-400000.0625,-400000.0625
26.100102424621582,-6935.740234375,-13523.5302734375,1035.3599853515625,-400000.0625,-400000.0625,-400000.0625,-400000.0625,-400000.0625
26.107309818267822,-6933.64013671875,-13522.91015625,1033.4000244140625,-400000.0625,-400000.0625,-400000.0625,-400000.0625,-400000.0625
26.116209506988525,-6938.35986328125,-13524.6796875,1036.2099609375,-400000.0625,-400000.0625,-400000.0625,-400000.0625,-400000.0625
26.13049817085266,-6943.75,-13536.7900390625,1024.2900390625,-400000.0625,-400000.0625,-400000.0625,-400000.0625,-400000.0625
26.140244483947754,-6939.41015625,-13532.6904296875,1027.5799560546875,-400000.0625,-400000.0625,-400000.0625,-400000.0625,-400000.0625
26.15092658996582,-6938.169921875,-13531.5,1028.489990234375,-400000.0625,-400000.0625,-400000.0625,-400000.0625,-400000.0625
26.15999126434326,-6933.169921875,-13530.0703125,1032.8800048828125,-400000.0625,-400000.0625,-400000.0625,-400000.0625,-400000.0625
26.173842668533325,-6934.259765625,-13527.58984375,1032.969970703125,-400000.0625,-400000.0625,-400000.0625,-400000.0625,-400000.0625
26.17991805076599,-6938.31982421875,-13532.9697265625,1030.1600341796875,-400000.0625,-400000.0625,-400000.0625,-400000.0625,-400000.0625
26.18533229827881,-6940.93994140625,-13537.5,1030.4000244140625,-400000.0625,-400000.0625,-400000.0625,-400000.0625,-400000.0625
26.195152044296265,-6935.64013671875,-13534.169921875,1032.5400390625,-400000.0625,-400000.0625,-400000.0625,-400000.0625,-400000.0625
26.201568126678467,-6937.5498046875,-13533.830078125,1031.260009765625,-400000.0625,-400000.0625,-400000.0625,-400000.0625,-400000.0625
26.21161723136902,-6937.31005859375,-13534.5,1029.9200439453125,-400000.0625,-400000.0625,-400000.0625,-400000.0625,-400000.0625
26.22087836265564,-6942.75,-13541.0302734375,1021.0999755859375,-400000.0625,-400000.0625,-400000.0625,-400000.0625,-400000.0625
26.233220100402832,-6943.27001953125,-13539.41015625,1026.1099853515625,-400000.0625,-400000.0625,-400000.0625,-400000.0625,-400000.0625
26.24205183982849,-6937.35986328125,-13539.2197265625,1029.489990234375,-400000.0625,-400000.0625,-400000.0625,-400000.0625,-400000.0625
26.2531578540802,-6938.22021484375,-13538.169921875,1032.5899658203125,-400000.0625,-400000.0625,-400000.0625,-400000.0625,-400000.0625
26.264445781707764,-6945.08984375,-13541.41015625,1027.77001953125,-400000.0625,-400000.0625,-400000.0625,-400000.0625,-400000.0625
26.278388023376465,-6946.60986328125,-13543.0400390625,1023.0499877929688,-400000.0625,-400000.0625,-400000.0625,-400000.0625,-400000.0625
26.28844904899597,-6950.43017578125,-13545.75,1026.1500244140625,-400000.0625,-400000.0625,-400000.0625,-400000.0625,-400000.0625
26.2956063747406,-6949.14013671875,-13553.9501953125,1031.02001953125,-400000.0625,-400000.0625,-400000.0625,-400000.0625,-400000.0625
26.30143094062805,-6931.5,-13556.91015625,1025.25,-400000.0625,-400000.0625,-400000.0625,-400000.0625,-400000.0625
26.31132411956787,-6916.81005859375,-13554.2900390625,1015.760009765625,-400000.0625,-400000.0625,-400000.0625,-400000.0625,-400000.0625
26.31808066368103,-6912.419921875,-13570.01953125,997.8800048828125,-400000.0625,-400000.0625,-400000.0625,-400000.0625,-400000.0625
26.32552170753479,-6907.509765625,-13582.330078125,984.3800048828125,-400000.0625,-400000.0625,-400000.0625,-400000.0625,-400000.0625
26.33121132850647,-6889.14990234375,-13590.6201171875,981.1400146484375,-400000.0625,-400000.0625,-400000.0625,-400000.0625,-400000.0625
26.337692499160767,-6867.5498046875,-13601.8798828125,967.4600219726562,-400000.0625,-400000.0625,-400000.0625,-400000.0625,-400000.0625
26.345340490341187,-6856.009765625,-13607.3603515625,950.4299926757812,-400000.0625,-400000.0625,-400000.0625,-400000.0625,-400000.0625
26.35342764854431,-6853.10009765625,-13625.9599609375,925.969970703125,-400000.0625,-400000.0625,-400000.0625,-400000.0625,-400000.0625
26.36214327812195,-6837.64990234375,-13639.98046875,911.1400146484375,-400000.0625,-400000.0625,-400000.0625,-400000.0625,-400000.0625
26.377177715301514,-6821.39013671875,-13648.7001953125,902.7000122070312,-400000.0625,-400000.0625,-400000.0625,-400000.0625,-400000.0625
26.38429284095764,-6807.22998046875,-13656.240234375,896.4099731445312,-400000.0625,-400000.0625,-400000.0625,-400000.0625,-400000.0625
26.39535927772522,-6798.93994140625,-13664.25,885.2000122070312,-400000.0625,-400000.0625,-400000.0625,-400000.0625,-400000.0625
26.40256428718567,-6799.080078125,-13675.169921875,874.0900268554688,-400000.0625,-400000.0625,-400000.0625,-400000.0625,-400000.0625
26.410722970962524,-6802.22998046875,-13681.26953125,870.469970703125,-400000.0625,-400000.0625,-400000.0625,-400000.0625,-400000.0625
26.41648840904236,-6792.1201171875,-13676.3095703125,878.4299926757812,-400000.0625,-400000.0625,-400000.0625,-400000.0625,-400000.0625
26.42488384246826,-6788.77978515625,-13670.58984375,878.5700073242188,-400000.0625,-400000.0625,-400000.0625,-400000.0625,-400000.0625
26.432499408721924,-6789.72998046875,-13676.599609375,873.1400146484375,-400000.0625,-400000.0625,-400000.0625,-400000.0625,-400000.0625
26.442183256149292,-6789.06982421875,-13674.9296875,873.6099853515625,-400000.0625,-400000.0625,-400000.0625,-400000.0625,-400000.0625
26.449705600738525,-6791.64013671875,-13673.8798828125,870.1799926757812,-400000.0625,-400000.0625,-400000.0625,-400000.0625,-400000.0625
26.460185050964355,-6787.6298828125,-13680.98046875,868.27001953125,-400000.0625,-400000.0625,-400000.0625,-400000.0625,-400000.0625
26.476082801818848,-6787.919921875,-13678.8896484375,872.0399780273438,-400000.0625,-400000.0625,-400000.0625,-400000.0625,-400000.0625
26.487461805343628,-6789.5400390625,-13682.1298828125,870.9000244140625,-400000.0625,-400000.0625,-400000.0625,-400000.0625,-400000.0625
26.500410556793213,-6789.64013671875,-13685.2802734375,864.6500244140625,-400000.0625,-400000.0625,-400000.0625,-400000.0625,-400000.0625
26.515581607818604,-6794.41015625,-13686.2802734375,864.0800170898438,-400000.0625,-400000.0625,-400000.0625,-400000.0625,-400000.0625
26.529203176498413,-6789.97021484375,-13682.5595703125,871.469970703125,-400000.0625,-400000.0625,-400000.0625,-400000.0625,-400000.0625
26.540714025497437,-6786.2998046875,-13677.4599609375,876.7100219726562,-400000.0625,-400000.0625,-400000.0625,-400000.0625,-400000.0625
26.54975414276123,-6782.10009765625,-13677.650390625,876.4299926757812,-400000.0625,-400000.0625,-400000.0625,-400000.0625,-400000.0625
26.560601711273193,-6791.35009765625,-13687.5595703125,869.510009765625,-400000.0625,-400000.0625,-400000.0625,-400000.0625,-400000.0625
26.57609272003174,-6794.7900390625,-13696.099609375,863.1199951171875,-400000.0625,-400000.0625,-400000.0625,-400000.0625,-400000.0625
26.587225198745728,-6789.5400390625,-13694.33984375,866.5599975585938,-400000.0625,-400000.0625,-400000.0625,-400000.0625,-400000.0625
26.598312854766846,-6790.58984375,-13689.419921875,872.6599731445312,-400000.0625,-400000.0625,-400000.0625,-400000.0625,-400000.0625
26.608493328094482,-6795.8798828125,-13693.240234375,863.5999755859375,-400000.0625,-400000.0625,-400000.0625,-400000.0625,-400000.0625
26.619059801101685,-6794.5498046875,-13693.8603515625,863.7000122070312,-400000.0625,-400000.0625,-400000.0625,-400000.0625,-400000.0625
26.628623723983765,-6792.93017578125,-13693.4296875,866.7899780273438,-400000.0625,-400000.0625,-400000.0625,-400000.0625,-400000.0625
26.64373540878296,-6784.81982421875,-13686.51953125,874.8499755859375,-400000.0625,-400000.0625,-400000.0625,-400000.0625,-400000.0625
26.65432596206665,-6782.8701171875,-13683.509765625,879.8599853515625,-400000.0625,-400000.0625,-400000.0625,-400000.0625,-400000.0625
26.67237401008606,-6782.2001953125,-13688.0400390625,876.0900268554688,-400000.0625,-400000.0625,-400000.0625,-400000.0625,-400000.0625
26.687019109725952,-6785.81982421875,-13691.0498046875,874.9000244140625,-400000.0625,-400000.0625,-400000.0625,-400000.0625,-400000.0625
26.698060512542725,-6785.72998046875,-13687.849609375,876.8099975585938,-400000.0625,-400000.0625,-400000.0625,-400000.0625,-400000.0625
26.7093722820282,-6778.14990234375,-13684.66015625,882.9600219726562,-400000.0625,-400000.0625,-400000.0625,-400000.0625,-400000.0625
26.716928720474243,-6779.85986328125,-13686.900390625,879.4299926757812,-400000.0625,-400000.0625,-400000.0625,-400000.0625,-400000.0625
26.73071599006653,-6786.2001953125,-13686.75,877.3300170898438,-400000.0625,-400000.0625,-400000.0625,-400000.0625,-400000.0625
26.740205764770508,-6787.97021484375,-13695.8603515625,868.4600219726562,-400000.0625,-400000.0625,-400000.0625,-400000.0625,-400000.0625
26.753010749816895,-6790.5,-13699.580078125,866.3699951171875,-400000.0625,-400000.0625,-400000.0625,-400000.0625,-400000.0625
26.769131422042847,-6787.8701171875,-13696.8603515625,872.0900268554688,-400000.0625,-400000.0625,-400000.0625,-400000.0625,-400000.0625
26.781105995178223,-6783.2998046875,-13693.240234375,875.4299926757812,-400000.0625,-400000.0625,-400000.0625,-400000.0625,-400000.0625
26.79622220993042,-6785.81982421875,-13692.240234375,872.3699951171875,-400000.0625,-400000.0625,-400000.0625,-400000.0625,-400000.0625
26.808000564575195,-6786.77978515625,-13697.76953125,866.3699951171875,-400000.0625,-400000.0625,-400000.0625,-400000.0625,-400000.0625
26.82234001159668,-6785.97021484375,-13695.33984375,866.510009765625,-400000.0625,-400000.0625,-400000.0625,-400000.0625,-400000.0625
26.829716205596924,-6778.77001953125,-13688.51953125,879.0999755859375,-400000.0625,-400000.0625,-400000.0625,-400000.0625,-400000.0625
26.84090518951416,-6780.14990234375,-13697.009765625,874.469970703125,-400000.0625,-400000.0625,-400000.0625,-400000.0625,-400000.0625
26.84826350212097,-6789.259765625,-13703.009765625,865.27001953125,-400000.0625,-400000.0625,-400000.0625,-400000.0625,-400000.0625
26.85677170753479,-6792.8798828125,-13704.8701171875,865.3599853515625,-400000.0625,-400000.0625,-400000.0625,-400000.0625,-400000.0625
26.872361660003662,-6790.35009765625,-13704.7802734375,867.1300048828125,-400000.0625,-400000.0625,-400000.0625,-400000.0625,-400000.0625
26.883249759674072,-6789.68994140625,-13701.9697265625,871.3200073242188,-400000.0625,-400000.0625,-400000.0625,-400000.0625,-400000.0625
26.893619298934937,-6789.10986328125,-13702.490234375,871.0399780273438,-400000.0625,-400000.0625,-400000.0625,-400000.0625,-400000.0625
26.902398824691772,-6793.02001953125,-13704.919921875,866.8400268554688,-400000.0625,-400000.0625,-400000.0625,-400000.0625,-400000.0625
26.910394191741943,-6795.35986328125,-13706.73046875,865.5499877929688,-400000.0625,-400000.0625,-400000.0625,-400000.0625,-400000.0625
26.922924757003784,-6791.259765625,-13701.8203125,863.4600219726562,-400000.0625,-400000.0625,-400000.0625,-400000.0625,-400000.0625
26.930283784866333,-6786.81982421875,-13696.5302734375,863.030029296875,-400000.0625,-400000.0625,-400000.0625,-400000.0625,-400000.0625
26.93642520904541,-6792.1201171875,-13678.2197265625,886.1099853515625,-400000.0625,-400000.0625,-400000.0625,-400000.0625,-400000.0625
26.94907832145691,-6804.08984375,-13652.330078125,899.97998046875,-400000.0625,-400000.0625,-400000.0625,-400000.0625,-400000.0625
26.95857071876526,-6811.669921875,-13627.009765625,907.7999877929688,-400000.0625,-400000.0625,-400000.0625,-400000.0625,-400000.0625
26.97643518447876,-6816.2001953125,-13592.6298828125,924.1099853515625,-400000.0625,-400000.0625,-400000.0625,-400000.0625,-400000.0625
26.989129304885864,-6822.6298828125,-13542.509765625,953.8200073242188,-400000.0625,-400000.0625,-400000.0625,-400000.0625,-400000.0625
26.99813985824585,-6830.68994140625,-13498.01953125,977.9500122070312,-400000.0625,-400000.0625,-400000.0625,-400000.0625,-400000.0625
27.010634660720825,-6840.7998046875,-13461.58984375,996.489990234375,-400000.0625,-400000.0625,-400000.0625,-400000.0625,-400000.0625
27.020578145980835,-6847.43017578125,-13428.3603515625,1016.8099975585938,-400000.0625,-400000.0625,-400000.0625,-400000.0625,-400000.0625
27.032362461090088,-6859.830078125,-13399.3603515625,1036.550048828125,-400000.0625,-400000.0625,-400000.0625,-400000.0625,-400000.0625
27.041401863098145,-6866.7900390625,-13368.3203125,1060.43994140625,-400000.0625,-400000.0625,-400000.0625,-400000.0625,-400000.0625
27.054260969161987,-6871.75,-13349.150390625,1080.22998046875,-400000.0625,-400000.0625,-400000.0625,-400000.0625,-400000.0625
27.074177742004395,-6877.759765625,-13342.0,1094.47998046875,-400000.0625,-400000.0625,-400000.0625,-400000.0625,-400000.0625
27.08312749862671,-6893.2099609375,-13333.1796875,1104.1199951171875,-400000.0625,-400000.0625,-400000.0625,-400000.0625,-400000.0625
27.093600034713745,-6899.1201171875,-13335.990234375,1105.4000244140625,-400000.0625,-400000.0625,-400000.0625,-400000.0625,-400000.0625
27.10146951675415,-6896.58984375,-13321.349609375,1113.4599609375,-400000.0625,-400000.0625,-400000.0625,-400000.0625,-400000.0625
27.112367630004883,-6894.5400390625,-13320.349609375,1112.4100341796875,-400000.0625,-400000.0625,-400000.0625,-400000.0625,-400000.0625
27.122084856033325,-6896.77978515625,-13332.080078125,1107.97998046875,-400000.0625,-400000.0625,-400000.0625,-400000.0625,-400000.0625
27.13180136680603,-6899.06982421875,-13328.26953125,1107.739990234375,-400000.0625,-400000.0625,-400000.0625,-400000.0625,-400000.0625
27.14072608947754,-6898.5,-13335.0400390625,1102.8299560546875,-400000.0625,-400000.0625,-400000.0625,-400000.0625,-400000.0625
27.15149998664856,-6902.83984375,-13342.8095703125,1103.3499755859375,-400000.0625,-400000.0625,-400000.0625,-400000.0625,-400000.0625
27.161514282226562,-6899.68994140625,-13344.099609375,1107.4100341796875,-400000.0625,-400000.0625,-400000.0625,-400000.0625,-400000.0625
27.178950786590576,-6899.5,-13346.0498046875,1106.1700439453125,-400000.0625,-400000.0625,-400000.0625,-400000.0625,-400000.0625
27.191096305847168,-6907.31982421875,-13355.0703125,1098.8199462890625,-400000.0625,-400000.0625,-400000.0625,-400000.0625,-400000.0625
27.201507091522217,-6908.1298828125,-13358.3095703125,1096.43994140625,-400000.0625,-400000.0625,-400000.0625,-400000.0625,-400000.0625
27.2127628326416,-6902.60009765625,-13358.4501953125,1099.8299560546875,-400000.0625,-400000.0625,-400000.0625,-400000.0625,-400000.0625
27.221493005752563,-6898.39990234375,-13356.259765625,1104.8800048828125,-400000.0625,-400000.0625,-400000.0625,-400000.0625,-400000.0625
27.2323637008667,-6902.740234375,-13359.169921875,1103.3499755859375,-400000.0625,-400000.0625,-400000.0625,-400000.0625,-400000.0625
27.240329265594482,-6910.1298828125,-13365.599609375,1096.43994140625,-400000.0625,-400000.0625,-400000.0625,-400000.0625,-400000.0625
27.25160241127014,-6906.60986328125,-13367.8896484375,1094.47998046875,-400000.0625,-400000.0625,-400000.0625,-400000.0625,-400000.0625
27.26085591316223,-6901.4599609375,-13368.26953125,1099.4000244140625,-400000.0625,-400000.0625,-400000.0625,-400000.0625,-400000.0625
27.27566909790039,-6900.83984375,-13366.8896484375,1101.3499755859375,-400000.0625,-400000.0625,-400000.0625,-400000.0625,-400000.0625
27.28300452232361,-6901.68994140625,-13366.8896484375,1100.8299560546875,-400000.0625,-400000.0625,-400000.0625,-400000.0625,-400000.0625
27.293691396713257,-6906.60986328125,-13370.4697265625,1099.6800537109375,-400000.0625,-400000.0625,-400000.0625,-400000.0625,-400000.0625
27.30500817298889,-6910.1298828125,-13372.7099609375,1097.8699951171875,-400000.0625,-400000.0625,-400000.0625,-400000.0625,-400000.0625
27.316033840179443,-6901.64990234375,-13369.66015625,1101.9200439453125,-400000.0625,-400000.0625,-400000.0625,-400000.0625,-400000.0625
27.324284315109253,-6904.64990234375,-13371.66015625,1103.260009765625,-400000.0625,-400000.0625,-400000.0625,-400000.0625,-400000.0625
27.33504843711853,-6909.7998046875,-13375.6201171875,1097.6300048828125,-400000.0625,-400000.0625,-400000.0625,-400000.0625,-400000.0625
27.35006046295166,-6912.89990234375,-13382.25,1092.239990234375,-400000.0625,-400000.0625,-400000.0625,-400000.0625,-400000.0625
27.369712591171265,-6911.56005859375,-13383.2900390625,1092.5799560546875,-400000.0625,-400000.0625,-400000.0625,-400000.0625,-400000.0625
27.38142991065979,-6906.22021484375,-13381.2001953125,1097.010009765625,-400000.0625,-400000.0625,-400000.0625,-400000.0625,-400000.0625
27.393020153045654,-6908.75,-13384.6298828125,1098.780029296875,-400000.0625,-400000.0625,-400000.0625,-400000.0625,-400000.0625
27.403281450271606,-6909.89990234375,-13384.490234375,1099.010009765625,-400000.0625,-400000.0625,-400000.0625,-400000.0625,-400000.0625
27.416080474853516,-6914.0400390625,-13390.349609375,1092.1500244140625,-400000.0625,-400000.0625,-400000.0625,-400000.0625,-400000.0625
27.4266254901886,-6917.240234375,-13392.5,1093.77001953125,-400000.0625,-400000.0625,-400000.0625,-400000.0625,-400000.0625
27.438580751419067,-6911.56005859375,-13386.7802734375,1100.43994140625,-400000.0625,-400000.0625,-400000.0625,-400000.0625,-400000.0625
27.44752287864685,-6910.52001953125,-13383.33984375,1106.1700439453125,-400000.0625,-400000.0625,-400000.0625,-400000.0625,-400000.0625
27.45993709564209,-6911.89990234375,-13387.5400390625,1102.8800048828125,-400000.0625,-400000.0625,-400000.0625,-400000.0625,-400000.0625
27.47501039505005,-6916.08984375,-13390.0703125,1099.489990234375,-400000.0625,-400000.0625,-400000.0625,-400000.0625,-400000.0625
27.487446308135986,-6910.85009765625,-13390.58984375,1098.6800537109375,-400000.0625,-400000.0625,-400000.0625,-400000.0625,-400000.0625
27.4966242313385,-6904.509765625,-13390.58984375,1101.8800048828125,-400000.0625,-400000.0625,-400000.0625,-400000.0625,-400000.0625
27.508702993392944,-6906.93994140625,-13386.4404296875,1104.02001953125,-400000.0625,-400000.0625,-400000.0625,-400000.0625,-400000.0625
27.519704341888428,-6908.85009765625,-13388.830078125,1101.8800048828125,-400000.0625,-400000.0625,-400000.0625,-400000.0625,-400000.0625
27.53204846382141,-6910.56005859375,-13397.599609375,1095.25,-400000.0625,-400000.0625,-400000.0625,-400000.0625,-400000.0625
27.545938730239868,-6907.31982421875,-13394.41015625,1099.010009765625,-400000.0625,-400000.0625,-400000.0625,-400000.0625,-400000.0625
27.557241439819336,-6905.64990234375,-13390.2099609375,1105.739990234375,-400000.0625,-400000.0625,-400000.0625,-400000.0625,-400000.0625
27.574402809143066,-6905.89013671875,-13390.919921875,1106.7900390625,-400000.0625,-400000.0625,-400000.0625,-400000.0625,-400000.0625
27.585033893585205,-6909.22998046875,-13395.01953125,1103.0699462890625,-400000.0625,-400000.0625,-400000.0625,-400000.0625,-400000.0625
27.59397554397583,-6913.14013671875,-13401.080078125,1101.1099853515625,-400000.0625,-400000.0625,-400000.0625,-400000.0625,-400000.0625
27.60772466659546,-6911.419921875,-13397.9296875,1103.449951171875,-400000.0625,-400000.0625,-400000.0625,-400000.0625,-400000.0625
27.62271499633789,-6908.93994140625,-13388.25,1108.9300537109375,-400000.0625,-400000.0625,-400000.0625,-400000.0625,-400000.0625
27.635961532592773,-6909.7099609375,-13377.4296875,1118.0400390625,-400000.0625,-400000.0625,-400000.0625,-400000.0625,-400000.0625
27.64836049079895,-6917.0,-13377.240234375,1115.989990234375,-400000.0625,-400000.0625,-400000.0625,-400000.0625,-400000.0625
27.657098293304443,-6921.9599609375,-13387.7802734375,1113.27001953125,-400000.0625,-400000.0625,-400000.0625,-400000.0625,-400000.0625
27.676037788391113,-6922.2001953125,-13387.9697265625,1113.8399658203125,-400000.0625,-400000.0625,-400000.0625,-400000.0625,-400000.0625
27.68825674057007,-6922.33984375,-13377.0,1119.3299560546875,-400000.0625,-400000.0625,-400000.0625,-400000.0625,-400000.0625
27.700910329818726,-6917.330078125,-13377.240234375,1120.52001953125,-400000.0625,-400000.0625,-400000.0625,-400000.0625,-400000.0625
27.71393084526062,-6913.9501953125,-13377.240234375,1121.4300537109375,-400000.0625,-400000.0625,-400000.0625,-400000.0625,-400000.0625
27.728084564208984,-6919.2900390625,-13381.3896484375,1116.93994140625,-400000.0625,-400000.0625,-400000.0625,-400000.0625,-400000.0625
27.735610008239746,-6923.490234375,-13387.8701171875,1114.8900146484375,-400000.0625,-400000.0625,-400000.0625,-400000.0625,-400000.0625
27.744437217712402,-6917.3798828125,-13384.150390625,1119.4200439453125,-400000.0625,-400000.0625,-400000.0625,-400000.0625,-400000.0625
27.75643014907837,-6915.669921875,-13379.91015625,1120.3800048828125,-400000.0625,-400000.0625,-400000.0625,-400000.0625,-400000.0625
27.78127121925354,-6943.56005859375,-13207.76953125,1317.449951171875,-400000.0625,-400000.0625,-400000.0625,-400000.0625,-400000.0625
27.887733697891235,-6711.33984375,-13199.8095703125,1299.81005859375,-400000.0625,-400000.0625,-400000.0625,-400000.0625,-400000.0625
28.084333896636963,-6685.10986328125,-13332.7998046875,1145.97998046875,-400000.0625,-400000.0625,-400000.0625,-400000.0625,-400000.0625
28.140897274017334,-6712.43994140625,-13389.830078125,1065.4000244140625,-400000.0625,-400000.0625,-400000.0625,-400000.0625,-400000.0625
28.208219289779663,-6678.77001953125,-13349.6298828125,1119.0899658203125,-400000.0625,-400000.0625,-400000.0625,-400000.0625,-400000.0625
28.276103734970093,-6464.0498046875,-13159.3701171875,1314.9300537109375,-400000.0625,-400000.0625,-400000.0625,-400000.0625,-400000.0625
28.406606197357178,-6763.89013671875,-13509.5595703125,966.8400268554688,-400000.0625,-400000.0625,-400000.0625,-400000.0625,-400000.0625
28.474340677261353,-6789.39990234375,-13530.919921875,941.989990234375,-400000.0625,-400000.0625,-400000.0625,-400000.0625,-400000.0625
28.5912024974823,-6963.72998046875,-13711.0703125,794.5999755859375,-400000.0625,-400000.0625,-400000.0625,-400000.0625,-400000.0625
28.782572031021118,-6953.0498046875,-13722.3701171875,808.0,-400000.0625,-400000.0625,-400000.0625,-400000.0625,-400000.0625
28.975367784500122,-7073.58984375,-13882.1103515625,642.2000122070312,-400000.0625,-400000.0625,-400000.0625,-400000.0625,-400000.0625
28.991613388061523,-7031.490234375,-13833.240234375,690.97998046875,-400000.0625,-400000.0625,-400000.0625,-400000.0625,-400000.0625
29.044456720352173,-7034.39990234375,-13947.2001953125,671.8200073242188,-400000.0625,-400000.0625,-400000.0625,-400000.0625,-400000.0625
29.100351333618164,-6988.10009765625,-14162.6396484375,559.760009765625,-400000.0625,-400000.0625,-400000.0625,-400000.0625,-400000.0625
29.305124759674072,-7010.4599609375,-13960.740234375,596.1900024414062,-400000.0625,-400000.0625,-400000.0625,-400000.0625,-400000.0625
29.383859157562256,-6854.72998046875,-13818.5,731.4199829101562,-400000.0625,-400000.0625,-400000.0625,-400000.0625,-400000.0625
29.48636770248413,-6630.85009765625,-13630.580078125,952.5800170898438,-400000.0625,-400000.0625,-400000.0625,-400000.0625,-400000.0625
29.639995336532593,-6849.669921875,-13848.5,745.3900146484375,-400000.0625,-400000.0625,-400000.0625,-400000.0625,-400000.0625
29.696343660354614,-6921.240234375,-13936.8095703125,658.8499755859375,-400000.0625,-400000.0625,-400000.0625,-400000.0625,-400000.0625
29.746647596359253,-6980.47021484375,-13991.259765625,601.9600219726562,-400000.0625,-400000.0625,-400000.0625,-400000.0625,-400000.0625
29.805161714553833,-7153.3701171875,-14141.9404296875,434.8299865722656,-400000.0625,-400000.0625,-400000.0625,-400000.0625,-400000.0625
29.941094875335693,-7274.72021484375,-14251.1904296875,329.1099853515625,-400000.0625,-400000.0625,-400000.0625,-400000.0625,-400000.0625
30.010157346725464,-7145.1201171875,-14145.419921875,449.94000244140625,-400000.0625,-400000.0625,-400000.0625,-400000.0625,-400000.0625
30.064990520477295,-7052.330078125,-14033.080078125,553.8900146484375,-400000.0625,-400000.0625,-400000.0625,-400000.0625,-400000.0625
30.127503395080566,-7013.31982421875,-14010.2900390625,617.97998046875,-400000.0625,-400000.0625,-400000.0625,-400000.0625,-400000.0625
30.19091773033142,-6970.169921875,-13944.25,666.0499877929688,-400000.0625,-400000.0625,-400000.0625,-400000.0625,-400000.0625
30.255361080169678,-6931.06982421875,-13893.419921875,712.780029296875,-400000.0625,-400000.0625,-400000.0625,-400000.0625,-400000.0625
30.454156160354614,-7456.259765625,-14314.9404296875,345.79998779296875,-400000.0625,-400000.0625,-400000.0625,-400000.0625,-400000.0625
30.57560133934021,-7195.9501953125,-14099.8896484375,485.0899963378906,-400000.0625,-400000.0625,-400000.0625,-400000.0625,-400000.0625
30.639776468276978,-7113.27001953125,-13984.6298828125,622.75,-400000.0625,-400000.0625,-400000.0625,-400000.0625,-400000.0625
30.775059700012207,-7009.7900390625,-14069.650390625,650.260009765625,-400000.0625,-400000.0625,-400000.0625,-400000.0625,-400000.0625
30.90636444091797,-7643.56005859375,-15363.41015625,-519.9000244140625,-400000.0625,-400000.0625,-400000.0625,-400000.0625,-400000.0625
30.9909610748291,-7581.27978515625,-15160.990234375,-390.8599853515625,-400000.0625,-400000.0625,-400000.0625,-400000.0625,-400000.0625
31.06797170639038,-7349.2998046875,-14646.2001953125,48.2599983215332,-400000.0625,-400000.0625,-400000.0625,-400000.0625,-400000.0625
31.09498143196106,-7132.85986328125,-14817.8095703125,31.850000381469727,-400000.0625,-400000.0625,-400000.0625,-400000.0625,-400000.0625
31.15596628189087,-6830.64990234375,-14081.2900390625,682.5,-400000.0625,-400000.0625,-400000.0625,-400000.0625,-400000.0625
31.21635150909424,-6787.35009765625,-14024.8798828125,772.9099731445312,-400000.0625,-400000.0625,-400000.0625,-400000.0625,-400000.0625
31.28744912147522,-6941.27001953125,-14221.240234375,561.52001953125,-400000.0625,-400000.0625,-400000.0625,-400000.0625,-400000.0625
31.405055046081543,-7409.56982421875,-14749.1904296875,179.10000610351562,-400000.0625,-400000.0625,-400000.0625,-400000.0625,-400000.0625
31.53905749320984,-7200.669921875,-14361.0,516.1799926757812,-400000.0625,-400000.0625,-400000.0625,-400000.0625,-400000.0625
31.598339319229126,-7293.7001953125,-14477.4501953125,475.8399963378906,-400000.0625,-400000.0625,-400000.0625,-400000.0625,-400000.0625
31.702816486358643,-7224.93994140625,-14685.0595703125,419.80999755859375,-400000.0625,-400000.0625,-400000.0625,-400000.0625,-400000.0625
31.742700815200806,-7127.72021484375,-14501.0498046875,429.05999755859375,-400000.0625,-400000.0625,-400000.0625,-400000.0625,-400000.0625
31.861056566238403,-7131.91015625,-14261.099609375,522.6599731445312,-400000.0625,-400000.0625,-400000.0625,-400000.0625,-400000.0625
31.9326753616333,-7094.72021484375,-13987.16015625,714.5900268554688,-400000.0625,-400000.0625,-400000.0625,-400000.0625,-400000.0625
31.99550700187683,-7181.93017578125,-13782.8798828125,881.1500244140625,-400000.0625,-400000.0625,-400000.0625,-400000.0625,-400000.0625
32.051809549331665,-7148.27001953125,-13811.58984375,854.6799926757812,-400000.0625,-400000.0625,-400000.0625,-400000.0625,-400000.0625
32.112706899642944,-7133.77001953125,-14047.0,618.3099975585938,-400000.0625,-400000.0625,-400000.0625,-400000.0625,-400000.0625
32.17576789855957,-7004.60009765625,-14025.98046875,649.8300170898438,-400000.0625,-400000.0625,-400000.0625,-400000.0625,-400000.0625
32.25590920448303,-7000.8798828125,-14028.98046875,641.0599975585938,-400000.0625,-400000.0625,-400000.0625,-400000.0625,-400000.0625
32.37047243118286,-7015.27978515625,-14014.669921875,686.1699829101562,-400000.0625,-400000.0625,-400000.0625,-400000.0625,-400000.0625
32.43043041229248,-6983.60986328125,-14015.6796875,699.22998046875,-400000.0625,-400000.0625,-400000.0625,-400000.0625,-400000.0625
32.50655174255371,-6958.43994140625,-14014.9599609375,709.8699951171875,-400000.0625,-400000.0625,-400000.0625,-400000.0625,-400000.0625
32.577202796936035,-6982.3798828125,-14088.6298828125,636.47998046875,-400000.0625,-400000.0625,-400000.0625,-400000.0625,-400000.0625
32.63659167289734,-7043.169921875,-14236.01953125,554.3200073242188,-400000.0625,-400000.0625,-400000.0625,-400000.0625,-400000.0625
32.74886727333069,-7050.56005859375,-14450.5,404.0199890136719,-400000.0625,-400000.0625,-400000.0625,-400000.0625,-400000.0625
32.824411153793335,-6964.77978515625,-14303.6904296875,497.82000732421875,-400000.0625,-400000.0625,-400000.0625,-400000.0625,-400000.0625
32.946224212646484,-6969.02001953125,-14271.58984375,530.1500244140625,-400000.0625,-400000.0625,-400000.0625,-400000.0625,-400000.0625
33.00594902038574,-6966.31005859375,-14257.6201171875,550.8900146484375,-400000.0625,-400000.0625,-400000.0625,-400000.0625,-400000.0625
33.14790678024292,-6936.41015625,-14236.98046875,587.989990234375,-400000.0625,-400000.0625,-400000.0625,-400000.0625,-400000.0625
33.34741806983948,-6920.669921875,-14290.1396484375,517.8900146484375,-400000.0625,-400000.0625,-400000.0625,-400000.0625,-400000.0625
33.390103340148926,-6881.52001953125,-14283.23046875,527.239990234375,-400000.0625,-400000.0625,-400000.0625,-400000.0625,-400000.0625
33.45482850074768,-6949.0400390625,-14361.240234375,464.82000732421875,-400000.0625,-400000.0625,-400000.0625,-400000.0625,-400000.0625
33.52755308151245,-7150.97998046875,-14703.7998046875,246.6699981689453,-400000.0625,-400000.0625,-400000.0625,-400000.0625,-400000.0625
33.581663846969604,-7117.83984375,-14597.0400390625,355.04998779296875,-400000.0625,-400000.0625,-400000.0625,-400000.0625,-400000.0625
33.655924558639526,-7066.10986328125,-14375.8798828125,466.82000732421875,-400000.0625,-400000.0625,-400000.0625,-400000.0625,-400000.0625
33.84154152870178,-7015.0400390625,-14261.099609375,551.219970703125,-400000.0625,-400000.0625,-400000.0625,-400000.0625,-400000.0625
33.90326118469238,-6993.8701171875,-14239.98046875,570.2000122070312,-400000.0625,-400000.0625,-400000.0625,-400000.0625,-400000.0625
34.02764701843262,-6995.009765625,-14244.509765625,564.5800170898438,-400000.0625,-400000.0625,-400000.0625,-400000.0625,-400000.0625
34.178149461746216,-7013.75,-14269.9697265625,533.3400268554688,-400000.0625,-400000.0625,-400000.0625,-400000.0625,-400000.0625
34.227596044540405,-7032.10986328125,-14261.91015625,537.8699951171875,-400000.0625,-400000.0625,-400000.0625,-400000.0625,-400000.0625
34.36077523231506,-6970.83984375,-14208.599609375,594.1900024414062,-400000.0625,-400000.0625,-400000.0625,-400000.0625,-400000.0625
34.4306526184082,-7028.2001953125,-14101.3203125,688.1199951171875,-400000.0625,-400000.0625,-400000.0625,-400000.0625,-400000.0625
34.67811989784241,-7054.759765625,-14226.0595703125,587.1300048828125,-400000.0625,-400000.0625,-400000.0625,-400000.0625,-400000.0625
34.90271759033203,-7065.580078125,-14271.830078125,555.9000244140625,-400000.0625,-400000.0625,-400000.0625,-400000.0625,-400000.0625
34.992526054382324,-7062.669921875,-14268.01953125,559.22998046875,-400000.0625,-400000.0625,-400000.0625,-400000.0625,-400000.0625
35.063472747802734,-7024.81005859375,-14245.1298828125,598.0,-400000.0625,-400000.0625,-400000.0625,-400000.0625,-400000.0625
35.128824949264526,-7143.8798828125,-14464.240234375,475.54998779296875,-400000.0625,-400000.0625,-400000.0625,-400000.0625,-400000.0625
35.19889783859253,-7205.9599609375,-14649.009765625,401.1199951171875,-400000.0625,-400000.0625,-400000.0625,-400000.0625,-400000.0625
35.24733090400696,-7129.669921875,-14737.6103515625,324.3900146484375,-400000.0625,-400000.0625,-400000.0625,-400000.0625,-400000.0625
35.32570290565491,-7074.740234375,-14556.41015625,383.3800048828125,-400000.0625,-400000.0625,-400000.0625,-400000.0625,-400000.0625
35.38579797744751,-7079.97998046875,-14519.3603515625,404.54998779296875,-400000.0625,-400000.0625,-400000.0625,-400000.0625,-400000.0625
35.45007920265198,-7072.77978515625,-14471.0595703125,431.82000732421875,-400000.0625,-400000.0625,-400000.0625,-400000.0625,-400000.0625
35.51202654838562,-7113.02978515625,-14469.5302734375,411.75,-400000.0625,-400000.0625,-400000.0625,-400000.0625,-400000.0625
35.56526780128479,-7029.6298828125,-14413.740234375,488.6199951171875,-400000.0625,-400000.0625,-400000.0625,-400000.0625,-400000.0625
35.63871192932129,-7042.740234375,-14286.1396484375,557.7100219726562,-400000.0625,-400000.0625,-400000.0625,-400000.0625,-400000.0625
35.69862222671509,-7033.02001953125,-14322.0,567.3900146484375,-400000.0625,-400000.0625,-400000.0625,-400000.0625,-400000.0625
35.776652574539185,-7140.16015625,-14446.5498046875,460.239990234375,-400000.0625,-400000.0625,-400000.0625,-400000.0625,-400000.0625
35.837844133377075,-7057.14013671875,-14214.1796875,690.3200073242188,-400000.0625,-400000.0625,-400000.0625,-400000.0625,-400000.0625
35.9569046497345,-7055.81005859375,-14233.0703125,682.4000244140625,-400000.0625,-400000.0625,-400000.0625,-400000.0625,-400000.0625
36.01663684844971,-6912.66015625,-14124.8203125,839.52001953125,-400000.0625,-400000.0625,-400000.0625,-400000.0625,-400000.0625
36.08254528045654,-6904.64990234375,-14094.349609375,886.1500244140625,-400000.0625,-400000.0625,-400000.0625,-400000.0625,-400000.0625
36.13978695869446,-7084.93994140625,-14179.1396484375,787.1599731445312,-400000.0625,-400000.0625,-400000.0625,-400000.0625,-400000.0625
36.21029090881348,-6920.91015625,-14437.9599609375,403.739990234375,-400000.0625,-400000.0625,-400000.0625,-400000.0625,-400000.0625
36.27742123603821,-6930.5,-14478.73046875,343.3699951171875,-400000.0625,-400000.0625,-400000.0625,-400000.0625,-400000.0625
36.340980529785156,-6918.759765625,-14572.2900390625,215.10000610351562,-400000.0625,-400000.0625,-400000.0625,-400000.0625,-400000.0625
36.40053939819336,-6955.43017578125,-14587.1201171875,188.72999572753906,-400000.0625,-400000.0625,-400000.0625,-400000.0625,-400000.0625
36.47671413421631,-7010.41015625,-14562.1796875,236.8000030517578,-400000.0625,-400000.0625,-400000.0625,-400000.0625,-400000.0625
36.54024577140808,-7089.56982421875,-14517.6396484375,312.760009765625,-400000.0625,-400000.0625,-400000.0625,-400000.0625,-400000.0625
36.593270778656006,-7083.419921875,-14544.150390625,279.8999938964844,-400000.0625,-400000.0625,-400000.0625,-400000.0625,-400000.0625
36.65788698196411,-7089.6201171875,-14482.4501953125,340.6000061035156,-400000.0625,-400000.0625,-400000.0625,-400000.0625,-400000.0625
36.72932267189026,-7066.580078125,-14430.8603515625,417.0400085449219,-400000.0625,-400000.0625,-400000.0625,-400000.0625,-400000.0625
36.86046028137207,-7029.72021484375,-14369.4404296875,494.2900085449219,-400000.0625,-400000.0625,-400000.0625,-400000.0625,-400000.0625
36.923104763031006,-7091.9501953125,-14312.7001953125,530.8599853515625,-400000.0625,-400000.0625,-400000.0625,-400000.0625,-400000.0625
36.97370672225952,-7136.97021484375,-14277.75,569.72998046875,-400000.0625,-400000.0625,-400000.0625,-400000.0625,-400000.0625
37.041322231292725,-7189.7001953125,-14374.349609375,476.7900085449219,-400000.0625,-400000.0625,-400000.0625,-400000.0625,-400000.0625
37.102571964263916,-7204.14990234375,-14400.8701171875,450.79998779296875,-400000.0625,-400000.0625,-400000.0625,-400000.0625,-400000.0625
37.17397880554199,-7058.52978515625,-14337.2099609375,540.3499755859375,-400000.0625,-400000.0625,-400000.0625,-400000.0625,-400000.0625
37.233389139175415,-7094.81005859375,-14368.9599609375,505.7799987792969,-400000.0625,-400000.0625,-400000.0625,-400000.0625,-400000.0625
37.29519748687744,-7138.25,-14426.419921875,437.69000244140625,-400000.0625,-400000.0625,-400000.0625,-400000.0625,-400000.0625
37.37882375717163,-7035.4501953125,-14360.759765625,477.739990234375,-400000.0625,-400000.0625,-400000.0625,-400000.0625,-400000.0625
37.47375130653381,-7006.8798828125,-14377.01953125,482.70001220703125,-400000.0625,-400000.0625,-400000.0625,-400000.0625,-400000.0625
37.61253499984741,-7021.27978515625,-14424.66015625,424.1499938964844,-400000.0625,-400000.0625,-400000.0625,-400000.0625,-400000.0625
37.68505883216858,-7050.31982421875,-14502.9599609375,347.7099914550781,-400000.0625,-400000.0625,-400000.0625,-400000.0625,-400000.0625
37.738996505737305,-7363.509765625,-14702.23046875,396.1099853515625,-400000.0625,-400000.0625,-400000.0625,-400000.0625,-400000.0625
37.88253855705261,-7441.7099609375,-14366.099609375,854.3499755859375,-400000.0625,-400000.0625,-400000.0625,-400000.0625,-400000.0625
37.93845081329346,-7403.7998046875,-14464.1396484375,640.5800170898438,-400000.0625,-400000.0625,-400000.0625,-400000.0625,-400000.0625
37.99660897254944,-7336.3798828125,-14546.6298828125,501.20001220703125,-400000.0625,-400000.0625,-400000.0625,-400000.0625,-400000.0625
38.1048150062561,-7186.89013671875,-14545.919921875,465.67999267578125,-400000.0625,-400000.0625,-400000.0625,-400000.0625,-400000.0625
38.25510931015015,-7113.83984375,-14684.2998046875,307.6600036621094,-400000.0625,-400000.0625,-400000.0625,-400000.0625,-400000.0625
38.321826457977295,-7100.72998046875,-14667.6103515625,323.9200134277344,-400000.0625,-400000.0625,-400000.0625,-400000.0625,-400000.0625
38.39043712615967,-7036.16015625,-14613.490234375,379.55999755859375,-400000.0625,-400000.0625,-400000.0625,-400000.0625,-400000.0625
38.52553343772888,-7069.77978515625,-14637.759765625,336.3599853515625,-400000.0625,-400000.0625,-400000.0625,-400000.0625,-400000.0625
38.59191083908081,-7101.77978515625,-14672.849609375,290.20001220703125,-400000.0625,-400000.0625,-400000.0625,-400000.0625,-400000.0625
38.63777470588684,-7090.43017578125,-14669.6103515625,299.4100036621094,-400000.0625,-400000.0625,-400000.0625,-400000.0625,-400000.0625
38.75572943687439,-7087.330078125,-14679.5302734375,314.57000732421875,-400000.0625,-400000.0625,-400000.0625,-400000.0625,-400000.0625
38.77243447303772,-7226.7099609375,-14910.41015625,149.14999389648438,-400000.0625,-400000.0625,-400000.0625,-400000.0625,-400000.0625
38.83906960487366,-7273.8701171875,-15007.16015625,113.7699966430664,-400000.0625,-400000.0625,-400000.0625,-400000.0625,-400000.0625
38.895102739334106,-7344.72021484375,-14751.48046875,356.5799865722656,-400000.0625,-400000.0625,-400000.0625,-400000.0625,-400000.0625
38.97362756729126,-6989.81005859375,-14118.5302734375,823.6400146484375,-400000.0625,-400000.0625,-400000.0625,-400000.0625,-400000.0625
39.0293128490448,-7027.33984375,-14232.1103515625,716.2100219726562,-400000.0625,-400000.0625,-400000.0625,-400000.0625,-400000.0625
39.087868452072144,-7016.47021484375,-14209.7001953125,716.6400146484375,-400000.0625,-400000.0625,-400000.0625,-400000.0625,-400000.0625
39.15143322944641,-6954.3798828125,-14202.0703125,713.489990234375,-400000.0625,-400000.0625,-400000.0625,-400000.0625,-400000.0625
39.2240469455719,-7045.169921875,-14331.6796875,567.3400268554688,-400000.0625,-400000.0625,-400000.0625,-400000.0625,-400000.0625
39.3483304977417,-7031.77978515625,-14347.75,509.69000244140625,-400000.0625,-400000.0625,-400000.0625,-400000.0625,-400000.0625
39.41631364822388,-7030.009765625,-14370.490234375,497.010009765625,-400000.0625,-400000.0625,-400000.0625,-400000.0625,-400000.0625
39.48809862136841,-6964.259765625,-14308.8798828125,553.3200073242188,-400000.0625,-400000.0625,-400000.0625,-400000.0625,-400000.0625
39.53756880760193,-6962.68017578125,-14306.3603515625,562.239990234375,-400000.0625,-400000.0625,-400000.0625,-400000.0625,-400000.0625
39.59997344017029,-6871.02978515625,-14231.400390625,645.6400146484375,-400000.0625,-400000.0625,-400000.0625,-400000.0625,-400000.0625
39.66245484352112,-6902.5,-14263.9697265625,611.969970703125,-400000.0625,-400000.0625,-400000.0625,-400000.0625,-400000.0625
39.75003671646118,-6927.06005859375,-14322.3798828125,554.22998046875,-400000.0625,-400000.0625,-400000.0625,-400000.0625,-400000.0625
39.93973231315613,-6880.240234375,-14371.01953125,501.010009765625,-400000.0625,-400000.0625,-400000.0625,-400000.0625,-400000.0625
40.04565453529358,-6778.669921875,-14302.2099609375,586.27001953125,-400000.0625,-400000.0625,-400000.0625,-400000.0625,-400000.0625
40.158005714416504,-6629.60986328125,-14186.48046875,725.8900146484375,-400000.0625,-400000.0625,-400000.0625,-400000.0625,-400000.0625
40.18075132369995,-6835.3701171875,-14400.0498046875,540.0700073242188,-400000.0625,-400000.0625,-400000.0625,-400000.0625,-400000.0625
40.246342420578,-6832.93017578125,-14346.7900390625,571.1599731445312,-400000.0625,-400000.0625,-400000.0625,-400000.0625,-400000.0625
40.37660503387451,-6504.490234375,-14063.9296875,864.9400024414062,-400000.0625,-400000.0625,-400000.0625,-400000.0625,-400000.0625
40.427815437316895,-6644.10986328125,-14148.08984375,764.22998046875,-400000.0625,-400000.0625,-400000.0625,-400000.0625,-400000.0625
40.495062828063965,-7077.740234375,-14503.8095703125,392.1499938964844,-400000.0625,-400000.0625,-400000.0625,-400000.0625,-400000.0625
40.579031467437744,-7114.75,-14561.509765625,370.4100036621094,-400000.0625,-400000.0625,-400000.0625,-400000.0625,-400000.0625
40.66131067276001,-7168.25,-14616.919921875,318.0,-400000.0625,-400000.0625,-400000.0625,-400000.0625,-400000.0625
40.7517352104187,-7080.89013671875,-14618.6796875,398.67999267578125,-400000.0625,-400000.0625,-400000.0625,-400000.0625,-400000.0625
40.82089066505432,-6880.81005859375,-14517.259765625,587.989990234375,-400000.0625,-400000.0625,-400000.0625,-400000.0625,-400000.0625
40.95545959472656,-7110.169921875,-14611.0595703125,324.1499938964844,-400000.0625,-400000.0625,-400000.0625,-400000.0625,-400000.0625
41.01366448402405,-7312.35009765625,-14820.5302734375,104.80999755859375,-400000.0625,-400000.0625,-400000.0625,-400000.0625,-400000.0625
41.07388520240784,-6882.85986328125,-14395.5703125,521.7999877929688,-400000.0625,-400000.0625,-400000.0625,-400000.0625,-400000.0625
41.198426485061646,-6812.52978515625,-14391.330078125,611.3499755859375,-400000.0625,-400000.0625,-400000.0625,-400000.0625,-400000.0625
41.32636547088623,-6554.080078125,-14138.3701171875,818.1599731445312,-400000.0625,-400000.0625,-400000.0625,-400000.0625,-400000.0625
41.38890767097473,-7702.68994140625,-15265.23046875,-303.2699890136719,-400000.0625,-400000.0625,-400000.0625,-400000.0625,-400000.0625
41.46987056732178,-7357.41015625,-14896.58984375,57.7400016784668,-400000.0625,-400000.0625,-400000.0625,-400000.0625,-400000.0625
41.53333401679993,-7090.56982421875,-14871.5498046875,194.4499969482422,-400000.0625,-400000.0625,-400000.0625,-400000.0625,-400000.0625
41.596810817718506,-6422.43017578125,-14953.849609375,276.6099853515625,-400000.0625,-400000.0625,-400000.0625,-400000.0625,-400000.0625
41.65620446205139,-6578.06005859375,-15128.6103515625,104.5199966430664,-400000.0625,-400000.0625,-400000.0625,-400000.0625,-400000.0625
41.76790738105774,-7558.10986328125,-16063.5,-991.9199829101562,-400000.0625,-400000.0625,-400000.0625,-400000.0625,-400000.0625
41.783631324768066,-7907.490234375,-16238.6396484375,-1190.52001953125,-400000.0625,-400000.0625,-400000.0625,-400000.0625,-400000.0625
41.84702014923096,-7367.66015625,-15856.9404296875,-603.8200073242188,-400000.0625,-400000.0625,-400000.0625,-400000.0625,-400000.0625
41.90157628059387,-7226.18017578125,-15791.3701171875,-489.1400146484375,-400000.0625,-400000.0625,-400000.0625,-400000.0625,-400000.0625
42.030218839645386,-7158.9501953125,-15079.169921875,67.62000274658203,-400000.0625,-400000.0625,-400000.0625,-400000.0625,-400000.0625
42.09960412979126,-7317.72998046875,-15205.91015625,120.97000122070312,-400000.0625,-400000.0625,-400000.0625,-400000.0625,-400000.0625
42.17194366455078,-7326.75,-15152.83984375,198.64999389648438,-400000.0625,-400000.0625,-400000.0625,-400000.0625,-400000.0625
42.37294411659241,-7263.9501953125,-14916.9501953125,404.92999267578125,-400000.0625,-400000.0625,-400000.0625,-400000.0625,-400000.0625
42.4877667427063,-6970.83984375,-14902.2099609375,185.82000732421875,-400000.0625,-400000.0625,-400000.0625,-400000.0625,-400000.0625
42.550848960876465,-7146.41015625,-14978.4599609375,89.36000061035156,-400000.0625,-400000.0625,-400000.0625,-400000.0625,-400000.0625
42.60777735710144,-7160.3798828125,-15006.01953125,73.05000305175781,-400000.0625,-400000.0625,-400000.0625,-400000.0625,-400000.0625
42.67659521102905,-7214.93017578125,-15047.650390625,42.68000030517578,-400000.0625,-400000.0625,-400000.0625,-400000.0625,-400000.0625
42.80032658576965,-6993.06005859375,-14759.830078125,265.8399963378906,-400000.0625,-400000.0625,-400000.0625,-400000.0625,-400000.0625
42.893129110336304,-6972.1201171875,-14743.51953125,309.32000732421875,-400000.0625,-400000.0625,-400000.0625,-400000.0625,-400000.0625
42.99155592918396,-6981.27978515625,-14786.4404296875,308.8500061035156,-400000.0625,-400000.0625,-400000.0625,-400000.0625,-400000.0625
43.12762427330017,-6999.919921875,-14809.75,299.5,-400000.0625,-400000.0625,-400000.0625,-400000.0625,-400000.0625
43.19255828857422,-7399.93994140625,-15218.7802734375,220.44000244140625,-400000.0625,-400000.0625,-400000.0625,-400000.0625,-400000.0625
43.32409048080444,-7363.3701171875,-14923.91015625,458.1499938964844,-400000.0625,-400000.0625,-400000.0625,-400000.0625,-400000.0625
43.37275505065918,-7320.39990234375,-14957.8603515625,409.2699890136719,-400000.0625,-400000.0625,-400000.0625,-400000.0625,-400000.0625
43.57527780532837,-7391.1201171875,-15297.7998046875,331.69000244140625,-400000.0625,-400000.0625,-400000.0625,-400000.0625,-400000.0625
43.64237093925476,-7308.77001953125,-15146.2099609375,408.3599853515625,-400000.0625,-400000.0625,-400000.0625,-400000.0625,-400000.0625
43.891337156295776,-7017.419921875,-14611.8203125,604.0599975585938,-400000.0625,-400000.0625,-400000.0625,-400000.0625,-400000.0625
44.02788281440735,-6875.1298828125,-14677.48046875,539.8300170898438,-400000.0625,-400000.0625,-400000.0625,-400000.0625,-400000.0625
44.14639353752136,-6546.77978515625,-14333.6298828125,958.1599731445312,-400000.0625,-400000.0625,-400000.0625,-400000.0625,-400000.0625
44.20552372932434,-6442.02001953125,-14276.9404296875,1022.530029296875,-400000.0625,-400000.0625,-400000.0625,-400000.0625,-400000.0625
44.339932918548584,-5941.81982421875,-13802.0498046875,1437.6600341796875,-400000.0625,-400000.0625,-400000.0625,-400000.0625,-400000.0625
44.358973026275635,-6430.33984375,-14382.2197265625,785.1599731445312,-400000.0625,-400000.0625,-400000.0625,-400000.0625,-400000.0625
44.39919853210449,-6392.669921875,-14392.7099609375,807.9099731445312,-400000.0625,-400000.0625,-400000.0625,-400000.0625,-400000.0625
44.4637086391449,-6946.14013671875,-14996.580078125,241.47000122070312,-400000.0625,-400000.0625,-400000.0625,-400000.0625,-400000.0625
44.5896954536438,-7911.77978515625,-15980.2900390625,-748.9199829101562,-400000.0625,-400000.0625,-400000.0625,-400000.0625,-400000.0625
44.657370805740356,-7176.919921875,-15233.9501953125,13.069999694824219,-400000.0625,-400000.0625,-400000.0625,-400000.0625,-400000.0625
44.74337077140808,-6657.509765625,-14720.3896484375,550.75,-400000.0625,-400000.0625,-400000.0625,-400000.0625,-400000.0625
44.80166435241699,-6513.41015625,-14637.66015625,642.25,-400000.0625,-400000.0625,-400000.0625,-400000.0625,-400000.0625
44.85681343078613,-6628.31982421875,-14706.900390625,597.8599853515625,-400000.0625,-400000.0625,-400000.0625,-400000.0625,-400000.0625
44.916842222213745,-7083.1298828125,-15691.900390625,-181.6300048828125,-400000.0625,-400000.0625,-400000.0625,-400000.0625,-400000.0625
44.97785830497742,-7492.8798828125,-16437.8203125,-840.6199951171875,-400000.0625,-400000.0625,-400000.0625,-400000.0625,-400000.0625
45.03856873512268,-7446.81005859375,-16588.9296875,-936.0800170898438,-400000.0625,-400000.0625,-400000.0625,-400000.0625,-400000.0625
45.235390424728394,-7279.68017578125,-15833.08984375,-336.69000244140625,-400000.0625,-400000.0625,-400000.0625,-400000.0625,-400000.0625
45.30458641052246,-7239.33984375,-15724.849609375,-172.3300018310547,-400000.0625,-400000.0625,-400000.0625,-400000.0625,-400000.0625
45.37663698196411,-7306.6201171875,-15347.2001953125,99.55999755859375,-400000.0625,-400000.0625,-400000.0625,-400000.0625,-400000.0625
45.433849811553955,-7366.85009765625,-15381.33984375,74.43000030517578,-400000.0625,-400000.0625,-400000.0625,-400000.0625,-400000.0625
45.499014377593994,-7550.33984375,-15753.3203125,-16.979999542236328,-400000.0625,-400000.0625,-400000.0625,-400000.0625,-400000.0625
45.56396842002869,-7243.68017578125,-15485.33984375,109.38999938964844,-400000.0625,-400000.0625,-400000.0625,-400000.0625,-400000.0625
45.62260317802429,-7011.27001953125,-15248.9697265625,192.30999755859375,-400000.0625,-400000.0625,-400000.0625,-400000.0625,-400000.0625
45.73884630203247,-7215.41015625,-15614.6103515625,-267.92999267578125,-400000.0625,-400000.0625,-400000.0625,-400000.0625,-400000.0625
45.824803829193115,-7067.919921875,-15454.76953125,-104.62000274658203,-400000.0625,-400000.0625,-400000.0625,-400000.0625,-400000.0625
45.872530698776245,-7015.419921875,-15249.2099609375,131.02999877929688,-400000.0625,-400000.0625,-400000.0625,-400000.0625,-400000.0625
45.9399938583374,-7015.60986328125,-15252.4501953125,131.02999877929688,-400000.0625,-400000.0625,-400000.0625,-400000.0625,-400000.0625
45.99852633476257,-7049.47021484375,-15416.6201171875,-54.220001220703125,-400000.0625,-400000.0625,-400000.0625,-400000.0625,-400000.0625
46.081300497055054,-7175.72998046875,-15441.900390625,-92.31999969482422,-400000.0625,-400000.0625,-400000.0625,-400000.0625,-400000.0625
46.13144540786743,-7258.02978515625,-15450.4296875,-87.93000030517578,-400000.0625,-400000.0625,-400000.0625,-400000.0625,-400000.0625
46.18864703178406,-7196.27978515625,-15352.1103515625,13.539999961853027,-400000.0625,-400000.0625,-400000.0625,-400000.0625,-400000.0625
46.25528883934021,-7158.22998046875,-15266.3203125,96.18000030517578,-400000.0625,-400000.0625,-400000.0625,-400000.0625,-400000.0625
46.34148406982422,-7206.919921875,-15334.9404296875,41.869998931884766,-400000.0625,-400000.0625,-400000.0625,-400000.0625,-400000.0625
46.39019560813904,-7471.18017578125,-15239.8095703125,168.7100067138672,-400000.0625,-400000.0625,-400000.0625,-400000.0625,-400000.0625
46.4442138671875,-7477.47998046875,-15258.7900390625,141.47999572753906,-400000.0625,-400000.0625,-400000.0625,-400000.0625,-400000.0625
46.571752309799194,-7311.10986328125,-15298.419921875,133.7100067138672,-400000.0625,-400000.0625,-400000.0625,-400000.0625,-400000.0625
46.663395404815674,-7297.7099609375,-15364.8896484375,86.26000213623047,-400000.0625,-400000.0625,-400000.0625,-400000.0625,-400000.0625
46.72462177276611,-7314.2099609375,-15387.4404296875,71.23999786376953,-400000.0625,-400000.0625,-400000.0625,-400000.0625,-400000.0625
46.77362322807312,-7259.1298828125,-15358.9697265625,113.95999908447266,-400000.0625,-400000.0625,-400000.0625,-400000.0625,-400000.0625
46.8402943611145,-7191.56005859375,-15374.2802734375,148.67999267578125,-400000.0625,-400000.0625,-400000.0625,-400000.0625,-400000.0625
46.89786171913147,-7642.509765625,-15796.6201171875,-10.59000015258789,-400000.0625,-400000.0625,-400000.0625,-400000.0625,-400000.0625
46.97545576095581,-7593.72998046875,-15681.7900390625,-26.270000457763672,-400000.0625,-400000.0625,-400000.0625,-400000.0625,-400000.0625
47.09648132324219,-7372.08984375,-15405.849609375,94.55999755859375,-400000.0625,-400000.0625,-400000.0625,-400000.0625,-400000.0625
47.163440465927124,-7146.97998046875,-15565.1103515625,-111.68000030517578,-400000.0625,-400000.0625,-400000.0625,-400000.0625,-400000.0625
47.21311593055725,-7091.14013671875,-15525.5302734375,-84.91999816894531,-400000.0625,-400000.0625,-400000.0625,-400000.0625,-400000.0625
47.27781081199646,-7031.77978515625,-15448.8095703125,-10.300000190734863,-400000.0625,-400000.0625,-400000.0625,-400000.0625,-400000.0625
47.34009671211243,-7011.89013671875,-15414.6201171875,30.18000030517578,-400000.0625,-400000.0625,-400000.0625,-400000.0625,-400000.0625
47.42284607887268,-6956.72021484375,-15355.6796875,103.37999725341797,-400000.0625,-400000.0625,-400000.0625,-400000.0625,-400000.0625
47.48006343841553,-6903.509765625,-15453.4404296875,5.630000114440918,-400000.0625,-400000.0625,-400000.0625,-400000.0625,-400000.0625
47.54550743103027,-7107.35009765625,-15642.41015625,-172.0,-400000.0625,-400000.0625,-400000.0625,-400000.0625,-400000.0625
47.59932899475098,-7029.490234375,-15544.7998046875,-57.31999969482422,-400000.0625,-400000.0625,-400000.0625,-400000.0625,-400000.0625
47.70719122886658,-7197.18994140625,-15682.3203125,-190.07000732421875,-400000.0625,-400000.0625,-400000.0625,-400000.0625,-400000.0625
47.805758476257324,-7180.97998046875,-15623.3798828125,-134.7100067138672,-400000.0625,-400000.0625,-400000.0625,-400000.0625,-400000.0625
47.859437227249146,-7149.7900390625,-15568.830078125,-69.37999725341797,-400000.0625,-400000.0625,-400000.0625,-400000.0625,-400000.0625
47.92627501487732,-7213.31005859375,-15627.240234375,-89.93000030517578,-400000.0625,-400000.0625,-400000.0625,-400000.0625,-400000.0625
47.98346948623657,-7243.16015625,-15650.990234375,-109.4800033569336,-400000.0625,-400000.0625,-400000.0625,-400000.0625,-400000.0625
48.043842792510986,-7254.41015625,-15646.0302734375,-84.20999908447266,-400000.0625,-400000.0625,-400000.0625,-400000.0625,-400000.0625
48.15465068817139,-7228.08984375,-15626.7197265625,-52.97999954223633,-400000.0625,-400000.0625,-400000.0625,-400000.0625,-400000.0625
48.17760992050171,-7222.509765625,-15605.4501953125,-23.40999984741211,-400000.0625,-400000.0625,-400000.0625,-400000.0625,-400000.0625
48.238242626190186,-7235.580078125,-15620.1904296875,-35.380001068115234,-400000.0625,-400000.0625,-400000.0625,-400000.0625,-400000.0625
48.31669878959656,-7276.2998046875,-15549.330078125,27.65999984741211,-400000.0625,-400000.0625,-400000.0625,-400000.0625,-400000.0625
48.37174725532532,-7282.5400390625,-15559.91015625,29.1299991607666,-400000.0625,-400000.0625,-400000.0625,-400000.0625,-400000.0625
48.435028314590454,-7268.2900390625,-15573.650390625,45.72999954223633,-400000.0625,-400000.0625,-400000.0625,-400000.0625,-400000.0625
48.521278381347656,-7312.25,-15786.41015625,-92.55000305175781,-400000.0625,-400000.0625,-400000.0625,-400000.0625,-400000.0625
48.58237671852112,-7290.89013671875,-15745.0703125,-68.47000122070312,-400000.0625,-400000.0625,-400000.0625,-400000.0625,-400000.0625
48.64492726325989,-7244.39990234375,-15609.98046875,7.199999809265137,-400000.0625,-400000.0625,-400000.0625,-400000.0625,-400000.0625
48.684247732162476,-7190.7099609375,-15575.4599609375,64.55999755859375,-400000.0625,-400000.0625,-400000.0625,-400000.0625,-400000.0625
48.76398587226868,-7195.27978515625,-15642.41015625,47.540000915527344,-400000.0625,-400000.0625,-400000.0625,-400000.0625,-400000.0625
48.830010652542114,-7339.0498046875,-16063.4501953125,-150.49000549316406,-400000.0625,-400000.0625,-400000.0625,-400000.0625,-400000.0625
48.94161772727966,-7137.490234375,-15672.400390625,-33.810001373291016,-400000.0625,-400000.0625,-400000.0625,-400000.0625,-400000.0625
49.00897693634033,-7080.7001953125,-15574.5498046875,26.65999984741211,-400000.0625,-400000.0625,-400000.0625,-400000.0625,-400000.0625
49.082159996032715,-7108.97998046875,-15596.0595703125,0.5699999928474426,-400000.0625,-400000.0625,-400000.0625,-400000.0625,-400000.0625
49.137661933898926,-7107.93017578125,-15587.2802734375,15.640000343322754,-400000.0625,-400000.0625,-400000.0625,-400000.0625,-400000.0625
49.21112656593323,-7089.14013671875,-15545.419921875,33.279998779296875,-400000.0625,-400000.0625,-400000.0625,-400000.0625,-400000.0625
49.26858401298523,-7090.89990234375,-15561.6298828125,25.030000686645508,-400000.0625,-400000.0625,-400000.0625,-400000.0625,-400000.0625
49.46059823036194,-7087.759765625,-15573.1201171875,36.290000915527344,-400000.0625,-400000.0625,-400000.0625,-400000.0625,-400000.0625
49.52295446395874,-7113.169921875,-15524.009765625,88.73999786376953,-400000.0625,-400000.0625,-400000.0625,-400000.0625,-400000.0625
49.647746324539185,-7079.97998046875,-15565.6796875,77.01000213623047,-400000.0625,-400000.0625,-400000.0625,-400000.0625,-400000.0625
49.778587341308594,-7058.47998046875,-15621.6201171875,37.150001525878906,-400000.0625,-400000.0625,-400000.0625,-400000.0625,-400000.0625
49.84541726112366,-7092.14013671875,-15627.9599609375,40.66999816894531,-400000.0625,-400000.0625,-400000.0625,-400000.0625,-400000.0625
49.89993453025818,-7114.31982421875,-15558.009765625,100.27999877929688,-400000.0625,-400000.0625,-400000.0625,-400000.0625,-400000.0625
49.97869277000427,-7137.77978515625,-15578.7998046875,90.12000274658203,-400000.0625,-400000.0625,-400000.0625,-400000.0625,-400000.0625
50.09484815597534,-7020.14013671875,-15625.8095703125,39.720001220703125,-400000.0625,-400000.0625,-400000.0625,-400000.0625,-400000.0625
50.179901123046875,-7001.72998046875,-15619.9501953125,31.899999618530273,-400000.0625,-400000.0625,-400000.0625,-400000.0625,-400000.0625
50.34907817840576,-7024.47998046875,-15646.169921875,62.31999969482422,-400000.0625,-400000.0625,-400000.0625,-400000.0625,-400000.0625
50.490416049957275,-7024.81005859375,-15695.2900390625,20.1200008392334,-400000.0625,-400000.0625,-400000.0625,-400000.0625,-400000.0625
50.59045648574829,-6982.27978515625,-15694.7197265625,18.8799991607666,-400000.0625,-400000.0625,-400000.0625,-400000.0625,-400000.0625
50.67786979675293,-6968.35986328125,-15721.3701171875,-5.909999847412109,-400000.0625,-400000.0625,-400000.0625,-400000.0625,-400000.0625
50.74185824394226,-6935.740234375,-15849.16015625,-34.810001373291016,-400000.0625,-400000.0625,-400000.0625,-400000.0625,-400000.0625
50.79925513267517,-7104.16015625,-16242.26953125,-220.11000061035156,-400000.0625,-400000.0625,-400000.0625,-400000.0625,-400000.0625
50.90934610366821,-7108.31005859375,-15962.5498046875,-99.8499984741211,-400000.0625,-400000.0625,-400000.0625,-400000.0625,-400000.0625
50.92487645149231,-7071.5400390625,-15839.0498046875,-33.7599983215332,-400000.0625,-400000.0625,-400000.0625,-400000.0625,-400000.0625
50.989444971084595,-7051.56005859375,-15775.6796875,10.680000305175781,-400000.0625,-400000.0625,-400000.0625,-400000.0625,-400000.0625
51.13120102882385,-7003.740234375,-15729.2900390625,46.869998931884766,-400000.0625,-400000.0625,-400000.0625,-400000.0625,-400000.0625
51.191145181655884,-7011.56005859375,-15740.16015625,38.720001220703125,-400000.0625,-400000.0625,-400000.0625,-400000.0625,-400000.0625
51.27863311767578,-7058.72021484375,-15780.8798828125,-13.449999809265137,-400000.0625,-400000.0625,-400000.0625,-400000.0625,-400000.0625
51.31503915786743,-7047.1298828125,-15793.75,-15.930000305175781,-400000.0625,-400000.0625,-400000.0625,-400000.0625,-400000.0625
51.373844385147095,-7056.27978515625,-15520.6201171875,184.97000122070312,-400000.0625,-400000.0625,-400000.0625,-400000.0625,-400000.0625
51.55059313774109,-7142.39990234375,-15447.0,295.07000732421875,-400000.0625,-400000.0625,-400000.0625,-400000.0625,-400000.0625
51.57245230674744,-7102.81982421875,-15579.6103515625,177.14999389648438,-400000.0625,-400000.0625,-400000.0625,-400000.0625,-400000.0625
51.69389247894287,-7079.080078125,-15501.41015625,229.7899932861328,-400000.0625,-400000.0625,-400000.0625,-400000.0625,-400000.0625
51.89134097099304,-7090.27978515625,-15612.2197265625,148.9600067138672,-400000.0625,-400000.0625,-400000.0625,-400000.0625,-400000.0625
52.03436613082886,-7018.81005859375,-15585.66015625,181.91000366210938,-400000.0625,-400000.0625,-400000.0625,-400000.0625,-400000.0625
52.083003997802734,-7026.9599609375,-15583.990234375,170.0399932861328,-400000.0625,-400000.0625,-400000.0625,-400000.0625,-400000.0625
52.14996099472046,-7030.2001953125,-15581.3203125,169.55999755859375,-400000.0625,-400000.0625,-400000.0625,-400000.0625,-400000.0625
52.15939664840698,-7061.77001953125,-15612.080078125,134.75,-400000.0625,-400000.0625,-400000.0625,-400000.0625,-400000.0625
52.171303033828735,-7059.85986328125,-15610.509765625,139.0500030517578,-400000.0625,-400000.0625,-400000.0625,-400000.0625,-400000.0625
52.180960178375244,-7026.39013671875,-15582.1796875,169.08999633789062,-400000.0625,-400000.0625,-400000.0625,-400000.0625,-400000.0625
52.20162582397461,-7003.97998046875,-15566.490234375,189.11000061035156,-400000.0625,-400000.0625,-400000.0625,-400000.0625,-400000.0625
52.21667838096619,-7023.91015625,-15577.599609375,171.57000732421875,-400000.0625,-400000.0625,-400000.0625,-400000.0625,-400000.0625
52.229780197143555,-7055.27978515625,-15602.919921875,139.0500030517578,-400000.0625,-400000.0625,-400000.0625,-400000.0625,-400000.0625
52.24916338920593,-7053.08984375,-15607.5,139.3800048828125,-400000.0625,-400000.0625,-400000.0625,-400000.0625,-400000.0625
52.2578809261322,-7026.77001953125,-15575.26953125,171.7100067138672,-400000.0625,-400000.0625,-400000.0625,-400000.0625,-400000.0625
52.269789934158325,-7008.60009765625,-15559.009765625,189.02000427246094,-400000.0625,-400000.0625,-400000.0625,-400000.0625,-400000.0625
52.28223943710327,-7028.33984375,-15580.990234375,165.64999389648438,-400000.0625,-400000.0625,-400000.0625,-400000.0625,-400000.0625
52.29318332672119,-7057.2900390625,-15602.4501953125,137.85000610351562,-400000.0625,-400000.0625,-400000.0625,-400000.0625,-400000.0625
52.30819821357727,-7051.75,-15601.2099609375,140.47999572753906,-400000.0625,-400000.0625,-400000.0625,-400000.0625,-400000.0625
52.31751799583435,-7023.2900390625,-15571.5,172.52000427246094,-400000.0625,-400000.0625,-400000.0625,-400000.0625,-400000.0625
52.328890562057495,-7003.31005859375,-15552.08984375,190.58999633789062,-400000.0625,-400000.0625,-400000.0625,-400000.0625,-400000.0625
52.34171772003174,-7020.56982421875,-15572.3095703125,169.7100067138672,-400000.0625,-400000.0625,-400000.0625,-400000.0625,-400000.0625
52.35729098320007,-7050.60986328125,-15597.009765625,142.72000122070312,-400000.0625,-400000.0625,-400000.0625,-400000.0625,-400000.0625
52.36445927619934,-7048.4599609375,-15595.7197265625,145.00999450683594,-400000.0625,-400000.0625,-400000.0625,-400000.0625,-400000.0625
52.37646007537842,-7015.93994140625,-15563.1103515625,178.3800048828125,-400000.0625,-400000.0625,-400000.0625,-400000.0625,-400000.0625
52.39062428474426,-6995.39013671875,-15547.3701171875,197.64999389648438,-400000.0625,-400000.0625,-400000.0625,-400000.0625,-400000.0625
52.4055016040802,-7016.27978515625,-15562.6796875,176.3800048828125,-400000.0625,-400000.0625,-400000.0625,-400000.0625,-400000.0625
52.413610219955444,-7045.27001953125,-15583.23046875,147.8699951171875,-400000.0625,-400000.0625,-400000.0625,-400000.0625,-400000.0625
52.425816774368286,-7044.41015625,-15579.5595703125,153.11000061035156,-400000.0625,-400000.0625,-400000.0625,-400000.0625,-400000.0625
52.43519353866577,-7013.31982421875,-15555.7197265625,182.1999969482422,-400000.0625,-400000.0625,-400000.0625,-400000.0625,-400000.0625
52.448092222213745,-6994.2001953125,-15539.5,202.27000427246094,-400000.0625,-400000.0625,-400000.0625,-400000.0625,-400000.0625
52.460397481918335,-7012.509765625,-15557.099609375,182.1999969482422,-400000.0625,-400000.0625,-400000.0625,-400000.0625,-400000.0625
52.47752046585083,-7042.02978515625,-15581.7998046875,154.25999450683594,-400000.0625,-400000.0625,-400000.0625,-400000.0625,-400000.0625
52.48785161972046,-7039.64013671875,-15575.98046875,158.5,-400000.0625,-400000.0625,-400000.0625,-400000.0625,-400000.0625
52.503318786621094,-7009.35986328125,-15547.3701171875,188.02000427246094,-400000.0625,-400000.0625,-400000.0625,-400000.0625,-400000.0625
