time,ch1,ch2,ch3,ch4,ch5
timestamp,ch7,ch2,ch3,ch5,is_pause
timestamp,ch7,ch2,ch3,ch5,is_pause
0.019948720932006836,-400000.0625,-6007.2900390625,478.70001220703125,-400000.0625,-13706.73046875,-400000.0625,5489.68017578125,-400000.0625
0.02002859115600586,-400000.0625,-6228.919921875,259.1600036621094,-400000.0625,-13928.4599609375,-400000.0625,5258.56005859375,-400000.0625
0.020036935806274414,-400000.0625,-6120.490234375,361.9700012207031,-400000.0625,-13825.0400390625,-400000.0625,5364.7001953125,-400000.0625
0.020041942596435547,-400000.0625,-5849.89013671875,630.5700073242188,-400000.0625,-13556.7197265625,-400000.0625,5643.990234375,-400000.0625
0.020045995712280273,-400000.0625,-5750.56005859375,731.9000244140625,-400000.0625,-13454.25,-400000.0625,5745.93994140625,-400000.0625
0.02005171775817871,-400000.0625,-6004.669921875,478.2200012207031,-400000.0625,-13707.6396484375,-400000.0625,5486.77978515625,-400000.0625
0.020055532455444336,-400000.0625,-6226.43994140625,254.05999755859375,-400000.0625,-13934.4697265625,-400000.0625,5250.02978515625,-400000.0625
0.02005934715270996,-400000.0625,-6146.47998046875,338.510009765625,-400000.0625,-13858.2197265625,-400000.0625,5331.22998046875,-400000.0625
0.020062923431396484,-400000.0625,-5912.02001953125,570.1099853515625,-400000.0625,-13618.7998046875,-400000.0625,5577.759765625,-400000.0625
0.020066499710083008,-400000.0625,-5842.06982421875,638.8200073242188,-400000.0625,-13545.3203125,-400000.0625,5650.81005859375,-400000.0625
0.020070791244506836,-400000.0625,-6089.259765625,390.1499938964844,-400000.0625,-13791.66015625,-400000.0625,5388.8798828125,-400000.0625
0.02007460594177246,-400000.0625,-6297.490234375,174.86000061035156,-400000.0625,-14005.51953125,-400000.0625,5169.2998046875,-400000.0625
0.020078182220458984,-400000.0625,-6193.830078125,292.67999267578125,-400000.0625,-13890.3203125,-400000.0625,5286.64990234375,-400000.0625
0.020081758499145508,-400000.0625,-5980.830078125,555.22998046875,-400000.0625,-13630.150390625,-400000.0625,5549.33984375,-400000.0625
0.02008533477783203,-400000.0625,-5761.0,772.1400146484375,-400000.0625,-13403.849609375,-400000.0625,5778.35986328125,-400000.0625
0.020089149475097656,-400000.0625,-5806.259765625,701.0900268554688,-400000.0625,-13471.41015625,-400000.0625,5703.64013671875,-400000.0625
timestamp,ch7,ch2,ch3,ch5,is_pause
timestamp,ch7,ch2,ch3,ch5,is_pause
timestamp,ch7,ch2,ch3,ch5,is_pause
timestamp,ch7,ch2,ch3,ch5,is_pause
timestamp,ch7,ch2,ch3,ch5,is_pause
timestamp,ch7,ch2,ch3,ch5,is_pause
0.09656906127929688,-400000.0625,-5859.52001953125,636.010009765625,-400000.0625,-13538.2197265625,-400000.0625,5628.490234375,-400000.0625
0.09664392471313477,-400000.0625,-5614.14013671875,875.6599731445312,-400000.0625,-13299.849609375,-400000.0625,5867.10009765625,-400000.0625
0.09665870666503906,-400000.0625,-5263.9501953125,1232.199951171875,-400000.0625,-12950.9501953125,-400000.0625,6217.669921875,-400000.0625
0.09666275978088379,-400000.0625,-5124.0498046875,1372.2900390625,-400000.0625,-12813.3798828125,-400000.0625,6352.56982421875,-400000.0625
0.09666633605957031,-400000.0625,-5335.0498046875,1158.2900390625,-400000.0625,-13026.8095703125,-400000.0625,6132.41015625,-400000.0625
0.09667205810546875,-400000.0625,-5521.35009765625,969.1699829101562,-400000.0625,-13209.5400390625,-400000.0625,5933.0,-400000.0625
0.09667634963989258,-400000.0625,-5376.10009765625,1110.0799560546875,-400000.0625,-13065.6298828125,-400000.0625,6072.89990234375,-400000.0625
0.0966801643371582,-400000.0625,-5084.22998046875,1396.8499755859375,-400000.0625,-12772.66015625,-400000.0625,6370.1201171875,-400000.0625
0.09668397903442383,-400000.0625,-4995.97021484375,1487.300048828125,-400000.0625,-12686.1103515625,-400000.0625,6453.31982421875,-400000.0625
0.09668874740600586,-400000.0625,-5226.990234375,1244.9300537109375,-400000.0625,-12926.5302734375,-400000.0625,6211.22998046875,-400000.0625
0.09669256210327148,-400000.0625,-5430.509765625,1031.9200439453125,-400000.0625,-13136.48046875,-400000.0625,5992.60009765625,-400000.0625
0.09669637680053711,-400000.0625,-5307.8701171875,1153.469970703125,-400000.0625,-13009.98046875,-400000.0625,6113.77001953125,-400000.0625
0.09670042991638184,-400000.0625,-5035.72998046875,1423.1700439453125,-400000.0625,-12738.5595703125,-400000.0625,6388.56982421875,-400000.0625
0.09670376777648926,-400000.0625,-4939.4599609375,1518.8199462890625,-400000.0625,-12642.580078125,-400000.0625,6480.4599609375,-400000.0625
0.09670734405517578,-400000.0625,-5138.25,1311.06005859375,-400000.0625,-12844.900390625,-400000.0625,6263.5400390625,-400000.0625
0.0967109203338623,-400000.0625,-5299.14013671875,1144.97998046875,-400000.0625,-13007.2099609375,-400000.0625,6092.740234375,-400000.0625
timestamp,ch7,ch2,ch3,ch5,is_pause
timestamp,ch7,ch2,ch3,ch5,is_pause
timestamp,ch7,ch2,ch3,ch5,is_pause
timestamp,ch7,ch2,ch3,ch5,is_pause
timestamp,ch7,ch2,ch3,ch5,is_pause
0.14871430397033691,-400000.0625,-5118.990234375,1325.6099853515625,-400000.0625,-12820.4404296875,-400000.0625,6277.47021484375,-400000.0625
0.15228796005249023,-400000.0625,-4800.89013671875,1646.7099609375,-400000.0625,-12497.3798828125,-400000.0625,6598.6201171875,-400000.0625
0.1522989273071289,-400000.0625,-4640.6298828125,1801.4000244140625,-400000.0625,-12332.8203125,-400000.0625,6758.169921875,-400000.0625
0.15230321884155273,-400000.0625,-4820.77978515625,1623.06005859375,-400000.0625,-12510.8701171875,-400000.0625,6570.9599609375,-400000.0625
0.15230703353881836,-400000.0625,-4998.2099609375,1436.3299560546875,-400000.0625,-12685.9697265625,-400000.0625,6388.3798828125,-400000.0625
0.15231084823608398,-400000.0625,-4843.9501953125,1584.2900390625,-400000.0625,-12528.23046875,-400000.0625,6534.72021484375,-400000.0625
0.1523144245147705,-400000.0625,-4565.47998046875,1866.77001953125,-400000.0625,-12238.650390625,-400000.0625,6820.25,-400000.0625
0.15231800079345703,-400000.0625,-4456.18994140625,1971.43994140625,-400000.0625,-12128.400390625,-400000.0625,6926.35009765625,-400000.0625
0.15232229232788086,-400000.0625,-4681.16015625,1743.27001953125,-400000.0625,-12340.5498046875,-400000.0625,6688.740234375,-400000.0625
0.15232586860656738,-400000.0625,-4855.25,1570.699951171875,-400000.0625,-12506.1103515625,-400000.0625,6515.740234375,-400000.0625
0.1523294448852539,-400000.0625,-4689.740234375,1730.300048828125,-400000.0625,-12346.509765625,-400000.0625,6681.25,-400000.0625
0.15233325958251953,-400000.0625,-4415.56005859375,1995.989990234375,-400000.0625,-12074.08984375,-400000.0625,6956.9599609375,-400000.0625
0.15233683586120605,-400000.0625,-4361.25,2054.97998046875,-400000.0625,-11996.3701171875,-400000.0625,7021.6201171875,-400000.0625
0.15234065055847168,-400000.0625,-4624.18017578125,1799.43994140625,-400000.0625,-12215.66015625,-400000.0625,6759.22021484375,-400000.0625
0.1523454189300537,-400000.0625,-4906.22998046875,1502.1800537109375,-400000.0625,-12496.849609375,-400000.0625,6462.47998046875,-400000.0625
0.15234923362731934,-400000.0625,-4914.9501953125,1488.02001953125,-400000.0625,-12504.76953125,-400000.0625,6445.5,-400000.0625
timestamp,ch7,ch2,ch3,ch5,is_pause
timestamp,ch7,ch2,ch3,ch5,is_pause
timestamp,ch7,ch2,ch3,ch5,is_pause
timestamp,ch7,ch2,ch3,ch5,is_pause
timestamp,ch7,ch2,ch3,ch5,is_pause
0.21146702766418457,-400000.0625,-4772.14013671875,1634.4100341796875,-400000.0625,-12348.6103515625,-400000.0625,6594.31982421875,-400000.0625
0.2115919589996338,-400000.0625,-4776.14013671875,1632.6400146484375,-400000.0625,-12359.099609375,-400000.0625,6593.18017578125,-400000.0625
0.21160316467285156,-400000.0625,-5058.669921875,1347.969970703125,-400000.0625,-12674.5703125,-400000.0625,6301.93017578125,-400000.0625
0.21161246299743652,-400000.0625,-5274.919921875,1129.5799560546875,-400000.0625,-12925.580078125,-400000.0625,6080.52978515625,-400000.0625
0.21162176132202148,-400000.0625,-5202.10009765625,1199.719970703125,-400000.0625,-12882.66015625,-400000.0625,6155.919921875,-400000.0625
0.21163082122802734,-400000.0625,-5004.97998046875,1399.56005859375,-400000.0625,-12710.0498046875,-400000.0625,6355.91015625,-400000.0625
0.21165990829467773,-400000.0625,-4923.43994140625,1475.9100341796875,-400000.0625,-12659.599609375,-400000.0625,6428.91015625,-400000.0625
0.2116858959197998,-400000.0625,-5132.10009765625,1266.2900390625,-400000.0625,-12895.490234375,-400000.0625,6217.77001953125,-400000.0625
0.21169090270996094,-400000.0625,-5294.27978515625,1100.489990234375,-400000.0625,-13081.650390625,-400000.0625,6049.81982421875,-400000.0625
0.21169471740722656,-400000.0625,-5155.52001953125,1236.9599609375,-400000.0625,-12954.1396484375,-400000.0625,6187.490234375,-400000.0625
0.2116985321044922,-400000.0625,-4862.93017578125,1526.31005859375,-400000.0625,-12674.8603515625,-400000.0625,6482.64990234375,-400000.0625
0.21171212196350098,-400000.0625,-4682.97021484375,1704.1700439453125,-400000.0625,-12505.5302734375,-400000.0625,6660.56005859375,-400000.0625
0.2117161750793457,-400000.0625,-4779.669921875,1605.56005859375,-400000.0625,-12610.4404296875,-400000.0625,6558.0400390625,-400000.0625
0.21171998977661133,-400000.0625,-4875.9501953125,1507.3800048828125,-400000.0625,-12714.3896484375,-400000.0625,6454.990234375,-400000.0625
0.21172404289245605,-400000.0625,-4745.10009765625,1641.4599609375,-400000.0625,-12584.9697265625,-400000.0625,6591.22998046875,-400000.0625
0.21172785758972168,-400000.0625,-4520.509765625,1863.3800048828125,-400000.0625,-12366.6298828125,-400000.0625,6812.240234375,-400000.0625
timestamp,ch7,ch2,ch3,ch5,is_pause
timestamp,ch7,ch2,ch3,ch5,is_pause
timestamp,ch7,ch2,ch3,ch5,is_pause
timestamp,ch7,ch2,ch3,ch5,is_pause
timestamp,ch7,ch2,ch3,ch5,is_pause
0.27655553817749023,-400000.0625,-4446.7900390625,1931.4300537109375,-400000.0625,-12303.9296875,-400000.0625,6878.759765625,-400000.0625
timestamp,ch7,ch2,ch3,ch5,is_pause
timestamp,ch7,ch2,ch3,ch5,is_pause
0.33873891830444336,-400000.0625,-4690.83984375,1685.760009765625,-400000.0625,-12554.9296875,-400000.0625,6632.14013671875,-400000.0625
timestamp,ch7,ch2,ch3,ch5,is_pause
0.34529709815979004,-400000.0625,-4932.7900390625,1440.3299560546875,-400000.0625,-12800.3095703125,-400000.0625,6385.85009765625,-400000.0625
0.3496251106262207,-400000.0625,-4938.22021484375,1435.52001953125,-400000.0625,-12809.0400390625,-400000.0625,6374.06982421875,-400000.0625
0.34963297843933105,-400000.0625,-4838.75,1534.989990234375,-400000.0625,-12711.150390625,-400000.0625,6477.5498046875,-400000.0625
0.3496370315551758,-400000.0625,-4874.22998046875,1499.75,-400000.0625,-12747.3798828125,-400000.0625,6444.169921875,-400000.0625
0.3496410846710205,-400000.0625,-5201.10009765625,1171.969970703125,-400000.0625,-13081.5,-400000.0625,6102.990234375,-400000.0625
0.34964990615844727,-400000.0625,-5526.4501953125,844.0499877929688,-400000.0625,-13411.759765625,-400000.0625,5774.31005859375,-400000.0625
0.3496534824371338,-400000.0625,-5646.52001953125,723.4600219726562,-400000.0625,-13534.259765625,-400000.0625,5657.33984375,-400000.0625
0.3496570587158203,-400000.0625,-5684.08984375,687.97998046875,-400000.0625,-13572.169921875,-400000.0625,5619.91015625,-400000.0625
0.34966087341308594,-400000.0625,-5902.14990234375,469.8800048828125,-400000.0625,-13788.7998046875,-400000.0625,5404.27978515625,-400000.0625
0.34966421127319336,-400000.0625,-6551.41015625,-179.42999267578125,-400000.0625,-14437.6298828125,-400000.0625,4746.39013671875,-400000.0625
0.3496677875518799,-400000.0625,-7730.009765625,-1359.3199462890625,-400000.0625,-15619.51953125,-400000.0625,3557.06005859375,-400000.0625
0.3496713638305664,-400000.0625,-9327.26953125,-2955.25,-400000.0625,-17211.529296875,-400000.0625,1956.3199462890625,-400000.0625
0.34967494010925293,-400000.0625,-9175.58984375,-2797.75,-400000.0625,-17065.5703125,-400000.0625,2116.300048828125,-400000.0625
0.34967851638793945,-400000.0625,-8200.169921875,-1818.93994140625,-400000.0625,-16096.9296875,-400000.0625,3097.489990234375,-400000.0625
0.349682092666626,-400000.0625,-7617.669921875,-1235.5799560546875,-400000.0625,-15523.2900390625,-400000.0625,3682.139892578125,-400000.0625
0.3496856689453125,-400000.0625,-7619.240234375,-1240.8299560546875,-400000.0625,-15533.2099609375,-400000.0625,3666.780029296875,-400000.0625
0.3496890068054199,-400000.0625,-7444.759765625,-1060.9599609375,-400000.0625,-15361.3095703125,-400000.0625,3843.590087890625,-400000.0625
0.3496971130371094,-400000.0625,-6804.7099609375,-421.6199951171875,-400000.0625,-14729.4501953125,-400000.0625,4484.60986328125,-400000.0625
0.3497004508972168,-400000.0625,-6437.97021484375,-53.06999969482422,-400000.0625,-14370.009765625,-400000.0625,4849.43017578125,-400000.0625
0.34970521926879883,-400000.0625,-6609.009765625,-221.77999877929688,-400000.0625,-14541.9599609375,-400000.0625,4674.580078125,-400000.0625
0.34970879554748535,-400000.0625,-6756.39990234375,-369.1700134277344,-400000.0625,-14693.599609375,-400000.0625,4518.7998046875,-400000.0625
0.349712610244751,-400000.0625,-6461.759765625,-78.87000274658203,-400000.0625,-14404.8203125,-400000.0625,4809.08984375,-400000.0625
0.3497161865234375,-400000.0625,-5787.7998046875,591.3300170898438,-400000.0625,-13733.0498046875,-400000.0625,5485.009765625,-400000.0625
0.349719762802124,-400000.0625,-5281.5400390625,1098.72998046875,-400000.0625,-13225.3701171875,-400000.0625,5994.7998046875,-400000.0625
0.34972333908081055,-400000.0625,-5156.60986328125,1219.0799560546875,-400000.0625,-13104.33984375,-400000.0625,6110.9599609375,-400000.0625
0.34972715377807617,-400000.0625,-4892.16015625,1481.6300048828125,-400000.0625,-12845.330078125,-400000.0625,6369.39990234375,-400000.0625
0.3497304916381836,-400000.0625,-4328.43994140625,2048.5400390625,-400000.0625,-12285.1904296875,-400000.0625,6935.02978515625,-400000.0625
0.3497343063354492,-400000.0625,-3781.179931640625,2591.1298828125,-400000.0625,-11737.16015625,-400000.0625,7481.52978515625,-400000.0625
0.34973788261413574,-400000.0625,-3375.530029296875,2996.39990234375,-400000.0625,-11331.509765625,-400000.0625,7892.89990234375,-400000.0625
0.34974122047424316,-400000.0625,-3753.3798828125,2618.27001953125,-400000.0625,-11706.259765625,-400000.0625,7510.27978515625,-400000.0625
timestamp,ch7,ch2,ch3,ch5,is_pause
timestamp,ch7,ch2,ch3,ch5,is_pause
timestamp,ch7,ch2,ch3,ch5,is_pause
timestamp,ch7,ch2,ch3,ch5,is_pause
timestamp,ch7,ch2,ch3,ch5,is_pause
timestamp,ch7,ch2,ch3,ch5,is_pause
timestamp,ch7,ch2,ch3,ch5,is_pause
timestamp,ch7,ch2,ch3,ch5,is_pause
timestamp,ch7,ch2,ch3,ch5,is_pause
timestamp,ch7,ch2,ch3,ch5,is_pause
timestamp,ch7,ch2,ch3,ch5,is_pause
timestamp,ch7,ch2,ch3,ch5,is_pause
0.4921743869781494,-400000.0625,-4312.18017578125,2058.60009765625,-400000.0625,-12264.7802734375,-400000.0625,6945.27978515625,-400000.0625
timestamp,ch7,ch2,ch3,ch5,is_pause
0.5014407634735107,-400000.0625,-4219.91015625,2153.02001953125,-400000.0625,-12171.3701171875,-400000.0625,7041.60009765625,-400000.0625
0.5054070949554443,-400000.0625,-3886.699951171875,2485.56005859375,-400000.0625,-11842.6796875,-400000.0625,7370.14013671875,-400000.0625
0.5054135322570801,-400000.0625,-3642.22998046875,2726.699951171875,-400000.0625,-11602.259765625,-400000.0625,7611.1298828125,-400000.0625
0.5054175853729248,-400000.0625,-3669.260009765625,2701.949951171875,-400000.0625,-11628.9599609375,-400000.0625,7583.669921875,-400000.0625
0.5054214000701904,-400000.0625,-3755.949951171875,2621.56005859375,-400000.0625,-11714.650390625,-400000.0625,7494.58984375,-400000.0625
0.505424976348877,-400000.0625,-3643.27001953125,2735.139892578125,-400000.0625,-11601.3095703125,-400000.0625,7607.27001953125,-400000.0625
0.5054285526275635,-400000.0625,-3472.89990234375,2905.320068359375,-400000.0625,-11430.599609375,-400000.0625,7781.31982421875,-400000.0625
0.50543212890625,-400000.0625,-3591.389892578125,2782.389892578125,-400000.0625,-11552.3798828125,-400000.0625,7661.06005859375,-400000.0625
0.5054357051849365,-400000.0625,-4170.75,2201.93994140625,-400000.0625,-12130.9296875,-400000.0625,7075.93017578125,-400000.0625
0.505439281463623,-400000.0625,-4745.52978515625,1632.4000244140625,-400000.0625,-12700.1298828125,-400000.0625,6496.10009765625,-400000.0625
0.5054430961608887,-400000.0625,-4770.330078125,1611.280029296875,-400000.0625,-12724.3095703125,-400000.0625,6466.72021484375,-400000.0625
0.5054469108581543,-400000.0625,-4465.14990234375,1918.3599853515625,-400000.0625,-12413.83984375,-400000.0625,6781.43994140625,-400000.0625
0.5054504871368408,-400000.0625,-4234.31005859375,2158.449951171875,-400000.0625,-12169.9296875,-400000.0625,7026.009765625,-400000.0625
0.5054550170898438,-400000.0625,-4290.2998046875,2101.179931640625,-400000.0625,-12229.919921875,-400000.0625,6984.52001953125,-400000.0625
0.5054633617401123,-400000.0625,-4328.10986328125,2052.159912109375,-400000.0625,-12271.01953125,-400000.0625,6948.22998046875,-400000.0625
0.5054676532745361,-400000.0625,-4040.530029296875,2326.77001953125,-400000.0625,-11982.490234375,-400000.0625,7242.490234375,-400000.0625
0.5054712295532227,-400000.0625,-3630.72998046875,2719.590087890625,-400000.0625,-11568.7900390625,-400000.0625,7673.93017578125,-400000.0625
0.5054748058319092,-400000.0625,-3467.0400390625,2866.75,-400000.0625,-11402.7998046875,-400000.0625,7855.93994140625,-400000.0625
0.5054786205291748,-400000.0625,-3774.97998046875,2539.02001953125,-400000.0625,-11707.1201171875,-400000.0625,7558.06005859375,-400000.0625
0.5054819583892822,-400000.0625,-4078.820068359375,2223.590087890625,-400000.0625,-12004.9501953125,-400000.0625,7267.81005859375,-400000.0625
0.5054855346679688,-400000.0625,-3954.080078125,2337.360107421875,-400000.0625,-11874.919921875,-400000.0625,7424.64013671875,-400000.0625
0.5054888725280762,-400000.0625,-3641.179931640625,2632.239990234375,-400000.0625,-11556.3896484375,-400000.0625,7762.47998046875,-400000.0625
0.5054924488067627,-400000.0625,-3583.10009765625,2673.820068359375,-400000.0625,-11490.4404296875,-400000.0625,7847.06982421875,-400000.0625
0.5054957866668701,-400000.0625,-3994.0400390625,2245.81005859375,-400000.0625,-11896.900390625,-400000.0625,7453.72998046875,-400000.0625
0.5054993629455566,-400000.0625,-4382.3701171875,1844.739990234375,-400000.0625,-12280.990234375,-400000.0625,7083.080078125,-400000.0625
0.5055029392242432,-400000.0625,-4302.06982421875,1914.449951171875,-400000.0625,-12197.58984375,-400000.0625,7186.4599609375,-400000.0625
0.5055086612701416,-400000.0625,-3988.219970703125,2211.280029296875,-400000.0625,-11879.830078125,-400000.0625,7522.580078125,-400000.0625
0.5055122375488281,-400000.0625,-3860.090087890625,2328.110107421875,-400000.0625,-11749.26953125,-400000.0625,7674.60009765625,-400000.0625
0.5055172443389893,-400000.0625,-4156.77978515625,2021.31005859375,-400000.0625,-12042.08984375,-400000.0625,7386.02001953125,-400000.0625
0.5055220127105713,-400000.0625,-4416.3701171875,1753.0,-400000.0625,-12300.7802734375,-400000.0625,7139.58984375,-400000.0625
0.5055272579193115,-400000.0625,-4212.85986328125,1954.97998046875,-400000.0625,-12094.58984375,-400000.0625,7356.22021484375,-400000.0625
timestamp,ch7,ch2,ch3,ch5,is_pause
timestamp,ch7,ch2,ch3,ch5,is_pause
timestamp,ch7,ch2,ch3,ch5,is_pause
0.536332368850708,-400000.0625,-3815.64990234375,2351.570068359375,-400000.0625,-11696.3896484375,-400000.0625,7759.85986328125,-400000.0625
0.5410029888153076,-400000.0625,-3763.6298828125,2399.35009765625,-400000.0625,-11645.7001953125,-400000.0625,7809.93017578125,-400000.0625
0.5410144329071045,-400000.0625,-4259.58984375,1901.43994140625,-400000.0625,-12144.419921875,-400000.0625,7302.14013671875,-400000.0625
0.5410208702087402,-400000.0625,-4687.02001953125,1474.1400146484375,-400000.0625,-12575.2001953125,-400000.0625,6863.06982421875,-400000.0625
0.541024923324585,-400000.0625,-4650.1201171875,1513.6199951171875,-400000.0625,-12536.8603515625,-400000.0625,6899.5,-400000.0625
0.5410289764404297,-400000.0625,-4410.22021484375,1747.0400390625,-400000.0625,-12296.9599609375,-400000.0625,7140.919921875,-400000.0625
0.5410330295562744,-400000.0625,-4365.02001953125,1794.3399658203125,-400000.0625,-12248.1796875,-400000.0625,7188.990234375,-400000.0625
0.5410366058349609,-400000.0625,-4736.9501953125,1423.8800048828125,-400000.0625,-12619.1201171875,-400000.0625,6811.10009765625,-400000.0625
0.5410401821136475,-400000.0625,-5070.10986328125,1092.5799560546875,-400000.0625,-12950.6103515625,-400000.0625,6475.16015625,-400000.0625
0.541043758392334,-400000.0625,-4967.39990234375,1196.6700439453125,-400000.0625,-12848.51953125,-400000.0625,6574.81982421875,-400000.0625
0.5410475730895996,-400000.0625,-4672.47998046875,1491.260009765625,-400000.0625,-12553.98046875,-400000.0625,6875.66015625,-400000.0625
0.5410614013671875,-400000.0625,-4588.56005859375,1579.3800048828125,-400000.0625,-12463.2900390625,-400000.0625,6966.68994140625,-400000.0625
0.5410654544830322,-400000.0625,-4942.419921875,1227.6199951171875,-400000.0625,-12815.099609375,-400000.0625,6604.0,-400000.0625
0.5410692691802979,-400000.0625,-5252.93017578125,919.530029296875,-400000.0625,-13128.5703125,-400000.0625,6285.669921875,-400000.0625
0.5410728454589844,-400000.0625,-5094.580078125,1079.510009765625,-400000.0625,-12972.6904296875,-400000.0625,6436.06005859375,-400000.0625
0.5410764217376709,-400000.0625,-4742.91015625,1432.3199462890625,-400000.0625,-12620.6396484375,-400000.0625,6794.64013671875,-400000.0625
timestamp,ch7,ch2,ch3,ch5,is_pause
timestamp,ch7,ch2,ch3,ch5,is_pause
timestamp,ch7,ch2,ch3,ch5,is_pause
timestamp,ch7,ch2,ch3,ch5,is_pause
timestamp,ch7,ch2,ch3,ch5,is_pause
0.5987548828125,-400000.0625,-4619.64990234375,1556.4000244140625,-400000.0625,-12494.1796875,-400000.0625,6924.2001953125,-400000.0625
timestamp,ch7,ch2,ch3,ch5,is_pause
0.6082029342651367,-400000.0625,-4940.7998046875,1235.6300048828125,-400000.0625,-12815.7197265625,-400000.0625,6594.1298828125,-400000.0625
0.6135344505310059,-400000.0625,-5207.10986328125,972.1799926757812,-400000.0625,-13083.0302734375,-400000.0625,6322.43017578125,-400000.0625
0.6176309585571289,-400000.0625,-5005.1201171875,1174.8800048828125,-400000.0625,-12886.099609375,-400000.0625,6519.22021484375,-400000.0625
0.6176395416259766,-400000.0625,-4622.169921875,1556.6800537109375,-400000.0625,-12502.48046875,-400000.0625,6911.08984375,-400000.0625
0.6176438331604004,-400000.0625,-4489.47021484375,1691.3900146484375,-400000.0625,-12367.3896484375,-400000.0625,7050.47021484375,-400000.0625
0.6176481246948242,-400000.0625,-4827.68994140625,1352.2099609375,-400000.0625,-12706.0,-400000.0625,6698.080078125,-400000.0625
0.6176517009735107,-400000.0625,-5129.18994140625,1054.5699462890625,-400000.0625,-13004.259765625,-400000.0625,6393.9599609375,-400000.0625
0.6176552772521973,-400000.0625,-4950.240234375,1238.72998046875,-400000.0625,-12823.9599609375,-400000.0625,6574.77001953125,-400000.0625
0.6176676750183105,-400000.0625,-4549.83984375,1635.3599853515625,-400000.0625,-12427.51953125,-400000.0625,6971.06982421875,-400000.0625
0.6176712512969971,-400000.0625,-4405.06982421875,1776.030029296875,-400000.0625,-12281.75,-400000.0625,7115.89013671875,-400000.0625
0.6176745891571045,-400000.0625,-4746.490234375,1436.760009765625,-400000.0625,-12617.58984375,-400000.0625,6770.85009765625,-400000.0625
0.617678165435791,-400000.0625,-5038.64013671875,1145.699951171875,-400000.0625,-12912.849609375,-400000.0625,6470.2001953125,-400000.0625
0.6176819801330566,-400000.0625,-4850.25,1333.3299560546875,-400000.0625,-12725.8798828125,-400000.0625,6659.64990234375,-400000.0625
0.6176865100860596,-400000.0625,-4451.7001953125,1730.72998046875,-400000.0625,-12327.0,-400000.0625,7062.91015625,-400000.0625
0.6176905632019043,-400000.0625,-4305.22021484375,1877.9300537109375,-400000.0625,-12176.6103515625,-400000.0625,7211.72998046875,-400000.0625
timestamp,ch7,ch2,ch3,ch5,is_pause
timestamp,ch7,ch2,ch3,ch5,is_pause
timestamp,ch7,ch2,ch3,ch5,is_pause
timestamp,ch7,ch2,ch3,ch5,is_pause
timestamp,ch7,ch2,ch3,ch5,is_pause
0.6688745021820068,-400000.0625,-4648.8798828125,1536.0799560546875,-400000.0625,-12515.5,-400000.0625,6861.830078125,-400000.0625
0.6735131740570068,-400000.0625,-4947.27978515625,1238.3499755859375,-400000.0625,-12814.7099609375,-400000.0625,6555.4599609375,-400000.0625
0.6735208034515381,-400000.0625,-4756.259765625,1428.75,-400000.0625,-12622.740234375,-400000.0625,6744.52978515625,-400000.0625
0.6735248565673828,-400000.0625,-4368.830078125,1815.93994140625,-400000.0625,-12230.8701171875,-400000.0625,7138.39990234375,-400000.0625
0.6735289096832275,-400000.0625,-4235.93994140625,1949.6400146484375,-400000.0625,-12098.5,-400000.0625,7268.6201171875,-400000.0625
0.6735327243804932,-400000.0625,-4597.9501953125,1590.6800537109375,-400000.0625,-12460.900390625,-400000.0625,6892.06005859375,-400000.0625
0.6735367774963379,-400000.0625,-4912.08984375,1276.2099609375,-400000.0625,-12776.2802734375,-400000.0625,6576.490234375,-400000.0625
0.6735415458679199,-400000.0625,-4728.27001953125,1458.260009765625,-400000.0625,-12595.0400390625,-400000.0625,6764.7900390625,-400000.0625
0.6735448837280273,-400000.0625,-4330.97021484375,1851.030029296875,-400000.0625,-12201.98046875,-400000.0625,7164.0498046875,-400000.0625
0.6735484600067139,-400000.0625,-4197.8798828125,1983.7900390625,-400000.0625,-12069.7998046875,-400000.0625,7298.9501953125,-400000.0625
0.6735517978668213,-400000.0625,-4568.77001953125,1617.47998046875,-400000.0625,-12438.8701171875,-400000.0625,6930.02001953125,-400000.0625
0.6735553741455078,-400000.0625,-4879.669921875,1305.8199462890625,-400000.0625,-12754.6796875,-400000.0625,6610.06005859375,-400000.0625
0.6735589504241943,-400000.0625,-4690.4599609375,1496.8399658203125,-400000.0625,-12567.3798828125,-400000.0625,6807.22998046875,-400000.0625
0.6735630035400391,-400000.0625,-4296.16015625,1888.8499755859375,-400000.0625,-12173.1298828125,-400000.0625,7209.72998046875,-400000.0625
0.6735668182373047,-400000.0625,-4168.7001953125,2014.8299560546875,-400000.0625,-12046.0498046875,-400000.0625,7338.6201171875,-400000.0625
0.6735701560974121,-400000.0625,-4535.8701171875,1648.81005859375,-400000.0625,-12410.7900390625,-400000.0625,6968.97998046875,-400000.0625
timestamp,ch7,ch2,ch3,ch5,is_pause
timestamp,ch7,ch2,ch3,ch5,is_pause
timestamp,ch7,ch2,ch3,ch5,is_pause
timestamp,ch7,ch2,ch3,ch5,is_pause
0.7260198593139648,-400000.0625,-4849.6298828125,1338.6300048828125,-400000.0625,-12722.0595703125,-400000.0625,6652.58984375,-400000.0625
timestamp,ch7,ch2,ch3,ch5,is_pause
0.7371511459350586,-400000.0625,-4664.66015625,1526.550048828125,-400000.0625,-12535.1396484375,-400000.0625,6839.89990234375,-400000.0625
timestamp,ch7,ch2,ch3,ch5,is_pause
0.7423224449157715,-400000.0625,-4271.93994140625,1916.550048828125,-400000.0625,-12142.5595703125,-400000.0625,7238.68017578125,-400000.0625
0.7460474967956543,-400000.0625,-4128.97998046875,2056.97998046875,-400000.0625,-12000.9404296875,-400000.0625,7379.9599609375,-400000.0625
0.7460536956787109,-400000.0625,-4474.68994140625,1712.989990234375,-400000.0625,-12348.4599609375,-400000.0625,7028.25,-400000.0625
0.7460579872131348,-400000.0625,-4767.66015625,1423.6500244140625,-400000.0625,-12639.08984375,-400000.0625,6733.60986328125,-400000.0625
0.7460613250732422,-400000.0625,-4563.9501953125,1627.1600341796875,-400000.0625,-12434.0498046875,-400000.0625,6934.259765625,-400000.0625
0.7460646629333496,-400000.0625,-4161.31005859375,2025.510009765625,-400000.0625,-12033.7998046875,-400000.0625,7336.6201171875,-400000.0625
0.7460677623748779,-400000.0625,-4025.1298828125,2162.889892578125,-400000.0625,-11896.75,-400000.0625,7476.56982421875,-400000.0625
0.7460708618164062,-400000.0625,-4371.02001953125,1819.9000244140625,-400000.0625,-12236.83984375,-400000.0625,7132.10009765625,-400000.0625
0.7460741996765137,-400000.0625,-4667.22998046875,1524.969970703125,-400000.0625,-12531.6201171875,-400000.0625,6833.41015625,-400000.0625
0.746077299118042,-400000.0625,-4484.3701171875,1707.1199951171875,-400000.0625,-12352.5595703125,-400000.0625,7016.85009765625,-400000.0625
0.7460808753967285,-400000.0625,-4107.56982421875,2081.6298828125,-400000.0625,-11975.2900390625,-400000.0625,7395.509765625,-400000.0625
0.7460839748382568,-400000.0625,-3991.030029296875,2198.1201171875,-400000.0625,-11855.7001953125,-400000.0625,7518.47998046875,-400000.0625
0.7460870742797852,-400000.0625,-4349.0400390625,1842.5,-400000.0625,-12211.3701171875,-400000.0625,7161.08984375,-400000.0625
0.7460904121398926,-400000.0625,-4657.83984375,1536.4599609375,-400000.0625,-12522.1298828125,-400000.0625,6850.2001953125,-400000.0625
timestamp,ch7,ch2,ch3,ch5,is_pause
timestamp,ch7,ch2,ch3,ch5,is_pause
timestamp,ch7,ch2,ch3,ch5,is_pause
timestamp,ch7,ch2,ch3,ch5,is_pause
timestamp,ch7,ch2,ch3,ch5,is_pause
timestamp,ch7,ch2,ch3,ch5,is_pause
timestamp,ch7,ch2,ch3,ch5,is_pause
0.8336794376373291,-400000.0625,-4488.75,1705.7900390625,-400000.0625,-12357.669921875,-400000.0625,7020.56982421875,-400000.0625
timestamp,ch7,ch2,ch3,ch5,is_pause
timestamp,ch7,ch2,ch3,ch5,is_pause
0.8605566024780273,-400000.0625,-4128.169921875,2058.510009765625,-400000.0625,-11999.509765625,-400000.0625,7384.02001953125,-400000.0625
timestamp,ch7,ch2,ch3,ch5,is_pause
0.8708064556121826,-400000.0625,-4022.929931640625,2162.840087890625,-400000.0625,-11893.1796875,-400000.0625,7491.5400390625,-400000.0625
0.8760740756988525,-400000.0625,-4391.580078125,1795.239990234375,-400000.0625,-12262.1103515625,-400000.0625,7115.97998046875,-400000.0625
timestamp,ch7,ch2,ch3,ch5,is_pause
0.8832006454467773,-400000.0625,-4701.18994140625,1487.4000244140625,-400000.0625,-12572.0,-400000.0625,6802.75,-400000.0625
0.8873660564422607,-400000.0625,-4520.1298828125,1671.4599609375,-400000.0625,-12389.7099609375,-400000.0625,6989.47998046875,-400000.0625
0.8873746395111084,-400000.0625,-4149.52978515625,2048.489990234375,-400000.0625,-12013.580078125,-400000.0625,7374.669921875,-400000.0625
0.8873822689056396,-400000.0625,-4027.080078125,2175.469970703125,-400000.0625,-11891.75,-400000.0625,7500.60009765625,-400000.0625
0.8873865604400635,-400000.0625,-4358.580078125,1840.969970703125,-400000.0625,-12227.009765625,-400000.0625,7138.72998046875,-400000.0625
0.88739013671875,-400000.0625,-4640.14990234375,1553.300048828125,-400000.0625,-12518.41015625,-400000.0625,6830.68994140625,-400000.0625
0.8873937129974365,-400000.0625,-4448.509765625,1751.9000244140625,-400000.0625,-12334.2099609375,-400000.0625,7012.93994140625,-400000.0625
0.8873975276947021,-400000.0625,-4068.659912109375,2141.429931640625,-400000.0625,-11955.7900390625,-400000.0625,7382.10986328125,-400000.0625
0.8874011039733887,-400000.0625,-3938.719970703125,2275.85009765625,-400000.0625,-11835.3896484375,-400000.0625,7492.2998046875,-400000.0625
0.8874046802520752,-400000.0625,-4277.9501953125,1945.9200439453125,-400000.0625,-12182.9501953125,-400000.0625,7125.81005859375,-400000.0625
0.8874082565307617,-400000.0625,-4555.7998046875,1676.800048828125,-400000.0625,-12471.3896484375,-400000.0625,6812.85986328125,-400000.0625
0.887413501739502,-400000.0625,-4352.3798828125,1890.800048828125,-400000.0625,-12275.4599609375,-400000.0625,6995.6298828125,-400000.0625
0.8874173164367676,-400000.0625,-3956.179931640625,2294.8701171875,-400000.0625,-11885.1201171875,-400000.0625,7369.419921875,-400000.0625
0.8874211311340332,-400000.0625,-3815.1298828125,2448.030029296875,-400000.0625,-11749.4599609375,-400000.0625,7491.8798828125,-400000.0625
0.8874249458312988,-400000.0625,-4140.43017578125,2136.989990234375,-400000.0625,-12074.8095703125,-400000.0625,7139.830078125,-400000.0625
0.8874285221099854,-400000.0625,-4425.72021484375,1870.3499755859375,-400000.0625,-12355.51953125,-400000.0625,6836.60986328125,-400000.0625
0.8874320983886719,-400000.0625,-4234.60009765625,2081.199951171875,-400000.0625,-12160.490234375,-400000.0625,7015.52001953125,-400000.0625
0.8874359130859375,-400000.0625,-3851.64990234375,2474.360107421875,-400000.0625,-11779.5,-400000.0625,7384.06005859375,-400000.0625
0.887439489364624,-400000.0625,-3718.419921875,2616.360107421875,-400000.0625,-11654.1904296875,-400000.0625,7493.68994140625,-400000.0625
0.8874430656433105,-400000.0625,-4054.590087890625,2291.389892578125,-400000.0625,-11992.0703125,-400000.0625,7133.2001953125,-400000.0625
0.8874466419219971,-400000.0625,-4347.1298828125,2015.260009765625,-400000.0625,-12280.8896484375,-400000.0625,6830.1201171875,-400000.0625
0.8874504566192627,-400000.0625,-4158.5498046875,2214.669921875,-400000.0625,-12096.6904296875,-400000.0625,7008.7001953125,-400000.0625
0.8874540328979492,-400000.0625,-3785.0400390625,2590.89990234375,-400000.0625,-11723.759765625,-400000.0625,7379.10009765625,-400000.0625
0.8874576091766357,-400000.0625,-3673.219970703125,2710.719970703125,-400000.0625,-11603.2099609375,-400000.0625,7497.5,-400000.0625
0.8874611854553223,-400000.0625,-4015.919921875,2375.840087890625,-400000.0625,-11944.0595703125,-400000.0625,7144.1201171875,-400000.0625
0.8874659538269043,-400000.0625,-4305.60009765625,2085.590087890625,-400000.0625,-12236.8798828125,-400000.0625,6842.56982421875,-400000.0625
0.8874702453613281,-400000.0625,-4136.22998046875,2257.72998046875,-400000.0625,-12066.080078125,-400000.0625,7026.0498046875,-400000.0625
0.8874740600585938,-400000.0625,-3782.699951171875,2605.820068359375,-400000.0625,-11715.2197265625,-400000.0625,7390.93017578125,-400000.0625
timestamp,ch7,ch2,ch3,ch5,is_pause
timestamp,ch7,ch2,ch3,ch5,is_pause
timestamp,ch7,ch2,ch3,ch5,is_pause
timestamp,ch7,ch2,ch3,ch5,is_pause
0.92647385597229,-400000.0625,-3674.320068359375,2709.679931640625,-400000.0625,-11609.1298828125,-400000.0625,7503.419921875,-400000.0625
0.9317526817321777,-400000.0625,-4025.840087890625,2355.239990234375,-400000.0625,-11964.7001953125,-400000.0625,7153.31982421875,-400000.0625
0.9357864856719971,-400000.0625,-4323.77001953125,2058.60009765625,-400000.0625,-12264.5400390625,-400000.0625,6853.25,-400000.0625
timestamp,ch7,ch2,ch3,ch5,is_pause
0.9415688514709473,-400000.0625,-4157.16015625,2228.739990234375,-400000.0625,-12095.7900390625,-400000.0625,7026.33984375,-400000.0625
0.9463067054748535,-400000.0625,-3810.840087890625,2571.110107421875,-400000.0625,-11752.1796875,-400000.0625,7382.009765625,-400000.0625
0.9463162422180176,-400000.0625,-3708.409912109375,2672.340087890625,-400000.0625,-11650.419921875,-400000.0625,7492.10986328125,-400000.0625
0.9463205337524414,-400000.0625,-4058.889892578125,2320.580078125,-400000.0625,-12001.900390625,-400000.0625,7142.5,-400000.0625
0.9463248252868652,-400000.0625,-4358.77001953125,2021.550048828125,-400000.0625,-12302.919921875,-400000.0625,6837.18017578125,-400000.0625
0.9463284015655518,-400000.0625,-4188.97021484375,2192.39990234375,-400000.0625,-12133.650390625,-400000.0625,7007.41015625,-400000.0625
0.9463319778442383,-400000.0625,-3834.6298828125,2543.260009765625,-400000.0625,-11779.98046875,-400000.0625,7366.3701171875,-400000.0625
0.9463374614715576,-400000.0625,-3721.81005859375,2655.889892578125,-400000.0625,-11662.8701171875,-400000.0625,7479.9501953125,-400000.0625
0.9463496208190918,-400000.0625,-4060.27001953125,2320.669921875,-400000.0625,-11996.8896484375,-400000.0625,7135.919921875,-400000.0625
0.9463536739349365,-400000.0625,-4344.080078125,2037.3299560546875,-400000.0625,-12280.8896484375,-400000.0625,6852.52978515625,-400000.0625
0.946357250213623,-400000.0625,-4160.06982421875,2219.489990234375,-400000.0625,-12099.3603515625,-400000.0625,7036.259765625,-400000.0625
0.9463608264923096,-400000.0625,-3795.580078125,2579.8798828125,-400000.0625,-11734.4404296875,-400000.0625,7407.330078125,-400000.0625
0.9463646411895752,-400000.0625,-3673.1201171875,2696.090087890625,-400000.0625,-11610.0302734375,-400000.0625,7532.35986328125,-400000.0625
timestamp,ch7,ch2,ch3,ch5,is_pause
timestamp,ch7,ch2,ch3,ch5,is_pause
timestamp,ch7,ch2,ch3,ch5,is_pause
timestamp,ch7,ch2,ch3,ch5,is_pause
timestamp,ch7,ch2,ch3,ch5,is_pause
0.9999454021453857,-400000.0625,-4003.760009765625,2366.5400390625,-400000.0625,-11936.4296875,-400000.0625,7195.27978515625,-400000.0625
1.0044872760772705,-400000.0625,-4288.85986328125,2084.39990234375,-400000.0625,-12221.3896484375,-400000.0625,6908.60986328125,-400000.0625
1.004495620727539,-400000.0625,-4109.33984375,2262.02001953125,-400000.0625,-12043.099609375,-400000.0625,7092.18994140625,-400000.0625
1.0044996738433838,-400000.0625,-3754.570068359375,2612.8798828125,-400000.0625,-11685.419921875,-400000.0625,7453.6298828125,-400000.0625
1.0045037269592285,-400000.0625,-3631.02001953125,2732.7099609375,-400000.0625,-11557.2001953125,-400000.0625,7582.0,-400000.0625
1.004507303237915,-400000.0625,-3962.139892578125,2403.969970703125,-400000.0625,-11882.16015625,-400000.0625,7249.259765625,-400000.0625
1.0045111179351807,-400000.0625,-4259.39990234375,2113.530029296875,-400000.0625,-12172.990234375,-400000.0625,6957.81982421875,-400000.0625
1.0045149326324463,-400000.0625,-4086.590087890625,2284.9599609375,-400000.0625,-12002.419921875,-400000.0625,7130.81005859375,-400000.0625
1.0045225620269775,-400000.0625,-3734.300048828125,2632.860107421875,-400000.0625,-11648.990234375,-400000.0625,7487.8701171875,-400000.0625
1.0045266151428223,-400000.0625,-3628.590087890625,2738.429931640625,-400000.0625,-11541.6103515625,-400000.0625,7597.259765625,-400000.0625
1.0045301914215088,-400000.0625,-3966.81005859375,2400.489990234375,-400000.0625,-11877.2998046875,-400000.0625,7254.97998046875,-400000.0625
1.0045337677001953,-400000.0625,-4258.2001953125,2109.669921875,-400000.0625,-12165.98046875,-400000.0625,6960.43994140625,-400000.0625
1.0045373439788818,-400000.0625,-4097.02978515625,2266.070068359375,-400000.0625,-12007.4296875,-400000.0625,7125.43017578125,-400000.0625
1.0045409202575684,-400000.0625,-3767.110107421875,2594.659912109375,-400000.0625,-11677.4599609375,-400000.0625,7461.41015625,-400000.0625
1.0045444965362549,-400000.0625,-3666.830078125,2694.27001953125,-400000.0625,-11577.509765625,-400000.0625,7565.4501953125,-400000.0625
1.0045480728149414,-400000.0625,-3997.280029296875,2363.830078125,-400000.0625,-11908.009765625,-400000.0625,7238.580078125,-400000.0625
timestamp,ch7,ch2,ch3,ch5,is_pause
timestamp,ch7,ch2,ch3,ch5,is_pause
timestamp,ch7,ch2,ch3,ch5,is_pause
timestamp,ch7,ch2,ch3,ch5,is_pause
timestamp,ch7,ch2,ch3,ch5,is_pause
1.0589444637298584,-400000.0625,-4280.14013671875,2081.389892578125,-400000.0625,-12188.48046875,-400000.0625,6960.39013671875,-400000.0625
timestamp,ch7,ch2,ch3,ch5,is_pause
1.070448875427246,-400000.0625,-4121.06982421875,2241.3701171875,-400000.0625,-12029.1201171875,-400000.0625,7120.93994140625,-400000.0625
1.0750832557678223,-400000.0625,-3789.52001953125,2570.580078125,-400000.0625,-11694.2900390625,-400000.0625,7459.02001953125,-400000.0625
1.0750963687896729,-400000.0625,-3683.419921875,2675.300048828125,-400000.0625,-11588.669921875,-400000.0625,7566.8798828125,-400000.0625
1.075101613998413,-400000.0625,-3998.179931640625,2361.25,-400000.0625,-11904.91015625,-400000.0625,7249.259765625,-400000.0625
1.0751163959503174,-400000.0625,-4272.7001953125,2088.02001953125,-400000.0625,-12174.8896484375,-400000.0625,6975.60009765625,-400000.0625
1.075120210647583,-400000.0625,-4124.64013671875,2236.889892578125,-400000.0625,-12023.5,-400000.0625,7133.81982421875,-400000.0625
1.0751240253448486,-400000.0625,-3802.010009765625,2556.3701171875,-400000.0625,-11706.2099609375,-400000.0625,7451.2001953125,-400000.0625
1.075127363204956,-400000.0625,-3690.909912109375,2660.22998046875,-400000.0625,-11604.01953125,-400000.0625,7546.89990234375,-400000.0625
1.0751316547393799,-400000.0625,-3999.81005859375,2346.800048828125,-400000.0625,-11915.16015625,-400000.0625,7220.169921875,-400000.0625
1.0751349925994873,-400000.0625,-4285.6201171875,2073.570068359375,-400000.0625,-12194.5400390625,-400000.0625,6937.31005859375,-400000.0625
1.0751404762268066,-400000.0625,-4146.580078125,2219.340087890625,-400000.0625,-12056.259765625,-400000.0625,7074.35986328125,-400000.0625
1.0751440525054932,-400000.0625,-3838.25,2525.81005859375,-400000.0625,-11748.7001953125,-400000.0625,7376.0,-400000.0625
1.0751476287841797,-400000.0625,-3756.6201171875,2614.780029296875,-400000.0625,-11660.91015625,-400000.0625,7457.68994140625,-400000.0625
1.075150966644287,-400000.0625,-4074.9599609375,2296.830078125,-400000.0625,-11982.2998046875,-400000.0625,7133.14990234375,-400000.0625
1.0751550197601318,-400000.0625,-4356.52978515625,2013.300048828125,-400000.0625,-12267.16015625,-400000.0625,6848.2900390625,-400000.0625
timestamp,ch7,ch2,ch3,ch5,is_pause
timestamp,ch7,ch2,ch3,ch5,is_pause
timestamp,ch7,ch2,ch3,ch5,is_pause
1.1137495040893555,-400000.0625,-4232.1201171875,2137.7099609375,-400000.0625,-12141.900390625,-400000.0625,6975.7001953125,-400000.0625
timestamp,ch7,ch2,ch3,ch5,is_pause
1.1198759078979492,-400000.0625,-3944.679931640625,2421.7099609375,-400000.0625,-11855.169921875,-400000.0625,7269.14013671875,-400000.0625
1.1239423751831055,-400000.0625,-3869.010009765625,2495.77001953125,-400000.0625,-11779.1201171875,-400000.0625,7346.919921875,-400000.0625
1.1239514350891113,-400000.0625,-4191.58984375,2174.0400390625,-400000.0625,-12100.509765625,-400000.0625,7022.6201171875,-400000.0625
1.1239559650421143,-400000.0625,-4466.33984375,1899.719970703125,-400000.0625,-12374.6904296875,-400000.0625,6744.6201171875,-400000.0625
1.123960018157959,-400000.0625,-4329.009765625,2035.760009765625,-400000.0625,-12239.3095703125,-400000.0625,6879.81005859375,-400000.0625
1.1239650249481201,-400000.0625,-4029.419921875,2334.360107421875,-400000.0625,-11937.7197265625,-400000.0625,7183.97998046875,-400000.0625
1.1239707469940186,-400000.0625,-3937.389892578125,2421.949951171875,-400000.0625,-11845.1103515625,-400000.0625,7275.77001953125,-400000.0625
1.1239800453186035,-400000.0625,-4239.18017578125,2119.489990234375,-400000.0625,-12148.330078125,-400000.0625,6973.60009765625,-400000.0625
1.1239840984344482,-400000.0625,-4495.3798828125,1862.47998046875,-400000.0625,-12405.6396484375,-400000.0625,6712.06005859375,-400000.0625
1.1239879131317139,-400000.0625,-4348.85009765625,2010.06005859375,-400000.0625,-12260.009765625,-400000.0625,6857.830078125,-400000.0625
1.1239917278289795,-400000.0625,-4051.159912109375,2306.1298828125,-400000.0625,-11958.0302734375,-400000.0625,7164.10009765625,-400000.0625
1.123995304107666,-400000.0625,-3953.889892578125,2402.35009765625,-400000.0625,-11857.6103515625,-400000.0625,7265.08984375,-400000.0625
1.1239991188049316,-400000.0625,-4237.7001953125,2119.2099609375,-400000.0625,-12142.51953125,-400000.0625,6979.990234375,-400000.0625
1.1240036487579346,-400000.0625,-4488.89990234375,1869.300048828125,-400000.0625,-12392.240234375,-400000.0625,6730.60009765625,-400000.0625
1.1240077018737793,-400000.0625,-4342.18017578125,2014.3499755859375,-400000.0625,-12244.26953125,-400000.0625,6879.52001953125,-400000.0625
timestamp,ch7,ch2,ch3,ch5,is_pause
timestamp,ch7,ch2,ch3,ch5,is_pause
timestamp,ch7,ch2,ch3,ch5,is_pause
timestamp,ch7,ch2,ch3,ch5,is_pause
timestamp,ch7,ch2,ch3,ch5,is_pause
timestamp,ch7,ch2,ch3,ch5,is_pause
1.1974952220916748,-400000.0625,-4034.090087890625,2317.949951171875,-400000.0625,-11936.3798828125,-400000.0625,7196.0,-400000.0625
timestamp,ch7,ch2,ch3,ch5,is_pause
1.2085514068603516,-400000.0625,-3921.409912109375,2428.25,-400000.0625,-11825.7099609375,-400000.0625,7312.2001953125,-400000.0625
timestamp,ch7,ch2,ch3,ch5,is_pause
1.2145483493804932,-400000.0625,-4195.740234375,2153.43994140625,-400000.0625,-12101.599609375,-400000.0625,7031.72998046875,-400000.0625
1.219115972518921,-400000.0625,-4444.169921875,1906.3499755859375,-400000.0625,-12350.1796875,-400000.0625,6784.2001953125,-400000.0625
1.219123125076294,-400000.0625,-4298.740234375,2049.969970703125,-400000.0625,-12204.83984375,-400000.0625,6930.64013671875,-400000.0625
1.2191274166107178,-400000.0625,-4001.0,2344.56005859375,-400000.0625,-11904.099609375,-400000.0625,7232.81005859375,-400000.0625
1.2191312313079834,-400000.0625,-3901.340087890625,2442.550048828125,-400000.0625,-11804.6298828125,-400000.0625,7339.0498046875,-400000.0625
1.219135046005249,-400000.0625,-4180.14990234375,2163.510009765625,-400000.0625,-12085.2998046875,-400000.0625,7050.08984375,-400000.0625
1.2191386222839355,-400000.0625,-4428.2001953125,1912.8299560546875,-400000.0625,-12335.25,-400000.0625,6798.509765625,-400000.0625
1.2191426753997803,-400000.0625,-4291.77001953125,2049.159912109375,-400000.0625,-12196.73046875,-400000.0625,6940.75,-400000.0625
1.219146490097046,-400000.0625,-3999.760009765625,2337.840087890625,-400000.0625,-11906.3896484375,-400000.0625,7233.72021484375,-400000.0625
1.2191500663757324,-400000.0625,-3910.969970703125,2427.580078125,-400000.0625,-11815.98046875,-400000.0625,7320.830078125,-400000.0625
1.2191534042358398,-400000.0625,-4202.89013671875,2138.52001953125,-400000.0625,-12108.0400390625,-400000.0625,7028.68017578125,-400000.0625
1.2191569805145264,-400000.0625,-4454.89990234375,1885.8399658203125,-400000.0625,-12360.91015625,-400000.0625,6774.56982421875,-400000.0625
1.219160795211792,-400000.0625,-4312.7099609375,2023.8900146484375,-400000.0625,-12216.4296875,-400000.0625,6915.18994140625,-400000.0625
1.219167947769165,-400000.0625,-4017.780029296875,2316.139892578125,-400000.0625,-11919.01953125,-400000.0625,7216.68994140625,-400000.0625
timestamp,ch7,ch2,ch3,ch5,is_pause
timestamp,ch7,ch2,ch3,ch5,is_pause
timestamp,ch7,ch2,ch3,ch5,is_pause
1.2501683235168457,-400000.0625,-3914.1201171875,2416.1298828125,-400000.0625,-11818.7900390625,-400000.0625,7319.2099609375,-400000.0625
1.2548329830169678,-400000.0625,-4193.830078125,2136.0400390625,-400000.0625,-12095.5498046875,-400000.0625,7032.5400390625,-400000.0625
1.2548432350158691,-400000.0625,-4439.16015625,1890.989990234375,-400000.0625,-12339.16015625,-400000.0625,6786.5400390625,-400000.0625
1.254847764968872,-400000.0625,-4294.72998046875,2035.1400146484375,-400000.0625,-12197.0703125,-400000.0625,6937.080078125,-400000.0625
1.2548515796661377,-400000.0625,-4000.280029296875,2325.25,-400000.0625,-11900.240234375,-400000.0625,7236.14990234375,-400000.0625
1.2548553943634033,-400000.0625,-3904.580078125,2420.139892578125,-400000.0625,-11803.7197265625,-400000.0625,7332.85009765625,-400000.0625
1.2548589706420898,-400000.0625,-4189.6298828125,2140.050048828125,-400000.0625,-12084.25,-400000.0625,7047.7998046875,-400000.0625
1.2548623085021973,-400000.0625,-4453.7099609375,1881.550048828125,-400000.0625,-12337.2099609375,-400000.0625,6788.2099609375,-400000.0625
1.2548658847808838,-400000.0625,-4335.2099609375,2005.010009765625,-400000.0625,-12213.0400390625,-400000.0625,6935.169921875,-400000.0625
1.2548694610595703,-400000.0625,-4042.669921875,2282.860107421875,-400000.0625,-11919.9296875,-400000.0625,7243.6298828125,-400000.0625
1.254873275756836,-400000.0625,-3939.340087890625,2367.969970703125,-400000.0625,-11817.4599609375,-400000.0625,7354.169921875,-400000.0625
1.2548768520355225,-400000.0625,-4238.3701171875,2056.739990234375,-400000.0625,-12106.3701171875,-400000.0625,7072.16015625,-400000.0625
1.254883050918579,-400000.0625,-4497.81005859375,1785.56005859375,-400000.0625,-12361.6201171875,-400000.0625,6827.259765625,-400000.0625
1.254887342453003,-400000.0625,-4362.5400390625,1902.06005859375,-400000.0625,-12219.0498046875,-400000.0625,6984.330078125,-400000.0625
1.2548911571502686,-400000.0625,-4073.0,2171.179931640625,-400000.0625,-11917.16015625,-400000.0625,7303.759765625,-400000.0625
1.2548954486846924,-400000.0625,-3975.820068359375,2245.860107421875,-400000.0625,-11819.509765625,-400000.0625,7420.490234375,-400000.0625
timestamp,ch7,ch2,ch3,ch5,is_pause
timestamp,ch7,ch2,ch3,ch5,is_pause
timestamp,ch7,ch2,ch3,ch5,is_pause
timestamp,ch7,ch2,ch3,ch5,is_pause
timestamp,ch7,ch2,ch3,ch5,is_pause
1.3074958324432373,-400000.0625,-4262.64013671875,1934.8599853515625,-400000.0625,-12102.41015625,-400000.0625,7147.4599609375,-400000.0625
timestamp,ch7,ch2,ch3,ch5,is_pause
1.3179221153259277,-400000.0625,-4525.759765625,1662.1099853515625,-400000.0625,-12353.990234375,-400000.0625,6903.740234375,-400000.0625
1.3225429058074951,-400000.0625,-4399.43994140625,1777.0799560546875,-400000.0625,-12218.1904296875,-400000.0625,7068.10986328125,-400000.0625
1.3225507736206055,-400000.0625,-4122.64013671875,2034.3800048828125,-400000.0625,-11935.4296875,-400000.0625,7366.990234375,-400000.0625
1.3225548267364502,-400000.0625,-4043.6298828125,2099.989990234375,-400000.0625,-11853.0302734375,-400000.0625,7459.830078125,-400000.0625
1.322558879852295,-400000.0625,-4330.25,1800.3499755859375,-400000.0625,-12137.080078125,-400000.0625,7188.56005859375,-400000.0625
1.3225624561309814,-400000.0625,-4576.490234375,1551.06005859375,-400000.0625,-12380.2197265625,-400000.0625,6953.43017578125,-400000.0625
1.322566032409668,-400000.0625,-4428.580078125,1696.3499755859375,-400000.0625,-12228.2998046875,-400000.0625,7115.7900390625,-400000.0625
1.3225696086883545,-400000.0625,-4131.27001953125,1990.3199462890625,-400000.0625,-11926.4599609375,-400000.0625,7423.31005859375,-400000.0625
1.322573184967041,-400000.0625,-4031.93994140625,2087.739990234375,-400000.0625,-11825.4697265625,-400000.0625,7518.91015625,-400000.0625
1.3225796222686768,-400000.0625,-4312.56005859375,1803.2099609375,-400000.0625,-12111.1904296875,-400000.0625,7234.72021484375,-400000.0625
1.3225836753845215,-400000.0625,-4563.27978515625,1551.5799560546875,-400000.0625,-12363.009765625,-400000.0625,6987.85986328125,-400000.0625
1.3225889205932617,-400000.0625,-4423.7099609375,1693.199951171875,-400000.0625,-12215.0,-400000.0625,7127.43017578125,-400000.0625
1.3225927352905273,-400000.0625,-4128.31005859375,1985.9300537109375,-400000.0625,-11918.400390625,-400000.0625,7429.41015625,-400000.0625
1.322596549987793,-400000.0625,-4022.7900390625,2086.449951171875,-400000.0625,-11818.2197265625,-400000.0625,7533.8798828125,-400000.0625
1.3226003646850586,-400000.0625,-4295.25,1816.6099853515625,-400000.0625,-12090.2099609375,-400000.0625,7258.60986328125,-400000.0625
timestamp,ch7,ch2,ch3,ch5,is_pause
timestamp,ch7,ch2,ch3,ch5,is_pause
timestamp,ch7,ch2,ch3,ch5,is_pause
timestamp,ch7,ch2,ch3,ch5,is_pause
1.3751113414764404,-400000.0625,-4528.669921875,1582.9100341796875,-400000.0625,-12326.0498046875,-400000.0625,7023.14013671875,-400000.0625
timestamp,ch7,ch2,ch3,ch5,is_pause
1.3823049068450928,-400000.0625,-4377.31982421875,1733.9200439453125,-400000.0625,-12172.1796875,-400000.0625,7177.8798828125,-400000.0625
1.3866240978240967,-400000.0625,-4071.050048828125,2040.5799560546875,-400000.0625,-11864.5703125,-400000.0625,7487.2001953125,-400000.0625
1.3866322040557861,-400000.0625,-3963.469970703125,2145.820068359375,-400000.0625,-11758.6103515625,-400000.0625,7595.02001953125,-400000.0625
1.386636734008789,-400000.0625,-4240.22998046875,1872.6800537109375,-400000.0625,-12029.5498046875,-400000.0625,7316.72998046875,-400000.0625
1.3866405487060547,-400000.0625,-4485.22998046875,1629.68994140625,-400000.0625,-12272.599609375,-400000.0625,7070.490234375,-400000.0625
1.3866441249847412,-400000.0625,-4341.22021484375,1776.1700439453125,-400000.0625,-12123.2998046875,-400000.0625,7214.8798828125,-400000.0625
1.3866479396820068,-400000.0625,-4039.10009765625,2074.77001953125,-400000.0625,-11822.5595703125,-400000.0625,7513.08984375,-400000.0625
1.386655330657959,-400000.0625,-3946.39990234375,2174.3798828125,-400000.0625,-11723.7099609375,-400000.0625,7618.18994140625,-400000.0625
1.3866610527038574,-400000.0625,-4226.35009765625,1895.6700439453125,-400000.0625,-12001.6103515625,-400000.0625,7338.0,-400000.0625
1.386664867401123,-400000.0625,-4464.669921875,1656.6800537109375,-400000.0625,-12242.990234375,-400000.0625,7093.0498046875,-400000.0625
1.3866684436798096,-400000.0625,-4318.91015625,1801.300048828125,-400000.0625,-12098.3603515625,-400000.0625,7238.39013671875,-400000.0625
1.386672019958496,-400000.0625,-4029.85009765625,2092.64990234375,-400000.0625,-11803.009765625,-400000.0625,7531.02001953125,-400000.0625
1.3866758346557617,-400000.0625,-3936.14990234375,2185.43994140625,-400000.0625,-11710.41015625,-400000.0625,7627.919921875,-400000.0625
1.3866798877716064,-400000.0625,-4206.08984375,1914.9300537109375,-400000.0625,-11982.3896484375,-400000.0625,7349.64013671875,-400000.0625
1.386683702468872,-400000.0625,-4436.06005859375,1683.9000244140625,-400000.0625,-12215.1396484375,-400000.0625,7114.7001953125,-400000.0625
timestamp,ch7,ch2,ch3,ch5,is_pause
timestamp,ch7,ch2,ch3,ch5,is_pause
timestamp,ch7,ch2,ch3,ch5,is_pause
timestamp,ch7,ch2,ch3,ch5,is_pause
1.4284212589263916,-400000.0625,-4289.47998046875,1831.25,-400000.0625,-12069.26953125,-400000.0625,7264.9501953125,-400000.0625
timestamp,ch7,ch2,ch3,ch5,is_pause
1.4385576248168945,-400000.0625,-4005.429931640625,2117.5400390625,-400000.0625,-11779.259765625,-400000.0625,7555.9599609375,-400000.0625
1.4446232318878174,-400000.0625,-3913.68994140625,2212.669921875,-400000.0625,-11681.0302734375,-400000.0625,7651.85009765625,-400000.0625
1.4490492343902588,-400000.0625,-4183.81982421875,1939.77001953125,-400000.0625,-11955.0703125,-400000.0625,7373.56982421875,-400000.0625
1.4490578174591064,-400000.0625,-4423.2900390625,1699.02001953125,-400000.0625,-12198.5,-400000.0625,7126.669921875,-400000.0625
1.449061632156372,-400000.0625,-4291.72998046875,1831.47998046875,-400000.0625,-12064.5498046875,-400000.0625,7262.330078125,-400000.0625
1.4490644931793213,-400000.0625,-4017.31005859375,2105.090087890625,-400000.0625,-11786.75,-400000.0625,7540.22998046875,-400000.0625
1.4490675926208496,-400000.0625,-3939.8701171875,2183.06005859375,-400000.0625,-11708.1201171875,-400000.0625,7619.52001953125,-400000.0625
1.449070692062378,-400000.0625,-4227.830078125,1896.6199951171875,-400000.0625,-11995.1298828125,-400000.0625,7332.18017578125,-400000.0625
1.4490737915039062,-400000.0625,-4476.259765625,1650.47998046875,-400000.0625,-12246.419921875,-400000.0625,7079.41015625,-400000.0625
1.4490768909454346,-400000.0625,-4342.3701171875,1784.75,-400000.0625,-12113.5703125,-400000.0625,7216.259765625,-400000.0625
1.4490797519683838,-400000.0625,-4062.75,2061.75,-400000.0625,-11828.3798828125,-400000.0625,7500.27001953125,-400000.0625
1.449082851409912,-400000.0625,-3979.780029296875,2145.719970703125,-400000.0625,-11743.3095703125,-400000.0625,7584.52978515625,-400000.0625
1.4490861892700195,-400000.0625,-4258.97021484375,1865.77001953125,-400000.0625,-12025.01953125,-400000.0625,7300.08984375,-400000.0625
1.4490890502929688,-400000.0625,-4499.0498046875,1624.1099853515625,-400000.0625,-12267.16015625,-400000.0625,7052.22998046875,-400000.0625
1.449091911315918,-400000.0625,-4370.740234375,1752.9000244140625,-400000.0625,-12138.6103515625,-400000.0625,7186.4599609375,-400000.0625
timestamp,ch7,ch2,ch3,ch5,is_pause
timestamp,ch7,ch2,ch3,ch5,is_pause
timestamp,ch7,ch2,ch3,ch5,is_pause
timestamp,ch7,ch2,ch3,ch5,is_pause
1.493575096130371,-400000.0625,-4091.070068359375,2030.1800537109375,-400000.0625,-11857.6103515625,-400000.0625,7468.509765625,-400000.0625
timestamp,ch7,ch2,ch3,ch5,is_pause
1.5022480487823486,-400000.0625,-4002.050048828125,2113.489990234375,-400000.0625,-11769.490234375,-400000.0625,7556.580078125,-400000.0625
1.507782220840454,-400000.0625,-4278.60986328125,1838.969970703125,-400000.0625,-12046.150390625,-400000.0625,7273.47998046875,-400000.0625
timestamp,ch7,ch2,ch3,ch5,is_pause
1.5144009590148926,-400000.0625,-4517.27001953125,1600.7900390625,-400000.0625,-12284.7998046875,-400000.0625,7034.06005859375,-400000.0625
1.5190494060516357,-400000.0625,-4371.8798828125,1740.8800048828125,-400000.0625,-12142.900390625,-400000.0625,7178.58984375,-400000.0625
1.5190579891204834,-400000.0625,-4080.9599609375,2029.8499755859375,-400000.0625,-11852.740234375,-400000.0625,7469.4599609375,-400000.0625
1.5190625190734863,-400000.0625,-3995.280029296875,2116.010009765625,-400000.0625,-11763.5302734375,-400000.0625,7559.009765625,-400000.0625
1.519066572189331,-400000.0625,-4271.64990234375,1839.1099853515625,-400000.0625,-12038.6103515625,-400000.0625,7275.580078125,-400000.0625
1.5190701484680176,-400000.0625,-4502.25,1608.0400390625,-400000.0625,-12272.2197265625,-400000.0625,7043.509765625,-400000.0625
1.519073724746704,-400000.0625,-4353.3798828125,1754.9000244140625,-400000.0625,-12126.259765625,-400000.0625,7194.56982421875,-400000.0625
1.5190770626068115,-400000.0625,-4061.7900390625,2047.06005859375,-400000.0625,-11832.330078125,-400000.0625,7493.16015625,-400000.0625
1.519080638885498,-400000.0625,-3965.89990234375,2142.139892578125,-400000.0625,-11735.9697265625,-400000.0625,7588.0498046875,-400000.0625
1.5190842151641846,-400000.0625,-4233.41015625,1871.72998046875,-400000.0625,-12006.1396484375,-400000.0625,7313.68017578125,-400000.0625
1.519087791442871,-400000.0625,-4464.8701171875,1641.6600341796875,-400000.0625,-12239.169921875,-400000.0625,7083.66015625,-400000.0625
1.5190980434417725,-400000.0625,-4311.89990234375,1794.3399658203125,-400000.0625,-12085.73046875,-400000.0625,7236.85986328125,-400000.0625
1.519101858139038,-400000.0625,-4012.159912109375,2091.219970703125,-400000.0625,-11785.080078125,-400000.0625,7538.7998046875,-400000.0625
timestamp,ch7,ch2,ch3,ch5,is_pause
timestamp,ch7,ch2,ch3,ch5,is_pause
timestamp,ch7,ch2,ch3,ch5,is_pause
1.5551671981811523,-400000.0625,-3904.8701171875,2198.219970703125,-400000.0625,-11678.740234375,-400000.0625,7648.89990234375,-400000.0625
timestamp,ch7,ch2,ch3,ch5,is_pause
1.5673928260803223,-400000.0625,-4168.27001953125,1942.2099609375,-400000.0625,-11936.9501953125,-400000.0625,7389.740234375,-400000.0625
timestamp,ch7,ch2,ch3,ch5,is_pause
1.5727663040161133,-400000.0625,-4387.7099609375,1724.2900390625,-400000.0625,-12153.669921875,-400000.0625,7168.91015625,-400000.0625
1.5790073871612549,-400000.0625,-4244.0400390625,1876.5899658203125,-400000.0625,-11999.75,-400000.0625,7322.22021484375,-400000.0625
timestamp,ch7,ch2,ch3,ch5,is_pause
1.5846731662750244,-400000.0625,-3952.27001953125,2170.22998046875,-400000.0625,-11701.8701171875,-400000.0625,7622.43017578125,-400000.0625
1.5889592170715332,-400000.0625,-3843.97998046875,2270.60009765625,-400000.0625,-11595.2001953125,-400000.0625,7726.52978515625,-400000.0625
1.5889666080474854,-400000.0625,-4107.52001953125,2002.2900390625,-400000.0625,-11850.5498046875,-400000.0625,7458.58984375,-400000.0625
1.5889708995819092,-400000.0625,-4350.0400390625,1778.27001953125,-400000.0625,-12068.75,-400000.0625,7227.85009765625,-400000.0625
1.5889768600463867,-400000.0625,-4200.7001953125,1935.77001953125,-400000.0625,-11907.76953125,-400000.0625,7382.06005859375,-400000.0625
1.5889806747436523,-400000.0625,-3904.340087890625,2226.590087890625,-400000.0625,-11604.0703125,-400000.0625,7681.56005859375,-400000.0625
1.5889842510223389,-400000.0625,-3816.179931640625,2318.239990234375,-400000.0625,-11499.9296875,-400000.0625,7781.27001953125,-400000.0625
1.5889878273010254,-400000.0625,-4083.39990234375,2057.030029296875,-400000.0625,-11758.7099609375,-400000.0625,7517.0498046875,-400000.0625
1.588991403579712,-400000.0625,-4300.58984375,1840.969970703125,-400000.0625,-11973.0498046875,-400000.0625,7295.66015625,-400000.0625
1.5889949798583984,-400000.0625,-4146.9599609375,1996.3299560546875,-400000.0625,-11813.3095703125,-400000.0625,7453.8701171875,-400000.0625
1.589005470275879,-400000.0625,-3858.7099609375,2285.050048828125,-400000.0625,-11519.4296875,-400000.0625,7747.60009765625,-400000.0625
1.5890092849731445,-400000.0625,-3765.6298828125,2378.610107421875,-400000.0625,-11426.16015625,-400000.0625,7843.64013671875,-400000.0625
timestamp,ch7,ch2,ch3,ch5,is_pause
timestamp,ch7,ch2,ch3,ch5,is_pause
timestamp,ch7,ch2,ch3,ch5,is_pause
timestamp,ch7,ch2,ch3,ch5,is_pause
timestamp,ch7,ch2,ch3,ch5,is_pause
1.643301010131836,-400000.0625,-4023.219970703125,2122.550048828125,-400000.0625,-11684.08984375,-400000.0625,7587.47998046875,-400000.0625
1.6497588157653809,-400000.0625,-4235.740234375,1908.9200439453125,-400000.0625,-11900.330078125,-400000.0625,7363.02978515625,-400000.0625
1.6542770862579346,-400000.0625,-4088.739990234375,2058.889892578125,-400000.0625,-11753.75,-400000.0625,7510.66015625,-400000.0625
1.6542856693267822,-400000.0625,-3797.340087890625,2350.570068359375,-400000.0625,-11460.0703125,-400000.0625,7806.4501953125,-400000.0625
1.654289722442627,-400000.0625,-3687.239990234375,2457.050048828125,-400000.0625,-11349.3896484375,-400000.0625,7913.64013671875,-400000.0625
1.6542940139770508,-400000.0625,-3933.0,2213.139892578125,-400000.0625,-11596.8701171875,-400000.0625,7669.64013671875,-400000.0625
1.6542975902557373,-400000.0625,-4148.25,1999.280029296875,-400000.0625,-11811.2099609375,-400000.0625,7455.490234375,-400000.0625
1.654301404953003,-400000.0625,-3998.0400390625,2146.530029296875,-400000.0625,-11661.099609375,-400000.0625,7602.5498046875,-400000.0625
1.6543049812316895,-400000.0625,-3715.469970703125,2426.669921875,-400000.0625,-11379.48046875,-400000.0625,7884.93017578125,-400000.0625
1.654308795928955,-400000.0625,-3643.800048828125,2497.6298828125,-400000.0625,-11310.2001953125,-400000.0625,7952.2099609375,-400000.0625
1.6543123722076416,-400000.0625,-3938.06005859375,2203.85009765625,-400000.0625,-11604.599609375,-400000.0625,7659.009765625,-400000.0625
1.6543159484863281,-400000.0625,-4176.0,1965.6199951171875,-400000.0625,-11845.8798828125,-400000.0625,7418.35009765625,-400000.0625
1.6543259620666504,-400000.0625,-4036.280029296875,2103.3798828125,-400000.0625,-11708.9296875,-400000.0625,7554.14990234375,-400000.0625
1.6543300151824951,-400000.0625,-3764.72998046875,2376.93994140625,-400000.0625,-11430.6904296875,-400000.0625,7830.18994140625,-400000.0625
1.6543340682983398,-400000.0625,-3672.4599609375,2469.25,-400000.0625,-11335.330078125,-400000.0625,7929.89990234375,-400000.0625
1.6543378829956055,-400000.0625,-3907.590087890625,2230.1201171875,-400000.0625,-11574.4599609375,-400000.0625,7690.10009765625,-400000.0625
timestamp,ch7,ch2,ch3,ch5,is_pause
timestamp,ch7,ch2,ch3,ch5,is_pause
timestamp,ch7,ch2,ch3,ch5,is_pause
timestamp,ch7,ch2,ch3,ch5,is_pause
1.691453456878662,-400000.0625,-4110.240234375,2029.22998046875,-400000.0625,-11780.6396484375,-400000.0625,7487.919921875,-400000.0625
1.7013270854949951,-400000.0625,-3965.0400390625,2173.090087890625,-400000.0625,-11636.259765625,-400000.0625,7635.830078125,-400000.0625
timestamp,ch7,ch2,ch3,ch5,is_pause
1.7072560787200928,-400000.0625,-3696.6298828125,2443.739990234375,-400000.0625,-11362.8896484375,-400000.0625,7904.6298828125,-400000.0625
1.7125554084777832,-400000.0625,-3589.340087890625,2550.93994140625,-400000.0625,-11257.2197265625,-400000.0625,8008.9599609375,-400000.0625
timestamp,ch7,ch2,ch3,ch5,is_pause
1.71938157081604,-400000.0625,-3795.10009765625,2345.989990234375,-400000.0625,-11465.650390625,-400000.0625,7802.14990234375,-400000.0625
1.7237746715545654,-400000.0625,-3960.469970703125,2179.81005859375,-400000.0625,-11632.2998046875,-400000.0625,7636.5498046875,-400000.0625
1.723783016204834,-400000.0625,-3769.830078125,2367.8798828125,-400000.0625,-11445.3798828125,-400000.0625,7823.27978515625,-400000.0625
1.723787546157837,-400000.0625,-3451.72998046875,2691.320068359375,-400000.0625,-11121.990234375,-400000.0625,8147.72021484375,-400000.0625
1.7237911224365234,-400000.0625,-3310.300048828125,2832.699951171875,-400000.0625,-10980.0400390625,-400000.0625,8289.7197265625,-400000.0625
1.723801612854004,-400000.0625,-3500.030029296875,2640.8701171875,-400000.0625,-11171.76953125,-400000.0625,8093.41015625,-400000.0625
1.7238054275512695,-400000.0625,-3659.530029296875,2480.97998046875,-400000.0625,-11333.3203125,-400000.0625,7932.81005859375,-400000.0625
1.723808765411377,-400000.0625,-3477.860107421875,2662.179931640625,-400000.0625,-11151.080078125,-400000.0625,8112.10009765625,-400000.0625
1.7238125801086426,-400000.0625,-3154.800048828125,2985.0,-400000.0625,-10824.490234375,-400000.0625,8440.6904296875,-400000.0625
1.723816156387329,-400000.0625,-2999.35009765625,3138.72998046875,-400000.0625,-10669.419921875,-400000.0625,8595.0400390625,-400000.0625
1.7238197326660156,-400000.0625,-3187.75,2949.909912109375,-400000.0625,-10858.16015625,-400000.0625,8408.5,-400000.0625
1.7238233089447021,-400000.0625,-3360.56005859375,2772.280029296875,-400000.0625,-11040.400390625,-400000.0625,8226.5400390625,-400000.0625
timestamp,ch7,ch2,ch3,ch5,is_pause
timestamp,ch7,ch2,ch3,ch5,is_pause
timestamp,ch7,ch2,ch3,ch5,is_pause
timestamp,ch7,ch2,ch3,ch5,is_pause
timestamp,ch7,ch2,ch3,ch5,is_pause
1.7767107486724854,-400000.0625,-3225.949951171875,2902.4599609375,-400000.0625,-10908.7998046875,-400000.0625,8362.4404296875,-400000.0625
1.7827844619750977,-400000.0625,-2986.81005859375,3138.969970703125,-400000.0625,-10668.419921875,-400000.0625,8603.759765625,-400000.0625
timestamp,ch7,ch2,ch3,ch5,is_pause
1.788675308227539,-400000.0625,-2932.5,3195.2900390625,-400000.0625,-10613.490234375,-400000.0625,8660.1298828125,-400000.0625
1.7936656475067139,-400000.0625,-3200.530029296875,2927.830078125,-400000.0625,-10881.2802734375,-400000.0625,8386.900390625,-400000.0625
timestamp,ch7,ch2,ch3,ch5,is_pause
1.8021085262298584,-400000.0625,-3422.68994140625,2706.669921875,-400000.0625,-11103.4404296875,-400000.0625,8162.2099609375,-400000.0625
1.8072941303253174,-400000.0625,-3312.919921875,2815.43994140625,-400000.0625,-10993.009765625,-400000.0625,8275.3701171875,-400000.0625
timestamp,ch7,ch2,ch3,ch5,is_pause
1.8150606155395508,-400000.0625,-3100.590087890625,3024.77001953125,-400000.0625,-10781.240234375,-400000.0625,8493.7099609375,-400000.0625
1.8201584815979004,-400000.0625,-3077.7900390625,3043.7900390625,-400000.0625,-10760.5498046875,-400000.0625,8508.58984375,-400000.0625
timestamp,ch7,ch2,ch3,ch5,is_pause
1.8273396492004395,-400000.0625,-3394.030029296875,2729.1298828125,-400000.0625,-11078.5498046875,-400000.0625,8192.2998046875,-400000.0625
1.8325614929199219,-400000.0625,-3679.280029296875,2445.169921875,-400000.0625,-11365.509765625,-400000.0625,7903.0498046875,-400000.0625
timestamp,ch7,ch2,ch3,ch5,is_pause
1.83931565284729,-400000.0625,-3626.8701171875,2498.199951171875,-400000.0625,-11313.490234375,-400000.0625,7955.5,-400000.0625
1.8447678089141846,-400000.0625,-3438.760009765625,2685.590087890625,-400000.0625,-11121.4697265625,-400000.0625,8145.6201171875,-400000.0625
timestamp,ch7,ch2,ch3,ch5,is_pause
1.85249662399292,-400000.0625,-3391.030029296875,2732.3701171875,-400000.0625,-11074.830078125,-400000.0625,8198.169921875,-400000.0625
1.857306957244873,-400000.0625,-3630.2099609375,2490.949951171875,-400000.0625,-11316.1103515625,-400000.0625,7952.64013671875,-400000.0625
1.8573682308197021,-400000.0625,-3838.110107421875,2281.81005859375,-400000.0625,-11524.919921875,-400000.0625,7740.93017578125,-400000.0625
1.8573954105377197,-400000.0625,-3738.5,2379.610107421875,-400000.0625,-11427.01953125,-400000.0625,7841.490234375,-400000.0625
1.8574295043945312,-400000.0625,-3522.919921875,2595.760009765625,-400000.0625,-11208.5400390625,-400000.0625,8061.35986328125,-400000.0625
1.8574376106262207,-400000.0625,-3475.860107421875,2641.199951171875,-400000.0625,-11162.1396484375,-400000.0625,8107.85009765625,-400000.0625
1.8574471473693848,-400000.0625,-3733.969970703125,2379.699951171875,-400000.0625,-11425.7802734375,-400000.0625,7843.4501953125,-400000.0625
1.8574624061584473,-400000.0625,-3958.56005859375,2157.830078125,-400000.0625,-11650.6103515625,-400000.0625,7616.9501953125,-400000.0625
1.857508659362793,-400000.0625,-3856.75,2259.300048828125,-400000.0625,-11548.6201171875,-400000.0625,7719.89990234375,-400000.0625
timestamp,ch7,ch2,ch3,ch5,is_pause
1.8648045063018799,-400000.0625,-3635.64990234375,2475.739990234375,-400000.0625,-11325.6904296875,-400000.0625,7938.0498046875,-400000.0625
1.8697655200958252,-400000.0625,-3591.5400390625,2522.090087890625,-400000.0625,-11279.25,-400000.0625,7989.8798828125,-400000.0625
1.869774341583252,-400000.0625,-3859.280029296875,2253.719970703125,-400000.0625,-11548.849609375,-400000.0625,7720.419921875,-400000.0625
1.8697783946990967,-400000.0625,-4100.60986328125,2007.2900390625,-400000.0625,-11793.900390625,-400000.0625,7475.759765625,-400000.0625
1.8697822093963623,-400000.0625,-4027.409912109375,2078.300048828125,-400000.0625,-11723.5703125,-400000.0625,7543.27978515625,-400000.0625
1.869786024093628,-400000.0625,-3846.739990234375,2264.070068359375,-400000.0625,-11534.41015625,-400000.0625,7735.68017578125,-400000.0625
1.8697896003723145,-400000.0625,-3827.760009765625,2292.199951171875,-400000.0625,-11501.169921875,-400000.0625,7773.58984375,-400000.0625
1.86979341506958,-400000.0625,-4086.110107421875,2034.239990234375,-400000.0625,-11766.8603515625,-400000.0625,7504.75,-400000.0625
1.8697969913482666,-400000.0625,-4298.740234375,1806.2099609375,-400000.0625,-11994.599609375,-400000.0625,7252.740234375,-400000.0625
1.8698005676269531,-400000.0625,-4217.91015625,1883.6500244140625,-400000.0625,-11913.490234375,-400000.0625,7312.81982421875,-400000.0625
1.8698041439056396,-400000.0625,-4041.389892578125,2073.18994140625,-400000.0625,-11723.8095703125,-400000.0625,7498.06982421875,-400000.0625
timestamp,ch7,ch2,ch3,ch5,is_pause
timestamp,ch7,ch2,ch3,ch5,is_pause
timestamp,ch7,ch2,ch3,ch5,is_pause
timestamp,ch7,ch2,ch3,ch5,is_pause
1.9104511737823486,-400000.0625,-4028.85009765625,2093.510009765625,-400000.0625,-11706.0703125,-400000.0625,7512.759765625,-400000.0625
timestamp,ch7,ch2,ch3,ch5,is_pause
1.9237911701202393,-400000.0625,-4320.240234375,1809.5,-400000.0625,-11995.169921875,-400000.0625,7207.009765625,-400000.0625
1.9291150569915771,-400000.0625,-4587.35986328125,1545.0999755859375,-400000.0625,-12264.1103515625,-400000.0625,6929.64013671875,-400000.0625
timestamp,ch7,ch2,ch3,ch5,is_pause
1.9338819980621338,-400000.0625,-4521.89013671875,1605.219970703125,-400000.0625,-12202.2197265625,-400000.0625,6977.02978515625,-400000.0625
1.9338905811309814,-400000.0625,-4321.6201171875,1813.3199462890625,-400000.0625,-11995.41015625,-400000.0625,7183.35986328125,-400000.0625
1.9338948726654053,-400000.0625,-4272.080078125,1867.489990234375,-400000.0625,-11948.6796875,-400000.0625,7233.0498046875,-400000.0625
1.93389892578125,-400000.0625,-4536.919921875,1603.030029296875,-400000.0625,-12215.1396484375,-400000.0625,6965.4501953125,-400000.0625
1.9339027404785156,-400000.0625,-4783.9599609375,1359.0799560546875,-400000.0625,-12461.0,-400000.0625,6718.16015625,-400000.0625
1.9339063167572021,-400000.0625,-4729.56005859375,1413.77001953125,-400000.0625,-12403.009765625,-400000.0625,6773.18994140625,-400000.0625
1.9339101314544678,-400000.0625,-4542.2998046875,1602.27001953125,-400000.0625,-12211.1796875,-400000.0625,6966.31005859375,-400000.0625
1.9339137077331543,-400000.0625,-4496.0,1642.989990234375,-400000.0625,-12169.7001953125,-400000.0625,7006.5498046875,-400000.0625
1.9339172840118408,-400000.0625,-4768.22998046875,1372.0999755859375,-400000.0625,-12443.0703125,-400000.0625,6736.14013671875,-400000.0625
1.9339208602905273,-400000.0625,-4992.580078125,1148.6500244140625,-400000.0625,-12669.1396484375,-400000.0625,6509.10986328125,-400000.0625
1.933924674987793,-400000.0625,-4872.18017578125,1267.0999755859375,-400000.0625,-12548.259765625,-400000.0625,6622.080078125,-400000.0625
1.9339351654052734,-400000.0625,-4617.06982421875,1518.77001953125,-400000.0625,-12295.5302734375,-400000.0625,6877.759765625,-400000.0625
1.93393874168396,-400000.0625,-4511.5498046875,1622.3900146484375,-400000.0625,-12190.5302734375,-400000.0625,6979.31982421875,-400000.0625
timestamp,ch7,ch2,ch3,ch5,is_pause
1.9447081089019775,-400000.0625,-4715.009765625,1419.739990234375,-400000.0625,-12391.6201171875,-400000.0625,6778.6201171875,-400000.0625
1.9495046138763428,-400000.0625,-4880.7099609375,1249.97998046875,-400000.0625,-12563.5595703125,-400000.0625,6610.43994140625,-400000.0625
1.9495136737823486,-400000.0625,-4709.10009765625,1419.3499755859375,-400000.0625,-12390.849609375,-400000.0625,6781.25,-400000.0625
1.9495182037353516,-400000.0625,-4435.16015625,1693.1500244140625,-400000.0625,-12112.4296875,-400000.0625,7054.22998046875,-400000.0625
1.9495220184326172,-400000.0625,-4347.990234375,1781.27001953125,-400000.0625,-12024.3095703125,-400000.0625,7149.02978515625,-400000.0625
1.9495258331298828,-400000.0625,-4571.2001953125,1555.5899658203125,-400000.0625,-12249.1904296875,-400000.0625,6920.85986328125,-400000.0625
1.9495294094085693,-400000.0625,-4767.27978515625,1355.3599853515625,-400000.0625,-12447.740234375,-400000.0625,6726.7900390625,-400000.0625
1.9495337009429932,-400000.0625,-4615.97021484375,1506.469970703125,-400000.0625,-12299.4404296875,-400000.0625,6880.18994140625,-400000.0625
1.9495375156402588,-400000.0625,-4305.64990234375,1814.989990234375,-400000.0625,-11992.5,-400000.0625,7190.85009765625,-400000.0625
1.9495410919189453,-400000.0625,-4135.56005859375,1981.969970703125,-400000.0625,-11824.1298828125,-400000.0625,7363.22021484375,-400000.0625
1.9495446681976318,-400000.0625,-4252.72021484375,1866.47998046875,-400000.0625,-11943.009765625,-400000.0625,7246.2099609375,-400000.0625
1.9495480060577393,-400000.0625,-4389.81005859375,1726.719970703125,-400000.0625,-12083.9599609375,-400000.0625,7107.4501953125,-400000.0625
1.9495515823364258,-400000.0625,-4293.16015625,1823.18994140625,-400000.0625,-11986.4501953125,-400000.0625,7203.10009765625,-400000.0625
1.9495623111724854,-400000.0625,-4046.110107421875,2071.330078125,-400000.0625,-11736.2001953125,-400000.0625,7456.16015625,-400000.0625
1.9495658874511719,-400000.0625,-3897.52001953125,2218.719970703125,-400000.0625,-11589.3896484375,-400000.0625,7607.27001953125,-400000.0625
1.9495694637298584,-400000.0625,-4056.550048828125,2057.699951171875,-400000.0625,-11754.66015625,-400000.0625,7447.6298828125,-400000.0625
timestamp,ch7,ch2,ch3,ch5,is_pause
timestamp,ch7,ch2,ch3,ch5,is_pause
timestamp,ch7,ch2,ch3,ch5,is_pause
timestamp,ch7,ch2,ch3,ch5,is_pause
timestamp,ch7,ch2,ch3,ch5,is_pause
2.010213613510132,-400000.0625,-4257.97021484375,1856.9000244140625,-400000.0625,-11956.8798828125,-400000.0625,7245.02001953125,-400000.0625
timestamp,ch7,ch2,ch3,ch5,is_pause
2.01682710647583,-400000.0625,-4120.06005859375,1993.1300048828125,-400000.0625,-11822.83984375,-400000.0625,7384.58984375,-400000.0625
timestamp,ch7,ch2,ch3,ch5,is_pause
2.0267210006713867,-400000.0625,-3819.800048828125,2287.010009765625,-400000.0625,-11524.3896484375,-400000.0625,7687.47021484375,-400000.0625
2.031968355178833,-400000.0625,-3727.8701171875,2380.3701171875,-400000.0625,-11427.2099609375,-400000.0625,7786.22998046875,-400000.0625
2.0360074043273926,-400000.0625,-3950.449951171875,2160.5,-400000.0625,-11648.4697265625,-400000.0625,7566.41015625,-400000.0625
2.036015748977661,-400000.0625,-4108.240234375,1997.0400390625,-400000.0625,-11813.259765625,-400000.0625,7396.89013671875,-400000.0625
2.036020040512085,-400000.0625,-3893.89990234375,2207.7099609375,-400000.0625,-11603.7900390625,-400000.0625,7612.08984375,-400000.0625
2.036025047302246,-400000.0625,-3522.72998046875,2581.219970703125,-400000.0625,-11230.759765625,-400000.0625,7984.93017578125,-400000.0625
2.0360288619995117,-400000.0625,-3308.9599609375,2793.5,-400000.0625,-11016.4697265625,-400000.0625,8201.5,-400000.0625
2.0360324382781982,-400000.0625,-3448.199951171875,2650.449951171875,-400000.0625,-11158.3701171875,-400000.0625,8057.39990234375,-400000.0625
2.036044120788574,-400000.0625,-3616.139892578125,2482.080078125,-400000.0625,-11327.3603515625,-400000.0625,7890.27001953125,-400000.0625
2.0360498428344727,-400000.0625,-3536.840087890625,2560.0,-400000.0625,-11248.6904296875,-400000.0625,7963.08984375,-400000.0625
2.0360536575317383,-400000.0625,-3442.139892578125,2651.8798828125,-400000.0625,-11150.26953125,-400000.0625,8061.35986328125,-400000.0625
2.0360569953918457,-400000.0625,-3487.43994140625,2605.6298828125,-400000.0625,-11194.5595703125,-400000.0625,8019.5,-400000.0625
2.0360605716705322,-400000.0625,-3815.64990234375,2275.989990234375,-400000.0625,-11523.9599609375,-400000.0625,7685.85009765625,-400000.0625
2.036067247390747,-400000.0625,-4135.7001953125,1954.510009765625,-400000.0625,-11842.6298828125,-400000.0625,7362.56005859375,-400000.0625
timestamp,ch7,ch2,ch3,ch5,is_pause
timestamp,ch7,ch2,ch3,ch5,is_pause
timestamp,ch7,ch2,ch3,ch5,is_pause
timestamp,ch7,ch2,ch3,ch5,is_pause
2.076037883758545,-400000.0625,-4140.3798828125,1952.4599609375,-400000.0625,-11844.2099609375,-400000.0625,7362.41015625,-400000.0625
2.081393241882324,-400000.0625,-3982.5,2108.14990234375,-400000.0625,-11685.1796875,-400000.0625,7517.6201171875,-400000.0625
2.085728883743286,-400000.0625,-3960.56005859375,2127.030029296875,-400000.0625,-11662.7197265625,-400000.0625,7538.60986328125,-400000.0625
2.0857365131378174,-400000.0625,-4236.1298828125,1854.1800537109375,-400000.0625,-11936.08984375,-400000.0625,7267.56982421875,-400000.0625
2.085740804672241,-400000.0625,-4471.8701171875,1617.3800048828125,-400000.0625,-12173.3701171875,-400000.0625,7025.39013671875,-400000.0625
2.085744619369507,-400000.0625,-4387.6201171875,1700.1199951171875,-400000.0625,-12089.16015625,-400000.0625,7109.5,-400000.0625
2.0857486724853516,-400000.0625,-4181.72021484375,1908.5400390625,-400000.0625,-11879.490234375,-400000.0625,7322.60009765625,-400000.0625
2.085752010345459,-400000.0625,-4126.1201171875,1962.3800048828125,-400000.0625,-11826.23046875,-400000.0625,7374.669921875,-400000.0625
2.0857620239257812,-400000.0625,-4376.22021484375,1710.800048828125,-400000.0625,-12077.8095703125,-400000.0625,7123.52001953125,-400000.0625
2.085765838623047,-400000.0625,-4602.85986328125,1486.300048828125,-400000.0625,-12304.5498046875,-400000.0625,6899.830078125,-400000.0625
2.0857691764831543,-400000.0625,-4502.919921875,1584.77001953125,-400000.0625,-12206.3203125,-400000.0625,6997.58984375,-400000.0625
2.085772752761841,-400000.0625,-4262.919921875,1822.1400146484375,-400000.0625,-11965.1298828125,-400000.0625,7237.52978515625,-400000.0625
2.0857765674591064,-400000.0625,-4170.509765625,1913.449951171875,-400000.0625,-11870.91015625,-400000.0625,7329.7001953125,-400000.0625
2.085780143737793,-400000.0625,-4376.1298828125,1707.5999755859375,-400000.0625,-12077.3798828125,-400000.0625,7121.3701171875,-400000.0625
2.0857837200164795,-400000.0625,-4548.259765625,1533.4599609375,-400000.0625,-12255.48046875,-400000.0625,6945.27978515625,-400000.0625
2.085787296295166,-400000.0625,-4400.2099609375,1678.8499755859375,-400000.0625,-12108.759765625,-400000.0625,7095.14990234375,-400000.0625
timestamp,ch7,ch2,ch3,ch5,is_pause
timestamp,ch7,ch2,ch3,ch5,is_pause
timestamp,ch7,ch2,ch3,ch5,is_pause
timestamp,ch7,ch2,ch3,ch5,is_pause
timestamp,ch7,ch2,ch3,ch5,is_pause
timestamp,ch7,ch2,ch3,ch5,is_pause
timestamp,ch7,ch2,ch3,ch5,is_pause
timestamp,ch7,ch2,ch3,ch5,is_pause
2.176189422607422,-400000.0625,-4121.16015625,1954.4599609375,-400000.0625,-11828.08984375,-400000.0625,7377.10009765625,-400000.0625
timestamp,ch7,ch2,ch3,ch5,is_pause
2.1877167224884033,-400000.0625,-3986.219970703125,2087.31005859375,-400000.0625,-11695.4296875,-400000.0625,7514.85986328125,-400000.0625
timestamp,ch7,ch2,ch3,ch5,is_pause
2.193502902984619,-400000.0625,-4144.6201171875,1930.1400146484375,-400000.0625,-11853.7001953125,-400000.0625,7357.31005859375,-400000.0625
2.1986947059631348,-400000.0625,-4280.27978515625,1796.25,-400000.0625,-11988.5,-400000.0625,7224.18017578125,-400000.0625
2.202894449234009,-400000.0625,-4120.5400390625,1955.75,-400000.0625,-11828.6103515625,-400000.0625,7380.2998046875,-400000.0625
2.2029013633728027,-400000.0625,-3870.06005859375,2204.93994140625,-400000.0625,-11575.5595703125,-400000.0625,7630.490234375,-400000.0625
2.2029056549072266,-400000.0625,-3777.7900390625,2296.8798828125,-400000.0625,-11480.8603515625,-400000.0625,7729.72021484375,-400000.0625
2.2029099464416504,-400000.0625,-3998.85009765625,2072.530029296875,-400000.0625,-11703.1103515625,-400000.0625,7502.75,-400000.0625
2.202913761138916,-400000.0625,-4211.81005859375,1860.3800048828125,-400000.0625,-11916.830078125,-400000.0625,7285.7900390625,-400000.0625
2.2029175758361816,-400000.0625,-4122.02001953125,1951.97998046875,-400000.0625,-11825.0400390625,-400000.0625,7380.06005859375,-400000.0625
2.202921152114868,-400000.0625,-3917.889892578125,2154.72998046875,-400000.0625,-11618.0,-400000.0625,7584.43017578125,-400000.0625
2.2029247283935547,-400000.0625,-3878.780029296875,2193.360107421875,-400000.0625,-11577.6103515625,-400000.0625,7616.56982421875,-400000.0625
2.202928304672241,-400000.0625,-4167.31982421875,1907.489990234375,-400000.0625,-11866.1396484375,-400000.0625,7332.7099609375,-400000.0625
2.202932119369507,-400000.0625,-4456.47021484375,1619.8599853515625,-400000.0625,-12153.099609375,-400000.0625,7043.64990234375,-400000.0625
2.2029361724853516,-400000.0625,-4441.97998046875,1630.6400146484375,-400000.0625,-12138.75,-400000.0625,7056.81005859375,-400000.0625
2.202939748764038,-400000.0625,-4303.41015625,1768.5400390625,-400000.0625,-11997.6103515625,-400000.0625,7207.10986328125,-400000.0625
2.2029433250427246,-400000.0625,-4306.75,1764.25,-400000.0625,-12000.1796875,-400000.0625,7206.06005859375,-400000.0625
2.2029480934143066,-400000.0625,-4591.509765625,1480.719970703125,-400000.0625,-12286.9501953125,-400000.0625,6920.0,-400000.0625
2.2029519081115723,-400000.0625,-4838.18017578125,1235.9599609375,-400000.0625,-12534.099609375,-400000.0625,6673.0498046875,-400000.0625
2.2029619216918945,-400000.0625,-4757.35986328125,1317.219970703125,-400000.0625,-12451.83984375,-400000.0625,6746.2001953125,-400000.0625
2.20296573638916,-400000.0625,-4538.97021484375,1533.7900390625,-400000.0625,-12230.6396484375,-400000.0625,6966.97021484375,-400000.0625
2.2029690742492676,-400000.0625,-4455.3798828125,1616.18994140625,-400000.0625,-12147.1396484375,-400000.0625,7049.18017578125,-400000.0625
2.202972650527954,-400000.0625,-4650.16015625,1421.1199951171875,-400000.0625,-12344.9296875,-400000.0625,6853.14990234375,-400000.0625
2.2029762268066406,-400000.0625,-4819.009765625,1253.989990234375,-400000.0625,-12513.58984375,-400000.0625,6683.64013671875,-400000.0625
2.202979803085327,-400000.0625,-4677.8701171875,1393.800048828125,-400000.0625,-12369.5400390625,-400000.0625,6831.5498046875,-400000.0625
2.2029833793640137,-400000.0625,-4424.91015625,1647.6199951171875,-400000.0625,-12111.6201171875,-400000.0625,7086.330078125,-400000.0625
2.202986717224121,-400000.0625,-4329.97021484375,1741.27001953125,-400000.0625,-12018.1103515625,-400000.0625,7179.58984375,-400000.0625
2.2029902935028076,-400000.0625,-4540.6298828125,1529.739990234375,-400000.0625,-12229.830078125,-400000.0625,6968.7900390625,-400000.0625
2.202993631362915,-400000.0625,-4740.18994140625,1329.280029296875,-400000.0625,-12428.240234375,-400000.0625,6768.66015625,-400000.0625
2.2029972076416016,-400000.0625,-4643.5400390625,1427.3199462890625,-400000.0625,-12328.48046875,-400000.0625,6863.02001953125,-400000.0625
2.203000545501709,-400000.0625,-4426.91015625,1641.699951171875,-400000.0625,-12110.9501953125,-400000.0625,7078.5498046875,-400000.0625
2.2030041217803955,-400000.0625,-4364.919921875,1702.5,-400000.0625,-12047.009765625,-400000.0625,7142.64013671875,-400000.0625
timestamp,ch7,ch2,ch3,ch5,is_pause
timestamp,ch7,ch2,ch3,ch5,is_pause
timestamp,ch7,ch2,ch3,ch5,is_pause
timestamp,ch7,ch2,ch3,ch5,is_pause
timestamp,ch7,ch2,ch3,ch5,is_pause
timestamp,ch7,ch2,ch3,ch5,is_pause
timestamp,ch7,ch2,ch3,ch5,is_pause
timestamp,ch7,ch2,ch3,ch5,is_pause
timestamp,ch7,ch2,ch3,ch5,is_pause
2.301358938217163,-400000.0625,-4599.6201171875,1471.18994140625,-400000.0625,-12278.7998046875,-400000.0625,6908.93994140625,-400000.0625
timestamp,ch7,ch2,ch3,ch5,is_pause
2.3125734329223633,-400000.0625,-4795.1201171875,1275.72998046875,-400000.0625,-12477.400390625,-400000.0625,6713.10986328125,-400000.0625
2.3176472187042236,-400000.0625,-4675.669921875,1394.93994140625,-400000.0625,-12358.7099609375,-400000.0625,6836.56005859375,-400000.0625
2.3219518661499023,-400000.0625,-4439.8798828125,1630.1199951171875,-400000.0625,-12117.33984375,-400000.0625,7072.39990234375,-400000.0625
2.321960210800171,-400000.0625,-4349.22998046875,1724.050048828125,-400000.0625,-12024.4501953125,-400000.0625,7164.9599609375,-400000.0625
2.3219642639160156,-400000.0625,-4547.169921875,1526.260009765625,-400000.0625,-12225.4404296875,-400000.0625,6966.5,-400000.0625
2.3219683170318604,-400000.0625,-4720.16015625,1352.449951171875,-400000.0625,-12398.76953125,-400000.0625,6797.35986328125,-400000.0625
2.321972131729126,-400000.0625,-4579.64013671875,1490.969970703125,-400000.0625,-12259.25,-400000.0625,6935.169921875,-400000.0625
2.3219757080078125,-400000.0625,-4325.490234375,1742.1199951171875,-400000.0625,-12001.1298828125,-400000.0625,7190.7998046875,-400000.0625
2.321979284286499,-400000.0625,-4227.58984375,1838.260009765625,-400000.0625,-11903.8603515625,-400000.0625,7283.97021484375,-400000.0625
2.3219826221466064,-400000.0625,-4427.6201171875,1636.030029296875,-400000.0625,-12108.4697265625,-400000.0625,7085.60986328125,-400000.0625
2.321988582611084,-400000.0625,-4605.47998046875,1457.0699462890625,-400000.0625,-12290.3798828125,-400000.0625,6897.4501953125,-400000.0625
2.3219919204711914,-400000.0625,-4485.3701171875,1580.3800048828125,-400000.0625,-12165.599609375,-400000.0625,7021.81005859375,-400000.0625
2.321995496749878,-400000.0625,-4247.27978515625,1817.0400390625,-400000.0625,-11926.41015625,-400000.0625,7266.759765625,-400000.0625
2.322000026702881,-400000.0625,-4164.080078125,1899.719970703125,-400000.0625,-11843.5400390625,-400000.0625,7350.830078125,-400000.0625
2.3220036029815674,-400000.0625,-4382.22998046875,1684.0,-400000.0625,-12061.7900390625,-400000.0625,7129.72021484375,-400000.0625
timestamp,ch7,ch2,ch3,ch5,is_pause
2.3262853622436523,-400000.0625,-4582.68994140625,1483.43994140625,-400000.0625,-12262.5400390625,-400000.0625,6924.81982421875,-400000.0625
2.3311033248901367,-400000.0625,-4477.4501953125,1586.6300048828125,-400000.0625,-12157.73046875,-400000.0625,7029.10986328125,-400000.0625
2.3311119079589844,-400000.0625,-4254.52978515625,1808.97998046875,-400000.0625,-11934.330078125,-400000.0625,7251.7900390625,-400000.0625
2.331116199493408,-400000.0625,-4188.68017578125,1872.2099609375,-400000.0625,-11867.9501953125,-400000.0625,7322.1201171875,-400000.0625
2.331120014190674,-400000.0625,-4420.7099609375,1640.27001953125,-400000.0625,-12100.0302734375,-400000.0625,7091.89990234375,-400000.0625
2.3311238288879395,-400000.0625,-4615.31005859375,1441.3399658203125,-400000.0625,-12300.01953125,-400000.0625,6887.81982421875,-400000.0625
2.331127405166626,-400000.0625,-4501.68017578125,1557.1099853515625,-400000.0625,-12185.6201171875,-400000.0625,7003.830078125,-400000.0625
2.3311309814453125,-400000.0625,-4257.8701171875,1799.3900146484375,-400000.0625,-11937.330078125,-400000.0625,7252.06982421875,-400000.0625
2.331134557723999,-400000.0625,-4156.8798828125,1897.760009765625,-400000.0625,-11839.1103515625,-400000.0625,7348.2998046875,-400000.0625
2.3311381340026855,-400000.0625,-4377.75,1679.6600341796875,-400000.0625,-12058.1201171875,-400000.0625,7132.33984375,-400000.0625
2.331150770187378,-400000.0625,-4596.330078125,1465.27001953125,-400000.0625,-12271.5498046875,-400000.0625,6917.43017578125,-400000.0625
2.3311545848846436,-400000.0625,-4510.740234375,1550.0999755859375,-400000.0625,-12182.8095703125,-400000.0625,6993.2001953125,-400000.0625
2.3311614990234375,-400000.0625,-4303.97998046875,1755.8599853515625,-400000.0625,-11973.330078125,-400000.0625,7205.580078125,-400000.0625
2.331165075302124,-400000.0625,-4244.0400390625,1816.510009765625,-400000.0625,-11910.0595703125,-400000.0625,7279.919921875,-400000.0625
2.3311686515808105,-400000.0625,-4476.02001953125,1583.5799560546875,-400000.0625,-12145.66015625,-400000.0625,7044.31982421875,-400000.0625
2.331172227859497,-400000.0625,-4680.919921875,1377.3900146484375,-400000.0625,-12350.0400390625,-400000.0625,6836.1298828125,-400000.0625
timestamp,ch7,ch2,ch3,ch5,is_pause
timestamp,ch7,ch2,ch3,ch5,is_pause
timestamp,ch7,ch2,ch3,ch5,is_pause
timestamp,ch7,ch2,ch3,ch5,is_pause
timestamp,ch7,ch2,ch3,ch5,is_pause
timestamp,ch7,ch2,ch3,ch5,is_pause
timestamp,ch7,ch2,ch3,ch5,is_pause
timestamp,ch7,ch2,ch3,ch5,is_pause
2.426198959350586,-400000.0625,-4619.60009765625,1439.760009765625,-400000.0625,-12285.759765625,-400000.0625,6896.5400390625,-400000.0625
timestamp,ch7,ch2,ch3,ch5,is_pause
2.4382026195526123,-400000.0625,-4435.39990234375,1622.0999755859375,-400000.0625,-12103.3701171875,-400000.0625,7082.990234375,-400000.0625
2.4430620670318604,-400000.0625,-4362.81982421875,1692.9599609375,-400000.0625,-12028.41015625,-400000.0625,7156.990234375,-400000.0625
2.4430723190307617,-400000.0625,-4507.830078125,1549.010009765625,-400000.0625,-12174.1796875,-400000.0625,7006.60009765625,-400000.0625
timestamp,ch7,ch2,ch3,ch5,is_pause
2.443523406982422,-400000.0625,-4580.830078125,1475.8599853515625,-400000.0625,-12249.5703125,-400000.0625,6936.64990234375,-400000.0625
2.449035882949829,-400000.0625,-4403.5400390625,1652.0,-400000.0625,-12068.1298828125,-400000.0625,7117.75,-400000.0625
2.45320987701416,-400000.0625,-4121.58984375,1932.719970703125,-400000.0625,-11784.7001953125,-400000.0625,7404.9501953125,-400000.0625
2.4532177448272705,-400000.0625,-4005.239990234375,2048.06005859375,-400000.0625,-11671.5,-400000.0625,7523.919921875,-400000.0625
2.4532220363616943,-400000.0625,-4166.7001953125,1886.6500244140625,-400000.0625,-11835.0498046875,-400000.0625,7368.52001953125,-400000.0625
2.453234910964966,-400000.0625,-4351.08984375,1700.260009765625,-400000.0625,-12020.2998046875,-400000.0625,7177.5400390625,-400000.0625
2.4532389640808105,-400000.0625,-4281.9501953125,1768.4000244140625,-400000.0625,-11952.7802734375,-400000.0625,7241.39013671875,-400000.0625
2.453242540359497,-400000.0625,-4082.5400390625,1965.3299560546875,-400000.0625,-11752.75,-400000.0625,7451.490234375,-400000.0625
2.4532461166381836,-400000.0625,-3981.72998046875,2065.22998046875,-400000.0625,-11651.849609375,-400000.0625,7556.8701171875,-400000.0625
2.45324969291687,-400000.0625,-4130.22021484375,1915.8399658203125,-400000.0625,-11804.580078125,-400000.0625,7400.22998046875,-400000.0625
2.453253984451294,-400000.0625,-4240.080078125,1806.9300537109375,-400000.0625,-11918.5,-400000.0625,7283.2099609375,-400000.0625
2.4532575607299805,-400000.0625,-4060.60009765625,1986.68994140625,-400000.0625,-11736.8701171875,-400000.0625,7464.22021484375,-400000.0625
timestamp,ch7,ch2,ch3,ch5,is_pause
2.4616830348968506,-400000.0625,-3777.080078125,2268.1201171875,-400000.0625,-11450.099609375,-400000.0625,7750.89013671875,-400000.0625
timestamp,ch7,ch2,ch3,ch5,is_pause
2.4677984714508057,-400000.0625,-3656.820068359375,2387.52001953125,-400000.0625,-11331.75,-400000.0625,7877.8798828125,-400000.0625
2.4723284244537354,-400000.0625,-3841.449951171875,2200.7900390625,-400000.0625,-11520.48046875,-400000.0625,7686.759765625,-400000.0625
2.4723360538482666,-400000.0625,-4035.090087890625,2005.050048828125,-400000.0625,-11716.3203125,-400000.0625,7488.919921875,-400000.0625
2.4723401069641113,-400000.0625,-3935.14990234375,2105.0,-400000.0625,-11614.7099609375,-400000.0625,7590.91015625,-400000.0625
2.472343921661377,-400000.0625,-3725.429931640625,2310.93994140625,-400000.0625,-11404.7099609375,-400000.0625,7798.669921875,-400000.0625
2.4723477363586426,-400000.0625,-3664.35009765625,2372.550048828125,-400000.0625,-11340.7099609375,-400000.0625,7864.2900390625,-400000.0625
2.472357749938965,-400000.0625,-3891.090087890625,2144.77001953125,-400000.0625,-11566.9296875,-400000.0625,7640.93017578125,-400000.0625
2.4723615646362305,-400000.0625,-4096.83984375,1940.6800537109375,-400000.0625,-11772.0595703125,-400000.0625,7436.18017578125,-400000.0625
2.472365379333496,-400000.0625,-4009.2900390625,2027.3699951171875,-400000.0625,-11686.849609375,-400000.0625,7519.43994140625,-400000.0625
2.4723689556121826,-400000.0625,-3822.52001953125,2213.909912109375,-400000.0625,-11496.740234375,-400000.0625,7706.2099609375,-400000.0625
2.472372531890869,-400000.0625,-3790.89990234375,2244.139892578125,-400000.0625,-11466.7900390625,-400000.0625,7745.7900390625,-400000.0625
2.4723761081695557,-400000.0625,-4055.31005859375,1982.5,-400000.0625,-11731.7197265625,-400000.0625,7481.72021484375,-400000.0625
2.4723799228668213,-400000.0625,-4299.97021484375,1738.6400146484375,-400000.0625,-11976.099609375,-400000.0625,7239.68017578125,-400000.0625
2.472383499145508,-400000.0625,-4246.81005859375,1790.7099609375,-400000.0625,-11922.650390625,-400000.0625,7293.85009765625,-400000.0625
2.4723873138427734,-400000.0625,-4104.419921875,1932.760009765625,-400000.0625,-11778.400390625,-400000.0625,7433.22021484375,-400000.0625
timestamp,ch7,ch2,ch3,ch5,is_pause
timestamp,ch7,ch2,ch3,ch5,is_pause
timestamp,ch7,ch2,ch3,ch5,is_pause
timestamp,ch7,ch2,ch3,ch5,is_pause
2.515089750289917,-400000.0625,-4156.919921875,1881.550048828125,-400000.0625,-11826.330078125,-400000.0625,7377.43017578125,-400000.0625
2.519944429397583,-400000.0625,-4523.52001953125,1515.6700439453125,-400000.0625,-12196.2099609375,-400000.0625,6996.35009765625,-400000.0625
2.5199544429779053,-400000.0625,-4864.740234375,1172.1099853515625,-400000.0625,-12540.33984375,-400000.0625,6667.22998046875,-400000.0625
2.519958972930908,-400000.0625,-4929.5400390625,1104.9300537109375,-400000.0625,-12604.330078125,-400000.0625,6602.240234375,-400000.0625
2.5199637413024902,-400000.0625,-4855.97021484375,1179.7900390625,-400000.0625,-12524.080078125,-400000.0625,6677.43994140625,-400000.0625
2.5199673175811768,-400000.0625,-4883.47998046875,1151.75,-400000.0625,-12550.5,-400000.0625,6648.72998046875,-400000.0625
2.5199708938598633,-400000.0625,-5161.81005859375,876.6199951171875,-400000.0625,-12826.16015625,-400000.0625,6371.06982421875,-400000.0625
2.5199742317199707,-400000.0625,-5361.22021484375,677.5399780273438,-400000.0625,-13025.51953125,-400000.0625,6166.27001953125,-400000.0625
2.5200111865997314,-400000.0625,-5216.93017578125,817.010009765625,-400000.0625,-12886.3798828125,-400000.0625,6310.18017578125,-400000.0625
2.520015001296997,-400000.0625,-4926.25,1105.9300537109375,-400000.0625,-12593.4599609375,-400000.0625,6605.240234375,-400000.0625
2.5200185775756836,-400000.0625,-4681.490234375,1350.260009765625,-400000.0625,-12348.41015625,-400000.0625,6847.3798828125,-400000.0625
2.520022392272949,-400000.0625,-4661.0400390625,1369.4300537109375,-400000.0625,-12330.490234375,-400000.0625,6862.16015625,-400000.0625
2.5200259685516357,-400000.0625,-4520.22998046875,1507.469970703125,-400000.0625,-12191.5400390625,-400000.0625,7007.02978515625,-400000.0625
2.5200307369232178,-400000.0625,-4002.949951171875,2024.3599853515625,-400000.0625,-11673.01953125,-400000.0625,7529.259765625,-400000.0625
2.5200343132019043,-400000.0625,-3454.68994140625,2570.77001953125,-400000.0625,-11125.2802734375,-400000.0625,8073.14013671875,-400000.0625
2.520037889480591,-400000.0625,-3142.360107421875,2882.9599609375,-400000.0625,-10812.1396484375,-400000.0625,8386.7998046875,-400000.0625
timestamp,ch7,ch2,ch3,ch5,is_pause
timestamp,ch7,ch2,ch3,ch5,is_pause
timestamp,ch7,ch2,ch3,ch5,is_pause
timestamp,ch7,ch2,ch3,ch5,is_pause
timestamp,ch7,ch2,ch3,ch5,is_pause
timestamp,ch7,ch2,ch3,ch5,is_pause
timestamp,ch7,ch2,ch3,ch5,is_pause
timestamp,ch7,ch2,ch3,ch5,is_pause
2.6092889308929443,-400000.0625,-3224.800048828125,2800.699951171875,-400000.0625,-10894.16015625,-400000.0625,8295.6796875,-400000.0625
2.619274854660034,-400000.0625,-3661.8701171875,2363.300048828125,-400000.0625,-11327.080078125,-400000.0625,7862.0400390625,-400000.0625
timestamp,ch7,ch2,ch3,ch5,is_pause
2.6246848106384277,-400000.0625,-4018.1201171875,2006.6300048828125,-400000.0625,-11680.9404296875,-400000.0625,7494.58984375,-400000.0625
2.6293389797210693,-400000.0625,-4115.919921875,1908.6800537109375,-400000.0625,-11772.73046875,-400000.0625,7397.41015625,-400000.0625
2.6293485164642334,-400000.0625,-4142.0498046875,1882.9300537109375,-400000.0625,-11796.7099609375,-400000.0625,7381.009765625,-400000.0625
2.6293554306030273,-400000.0625,-4705.52978515625,1318.7900390625,-400000.0625,-12359.6201171875,-400000.0625,6813.47998046875,-400000.0625
2.629359483718872,-400000.0625,-5509.52001953125,517.27001953125,-400000.0625,-13160.849609375,-400000.0625,6004.2900390625,-400000.0625
2.6293630599975586,-400000.0625,-5986.2099609375,39.90999984741211,-400000.0625,-13633.7802734375,-400000.0625,5530.7900390625,-400000.0625
2.629366874694824,-400000.0625,-6280.759765625,-254.9199981689453,-400000.0625,-13923.5,-400000.0625,5238.68017578125,-400000.0625
2.6293704509735107,-400000.0625,-6553.83984375,-529.530029296875,-400000.0625,-14195.490234375,-400000.0625,4966.16015625,-400000.0625
2.6293740272521973,-400000.0625,-6512.1201171875,-486.6099853515625,-400000.0625,-14162.349609375,-400000.0625,5001.1201171875,-400000.0625
2.629377603530884,-400000.0625,-6135.56005859375,-110.4800033569336,-400000.0625,-13791.849609375,-400000.0625,5386.5,-400000.0625
2.6293811798095703,-400000.0625,-5995.93994140625,28.18000030517578,-400000.0625,-13646.080078125,-400000.0625,5538.89013671875,-400000.0625
2.629384756088257,-400000.0625,-5914.1201171875,104.05000305175781,-400000.0625,-13568.740234375,-400000.0625,5610.60986328125,-400000.0625
2.6293888092041016,-400000.0625,-5960.89013671875,54.880001068115234,-400000.0625,-13617.330078125,-400000.0625,5561.35009765625,-400000.0625
2.629392623901367,-400000.0625,-6297.5400390625,-280.80999755859375,-400000.0625,-13952.5400390625,-400000.0625,5227.0400390625,-400000.0625
timestamp,ch7,ch2,ch3,ch5,is_pause
timestamp,ch7,ch2,ch3,ch5,is_pause
timestamp,ch7,ch2,ch3,ch5,is_pause
timestamp,ch7,ch2,ch3,ch5,is_pause
2.6752376556396484,-400000.0625,-6486.85009765625,-469.1099853515625,-400000.0625,-14143.7099609375,-400000.0625,5043.080078125,-400000.0625
timestamp,ch7,ch2,ch3,ch5,is_pause
2.682067632675171,-400000.0625,-6313.85009765625,-295.3999938964844,-400000.0625,-13969.419921875,-400000.0625,5215.68994140625,-400000.0625
2.686492681503296,-400000.0625,-5985.31005859375,33.86000061035156,-400000.0625,-13635.5400390625,-400000.0625,5547.43017578125,-400000.0625
2.6865007877349854,-400000.0625,-5841.830078125,174.47000122070312,-400000.0625,-13495.73046875,-400000.0625,5694.81982421875,-400000.0625
2.686505079269409,-400000.0625,-6035.759765625,-20.84000015258789,-400000.0625,-13691.240234375,-400000.0625,5490.97021484375,-400000.0625
2.686509132385254,-400000.0625,-6230.5498046875,-216.9600067138672,-400000.0625,-13890.169921875,-400000.0625,5294.7099609375,-400000.0625
2.6865129470825195,-400000.0625,-6135.56005859375,-123.79000091552734,-400000.0625,-13800.1904296875,-400000.0625,5399.990234375,-400000.0625
2.686516761779785,-400000.0625,-5940.2001953125,69.37999725341797,-400000.0625,-13604.2099609375,-400000.0625,5583.240234375,-400000.0625
2.6865203380584717,-400000.0625,-5911.8798828125,94.55999755859375,-400000.0625,-13576.1298828125,-400000.0625,5599.58984375,-400000.0625
2.6865241527557373,-400000.0625,-6180.56982421875,-172.6199951171875,-400000.0625,-13844.4404296875,-400000.0625,5347.43994140625,-400000.0625
2.686527729034424,-400000.0625,-6413.83984375,-407.7900085449219,-400000.0625,-14080.8095703125,-400000.0625,5106.31005859375,-400000.0625
2.6865313053131104,-400000.0625,-6314.7998046875,-309.6600036621094,-400000.0625,-13980.099609375,-400000.0625,5210.5,-400000.0625
2.686535120010376,-400000.0625,-6075.33984375,-75.29000091552734,-400000.0625,-13743.740234375,-400000.0625,5447.14990234375,-400000.0625
2.6865386962890625,-400000.0625,-6027.3701171875,-26.079999923706055,-400000.0625,-13693.9501953125,-400000.0625,5488.8701171875,-400000.0625
2.686551094055176,-400000.0625,-6326.2900390625,-321.1000061035156,-400000.0625,-13993.4599609375,-400000.0625,5196.47998046875,-400000.0625
2.6865551471710205,-400000.0625,-6601.52978515625,-598.0999755859375,-400000.0625,-14269.9296875,-400000.0625,4923.77001953125,-400000.0625
timestamp,ch7,ch2,ch3,ch5,is_pause
timestamp,ch7,ch2,ch3,ch5,is_pause
timestamp,ch7,ch2,ch3,ch5,is_pause
2.719024896621704,-400000.0625,-6524.60986328125,-526.9500122070312,-400000.0625,-14197.4501953125,-400000.0625,4999.06982421875,-400000.0625
timestamp,ch7,ch2,ch3,ch5,is_pause
2.730170965194702,-400000.0625,-6298.39990234375,-301.8900146484375,-400000.0625,-13971.0400390625,-400000.0625,5227.60986328125,-400000.0625
2.7350032329559326,-400000.0625,-6205.85009765625,-208.22999572753906,-400000.0625,-13877.9697265625,-400000.0625,5316.2099609375,-400000.0625
2.7350125312805176,-400000.0625,-6394.9599609375,-392.5799865722656,-400000.0625,-14066.9404296875,-400000.0625,5132.14990234375,-400000.0625
2.7350168228149414,-400000.0625,-6546.5,-544.5,-400000.0625,-14220.759765625,-400000.0625,4981.14013671875,-400000.0625
2.735020637512207,-400000.0625,-6400.2001953125,-400.5899963378906,-400000.0625,-14074.9501953125,-400000.0625,5126.10009765625,-400000.0625
2.7350246906280518,-400000.0625,-6147.43017578125,-151.00999450683594,-400000.0625,-13822.3203125,-400000.0625,5385.10986328125,-400000.0625
2.7350285053253174,-400000.0625,-6068.990234375,-73.95999908447266,-400000.0625,-13744.5,-400000.0625,5469.31982421875,-400000.0625
2.7350316047668457,-400000.0625,-6269.7900390625,-276.6099853515625,-400000.0625,-13946.6298828125,-400000.0625,5265.669921875,-400000.0625
2.7350351810455322,-400000.0625,-6393.10009765625,-399.45001220703125,-400000.0625,-14073.1796875,-400000.0625,5128.0,-400000.0625
2.735038995742798,-400000.0625,-6149.47998046875,-156.92999267578125,-400000.0625,-13831.1904296875,-400000.0625,5380.009765625,-400000.0625
2.7350518703460693,-400000.0625,-5763.009765625,231.1699981689453,-400000.0625,-13441.5595703125,-400000.0625,5773.68994140625,-400000.0625
2.735055446624756,-400000.0625,-5526.16015625,468.5400085449219,-400000.0625,-13203.5703125,-400000.0625,6010.009765625,-400000.0625
2.7350590229034424,-400000.0625,-5555.25,438.1700134277344,-400000.0625,-13232.759765625,-400000.0625,5981.10986328125,-400000.0625
2.735062837600708,-400000.0625,-5533.89013671875,461.4800109863281,-400000.0625,-13212.25,-400000.0625,6002.81005859375,-400000.0625
2.7350668907165527,-400000.0625,-5216.7900390625,774.9600219726562,-400000.0625,-12898.5400390625,-400000.0625,6318.6201171875,-400000.0625
timestamp,ch7,ch2,ch3,ch5,is_pause
timestamp,ch7,ch2,ch3,ch5,is_pause
timestamp,ch7,ch2,ch3,ch5,is_pause
timestamp,ch7,ch2,ch3,ch5,is_pause
2.776583433151245,-400000.0625,-4806.419921875,1186.56005859375,-400000.0625,-12481.259765625,-400000.0625,6726.31005859375,-400000.0625
2.7821567058563232,-400000.0625,-4561.66015625,1434.989990234375,-400000.0625,-12231.259765625,-400000.0625,6978.7998046875,-400000.0625
timestamp,ch7,ch2,ch3,ch5,is_pause
2.7869303226470947,-400000.0625,-4659.75,1336.0999755859375,-400000.0625,-12333.73046875,-400000.0625,6883.77001953125,-400000.0625
2.786938190460205,-400000.0625,-4831.83984375,1162.0,-400000.0625,-12510.16015625,-400000.0625,6708.10009765625,-400000.0625
2.786942720413208,-400000.0625,-4755.740234375,1237.3399658203125,-400000.0625,-12431.91015625,-400000.0625,6784.6298828125,-400000.0625
2.7869465351104736,-400000.0625,-4606.580078125,1384.2099609375,-400000.0625,-12277.4599609375,-400000.0625,6939.169921875,-400000.0625
2.7869503498077393,-400000.0625,-4623.41015625,1365.7099609375,-400000.0625,-12289.2900390625,-400000.0625,6919.85986328125,-400000.0625
2.786953926086426,-400000.0625,-4955.009765625,1035.739990234375,-400000.0625,-12618.16015625,-400000.0625,6588.31982421875,-400000.0625
2.7869575023651123,-400000.0625,-5428.93017578125,562.4299926757812,-400000.0625,-13092.4697265625,-400000.0625,6103.990234375,-400000.0625
2.7869651317596436,-400000.0625,-5679.1298828125,313.7099914550781,-400000.0625,-13343.5703125,-400000.0625,5861.9501953125,-400000.0625
2.78696870803833,-400000.0625,-5675.35986328125,316.0,-400000.0625,-13335.1796875,-400000.0625,5868.72021484375,-400000.0625
2.7869725227355957,-400000.0625,-5615.0400390625,376.6099853515625,-400000.0625,-13271.759765625,-400000.0625,5923.93994140625,-400000.0625
2.7869760990142822,-400000.0625,-5709.4599609375,283.4800109863281,-400000.0625,-13370.849609375,-400000.0625,5838.35009765625,-400000.0625
2.7869796752929688,-400000.0625,-5762.669921875,231.1699981689453,-400000.0625,-13428.400390625,-400000.0625,5787.75,-400000.0625
2.7869832515716553,-400000.0625,-5553.8701171875,440.3599853515625,-400000.0625,-13215.6904296875,-400000.0625,5996.509765625,-400000.0625
2.786986827850342,-400000.0625,-5260.52001953125,729.8900146484375,-400000.0625,-12918.08984375,-400000.0625,6292.6298828125,-400000.0625
timestamp,ch7,ch2,ch3,ch5,is_pause
timestamp,ch7,ch2,ch3,ch5,is_pause
timestamp,ch7,ch2,ch3,ch5,is_pause
timestamp,ch7,ch2,ch3,ch5,is_pause
2.8414247035980225,-400000.0625,-5151.080078125,840.0399780273438,-400000.0625,-12807.6103515625,-400000.0625,6404.5400390625,-400000.0625
timestamp,ch7,ch2,ch3,ch5,is_pause
2.8532841205596924,-400000.0625,-5355.93017578125,638.3900146484375,-400000.0625,-13013.080078125,-400000.0625,6197.64013671875,-400000.0625
2.8579623699188232,-400000.0625,-5553.81982421875,441.9800109863281,-400000.0625,-13210.919921875,-400000.0625,5999.330078125,-400000.0625
2.8579721450805664,-400000.0625,-5462.27001953125,529.9099731445312,-400000.0625,-13120.41015625,-400000.0625,6093.35986328125,-400000.0625
2.8579766750335693,-400000.0625,-5251.1201171875,739.239990234375,-400000.0625,-12909.3701171875,-400000.0625,6301.2099609375,-400000.0625
2.8579812049865723,-400000.0625,-5155.419921875,833.22998046875,-400000.0625,-12816.099609375,-400000.0625,6399.97021484375,-400000.0625
2.8579931259155273,-400000.0625,-5319.93017578125,669.3400268554688,-400000.0625,-12980.41015625,-400000.0625,6235.97998046875,-400000.0625
2.857999086380005,-400000.0625,-5458.2099609375,531.77001953125,-400000.0625,-13121.080078125,-400000.0625,6083.77978515625,-400000.0625
2.8580029010772705,-400000.0625,-5322.169921875,665.5700073242188,-400000.0625,-12983.3203125,-400000.0625,6225.10986328125,-400000.0625
timestamp,ch7,ch2,ch3,ch5,is_pause
2.858724594116211,-400000.0625,-5071.5,913.47998046875,-400000.0625,-12729.740234375,-400000.0625,6486.0400390625,-400000.0625
2.864863157272339,-400000.0625,-4929.259765625,1054.1400146484375,-400000.0625,-12591.41015625,-400000.0625,6624.89013671875,-400000.0625
timestamp,ch7,ch2,ch3,ch5,is_pause
2.8703203201293945,-400000.0625,-5047.66015625,938.6099853515625,-400000.0625,-12708.900390625,-400000.0625,6504.72998046875,-400000.0625
2.875840187072754,-400000.0625,-5148.35986328125,843.1900024414062,-400000.0625,-12806.9404296875,-400000.0625,6398.490234375,-400000.0625
2.881706714630127,-400000.0625,-4953.669921875,1037.739990234375,-400000.0625,-12613.1103515625,-400000.0625,6600.47998046875,-400000.0625
timestamp,ch7,ch2,ch3,ch5,is_pause
2.887794017791748,-400000.0625,-4653.06982421875,1337.6700439453125,-400000.0625,-12313.4599609375,-400000.0625,6901.4599609375,-400000.0625
2.893096685409546,-400000.0625,-4519.1298828125,1472.280029296875,-400000.0625,-12174.5595703125,-400000.0625,7036.830078125,-400000.0625
timestamp,ch7,ch2,ch3,ch5,is_pause
timestamp,ch7,ch2,ch3,ch5,is_pause
timestamp,ch7,ch2,ch3,ch5,is_pause
2.9265329837799072,-400000.0625,-4712.72998046875,1280.1199951171875,-400000.0625,-12364.8701171875,-400000.0625,6846.0,-400000.0625
timestamp,ch7,ch2,ch3,ch5,is_pause
2.934414863586426,-400000.0625,-4926.5400390625,1064.8699951171875,-400000.0625,-12578.8203125,-400000.0625,6621.5498046875,-400000.0625
2.9394705295562744,-400000.0625,-4860.06982421875,1128.43994140625,-400000.0625,-12512.6396484375,-400000.0625,6686.35009765625,-400000.0625
timestamp,ch7,ch2,ch3,ch5,is_pause
2.9462523460388184,-400000.0625,-4648.72998046875,1340.199951171875,-400000.0625,-12297.580078125,-400000.0625,6908.22998046875,-400000.0625
2.95583176612854,-400000.0625,-4567.18994140625,1421.6400146484375,-400000.0625,-12211.990234375,-400000.0625,6991.85986328125,-400000.0625
timestamp,ch7,ch2,ch3,ch5,is_pause
2.96175217628479,-400000.0625,-4757.169921875,1232.530029296875,-400000.0625,-12402.3896484375,-400000.0625,6806.08984375,-400000.0625
2.9661431312561035,-400000.0625,-4897.8798828125,1095.25,-400000.0625,-12543.0595703125,-400000.0625,6661.85009765625,-400000.0625
2.966151475906372,-400000.0625,-4753.919921875,1241.72998046875,-400000.0625,-12397.48046875,-400000.0625,6805.60986328125,-400000.0625
2.966156005859375,-400000.0625,-4525.3798828125,1470.22998046875,-400000.0625,-12164.4501953125,-400000.0625,7038.2099609375,-400000.0625
2.9661624431610107,-400000.0625,-4454.9501953125,1539.280029296875,-400000.0625,-12094.3603515625,-400000.0625,7109.35986328125,-400000.0625
2.9661662578582764,-400000.0625,-4659.4599609375,1337.5799560546875,-400000.0625,-12297.0595703125,-400000.0625,6904.89013671875,-400000.0625
2.966170072555542,-400000.0625,-4838.56005859375,1156.760009765625,-400000.0625,-12475.8701171875,-400000.0625,6722.830078125,-400000.0625
2.9661736488342285,-400000.0625,-4740.669921875,1253.8900146484375,-400000.0625,-12376.41015625,-400000.0625,6825.06982421875,-400000.0625
2.966177463531494,-400000.0625,-4521.990234375,1472.280029296875,-400000.0625,-12154.0595703125,-400000.0625,7041.35986328125,-400000.0625
2.966181516647339,-400000.0625,-4462.0498046875,1533.219970703125,-400000.0625,-12092.6396484375,-400000.0625,7109.97998046875,-400000.0625
2.9661855697631836,-400000.0625,-4694.1298828125,1304.43994140625,-400000.0625,-12325.8095703125,-400000.0625,6872.60986328125,-400000.0625
timestamp,ch7,ch2,ch3,ch5,is_pause
timestamp,ch7,ch2,ch3,ch5,is_pause
timestamp,ch7,ch2,ch3,ch5,is_pause
timestamp,ch7,ch2,ch3,ch5,is_pause
timestamp,ch7,ch2,ch3,ch5,is_pause
timestamp,ch7,ch2,ch3,ch5,is_pause
timestamp,ch7,ch2,ch3,ch5,is_pause
3.040661334991455,-400000.0625,-4902.97998046875,1094.9599609375,-400000.0625,-12535.4296875,-400000.0625,6664.08984375,-400000.0625
3.0484955310821533,-400000.0625,-4798.56005859375,1199.2900390625,-400000.0625,-12433.48046875,-400000.0625,6761.06982421875,-400000.0625
timestamp,ch7,ch2,ch3,ch5,is_pause
3.0612850189208984,-400000.0625,-4580.5498046875,1415.6800537109375,-400000.0625,-12214.2802734375,-400000.0625,6980.7099609375,-400000.0625
3.065913438796997,-400000.0625,-4497.43017578125,1494.31005859375,-400000.0625,-12135.1298828125,-400000.0625,7049.93994140625,-400000.0625
3.065922260284424,-400000.0625,-4708.72021484375,1281.6400146484375,-400000.0625,-12346.9404296875,-400000.0625,6828.8798828125,-400000.0625
3.065927028656006,-400000.0625,-4911.3798828125,1081.1300048828125,-400000.0625,-12556.5498046875,-400000.0625,6614.97021484375,-400000.0625
3.0659313201904297,-400000.0625,-4864.5,1130.3900146484375,-400000.0625,-12512.8798828125,-400000.0625,6655.60009765625,-400000.0625
3.0659353733062744,-400000.0625,-4701.27978515625,1296.6199951171875,-400000.0625,-12351.6103515625,-400000.0625,6817.77001953125,-400000.0625
3.06593918800354,-400000.0625,-4668.47021484375,1332.469970703125,-400000.0625,-12320.5703125,-400000.0625,6839.93994140625,-400000.0625
3.0659427642822266,-400000.0625,-4906.56005859375,1094.8699951171875,-400000.0625,-12558.7001953125,-400000.0625,6596.22998046875,-400000.0625
3.065946340560913,-400000.0625,-5103.72998046875,899.8900146484375,-400000.0625,-12760.01953125,-400000.0625,6398.5400390625,-400000.0625
3.0659501552581787,-400000.0625,-5015.56005859375,990.3400268554688,-400000.0625,-12669.330078125,-400000.0625,6486.4599609375,-400000.0625
3.0659537315368652,-400000.0625,-4805.419921875,1197.77001953125,-400000.0625,-12461.0400390625,-400000.0625,6694.7001953125,-400000.0625
3.0659573078155518,-400000.0625,-4743.77001953125,1257.8499755859375,-400000.0625,-12396.91015625,-400000.0625,6761.35986328125,-400000.0625
3.0659608840942383,-400000.0625,-4947.47021484375,1054.5699462890625,-400000.0625,-12599.08984375,-400000.0625,6559.7998046875,-400000.0625
3.0659728050231934,-400000.0625,-5119.56005859375,883.2899780273438,-400000.0625,-12770.849609375,-400000.0625,6380.64990234375,-400000.0625
3.065977096557617,-400000.0625,-5021.6201171875,983.0999755859375,-400000.0625,-12670.849609375,-400000.0625,6484.93994140625,-400000.0625
3.065980911254883,-400000.0625,-4817.06005859375,1188.1800537109375,-400000.0625,-12462.4697265625,-400000.0625,6694.83984375,-400000.0625
3.0659844875335693,-400000.0625,-4739.56982421875,1267.0999755859375,-400000.0625,-12381.0302734375,-400000.0625,6773.66015625,-400000.0625
3.0659897327423096,-400000.0625,-4920.81982421875,1087.6700439453125,-400000.0625,-12565.419921875,-400000.0625,6589.56005859375,-400000.0625
3.0659945011138916,-400000.0625,-5078.83984375,930.1699829101562,-400000.0625,-12722.6796875,-400000.0625,6432.14990234375,-400000.0625
3.065999746322632,-400000.0625,-4969.22021484375,1045.4200439453125,-400000.0625,-12610.7197265625,-400000.0625,6542.4501953125,-400000.0625
3.0660061836242676,-400000.0625,-4751.58984375,1257.7099609375,-400000.0625,-12395.240234375,-400000.0625,6754.35009765625,-400000.0625
3.066009998321533,-400000.0625,-4672.14990234375,1339.8199462890625,-400000.0625,-12309.9296875,-400000.0625,6850.14990234375,-400000.0625
3.0660152435302734,-400000.0625,-4831.1201171875,1182.510009765625,-400000.0625,-12470.33984375,-400000.0625,6688.8798828125,-400000.0625
3.0660200119018555,-400000.0625,-4957.2001953125,1052.0,-400000.0625,-12605.1904296875,-400000.0625,6560.47021484375,-400000.0625
3.0660250186920166,-400000.0625,-4821.8701171875,1187.4200439453125,-400000.0625,-12468.8603515625,-400000.0625,6693.75,-400000.0625
3.066030263900757,-400000.0625,-4588.31982421875,1417.6400146484375,-400000.0625,-12232.1103515625,-400000.0625,6930.2998046875,-400000.0625
3.066035509109497,-400000.0625,-4491.18994140625,1511.8599853515625,-400000.0625,-12137.7001953125,-400000.0625,7026.2001953125,-400000.0625
3.0660431385040283,-400000.0625,-4667.08984375,1336.1500244140625,-400000.0625,-12315.7998046875,-400000.0625,6849.91015625,-400000.0625
3.0660479068756104,-400000.0625,-4833.7900390625,1170.72998046875,-400000.0625,-12483.259765625,-400000.0625,6682.490234375,-400000.0625
3.0660533905029297,-400000.0625,-4736.0400390625,1266.6700439453125,-400000.0625,-12386.419921875,-400000.0625,6779.10009765625,-400000.0625
timestamp,ch7,ch2,ch3,ch5,is_pause
timestamp,ch7,ch2,ch3,ch5,is_pause
timestamp,ch7,ch2,ch3,ch5,is_pause
timestamp,ch7,ch2,ch3,ch5,is_pause
timestamp,ch7,ch2,ch3,ch5,is_pause
timestamp,ch7,ch2,ch3,ch5,is_pause
3.135161876678467,-400000.0625,-4541.8701171875,1462.56005859375,-400000.0625,-12186.8095703125,-400000.0625,6979.509765625,-400000.0625
timestamp,ch7,ch2,ch3,ch5,is_pause
3.1423425674438477,-400000.0625,-4483.990234375,1522.780029296875,-400000.0625,-12128.01953125,-400000.0625,7038.93017578125,-400000.0625
3.1488451957702637,-400000.0625,-4682.58984375,1322.219970703125,-400000.0625,-12332.8701171875,-400000.0625,6835.60009765625,-400000.0625
timestamp,ch7,ch2,ch3,ch5,is_pause
3.160808801651001,-400000.0625,-4859.5400390625,1142.1700439453125,-400000.0625,-12513.349609375,-400000.0625,6646.81982421875,-400000.0625
timestamp,ch7,ch2,ch3,ch5,is_pause
3.16780424118042,-400000.0625,-4760.080078125,1242.5400390625,-400000.0625,-12415.3603515625,-400000.0625,6757.740234375,-400000.0625
3.172464370727539,-400000.0625,-4537.2998046875,1464.8900146484375,-400000.0625,-12189.33984375,-400000.0625,6981.759765625,-400000.0625
3.1724729537963867,-400000.0625,-4418.18017578125,1583.2900390625,-400000.0625,-12070.849609375,-400000.0625,7090.81005859375,-400000.0625
3.1724772453308105,-400000.0625,-4546.02001953125,1453.5400390625,-400000.0625,-12205.080078125,-400000.0625,6960.580078125,-400000.0625
3.1724815368652344,-400000.0625,-4647.97021484375,1352.5999755859375,-400000.0625,-12309.4599609375,-400000.0625,6864.02001953125,-400000.0625
3.1724853515625,-400000.0625,-4489.56982421875,1509.2900390625,-400000.0625,-12147.8095703125,-400000.0625,7020.0498046875,-400000.0625
3.1724960803985596,-400000.0625,-4223.43994140625,1773.0699462890625,-400000.0625,-11881.16015625,-400000.0625,7291.41015625,-400000.0625
3.172499895095825,-400000.0625,-4070.7099609375,1927.4200439453125,-400000.0625,-11730.48046875,-400000.0625,7440.89990234375,-400000.0625
3.172503709793091,-400000.0625,-4160.5498046875,1833.8699951171875,-400000.0625,-11823.5595703125,-400000.0625,7349.490234375,-400000.0625
3.1725072860717773,-400000.0625,-4228.259765625,1767.06005859375,-400000.0625,-11892.2197265625,-400000.0625,7283.5,-400000.0625
3.172511100769043,-400000.0625,-4031.989990234375,1963.81005859375,-400000.0625,-11697.48046875,-400000.0625,7483.39013671875,-400000.0625
3.1725146770477295,-400000.0625,-3734.679931640625,2256.580078125,-400000.0625,-11403.3701171875,-400000.0625,7775.830078125,-400000.0625
3.172518730163574,-400000.0625,-3578.139892578125,2409.1201171875,-400000.0625,-11246.5400390625,-400000.0625,7932.85009765625,-400000.0625
3.1725223064422607,-400000.0625,-3664.35009765625,2321.239990234375,-400000.0625,-11336.849609375,-400000.0625,7851.35986328125,-400000.0625
3.1725258827209473,-400000.0625,-3706.070068359375,2281.860107421875,-400000.0625,-11381.9599609375,-400000.0625,7806.06005859375,-400000.0625
3.172529458999634,-400000.0625,-3454.639892578125,2536.300048828125,-400000.0625,-11132.0498046875,-400000.0625,8062.1298828125,-400000.0625
3.1725332736968994,-400000.0625,-3071.02001953125,2914.429931640625,-400000.0625,-10751.580078125,-400000.0625,8443.5498046875,-400000.0625
3.172536849975586,-400000.0625,-2814.2900390625,3169.199951171875,-400000.0625,-10494.8095703125,-400000.0625,8697.7001953125,-400000.0625
3.172541379928589,-400000.0625,-2814.9599609375,3164.860107421875,-400000.0625,-10499.7197265625,-400000.0625,8698.3203125,-400000.0625
3.1725449562072754,-400000.0625,-2799.22998046875,3180.31005859375,-400000.0625,-10487.3701171875,-400000.0625,8715.9599609375,-400000.0625
3.1725494861602783,-400000.0625,-2578.5400390625,3399.93994140625,-400000.0625,-10268.4501953125,-400000.0625,8938.5,-400000.0625
3.172553062438965,-400000.0625,-2265.409912109375,3711.179931640625,-400000.0625,-9956.98046875,-400000.0625,9238.669921875,-400000.0625
3.1725566387176514,-400000.0625,-2052.1201171875,3920.60009765625,-400000.0625,-9739.4501953125,-400000.0625,9466.509765625,-400000.0625
3.172560453414917,-400000.0625,-2107.239990234375,3867.25,-400000.0625,-9797.8603515625,-400000.0625,9401.26953125,-400000.0625
3.1725640296936035,-400000.0625,-2161.219970703125,3814.60009765625,-400000.0625,-9852.98046875,-400000.0625,9354.5,-400000.0625
3.1725685596466064,-400000.0625,-1936.6700439453125,4039.050048828125,-400000.0625,-9626.580078125,-400000.0625,9575.1298828125,-400000.0625
3.172572612762451,-400000.0625,-1564.1199951171875,4411.75,-400000.0625,-9256.2197265625,-400000.0625,9957.509765625,-400000.0625
3.172576904296875,-400000.0625,-1328.52001953125,4649.31005859375,-400000.0625,-9018.419921875,-400000.0625,10195.0703125,-400000.0625
timestamp,ch7,ch2,ch3,ch5,is_pause
timestamp,ch7,ch2,ch3,ch5,is_pause
timestamp,ch7,ch2,ch3,ch5,is_pause
timestamp,ch7,ch2,ch3,ch5,is_pause
timestamp,ch7,ch2,ch3,ch5,is_pause
3.226405143737793,-400000.0625,-1384.0699462890625,4587.35986328125,-400000.0625,-9076.41015625,-400000.0625,10130.83984375,-400000.0625
3.2321689128875732,-400000.0625,-1477.3399658203125,4495.91015625,-400000.0625,-9168.8203125,-400000.0625,10035.23046875,-400000.0625
timestamp,ch7,ch2,ch3,ch5,is_pause
