time,ch1,ch2,ch3,ch4,ch5,ch6,ch7,ch8
406.63947463035583,-400000.0625,107.0,70.62000274658203,-400000.0625,-3539.3701171875,-400000.0625,-2665.7099609375,-400000.0625
406.67086362838745,-400000.0625,95.31999969482422,59.27000045776367,-400000.0625,-3561.159912109375,-400000.0625,-2676.530029296875,-400000.0625
406.7290909290314,-400000.0625,86.9800033569336,49.02000045776367,-400000.0625,-3544.570068359375,-400000.0625,-2680.919921875,-400000.0625
406.75597286224365,-400000.0625,91.5999984741211,54.93000030517578,-400000.0625,-3528.7900390625,-400000.0625,-2674.47998046875,-400000.0625
406.78387928009033,-400000.0625,106.37999725341797,69.0,-400000.0625,-3520.8701171875,-400000.0625,-2664.330078125,-400000.0625
406.8321807384491,-400000.0625,112.0999984741211,70.13999938964844,-400000.0625,-3525.780029296875,-400000.0625,-2664.7099609375,-400000.0625
406.8516170978546,-400000.0625,100.98999786376953,56.16999816894531,-400000.0625,-3547.340087890625,-400000.0625,-2673.47998046875,-400000.0625
406.8824143409729,-400000.0625,92.22000122070312,46.11000061035156,-400000.0625,-3556.489990234375,-400000.0625,-2678.43994140625,-400000.0625
406.91149139404297,-400000.0625,96.61000061035156,54.119998931884766,-400000.0625,-3550.669921875,-400000.0625,-2672.6201171875,-400000.0625
406.95951890945435,-400000.0625,107.05000305175781,65.56999969482422,-400000.0625,-3540.090087890625,-400000.0625,-2668.949951171875,-400000.0625
406.99126410484314,-400000.0625,107.72000122070312,66.80000305175781,-400000.0625,-3522.2099609375,-400000.0625,-2670.0,-400000.0625
407.0202524662018,-400000.0625,93.51000213623047,54.97999954223633,-400000.0625,-3526.2099609375,-400000.0625,-2682.449951171875,-400000.0625
407.07671999931335,-400000.0625,86.55000305175781,47.349998474121094,-400000.0625,-3541.52001953125,-400000.0625,-2689.31005859375,-400000.0625
407.1014497280121,-400000.0625,96.04000091552734,54.310001373291016,-400000.0625,-3540.22998046875,-400000.0625,-2684.31005859375,-400000.0625
407.1277017593384,-400000.0625,106.66999816894531,64.04000091552734,-400000.0625,-3533.219970703125,-400000.0625,-2674.909912109375,-400000.0625
407.17112374305725,-400000.0625,105.0,61.79999923706055,-400000.0625,-3535.080078125,-400000.0625,-2678.72998046875,-400000.0625
407.19151520729065,-400000.0625,91.73999786376953,48.4900016784668,-400000.0625,-3545.3798828125,-400000.0625,-2686.7900390625,-400000.0625
407.21768164634705,-400000.0625,89.69000244140625,42.0099983215332,-400000.0625,-3548.18994140625,-400000.0625,-2689.7900390625,-400000.0625
407.24192810058594,-400000.0625,95.98999786376953,48.02000045776367,-400000.0625,-3539.659912109375,-400000.0625,-2681.8798828125,-400000.0625
407.2775721549988,-400000.0625,107.0999984741211,55.599998474121094,-400000.0625,-3534.840087890625,-400000.0625,-2674.10009765625,-400000.0625
407.3074095249176,-400000.0625,103.04000091552734,53.2599983215332,-400000.0625,-3543.760009765625,-400000.0625,-2671.429931640625,-400000.0625
407.3376944065094,-400000.0625,95.80000305175781,43.869998931884766,-400000.0625,-3554.6298828125,-400000.0625,-2673.010009765625,-400000.0625
407.37205481529236,-400000.0625,95.02999877929688,41.060001373291016,-400000.0625,-3559.39990234375,-400000.0625,-2673.860107421875,-400000.0625
407.4135916233063,-400000.0625,97.61000061035156,48.91999816894531,-400000.0625,-3548.77001953125,-400000.0625,-2665.139892578125,-400000.0625
407.43958258628845,-400000.0625,109.43000030517578,61.130001068115234,-400000.0625,-3541.0400390625,-400000.0625,-2656.219970703125,-400000.0625
407.4647767543793,-400000.0625,106.80999755859375,60.130001068115234,-400000.0625,-3540.22998046875,-400000.0625,-2655.97998046875,-400000.0625
407.4810175895691,-400000.0625,99.55999755859375,52.209999084472656,-400000.0625,-3548.530029296875,-400000.0625,-2664.949951171875,-400000.0625
407.5185389518738,-400000.0625,91.9800033569336,46.400001525878906,-400000.0625,-3555.919921875,-400000.0625,-2666.52001953125,-400000.0625
407.5410988330841,-400000.0625,90.9800033569336,52.880001068115234,-400000.0625,-3550.6298828125,-400000.0625,-2666.52001953125,-400000.0625
407.55827260017395,-400000.0625,95.2699966430664,62.560001373291016,-400000.0625,-3551.10009765625,-400000.0625,-2662.179931640625,-400000.0625
407.58416652679443,-400000.0625,96.12999725341797,56.790000915527344,-400000.0625,-3542.85009765625,-400000.0625,-2647.68994140625,-400000.0625
407.64302802085876,-400000.0625,89.41000366210938,33.189998626708984,-400000.0625,-3544.760009765625,-400000.0625,-2638.860107421875,-400000.0625
407.66953682899475,-400000.0625,81.77999877929688,23.030000686645508,-400000.0625,-3552.25,-400000.0625,-2632.139892578125,-400000.0625
407.6954457759857,-400000.0625,83.54000091552734,26.1299991607666,-400000.0625,-3549.909912109375,-400000.0625,-2625.56005859375,-400000.0625
407.74444007873535,-400000.0625,87.20999908447266,27.079999923706055,-400000.0625,-3549.0,-400000.0625,-2613.5400390625,-400000.0625
407.77554154396057,-400000.0625,81.48999786376953,17.690000534057617,-400000.0625,-3559.919921875,-400000.0625,-2608.820068359375,-400000.0625
407.80518078804016,-400000.0625,64.18000030517578,-0.6700000166893005,-400000.0625,-3571.27001953125,-400000.0625,-2619.030029296875,-400000.0625
407.84771633148193,-400000.0625,55.97999954223633,-9.779999732971191,-400000.0625,-3575.659912109375,-400000.0625,-2622.800048828125,-400000.0625
407.8637342453003,-400000.0625,60.369998931884766,-5.340000152587891,-400000.0625,-3568.169921875,-400000.0625,-2613.39990234375,-400000.0625
407.8927426338196,-400000.0625,68.86000061035156,2.0999999046325684,-400000.0625,-3561.5400390625,-400000.0625,-2609.25,-400000.0625
407.919912815094,-400000.0625,71.33000183105469,4.630000114440918,-400000.0625,-3568.030029296875,-400000.0625,-2610.72998046875,-400000.0625
407.9641649723053,-400000.0625,65.8499984741211,-4.820000171661377,-400000.0625,-3570.889892578125,-400000.0625,-2621.97998046875,-400000.0625
407.98658061027527,-400000.0625,61.130001068115234,-11.010000228881836,-400000.0625,-3570.64990234375,-400000.0625,-2627.800048828125,-400000.0625
408.0070617198944,-400000.0625,63.22999954223633,-8.869999885559082,-400000.0625,-3566.889892578125,-400000.0625,-2625.419921875,-400000.0625
408.0248417854309,-400000.0625,78.68000030517578,2.5299999713897705,-400000.0625,-3553.9599609375,-400000.0625,-2615.070068359375,-400000.0625
408.06948161125183,-400000.0625,73.86000061035156,2.4800000190734863,-400000.0625,-3546.2900390625,-400000.0625,-2614.02001953125,-400000.0625
408.0983190536499,-400000.0625,63.560001373291016,-11.300000190734863,-400000.0625,-3563.31005859375,-400000.0625,-2622.60009765625,-400000.0625
408.12133741378784,-400000.0625,54.790000915527344,-19.600000381469727,-400000.0625,-3577.419921875,-400000.0625,-2628.989990234375,-400000.0625
408.1419975757599,-400000.0625,59.18000030517578,-12.539999961853027,-400000.0625,-3568.080078125,-400000.0625,-2621.699951171875,-400000.0625
408.20007371902466,-400000.0625,74.66999816894531,3.0,-400000.0625,-3556.780029296875,-400000.0625,-2612.260009765625,-400000.0625
408.2343657016754,-400000.0625,73.0,-0.14000000059604645,-400000.0625,-3559.489990234375,-400000.0625,-2613.02001953125,-400000.0625
408.253782749176,-400000.0625,57.939998626708984,-14.880000114440918,-400000.0625,-3567.64990234375,-400000.0625,-2625.320068359375,-400000.0625
408.30350279808044,-400000.0625,53.83000183105469,-21.790000915527344,-400000.0625,-3571.93994140625,-400000.0625,-2625.989990234375,-400000.0625
408.3209352493286,-400000.0625,60.79999923706055,-14.210000038146973,-400000.0625,-3563.929931640625,-400000.0625,-2619.169921875,-400000.0625
408.3444128036499,-400000.0625,70.62000274658203,-1.9600000381469727,-400000.0625,-3557.39990234375,-400000.0625,-2613.8798828125,-400000.0625
408.3716254234314,-400000.0625,69.43000030517578,-2.7699999809265137,-400000.0625,-3561.1201171875,-400000.0625,-2619.219970703125,-400000.0625
408.41025376319885,-400000.0625,60.9900016784668,-11.680000305175781,-400000.0625,-3573.889892578125,-400000.0625,-2629.7099609375,-400000.0625
408.4297127723694,-400000.0625,57.84000015258789,-17.600000381469727,-400000.0625,-3585.909912109375,-400000.0625,-2631.7099609375,-400000.0625
408.4524748325348,-400000.0625,67.9000015258789,-7.920000076293945,-400000.0625,-3581.47998046875,-400000.0625,-2622.840087890625,-400000.0625
408.4707911014557,-400000.0625,77.30000305175781,5.25,-400000.0625,-3551.820068359375,-400000.0625,-2614.8798828125,-400000.0625
408.49027252197266,-400000.0625,74.29000091552734,3.5299999713897705,-400000.0625,-3541.280029296875,-400000.0625,-2615.39990234375,-400000.0625
408.5261199474335,-400000.0625,66.19000244140625,-7.489999771118164,-400000.0625,-3552.06005859375,-400000.0625,-2624.75,-400000.0625
408.54920649528503,-400000.0625,60.70000076293945,-13.829999923706055,-400000.0625,-3562.2099609375,-400000.0625,-2628.52001953125,-400000.0625
408.5730767250061,-400000.0625,66.27999877929688,-6.059999942779541,-400000.0625,-3568.60009765625,-400000.0625,-2620.699951171875,-400000.0625
408.6148011684418,-400000.0625,77.0999984741211,6.869999885559082,-400000.0625,-3566.60009765625,-400000.0625,-2611.639892578125,-400000.0625
408.6701867580414,-400000.0625,78.05999755859375,5.670000076293945,-400000.0625,-3561.35009765625,-400000.0625,-2606.25,-400000.0625
408.68908953666687,-400000.0625,65.70999908447266,-6.010000228881836,-400000.0625,-3570.320068359375,-400000.0625,-2616.31005859375,-400000.0625
408.70742869377136,-400000.0625,52.63999938964844,-12.350000381469727,-400000.0625,-3576.760009765625,-400000.0625,-2622.219970703125,-400000.0625
408.7345201969147,-400000.0625,59.31999969482422,-7.340000152587891,-400000.0625,-3572.419921875,-400000.0625,-2618.030029296875,-400000.0625
408.7697958946228,-400000.0625,72.66999816894531,1.7200000286102295,-400000.0625,-3563.260009765625,-400000.0625,-2611.590087890625,-400000.0625
408.79097032546997,-400000.0625,74.4800033569336,1.8600000143051147,-400000.0625,-3561.260009765625,-400000.0625,-2608.489990234375,-400000.0625
408.80837321281433,-400000.0625,57.650001525878906,-11.630000114440918,-400000.0625,-3561.070068359375,-400000.0625,-2615.260009765625,-400000.0625
408.83343267440796,-400000.0625,50.93000030517578,-18.84000015258789,-400000.0625,-3570.989990234375,-400000.0625,-2622.219970703125,-400000.0625
408.85072207450867,-400000.0625,60.5099983215332,-11.829999923706055,-400000.0625,-3566.219970703125,-400000.0625,-2619.169921875,-400000.0625
408.8907825946808,-400000.0625,67.08999633789062,-4.010000228881836,-400000.0625,-3560.5,-400000.0625,-2612.449951171875,-400000.0625
408.90821528434753,-400000.0625,66.13999938964844,-3.2899999618530273,-400000.0625,-3562.39990234375,-400000.0625,-2609.25,-400000.0625
408.92695808410645,-400000.0625,58.459999084472656,-12.829999923706055,-400000.0625,-3568.93994140625,-400000.0625,-2615.260009765625,-400000.0625
408.9452826976776,-400000.0625,53.689998626708984,-19.5,-400000.0625,-3580.429931640625,-400000.0625,-2618.889892578125,-400000.0625
408.9667706489563,-400000.0625,64.41999816894531,-10.779999732971191,-400000.0625,-3573.989990234375,-400000.0625,-2613.260009765625,-400000.0625
409.0033326148987,-400000.0625,77.44000244140625,-0.33000001311302185,-400000.0625,-3559.639892578125,-400000.0625,-2605.9599609375,-400000.0625
409.02570509910583,-400000.0625,70.0,-3.390000104904175,-400000.0625,-3558.110107421875,-400000.0625,-2607.159912109375,-400000.0625
409.0431773662567,-400000.0625,59.88999938964844,-14.109999656677246,-400000.0625,-3568.7900390625,-400000.0625,-2613.739990234375,-400000.0625
409.0613875389099,-400000.0625,54.54999923706055,-21.270000457763672,-400000.0625,-3576.090087890625,-400000.0625,-2616.409912109375,-400000.0625
409.08151388168335,-400000.0625,60.560001373291016,-18.219999313354492,-400000.0625,-3568.7900390625,-400000.0625,-2613.39990234375,-400000.0625
409.11582946777344,-400000.0625,72.72000122070312,-9.579999923706055,-400000.0625,-3558.02001953125,-400000.0625,-2606.820068359375,-400000.0625
409.13591289520264,-400000.0625,73.23999786376953,-9.010000228881836,-400000.0625,-3568.4599609375,-400000.0625,-2608.780029296875,-400000.0625
409.151242017746,-400000.0625,64.27999877929688,-21.309999465942383,-400000.0625,-3578.6201171875,-400000.0625,-2615.169921875,-400000.0625
409.17383766174316,-400000.0625,55.220001220703125,-29.1299991607666,-400000.0625,-3580.429931640625,-400000.0625,-2624.179931640625,-400000.0625
409.19402837753296,-400000.0625,56.88999938964844,-23.219999313354492,-400000.0625,-3567.889892578125,-400000.0625,-2618.27001953125,-400000.0625
409.23644614219666,-400000.0625,69.37999725341797,-10.350000381469727,-400000.0625,-3556.590087890625,-400000.0625,-2606.010009765625,-400000.0625
409.2485382556915,-400000.0625,74.19999694824219,-8.390000343322754,-400000.0625,-3556.919921875,-400000.0625,-2608.110107421875,-400000.0625
409.26800322532654,-400000.0625,64.98999786376953,-21.40999984741211,-400000.0625,-3576.179931640625,-400000.0625,-2618.840087890625,-400000.0625
409.28736543655396,-400000.0625,58.130001068115234,-27.3700008392334,-400000.0625,-3585.14990234375,-400000.0625,-2623.800048828125,-400000.0625
409.3079135417938,-400000.0625,64.98999786376953,-19.8799991607666,-400000.0625,-3576.090087890625,-400000.0625,-2615.639892578125,-400000.0625
409.3419964313507,-400000.0625,75.91000366210938,-9.869999885559082,-400000.0625,-3569.080078125,-400000.0625,-2608.35009765625,-400000.0625
409.37226605415344,-400000.0625,77.7699966430664,-9.25,-400000.0625,-3569.1298828125,-400000.0625,-2608.010009765625,-400000.0625
409.394807100296,-400000.0625,63.31999969482422,-21.549999237060547,-400000.0625,-3578.3798828125,-400000.0625,-2616.409912109375,-400000.0625
409.41941261291504,-400000.0625,52.2599983215332,-27.229999542236328,-400000.0625,-3582.81005859375,-400000.0625,-2623.27001953125,-400000.0625
409.45919609069824,-400000.0625,58.70000076293945,-17.690000534057617,-400000.0625,-3572.179931640625,-400000.0625,-2619.4599609375,-400000.0625
409.4892592430115,-400000.0625,72.66999816894531,-8.920000076293945,-400000.0625,-3561.929931640625,-400000.0625,-2606.340087890625,-400000.0625
409.51831555366516,-400000.0625,77.91999816894531,-14.539999961853027,-400000.0625,-3561.31005859375,-400000.0625,-2597.050048828125,-400000.0625
409.5408236980438,-400000.0625,55.689998626708984,-31.850000381469727,-400000.0625,-3567.7900390625,-400000.0625,-2609.110107421875,-400000.0625
409.5784857273102,-400000.0625,44.25,-39.77000045776367,-400000.0625,-3575.85009765625,-400000.0625,-2610.5400390625,-400000.0625
409.612655878067,-400000.0625,52.400001525878906,-38.0,-400000.0625,-3581.6201171875,-400000.0625,-2597.52001953125,-400000.0625
409.64331126213074,-400000.0625,62.9900016784668,-31.65999984741211,-400000.0625,-3581.47998046875,-400000.0625,-2584.409912109375,-400000.0625
409.67232751846313,-400000.0625,62.88999938964844,-31.520000457763672,-400000.0625,-3570.3701171875,-400000.0625,-2579.550048828125,-400000.0625
409.692095041275,-400000.0625,44.540000915527344,-44.38999938964844,-400000.0625,-3580.429931640625,-400000.0625,-2584.219970703125,-400000.0625
409.71088576316833,-400000.0625,33.52000045776367,-54.689998626708984,-400000.0625,-3594.919921875,-400000.0625,-2591.179931640625,-400000.0625
409.7372000217438,-400000.0625,39.630001068115234,-53.119998931884766,-400000.0625,-3590.159912109375,-400000.0625,-2587.27001953125,-400000.0625
409.7568747997284,-400000.0625,52.400001525878906,-43.20000076293945,-400000.0625,-3573.989990234375,-400000.0625,-2577.8798828125,-400000.0625
409.79114723205566,-400000.0625,53.119998931884766,-39.290000915527344,-400000.0625,-3563.550048828125,-400000.0625,-2577.159912109375,-400000.0625
409.8154275417328,-400000.0625,43.38999938964844,-47.400001525878906,-400000.0625,-3571.800048828125,-400000.0625,-2584.31005859375,-400000.0625
409.8291778564453,-400000.0625,36.7599983215332,-57.16999816894531,-400000.0625,-3585.199951171875,-400000.0625,-2591.85009765625,-400000.0625
409.8461036682129,-400000.0625,39.959999084472656,-54.599998474121094,-400000.0625,-3585.389892578125,-400000.0625,-2588.989990234375,-400000.0625
409.8679232597351,-400000.0625,45.970001220703125,-45.630001068115234,-400000.0625,-3580.18994140625,-400000.0625,-2579.5,-400000.0625
409.8982484340668,-400000.0625,42.529998779296875,-45.81999969482422,-400000.0625,-3580.52001953125,-400000.0625,-2578.68994140625,-400000.0625
409.9207863807678,-400000.0625,34.56999969482422,-55.689998626708984,-400000.0625,-3591.489990234375,-400000.0625,-2584.97998046875,-400000.0625
409.93987011909485,-400000.0625,28.040000915527344,-62.939998626708984,-400000.0625,-3593.489990234375,-400000.0625,-2589.889892578125,-400000.0625
409.9556941986084,-400000.0625,32.279998779296875,-61.27000045776367,-400000.0625,-3585.77001953125,-400000.0625,-2587.60009765625,-400000.0625
409.97458267211914,-400000.0625,41.47999954223633,-51.689998626708984,-400000.0625,-3575.0400390625,-400000.0625,-2580.39990234375,-400000.0625
410.00714445114136,-400000.0625,41.38999938964844,-50.970001220703125,-400000.0625,-3573.280029296875,-400000.0625,-2577.159912109375,-400000.0625
410.02541279792786,-400000.0625,31.850000381469727,-64.33000183105469,-400000.0625,-3583.530029296875,-400000.0625,-2587.1298828125,-400000.0625
410.04665446281433,-400000.0625,21.649999618530273,-73.43000030517578,-400000.0625,-3591.6298828125,-400000.0625,-2595.760009765625,-400000.0625
410.07081389427185,-400000.0625,30.950000762939453,-63.9900016784668,-400000.0625,-3594.110107421875,-400000.0625,-2590.1298828125,-400000.0625
410.1004207134247,-400000.0625,47.59000015258789,-49.63999938964844,-400000.0625,-3593.159912109375,-400000.0625,-2579.31005859375,-400000.0625
410.132657289505,-400000.0625,51.7400016784668,-48.540000915527344,-400000.0625,-3587.2900390625,-400000.0625,-2578.2099609375,-400000.0625
410.15570306777954,-400000.0625,44.72999954223633,-54.650001525878906,-400000.0625,-3593.06005859375,-400000.0625,-2581.68994140625,-400000.0625
410.1780219078064,-400000.0625,37.0,-63.369998931884766,-400000.0625,-3597.449951171875,-400000.0625,-2584.60009765625,-400000.0625
410.20251417160034,-400000.0625,38.47999954223633,-57.939998626708984,-400000.0625,-3572.27001953125,-400000.0625,-2584.510009765625,-400000.0625
410.23939847946167,-400000.0625,47.02000045776367,-47.25,-400000.0625,-3562.8798828125,-400000.0625,-2577.260009765625,-400000.0625
410.2587835788727,-400000.0625,50.689998626708984,-47.540000915527344,-400000.0625,-3580.18994140625,-400000.0625,-2574.39990234375,-400000.0625
410.28326177597046,-400000.0625,41.0099983215332,-56.84000015258789,-400000.0625,-3591.25,-400000.0625,-2580.7900390625,-400000.0625
410.2989857196808,-400000.0625,33.95000076293945,-62.75,-400000.0625,-3585.340087890625,-400000.0625,-2590.080078125,-400000.0625
410.31860160827637,-400000.0625,37.720001220703125,-59.31999969482422,-400000.0625,-3579.949951171875,-400000.0625,-2582.5,-400000.0625
410.36042404174805,-400000.0625,50.209999084472656,-48.63999938964844,-400000.0625,-3577.090087890625,-400000.0625,-2573.199951171875,-400000.0625
410.3808903694153,-400000.0625,56.459999084472656,-42.060001373291016,-400000.0625,-3580.760009765625,-400000.0625,-2570.6298828125,-400000.0625
410.40032958984375,-400000.0625,46.29999923706055,-52.06999969482422,-400000.0625,-3590.43994140625,-400000.0625,-2576.300048828125,-400000.0625
410.41738772392273,-400000.0625,40.66999816894531,-58.88999938964844,-400000.0625,-3590.110107421875,-400000.0625,-2579.02001953125,-400000.0625
410.4373791217804,-400000.0625,42.81999969482422,-50.400001525878906,-400000.0625,-3575.179931640625,-400000.0625,-2575.590087890625,-400000.0625
410.4802088737488,-400000.0625,53.310001373291016,-37.56999969482422,-400000.0625,-3570.64990234375,-400000.0625,-2568.050048828125,-400000.0625
410.49743366241455,-400000.0625,57.54999923706055,-36.04999923706055,-400000.0625,-3575.659912109375,-400000.0625,-2568.580078125,-400000.0625
410.51403856277466,-400000.0625,45.11000061035156,-48.2599983215332,-400000.0625,-3580.52001953125,-400000.0625,-2583.219970703125,-400000.0625
410.5382945537567,-400000.0625,33.709999084472656,-53.83000183105469,-400000.0625,-3583.0,-400000.0625,-2588.030029296875,-400000.0625
410.57547760009766,-400000.0625,42.29999923706055,-47.400001525878906,-400000.0625,-3581.860107421875,-400000.0625,-2585.840087890625,-400000.0625
410.594429731369,-400000.0625,53.06999969482422,-39.20000076293945,-400000.0625,-3581.47998046875,-400000.0625,-2577.780029296875,-400000.0625
410.6400499343872,-400000.0625,52.83000183105469,-40.290000915527344,-400000.0625,-3587.2900390625,-400000.0625,-2575.590087890625,-400000.0625
410.6873621940613,-400000.0625,41.439998626708984,-53.220001220703125,-400000.0625,-3591.35009765625,-400000.0625,-2585.409912109375,-400000.0625
410.7064790725708,-400000.0625,35.47999954223633,-59.029998779296875,-400000.0625,-3587.77001953125,-400000.0625,-2591.0400390625,-400000.0625
410.7217779159546,-400000.0625,35.189998626708984,-52.2599983215332,-400000.0625,-3592.35009765625,-400000.0625,-2587.030029296875,-400000.0625
410.73970222473145,-400000.0625,45.970001220703125,-42.720001220703125,-400000.0625,-3583.239990234375,-400000.0625,-2580.1201171875,-400000.0625
410.7568402290344,-400000.0625,51.15999984741211,-42.4900016784668,-400000.0625,-3574.659912109375,-400000.0625,-2577.159912109375,-400000.0625
410.7966876029968,-400000.0625,38.58000183105469,-50.7400016784668,-400000.0625,-3582.719970703125,-400000.0625,-2583.360107421875,-400000.0625
410.81516885757446,-400000.0625,23.170000076293945,-60.9900016784668,-400000.0625,-3594.110107421875,-400000.0625,-2592.659912109375,-400000.0625
410.8372004032135,-400000.0625,26.889999389648438,-52.880001068115234,-400000.0625,-3603.169921875,-400000.0625,-2588.320068359375,-400000.0625
410.856103181839,-400000.0625,62.41999816894531,-25.649999618530273,-400000.0625,-3586.6298828125,-400000.0625,-2584.169921875,-400000.0625
410.87363743782043,-400000.0625,75.01000213623047,-22.510000228881836,-400000.0625,-3575.7099609375,-400000.0625,-2583.97998046875,-400000.0625
410.91286396980286,-400000.0625,57.36000061035156,-33.95000076293945,-400000.0625,-3579.090087890625,-400000.0625,-2599.81005859375,-400000.0625
410.932320356369,-400000.0625,54.5,-34.900001525878906,-400000.0625,-3586.9599609375,-400000.0625,-2614.360107421875,-400000.0625
410.9523892402649,-400000.0625,64.75,-23.079999923706055,-400000.0625,-3578.090087890625,-400000.0625,-2619.60009765625,-400000.0625
410.967741727829,-400000.0625,82.20999908447266,-5.579999923706055,-400000.0625,-3554.679931640625,-400000.0625,-2616.219970703125,-400000.0625
410.98660135269165,-400000.0625,96.18000030517578,5.480000019073486,-400000.0625,-3545.949951171875,-400000.0625,-2620.169921875,-400000.0625
411.0237340927124,-400000.0625,86.58999633789062,-4.050000190734863,-400000.0625,-3564.409912109375,-400000.0625,-2634.47998046875,-400000.0625
411.04058837890625,-400000.0625,73.95999908447266,-13.920000076293945,-400000.0625,-3573.56005859375,-400000.0625,-2644.159912109375,-400000.0625
411.05615997314453,-400000.0625,83.30000305175781,-3.7699999809265137,-400000.0625,-3572.989990234375,-400000.0625,-2644.159912109375,-400000.0625
411.0730504989624,-400000.0625,95.51000213623047,5.670000076293945,-400000.0625,-3572.659912109375,-400000.0625,-2632.239990234375,-400000.0625
411.09102988243103,-400000.0625,92.41000366210938,6.630000114440918,-400000.0625,-3573.320068359375,-400000.0625,-2626.280029296875,-400000.0625
411.1407754421234,-400000.0625,78.81999969482422,-5.579999923706055,-400000.0625,-3570.889892578125,-400000.0625,-2634.10009765625,-400000.0625
411.1608986854553,-400000.0625,71.72000122070312,-12.970000267028809,-400000.0625,-3566.1201171875,-400000.0625,-2644.6298828125,-400000.0625
411.1764295101166,-400000.0625,77.44000244140625,-5.340000152587891,-400000.0625,-3559.780029296875,-400000.0625,-2638.43994140625,-400000.0625
411.19267106056213,-400000.0625,88.36000061035156,7.820000171661377,-400000.0625,-3550.77001953125,-400000.0625,-2624.610107421875,-400000.0625
411.22704124450684,-400000.0625,90.45999908447266,8.539999961853027,-400000.0625,-3554.580078125,-400000.0625,-2622.64990234375,-400000.0625
411.24615001678467,-400000.0625,77.72000122070312,-2.7200000286102295,-400000.0625,-3574.179931640625,-400000.0625,-2631.280029296875,-400000.0625
411.27012944221497,-400000.0625,72.62000274658203,-7.630000114440918,-400000.0625,-3576.570068359375,-400000.0625,-2637.10009765625,-400000.0625
411.288458108902,-400000.0625,79.19999694824219,-4.099999904632568,-400000.0625,-3571.3701171875,-400000.0625,-2634.570068359375,-400000.0625
411.31523752212524,-400000.0625,87.58999633789062,5.440000057220459,-400000.0625,-3564.070068359375,-400000.0625,-2632.89990234375,-400000.0625
411.35359239578247,-400000.0625,89.5999984741211,9.15999984741211,-400000.0625,-3562.739990234375,-400000.0625,-2634.6201171875,-400000.0625
411.37257742881775,-400000.0625,75.19999694824219,-4.630000114440918,-400000.0625,-3567.97998046875,-400000.0625,-2639.8701171875,-400000.0625
411.39187574386597,-400000.0625,65.5199966430664,-14.880000114440918,-400000.0625,-3577.22998046875,-400000.0625,-2644.159912109375,-400000.0625
411.4195656776428,-400000.0625,76.1500015258789,-7.059999942779541,-400000.0625,-3581.2900390625,-400000.0625,-2636.6201171875,-400000.0625
411.4501328468323,-400000.0625,87.73999786376953,4.960000038146973,-400000.0625,-3569.320068359375,-400000.0625,-2624.56005859375,-400000.0625
411.4717848300934,-400000.0625,84.3499984741211,4.010000228881836,-400000.0625,-3557.300048828125,-400000.0625,-2622.75,-400000.0625
411.4894051551819,-400000.0625,70.29000091552734,-7.340000152587891,-400000.0625,-3566.840087890625,-400000.0625,-2634.239990234375,-400000.0625
411.5052170753479,-400000.0625,65.70999908447266,-12.829999923706055,-400000.0625,-3586.580078125,-400000.0625,-2642.110107421875,-400000.0625
411.5221436023712,-400000.0625,69.33000183105469,-10.15999984741211,-400000.0625,-3589.580078125,-400000.0625,-2636.6201171875,-400000.0625
411.5579252243042,-400000.0625,78.01000213623047,-1.2899999618530273,-400000.0625,-3575.1298828125,-400000.0625,-2630.090087890625,-400000.0625
411.5748438835144,-400000.0625,76.52999877929688,-1.8600000143051147,-400000.0625,-3567.31005859375,-400000.0625,-2627.949951171875,-400000.0625
411.59353280067444,-400000.0625,65.41999816894531,-13.069999694824219,-400000.0625,-3580.89990234375,-400000.0625,-2635.050048828125,-400000.0625
411.64709663391113,-400000.0625,61.459999084472656,-16.8799991607666,-400000.0625,-3583.050048828125,-400000.0625,-2636.14990234375,-400000.0625
411.70150899887085,-400000.0625,68.08999633789062,-7.820000171661377,-400000.0625,-3577.760009765625,-400000.0625,-2632.429931640625,-400000.0625
411.72189950942993,-400000.0625,81.97000122070312,4.769999980926514,-400000.0625,-3577.090087890625,-400000.0625,-2624.889892578125,-400000.0625
411.7360725402832,-400000.0625,82.77999877929688,6.25,-400000.0625,-3569.080078125,-400000.0625,-2625.3701171875,-400000.0625
411.75921750068665,-400000.0625,67.70999908447266,-6.909999847412109,-400000.0625,-3579.570068359375,-400000.0625,-2640.77001953125,-400000.0625
411.79286074638367,-400000.0625,56.54999923706055,-18.5,-400000.0625,-3596.639892578125,-400000.0625,-2648.449951171875,-400000.0625
411.81189799308777,-400000.0625,62.41999816894531,-15.15999984741211,-400000.0625,-3602.4599609375,-400000.0625,-2647.449951171875,-400000.0625
411.83108043670654,-400000.0625,73.86000061035156,-6.289999961853027,-400000.0625,-3586.820068359375,-400000.0625,-2637.77001953125,-400000.0625
411.85018014907837,-400000.0625,73.1500015258789,-3.7699999809265137,-400000.0625,-3570.840087890625,-400000.0625,-2635.10009765625,-400000.0625
411.8723974227905,-400000.0625,62.08000183105469,-13.15999984741211,-400000.0625,-3577.330078125,-400000.0625,-2639.389892578125,-400000.0625
411.90510296821594,-400000.0625,57.459999084472656,-22.030000686645508,-400000.0625,-3589.010009765625,-400000.0625,-2641.14990234375,-400000.0625
411.9200873374939,-400000.0625,63.939998626708984,-16.780000686645508,-400000.0625,-3590.5400390625,-400000.0625,-2638.239990234375,-400000.0625
411.94096636772156,-400000.0625,71.80999755859375,-10.399999618530273,-400000.0625,-3592.110107421875,-400000.0625,-2629.570068359375,-400000.0625
411.9642188549042,-400000.0625,76.52999877929688,-8.489999771118164,-400000.0625,-3584.719970703125,-400000.0625,-2629.22998046875,-400000.0625
411.98436188697815,-400000.0625,70.23999786376953,-15.930000305175781,-400000.0625,-3581.429931640625,-400000.0625,-2636.9599609375,-400000.0625
412.01639771461487,-400000.0625,62.27000045776367,-23.170000076293945,-400000.0625,-3596.739990234375,-400000.0625,-2638.6298828125,-400000.0625
412.0314841270447,-400000.0625,64.9000015258789,-16.06999969482422,-400000.0625,-3592.2099609375,-400000.0625,-2635.530029296875,-400000.0625
412.04493403434753,-400000.0625,72.52999877929688,-8.34000015258789,-400000.0625,-3585.47998046875,-400000.0625,-2630.760009765625,-400000.0625
412.0581591129303,-400000.0625,75.7699966430664,-8.579999923706055,-400000.0625,-3597.02001953125,-400000.0625,-2630.52001953125,-400000.0625
412.07611107826233,-400000.0625,61.130001068115234,-21.790000915527344,-400000.0625,-3598.169921875,-400000.0625,-2641.489990234375,-400000.0625
412.0899739265442,-400000.0625,55.029998779296875,-27.940000534057617,-400000.0625,-3587.2900390625,-400000.0625,-2647.02001953125,-400000.0625
412.1227159500122,-400000.0625,64.5199966430664,-22.1299991607666,-400000.0625,-3583.14990234375,-400000.0625,-2640.820068359375,-400000.0625
412.14073967933655,-400000.0625,74.43000030517578,-13.539999961853027,-400000.0625,-3590.06005859375,-400000.0625,-2633.760009765625,-400000.0625
412.15516471862793,-400000.0625,80.16000366210938,-9.489999771118164,-400000.0625,-3586.389892578125,-400000.0625,-2628.139892578125,-400000.0625
412.17079758644104,-400000.0625,73.43000030517578,-18.450000762939453,-400000.0625,-3593.06005859375,-400000.0625,-2638.860107421875,-400000.0625
412.1866126060486,-400000.0625,67.37999725341797,-26.1299991607666,-400000.0625,-3596.159912109375,-400000.0625,-2648.070068359375,-400000.0625
412.2072825431824,-400000.0625,71.80999755859375,-23.649999618530273,-400000.0625,-3597.780029296875,-400000.0625,-2643.110107421875,-400000.0625
412.27456998825073,-400000.0625,80.62999725341797,-15.449999809265137,-400000.0625,-3585.719970703125,-400000.0625,-2633.10009765625,-400000.0625
412.31310272216797,-400000.0625,85.26000213623047,-10.0600004196167,-400000.0625,-3579.330078125,-400000.0625,-2631.0400390625,-400000.0625
412.3573935031891,-400000.0625,74.66999816894531,-21.84000015258789,-400000.0625,-3589.72998046875,-400000.0625,-2634.81005859375,-400000.0625
412.38862133026123,-400000.0625,65.47000122070312,-29.280000686645508,-400000.0625,-3592.43994140625,-400000.0625,-2639.719970703125,-400000.0625
412.4197988510132,-400000.0625,72.62000274658203,-25.459999084472656,-400000.0625,-3587.679931640625,-400000.0625,-2636.47998046875,-400000.0625
412.4728240966797,-400000.0625,81.87000274658203,-15.829999923706055,-400000.0625,-3592.43994140625,-400000.0625,-2637.429931640625,-400000.0625
412.4959192276001,-400000.0625,80.05999755859375,-17.209999084472656,-400000.0625,-3599.260009765625,-400000.0625,-2632.280029296875,-400000.0625
412.51967430114746,-400000.0625,68.80999755859375,-34.900001525878906,-400000.0625,-3600.169921875,-400000.0625,-2622.699951171875,-400000.0625
412.5318582057953,-400000.0625,59.029998779296875,-49.2599983215332,-400000.0625,-3608.989990234375,-400000.0625,-2619.550048828125,-400000.0625
412.5754427909851,-400000.0625,67.41999816894531,-51.400001525878906,-400000.0625,-3611.610107421875,-400000.0625,-2604.199951171875,-400000.0625
412.60238337516785,-400000.0625,75.29000091552734,-46.83000183105469,-400000.0625,-3596.1201171875,-400000.0625,-2588.080078125,-400000.0625
412.62397170066833,-400000.0625,65.94999694824219,-53.45000076293945,-400000.0625,-3595.260009765625,-400000.0625,-2573.8701171875,-400000.0625
412.65114092826843,-400000.0625,56.220001220703125,-73.52999877929688,-400000.0625,-3610.22998046875,-400000.0625,-2568.199951171875,-400000.0625
412.7060296535492,-400000.0625,52.93000030517578,-89.93000030517578,-400000.0625,-3625.010009765625,-400000.0625,-2565.429931640625,-400000.0625
412.7370934486389,-400000.0625,51.7400016784668,-93.79000091552734,-400000.0625,-3630.260009765625,-400000.0625,-2559.7099609375,-400000.0625
412.76253366470337,-400000.0625,60.84000015258789,-84.11000061035156,-400000.0625,-3617.949951171875,-400000.0625,-2545.8798828125,-400000.0625
412.82794737815857,-400000.0625,66.61000061035156,-84.5,-400000.0625,-3619.239990234375,-400000.0625,-2535.679931640625,-400000.0625
412.85246872901917,-400000.0625,53.63999938964844,-94.55999755859375,-400000.0625,-3637.889892578125,-400000.0625,-2544.02001953125,-400000.0625
412.8836953639984,-400000.0625,46.209999084472656,-103.04000091552734,-400000.0625,-3641.27001953125,-400000.0625,-2553.889892578125,-400000.0625
412.94587421417236,-400000.0625,54.54999923706055,-99.70999908447266,-400000.0625,-3633.360107421875,-400000.0625,-2549.510009765625,-400000.0625
412.9718313217163,-400000.0625,65.9000015258789,-89.44999694824219,-400000.0625,-3627.43994140625,-400000.0625,-2541.780029296875,-400000.0625
412.99871015548706,-400000.0625,71.66999816894531,-85.20999908447266,-400000.0625,-3616.52001953125,-400000.0625,-2537.820068359375,-400000.0625
413.0457248687744,-400000.0625,66.19000244140625,-92.5999984741211,-400000.0625,-3617.6201171875,-400000.0625,-2543.31005859375,-400000.0625
413.0782871246338,-400000.0625,55.5,-102.13999938964844,-400000.0625,-3621.719970703125,-400000.0625,-2548.64990234375,-400000.0625
413.09910464286804,-400000.0625,59.650001525878906,-97.98999786376953,-400000.0625,-3623.199951171875,-400000.0625,-2547.260009765625,-400000.0625
413.2231819629669,-400000.0625,65.04000091552734,-89.5,-400000.0625,-3617.6201171875,-400000.0625,-2542.5400390625,-400000.0625
413.3117952346802,-400000.0625,69.37999725341797,-86.5,-400000.0625,-3613.89990234375,-400000.0625,-2542.830078125,-400000.0625
413.33987188339233,-400000.0625,57.97999954223633,-97.2300033569336,-400000.0625,-3619.719970703125,-400000.0625,-2552.320068359375,-400000.0625
413.38621616363525,-400000.0625,50.310001373291016,-104.86000061035156,-400000.0625,-3627.830078125,-400000.0625,-2557.469970703125,-400000.0625
413.40875148773193,-400000.0625,56.40999984741211,-98.75,-400000.0625,-3622.010009765625,-400000.0625,-2548.27001953125,-400000.0625
413.44183111190796,-400000.0625,67.9000015258789,-88.69000244140625,-400000.0625,-3614.860107421875,-400000.0625,-2537.780029296875,-400000.0625
413.4865372180939,-400000.0625,71.23999786376953,-86.0199966430664,-400000.0625,-3612.800048828125,-400000.0625,-2536.72998046875,-400000.0625
413.5032072067261,-400000.0625,58.599998474121094,-97.08000183105469,-400000.0625,-3621.47998046875,-400000.0625,-2543.8798828125,-400000.0625
413.52870512008667,-400000.0625,47.45000076293945,-107.0999984741211,-400000.0625,-3628.830078125,-400000.0625,-2550.4599609375,-400000.0625
413.54418563842773,-400000.0625,54.06999969482422,-103.37999725341797,-400000.0625,-3625.110107421875,-400000.0625,-2550.550048828125,-400000.0625
413.5952560901642,-400000.0625,65.80000305175781,-90.93000030517578,-400000.0625,-3619.530029296875,-400000.0625,-2545.260009765625,-400000.0625
413.62661504745483,-400000.0625,65.76000213623047,-88.87999725341797,-400000.0625,-3620.9599609375,-400000.0625,-2542.830078125,-400000.0625
413.6537353992462,-400000.0625,53.790000915527344,-97.2300033569336,-400000.0625,-3622.10009765625,-400000.0625,-2548.080078125,-400000.0625
413.70261812210083,-400000.0625,49.72999954223633,-105.08999633789062,-400000.0625,-3617.949951171875,-400000.0625,-2552.800048828125,-400000.0625
413.722806930542,-400000.0625,56.70000076293945,-99.18000030517578,-400000.0625,-3610.1298828125,-400000.0625,-2549.7900390625,-400000.0625
413.7478942871094,-400000.0625,68.47000122070312,-89.30999755859375,-400000.0625,-3603.080078125,-400000.0625,-2539.43994140625,-400000.0625
413.77035570144653,-400000.0625,73.0,-86.93000030517578,-400000.0625,-3607.320068359375,-400000.0625,-2538.43994140625,-400000.0625
413.8075895309448,-400000.0625,61.459999084472656,-96.37000274658203,-400000.0625,-3628.780029296875,-400000.0625,-2546.97998046875,-400000.0625
413.8382270336151,-400000.0625,52.36000061035156,-106.80999755859375,-400000.0625,-3636.64990234375,-400000.0625,-2556.85009765625,-400000.0625
413.87164282798767,-400000.0625,56.84000015258789,-101.41999816894531,-400000.0625,-3616.860107421875,-400000.0625,-2557.22998046875,-400000.0625
413.91710591316223,-400000.0625,66.80000305175781,-87.93000030517578,-400000.0625,-3605.64990234375,-400000.0625,-2547.64990234375,-400000.0625
413.93637466430664,-400000.0625,77.01000213623047,-82.97000122070312,-400000.0625,-3609.85009765625,-400000.0625,-2542.780029296875,-400000.0625
413.95488715171814,-400000.0625,68.62000274658203,-95.61000061035156,-400000.0625,-3623.679931640625,-400000.0625,-2545.360107421875,-400000.0625
413.98439264297485,-400000.0625,54.97999954223633,-109.0,-400000.0625,-3626.199951171875,-400000.0625,-2550.7900390625,-400000.0625
414.03112864494324,-400000.0625,58.650001525878906,-105.37999725341797,-400000.0625,-3610.75,-400000.0625,-2550.360107421875,-400000.0625
414.05502676963806,-400000.0625,65.37000274658203,-98.08999633789062,-400000.0625,-3611.89990234375,-400000.0625,-2542.5400390625,-400000.0625
414.0843389034271,-400000.0625,68.08999633789062,-96.8499984741211,-400000.0625,-3620.820068359375,-400000.0625,-2541.02001953125,-400000.0625
414.1098663806915,-400000.0625,66.27999877929688,-102.94999694824219,-400000.0625,-3625.14990234375,-400000.0625,-2547.5,-400000.0625
414.1532943248749,-400000.0625,50.349998474121094,-112.52999877929688,-400000.0625,-3631.68994140625,-400000.0625,-2554.610107421875,-400000.0625
414.17139649391174,-400000.0625,47.209999084472656,-112.58000183105469,-400000.0625,-3627.39990234375,-400000.0625,-2555.1298828125,-400000.0625
414.1896893978119,-400000.0625,59.369998931884766,-103.08999633789062,-400000.0625,-3618.860107421875,-400000.0625,-2549.1201171875,-400000.0625
414.2097227573395,-400000.0625,64.27999877929688,-96.61000061035156,-400000.0625,-3618.570068359375,-400000.0625,-2543.68994140625,-400000.0625
414.2358660697937,-400000.0625,57.84000015258789,-103.66000366210938,-400000.0625,-3622.6298828125,-400000.0625,-2548.929931640625,-400000.0625
414.26755809783936,-400000.0625,50.119998931884766,-109.52999877929688,-400000.0625,-3626.919921875,-400000.0625,-2553.75,-400000.0625
414.29663920402527,-400000.0625,51.83000183105469,-106.0,-400000.0625,-3625.580078125,-400000.0625,-2553.179931640625,-400000.0625
414.3184599876404,-400000.0625,62.18000030517578,-93.36000061035156,-400000.0625,-3617.139892578125,-400000.0625,-2543.969970703125,-400000.0625
414.34672951698303,-400000.0625,70.0999984741211,-89.02999877929688,-400000.0625,-3619.530029296875,-400000.0625,-2533.77001953125,-400000.0625
414.3888943195343,-400000.0625,62.61000061035156,-104.0,-400000.0625,-3623.679931640625,-400000.0625,-2539.590087890625,-400000.0625
414.40756726264954,-400000.0625,46.540000915527344,-120.97000122070312,-400000.0625,-3628.06005859375,-400000.0625,-2543.5,-400000.0625
414.4273431301117,-400000.0625,46.91999816894531,-117.16000366210938,-400000.0625,-3628.06005859375,-400000.0625,-2539.35009765625,-400000.0625
414.4497973918915,-400000.0625,53.97999954223633,-106.80999755859375,-400000.0625,-3628.06005859375,-400000.0625,-2529.3798828125,-400000.0625
414.48281955718994,-400000.0625,58.36000061035156,-105.94999694824219,-400000.0625,-3621.2900390625,-400000.0625,-2527.7099609375,-400000.0625
414.50369238853455,-400000.0625,52.97999954223633,-114.48999786376953,-400000.0625,-3621.239990234375,-400000.0625,-2535.530029296875,-400000.0625
414.5274112224579,-400000.0625,43.11000061035156,-121.20999908447266,-400000.0625,-3628.780029296875,-400000.0625,-2542.35009765625,-400000.0625
414.5568583011627,-400000.0625,47.349998474121094,-119.26000213623047,-400000.0625,-3629.449951171875,-400000.0625,-2543.02001953125,-400000.0625
414.61116337776184,-400000.0625,67.70999908447266,-105.56999969482422,-400000.0625,-3624.9599609375,-400000.0625,-2533.389892578125,-400000.0625
414.63882660865784,-400000.0625,73.33999633789062,-101.13999938964844,-400000.0625,-3622.14990234375,-400000.0625,-2527.52001953125,-400000.0625
414.66343879699707,-400000.0625,58.36000061035156,-115.11000061035156,-400000.0625,-3624.489990234375,-400000.0625,-2536.489990234375,-400000.0625
414.712881565094,-400000.0625,46.15999984741211,-125.69000244140625,-400000.0625,-3628.780029296875,-400000.0625,-2543.929931640625,-400000.0625
414.7358500957489,-400000.0625,53.790000915527344,-119.5,-400000.0625,-3633.68994140625,-400000.0625,-2541.969970703125,-400000.0625
414.7551419734955,-400000.0625,61.040000915527344,-111.68000030517578,-400000.0625,-3629.72998046875,-400000.0625,-2534.43994140625,-400000.0625
414.7742450237274,-400000.0625,61.88999938964844,-110.33999633789062,-400000.0625,-3614.81005859375,-400000.0625,-2532.669921875,-400000.0625
414.8166341781616,-400000.0625,52.2599983215332,-121.20999908447266,-400000.0625,-3612.52001953125,-400000.0625,-2543.780029296875,-400000.0625
414.84168457984924,-400000.0625,44.25,-131.02999877929688,-400000.0625,-3627.06005859375,-400000.0625,-2548.889892578125,-400000.0625
414.8654065132141,-400000.0625,52.2599983215332,-124.55000305175781,-400000.0625,-3625.35009765625,-400000.0625,-2542.72998046875,-400000.0625
414.8921146392822,-400000.0625,61.31999969482422,-112.19999694824219,-400000.0625,-3631.02001953125,-400000.0625,-2532.530029296875,-400000.0625
414.92755937576294,-400000.0625,65.94999694824219,-108.66999816894531,-400000.0625,-3628.679931640625,-400000.0625,-2532.340087890625,-400000.0625
414.94671535491943,-400000.0625,53.689998626708984,-123.0199966430664,-400000.0625,-3623.530029296875,-400000.0625,-2544.639892578125,-400000.0625
414.96989345550537,-400000.0625,47.59000015258789,-130.27000427246094,-400000.0625,-3625.14990234375,-400000.0625,-2550.889892578125,-400000.0625
414.99137926101685,-400000.0625,55.599998474121094,-122.9800033569336,-400000.0625,-3627.159912109375,-400000.0625,-2546.219970703125,-400000.0625
415.01576495170593,-400000.0625,63.849998474121094,-113.1500015258789,-400000.0625,-3630.68994140625,-400000.0625,-2537.110107421875,-400000.0625
415.053998708725,-400000.0625,69.5199966430664,-112.72000122070312,-400000.0625,-3624.919921875,-400000.0625,-2533.719970703125,-400000.0625
415.0714199542999,-400000.0625,60.79999923706055,-120.58999633789062,-400000.0625,-3622.530029296875,-400000.0625,-2542.590087890625,-400000.0625
415.09204268455505,-400000.0625,46.869998931884766,-130.55999755859375,-400000.0625,-3633.97998046875,-400000.0625,-2549.929931640625,-400000.0625
415.11335277557373,-400000.0625,37.66999816894531,-131.75,-400000.0625,-3635.60009765625,-400000.0625,-2552.75,-400000.0625
415.13770866394043,-400000.0625,58.560001373291016,-109.29000091552734,-400000.0625,-3625.72998046875,-400000.0625,-2547.360107421875,-400000.0625
415.17270278930664,-400000.0625,85.93000030517578,-92.88999938964844,-400000.0625,-3611.610107421875,-400000.0625,-2551.27001953125,-400000.0625
415.189945936203,-400000.0625,86.9800033569336,-99.2300033569336,-400000.0625,-3609.989990234375,-400000.0625,-2565.2900390625,-400000.0625
415.2150104045868,-400000.0625,80.68000030517578,-108.0,-400000.0625,-3616.949951171875,-400000.0625,-2582.219970703125,-400000.0625
415.2381706237793,-400000.0625,81.25,-98.98999786376953,-400000.0625,-3618.81005859375,-400000.0625,-2588.840087890625,-400000.0625
415.27776622772217,-400000.0625,96.55999755859375,-77.91999816894531,-400000.0625,-3605.889892578125,-400000.0625,-2594.89990234375,-400000.0625
415.3047935962677,-400000.0625,105.62000274658203,-68.47000122070312,-400000.0625,-3597.1201171875,-400000.0625,-2604.14990234375,-400000.0625
415.3291931152344,-400000.0625,98.75,-77.58000183105469,-400000.0625,-3605.080078125,-400000.0625,-2616.5,-400000.0625
415.34808349609375,-400000.0625,93.75,-78.7300033569336,-400000.0625,-3614.52001953125,-400000.0625,-2627.89990234375,-400000.0625
415.389328956604,-400000.0625,102.5199966430664,-70.62000274658203,-400000.0625,-3612.89990234375,-400000.0625,-2624.93994140625,-400000.0625
415.4132671356201,-400000.0625,111.68000030517578,-60.9900016784668,-400000.0625,-3608.85009765625,-400000.0625,-2619.4599609375,-400000.0625
415.43787455558777,-400000.0625,109.29000091552734,-60.650001525878906,-400000.0625,-3607.320068359375,-400000.0625,-2617.1201171875,-400000.0625
415.4566693305969,-400000.0625,96.37000274658203,-72.80999755859375,-400000.0625,-3601.60009765625,-400000.0625,-2624.699951171875,-400000.0625
415.5004117488861,-400000.0625,87.93000030517578,-81.05999755859375,-400000.0625,-3617.3798828125,-400000.0625,-2636.909912109375,-400000.0625
415.5202405452728,-400000.0625,91.9800033569336,-77.44000244140625,-400000.0625,-3614.659912109375,-400000.0625,-2634.669921875,-400000.0625
415.5389060974121,-400000.0625,98.8499984741211,-68.19000244140625,-400000.0625,-3596.1201171875,-400000.0625,-2624.800048828125,-400000.0625
415.56662678718567,-400000.0625,100.98999786376953,-61.369998931884766,-400000.0625,-3593.969970703125,-400000.0625,-2622.320068359375,-400000.0625
415.6014106273651,-400000.0625,93.9800033569336,-72.29000091552734,-400000.0625,-3606.4599609375,-400000.0625,-2629.22998046875,-400000.0625
415.63452529907227,-400000.0625,86.0199966430664,-80.7300033569336,-400000.0625,-3619.580078125,-400000.0625,-2633.050048828125,-400000.0625
415.65836358070374,-400000.0625,89.83999633789062,-74.72000122070312,-400000.0625,-3611.89990234375,-400000.0625,-2631.239990234375,-400000.0625
415.6855573654175,-400000.0625,97.04000091552734,-67.56999969482422,-400000.0625,-3601.60009765625,-400000.0625,-2624.510009765625,-400000.0625
415.7159934043884,-400000.0625,99.66000366210938,-65.41999816894531,-400000.0625,-3597.68994140625,-400000.0625,-2623.840087890625,-400000.0625
415.7360773086548,-400000.0625,94.12999725341797,-71.62000274658203,-400000.0625,-3605.93994140625,-400000.0625,-2635.6201171875,-400000.0625
415.7539310455322,-400000.0625,84.44999694824219,-82.4000015258789,-400000.0625,-3613.22998046875,-400000.0625,-2638.669921875,-400000.0625
415.77134132385254,-400000.0625,83.11000061035156,-81.68000030517578,-400000.0625,-3609.610107421875,-400000.0625,-2633.760009765625,-400000.0625
415.8008770942688,-400000.0625,97.08000183105469,-67.19000244140625,-400000.0625,-3602.1201171875,-400000.0625,-2631.280029296875,-400000.0625
415.8334131240845,-400000.0625,105.43000030517578,-62.88999938964844,-400000.0625,-3600.1201171875,-400000.0625,-2628.85009765625,-400000.0625
415.85223484039307,-400000.0625,94.08000183105469,-73.19000244140625,-400000.0625,-3602.739990234375,-400000.0625,-2631.239990234375,-400000.0625
415.87007904052734,-400000.0625,89.83999633789062,-80.44000244140625,-400000.0625,-3605.4599609375,-400000.0625,-2633.429931640625,-400000.0625
415.8887622356415,-400000.0625,93.5999984741211,-77.68000030517578,-400000.0625,-3605.60009765625,-400000.0625,-2632.429931640625,-400000.0625
415.907057762146,-400000.0625,100.66000366210938,-68.27999877929688,-400000.0625,-3604.4599609375,-400000.0625,-2623.510009765625,-400000.0625
415.94321942329407,-400000.0625,102.27999877929688,-65.76000213623047,-400000.0625,-3606.1298828125,-400000.0625,-2623.030029296875,-400000.0625
415.9637269973755,-400000.0625,95.55999755859375,-72.56999969482422,-400000.0625,-3611.52001953125,-400000.0625,-2631.52001953125,-400000.0625
415.9817051887512,-400000.0625,88.73999786376953,-80.01000213623047,-400000.0625,-3614.570068359375,-400000.0625,-2638.580078125,-400000.0625
416.00229835510254,-400000.0625,92.69999694824219,-76.62999725341797,-400000.0625,-3596.8798828125,-400000.0625,-2634.429931640625,-400000.0625
416.01793456077576,-400000.0625,105.08999633789062,-64.70999908447266,-400000.0625,-3588.300048828125,-400000.0625,-2627.989990234375,-400000.0625
416.06425523757935,-400000.0625,106.37999725341797,-62.31999969482422,-400000.0625,-3597.830078125,-400000.0625,-2625.659912109375,-400000.0625
416.0913200378418,-400000.0625,89.22000122070312,-74.81999969482422,-400000.0625,-3603.64990234375,-400000.0625,-2640.340087890625,-400000.0625
416.10987091064453,-400000.0625,81.91999816894531,-77.87000274658203,-400000.0625,-3614.7099609375,-400000.0625,-2654.64990234375,-400000.0625
416.13329219818115,-400000.0625,111.81999969482422,-59.459999084472656,-400000.0625,-3605.179931640625,-400000.0625,-2653.929931640625,-400000.0625
416.1680679321289,-400000.0625,131.50999450683594,-43.34000015258789,-400000.0625,-3585.580078125,-400000.0625,-2647.919921875,-400000.0625
416.18525552749634,-400000.0625,143.19000244140625,-34.2400016784668,-400000.0625,-3584.669921875,-400000.0625,-2649.39990234375,-400000.0625
416.20490407943726,-400000.0625,144.1999969482422,-35.43000030517578,-400000.0625,-3587.06005859375,-400000.0625,-2663.56005859375,-400000.0625
416.22030305862427,-400000.0625,129.64999389648438,-37.959999084472656,-400000.0625,-3593.02001953125,-400000.0625,-2679.2099609375,-400000.0625
416.2380304336548,-400000.0625,140.80999755859375,-26.270000457763672,-400000.0625,-3591.5400390625,-400000.0625,-2681.830078125,-400000.0625
416.27135825157166,-400000.0625,164.32000732421875,-8.109999656677246,-400000.0625,-3580.47998046875,-400000.0625,-2678.6298828125,-400000.0625
416.2896625995636,-400000.0625,165.1300048828125,-1.8600000143051147,-400000.0625,-3579.52001953125,-400000.0625,-2681.679931640625,-400000.0625
416.30440855026245,-400000.0625,158.69000244140625,-4.389999866485596,-400000.0625,-3575.75,-400000.0625,-2694.22998046875,-400000.0625
416.3216645717621,-400000.0625,150.38999938964844,-10.630000114440918,-400000.0625,-3581.10009765625,-400000.0625,-2700.85009765625,-400000.0625
416.3426613807678,-400000.0625,152.25,-10.25,-400000.0625,-3588.679931640625,-400000.0625,-2702.570068359375,-400000.0625
416.3895363807678,-400000.0625,161.6999969482422,-1.4800000190734863,-400000.0625,-3581.949951171875,-400000.0625,-2691.7900390625,-400000.0625
416.4051308631897,-400000.0625,169.32000732421875,3.0,-400000.0625,-3573.699951171875,-400000.0625,-2687.739990234375,-400000.0625
416.4245798587799,-400000.0625,158.4499969482422,-5.199999809265137,-400000.0625,-3582.570068359375,-400000.0625,-2695.699951171875,-400000.0625
416.44393825531006,-400000.0625,143.91000366210938,-12.920000076293945,-400000.0625,-3588.300048828125,-400000.0625,-2701.860107421875,-400000.0625
416.49184012413025,-400000.0625,145.72000122070312,-10.4399995803833,-400000.0625,-3580.669921875,-400000.0625,-2695.889892578125,-400000.0625
416.51876759529114,-400000.0625,161.22000122070312,2.190000057220459,-400000.0625,-3570.1298828125,-400000.0625,-2687.68994140625,-400000.0625
416.5406217575073,-400000.0625,163.97999572753906,4.909999847412109,-400000.0625,-3576.52001953125,-400000.0625,-2685.260009765625,-400000.0625
416.5732319355011,-400000.0625,152.35000610351562,-2.809999942779541,-400000.0625,-3587.719970703125,-400000.0625,-2689.64990234375,-400000.0625
416.6371765136719,-400000.0625,146.91000366210938,-10.4399995803833,-400000.0625,-3586.9599609375,-400000.0625,-2698.989990234375,-400000.0625
416.6574523448944,-400000.0625,145.5800018310547,-8.0600004196167,-400000.0625,-3582.429931640625,-400000.0625,-2693.27001953125,-400000.0625
416.6887800693512,-400000.0625,153.67999267578125,4.769999980926514,-400000.0625,-3573.75,-400000.0625,-2685.02001953125,-400000.0625
416.73977613449097,-400000.0625,163.41000366210938,11.25,-400000.0625,-3568.889892578125,-400000.0625,-2675.43994140625,-400000.0625
416.7601385116577,-400000.0625,156.2100067138672,0.8600000143051147,-400000.0625,-3580.89990234375,-400000.0625,-2684.260009765625,-400000.0625
416.771817445755,-400000.0625,145.00999450683594,-7.199999809265137,-400000.0625,-3586.860107421875,-400000.0625,-2694.419921875,-400000.0625
416.78605103492737,-400000.0625,150.35000610351562,-0.5699999928474426,-400000.0625,-3585.6298828125,-400000.0625,-2689.030029296875,-400000.0625
416.8052282333374,-400000.0625,164.27000427246094,11.350000381469727,-400000.0625,-3579.949951171875,-400000.0625,-2679.6298828125,-400000.0625
416.85082721710205,-400000.0625,163.6999969482422,13.020000457763672,-400000.0625,-3567.60009765625,-400000.0625,-2678.43994140625,-400000.0625
416.87212896347046,-400000.0625,153.3000030517578,3.5799999237060547,-400000.0625,-3565.97998046875,-400000.0625,-2687.1201171875,-400000.0625
416.8885591030121,-400000.0625,143.72000122070312,-6.630000114440918,-400000.0625,-3587.43994140625,-400000.0625,-2690.320068359375,-400000.0625
416.9060740470886,-400000.0625,150.25,-0.8100000023841858,-400000.0625,-3590.6298828125,-400000.0625,-2686.7900390625,-400000.0625
416.943950176239,-400000.0625,164.27000427246094,11.399999618530273,-400000.0625,-3574.659912109375,-400000.0625,-2679.25,-400000.0625
416.96848821640015,-400000.0625,165.61000061035156,14.3100004196167,-400000.0625,-3567.739990234375,-400000.0625,-2676.340087890625,-400000.0625
416.9889135360718,-400000.0625,158.07000732421875,7.099999904632568,-400000.0625,-3579.239990234375,-400000.0625,-2681.919921875,-400000.0625
417.0115966796875,-400000.0625,148.11000061035156,-3.0999999046325684,-400000.0625,-3587.199951171875,-400000.0625,-2684.260009765625,-400000.0625
417.05647563934326,-400000.0625,153.11000061035156,-2.4800000190734863,-400000.0625,-3595.449951171875,-400000.0625,-2682.639892578125,-400000.0625
417.0871558189392,-400000.0625,160.1199951171875,5.869999885559082,-400000.0625,-3586.860107421875,-400000.0625,-2673.820068359375,-400000.0625
417.106347322464,-400000.0625,162.27000427246094,10.680000305175781,-400000.0625,-3574.510009765625,-400000.0625,-2669.909912109375,-400000.0625
417.126895904541,-400000.0625,154.77999877929688,-0.7599999904632568,-400000.0625,-3580.669921875,-400000.0625,-2682.070068359375,-400000.0625
417.1723771095276,-400000.0625,144.24000549316406,-11.010000228881836,-400000.0625,-3586.669921875,-400000.0625,-2692.889892578125,-400000.0625
417.1898241043091,-400000.0625,147.44000244140625,-5.480000019073486,-400000.0625,-3575.1298828125,-400000.0625,-2687.64990234375,-400000.0625
417.2121202945709,-400000.0625,158.02000427246094,2.7699999809265137,-400000.0625,-3566.550048828125,-400000.0625,-2676.580078125,-400000.0625
417.25673508644104,-400000.0625,164.17999267578125,7.71999979019165,-400000.0625,-3570.510009765625,-400000.0625,-2675.10009765625,-400000.0625
417.38214325904846,-400000.0625,153.16000366210938,-2.4800000190734863,-400000.0625,-3588.580078125,-400000.0625,-2683.68994140625,-400000.0625
417.4415955543518,-400000.0625,141.91000366210938,-13.640000343322754,-400000.0625,-3594.5400390625,-400000.0625,-2686.830078125,-400000.0625
417.48637652397156,-400000.0625,147.14999389648438,-9.390000343322754,-400000.0625,-3580.239990234375,-400000.0625,-2685.929931640625,-400000.0625
417.59591460227966,-400000.0625,154.16000366210938,0.28999999165534973,-400000.0625,-3567.080078125,-400000.0625,-2678.919921875,-400000.0625
417.67267084121704,-400000.0625,160.97999572753906,5.53000020980835,-400000.0625,-3563.169921875,-400000.0625,-2673.9599609375,-400000.0625
417.70562410354614,-400000.0625,152.77999877929688,-2.430000066757202,-400000.0625,-3562.1201171875,-400000.0625,-2684.31005859375,-400000.0625
417.8103392124176,-400000.0625,141.47999572753906,-16.360000610351562,-400000.0625,-3565.840087890625,-400000.0625,-2694.320068359375,-400000.0625
417.88283610343933,-400000.0625,141.52999877929688,-15.930000305175781,-400000.0625,-3576.330078125,-400000.0625,-2698.139892578125,-400000.0625
417.9167139530182,-400000.0625,155.1199951171875,-7.010000228881836,-400000.0625,-3573.510009765625,-400000.0625,-2689.219970703125,-400000.0625
417.981413602829,-400000.0625,159.60000610351562,-2.5299999713897705,-400000.0625,-3566.60009765625,-400000.0625,-2684.360107421875,-400000.0625
418.0373623371124,-400000.0625,144.52999877929688,-14.020000457763672,-400000.0625,-3583.719970703125,-400000.0625,-2692.320068359375,-400000.0625
418.09459042549133,-400000.0625,132.99000549316406,-22.31999969482422,-400000.0625,-3601.1201171875,-400000.0625,-2697.090087890625,-400000.0625
418.1537983417511,-400000.0625,140.0,-17.549999237060547,-400000.0625,-3592.590087890625,-400000.0625,-2694.699951171875,-400000.0625
418.2499737739563,-400000.0625,153.49000549316406,-5.480000019073486,-400000.0625,-3576.330078125,-400000.0625,-2684.830078125,-400000.0625
418.2812557220459,-400000.0625,159.41000366210938,0.05000000074505806,-400000.0625,-3565.64990234375,-400000.0625,-2680.159912109375,-400000.0625
418.33458948135376,-400000.0625,142.3800048828125,-8.25,-400000.0625,-3570.64990234375,-400000.0625,-2685.39990234375,-400000.0625
418.3882715702057,-400000.0625,132.27000427246094,-15.350000381469727,-400000.0625,-3587.47998046875,-400000.0625,-2696.56005859375,-400000.0625
418.5346963405609,-400000.0625,135.61000061035156,-13.880000114440918,-400000.0625,-3581.909912109375,-400000.0625,-2695.610107421875,-400000.0625
418.6192190647125,-400000.0625,151.35000610351562,-5.440000057220459,-400000.0625,-3564.8798828125,-400000.0625,-2679.35009765625,-400000.0625
418.65886640548706,-400000.0625,160.02999877929688,-2.1500000953674316,-400000.0625,-3570.179931640625,-400000.0625,-2671.909912109375,-400000.0625
418.7215654850006,-400000.0625,146.91000366210938,-12.829999923706055,-400000.0625,-3578.81005859375,-400000.0625,-2674.8701171875,-400000.0625
418.7821364402771,-400000.0625,130.61000061035156,-25.700000762939453,-400000.0625,-3590.010009765625,-400000.0625,-2682.02001953125,-400000.0625
418.85300397872925,-400000.0625,135.55999755859375,-17.690000534057617,-400000.0625,-3581.719970703125,-400000.0625,-2674.8701171875,-400000.0625
418.90118193626404,-400000.0625,148.9600067138672,-8.199999809265137,-400000.0625,-3567.219970703125,-400000.0625,-2664.52001953125,-400000.0625
418.97215580940247,-400000.0625,162.7899932861328,-1.4299999475479126,-400000.0625,-3565.1201171875,-400000.0625,-2658.4599609375,-400000.0625
419.02239203453064,-400000.0625,153.35000610351562,-8.869999885559082,-400000.0625,-3578.139892578125,-400000.0625,-2664.949951171875,-400000.0625
419.15509581565857,-400000.0625,143.33999633789062,-17.399999618530273,-400000.0625,-3588.77001953125,-400000.0625,-2673.010009765625,-400000.0625
419.2369728088379,-400000.0625,146.33999633789062,-13.539999961853027,-400000.0625,-3585.530029296875,-400000.0625,-2669.2900390625,-400000.0625
419.27669954299927,-400000.0625,156.77999877929688,-2.1500000953674316,-400000.0625,-3562.739990234375,-400000.0625,-2661.75,-400000.0625
419.31876730918884,-400000.0625,165.50999450683594,-1.190000057220459,-400000.0625,-3557.010009765625,-400000.0625,-2660.419921875,-400000.0625
419.3477473258972,-400000.0625,156.8300018310547,-9.489999771118164,-400000.0625,-3571.320068359375,-400000.0625,-2665.570068359375,-400000.0625
419.36752223968506,-400000.0625,144.0500030517578,-19.260000228881836,-400000.0625,-3588.010009765625,-400000.0625,-2674.010009765625,-400000.0625
419.3916211128235,-400000.0625,145.47999572753906,-17.360000610351562,-400000.0625,-3595.159912109375,-400000.0625,-2670.9599609375,-400000.0625
419.4419023990631,-400000.0625,154.77999877929688,-9.25,-400000.0625,-3582.10009765625,-400000.0625,-2663.949951171875,-400000.0625
419.47297716140747,-400000.0625,158.5500030517578,-6.010000228881836,-400000.0625,-3574.56005859375,-400000.0625,-2657.699951171875,-400000.0625
419.50178813934326,-400000.0625,148.82000732421875,-11.970000267028809,-400000.0625,-3589.14990234375,-400000.0625,-2663.330078125,-400000.0625
419.5702087879181,-400000.0625,141.2899932861328,-19.739999771118164,-400000.0625,-3602.1201171875,-400000.0625,-2675.10009765625,-400000.0625
419.59836292266846,-400000.0625,139.27999877929688,-23.079999923706055,-400000.0625,-3592.6298828125,-400000.0625,-2673.669921875,-400000.0625
419.6395411491394,-400000.0625,149.72999572753906,-13.59000015258789,-400000.0625,-3572.080078125,-400000.0625,-2663.85009765625,-400000.0625
419.70166063308716,-400000.0625,151.5399932861328,-11.630000114440918,-400000.0625,-3571.610107421875,-400000.0625,-2657.4599609375,-400000.0625
419.7206473350525,-400000.0625,142.6199951171875,-18.450000762939453,-400000.0625,-3578.469970703125,-400000.0625,-2664.85009765625,-400000.0625
419.7515757083893,-400000.0625,137.22999572753906,-28.040000915527344,-400000.0625,-3589.43994140625,-400000.0625,-2674.2900390625,-400000.0625
419.80538845062256,-400000.0625,137.7100067138672,-27.700000762939453,-400000.0625,-3600.739990234375,-400000.0625,-2674.8701171875,-400000.0625
419.8412013053894,-400000.0625,145.82000732421875,-16.690000534057617,-400000.0625,-3589.580078125,-400000.0625,-2667.760009765625,-400000.0625
419.86432671546936,-400000.0625,156.1199951171875,-10.970000267028809,-400000.0625,-3576.139892578125,-400000.0625,-2664.800048828125,-400000.0625
419.92761421203613,-400000.0625,148.05999755859375,-16.780000686645508,-400000.0625,-3585.389892578125,-400000.0625,-2671.340087890625,-400000.0625
419.9544186592102,-400000.0625,133.17999267578125,-27.75,-400000.0625,-3593.39990234375,-400000.0625,-2679.969970703125,-400000.0625
419.9853551387787,-400000.0625,140.80999755859375,-20.690000534057617,-400000.0625,-3591.159912109375,-400000.0625,-2677.300048828125,-400000.0625
420.04471802711487,-400000.0625,153.77999877929688,-8.630000114440918,-400000.0625,-3582.669921875,-400000.0625,-2664.330078125,-400000.0625
420.0919442176819,-400000.0625,155.8800048828125,-5.769999980926514,-400000.0625,-3573.080078125,-400000.0625,-2658.320068359375,-400000.0625
420.1479127407074,-400000.0625,154.35000610351562,-11.399999618530273,-400000.0625,-3583.10009765625,-400000.0625,-2665.330078125,-400000.0625
420.1844446659088,-400000.0625,140.19000244140625,-21.649999618530273,-400000.0625,-3589.199951171875,-400000.0625,-2673.14990234375,-400000.0625
420.2081563472748,-400000.0625,144.2899932861328,-18.06999969482422,-400000.0625,-3582.81005859375,-400000.0625,-2668.909912109375,-400000.0625
420.25771498680115,-400000.0625,155.8800048828125,-7.820000171661377,-400000.0625,-3578.22998046875,-400000.0625,-2661.56005859375,-400000.0625
420.2955505847931,-400000.0625,163.02999877929688,-4.389999866485596,-400000.0625,-3575.659912109375,-400000.0625,-2658.610107421875,-400000.0625
420.3374021053314,-400000.0625,156.77999877929688,-14.779999732971191,-400000.0625,-3587.530029296875,-400000.0625,-2665.419921875,-400000.0625
420.41733837127686,-400000.0625,147.14999389648438,-24.459999084472656,-400000.0625,-3592.6298828125,-400000.0625,-2671.10009765625,-400000.0625
420.46962809562683,-400000.0625,146.67999267578125,-24.030000686645508,-400000.0625,-3591.06005859375,-400000.0625,-2669.719970703125,-400000.0625
420.550297498703,-400000.0625,150.67999267578125,-15.6899995803833,-400000.0625,-3575.7099609375,-400000.0625,-2663.56005859375,-400000.0625
420.6099486351013,-400000.0625,156.4499969482422,-10.920000076293945,-400000.0625,-3570.60009765625,-400000.0625,-2658.64990234375,-400000.0625
420.7132377624512,-400000.0625,148.72999572753906,-19.450000762939453,-400000.0625,-3577.800048828125,-400000.0625,-2664.659912109375,-400000.0625
420.7932176589966,-400000.0625,139.19000244140625,-28.940000534057617,-400000.0625,-3589.110107421875,-400000.0625,-2669.530029296875,-400000.0625
420.83727836608887,-400000.0625,141.80999755859375,-27.1299991607666,-400000.0625,-3592.679931640625,-400000.0625,-2666.7099609375,-400000.0625
420.91537618637085,-400000.0625,152.5399932861328,-16.15999984741211,-400000.0625,-3588.25,-400000.0625,-2654.31005859375,-400000.0625
420.98252272605896,-400000.0625,165.8000030517578,-8.149999618530273,-400000.0625,-3583.77001953125,-400000.0625,-2648.02001953125,-400000.0625
421.08287143707275,-400000.0625,154.9199981689453,-21.309999465942383,-400000.0625,-3586.14990234375,-400000.0625,-2651.639892578125,-400000.0625
421.1839373111725,-400000.0625,142.47999572753906,-31.09000015258789,-400000.0625,-3588.300048828125,-400000.0625,-2661.3701171875,-400000.0625
421.2986629009247,-400000.0625,144.91000366210938,-25.610000610351562,-400000.0625,-3577.330078125,-400000.0625,-2661.659912109375,-400000.0625
421.40763568878174,-400000.0625,152.49000549316406,-18.06999969482422,-400000.0625,-3567.699951171875,-400000.0625,-2656.030029296875,-400000.0625
421.5035855770111,-400000.0625,146.52999877929688,-17.209999084472656,-400000.0625,-3572.179931640625,-400000.0625,-2652.360107421875,-400000.0625
421.55754804611206,-400000.0625,145.33999633789062,-17.170000076293945,-400000.0625,-3584.050048828125,-400000.0625,-2659.75,-400000.0625
421.6469712257385,-400000.0625,163.02999877929688,-13.260000228881836,-400000.0625,-3587.530029296875,-400000.0625,-2670.570068359375,-400000.0625
421.7289264202118,-400000.0625,169.22999572753906,-7.679999828338623,-400000.0625,-3583.719970703125,-400000.0625,-2681.260009765625,-400000.0625
421.8044571876526,-400000.0625,168.8000030517578,2.2899999618530273,-400000.0625,-3565.030029296875,-400000.0625,-2682.070068359375,-400000.0625
421.8388934135437,-400000.0625,179.5800018310547,15.5,-400000.0625,-3563.739990234375,-400000.0625,-2683.159912109375,-400000.0625
421.88671469688416,-400000.0625,178.3800048828125,14.5,-400000.0625,-3568.7900390625,-400000.0625,-2693.4599609375,-400000.0625
421.91794633865356,-400000.0625,170.13999938964844,4.630000114440918,-400000.0625,-3566.360107421875,-400000.0625,-2704.909912109375,-400000.0625
421.95246267318726,-400000.0625,172.75999450683594,8.199999809265137,-400000.0625,-3559.639892578125,-400000.0625,-2703.760009765625,-400000.0625
422.0242371559143,-400000.0625,182.2899932861328,17.790000915527344,-400000.0625,-3552.719970703125,-400000.0625,-2693.219970703125,-400000.0625
422.05421710014343,-400000.0625,191.39999389648438,21.649999618530273,-400000.0625,-3552.47998046875,-400000.0625,-2691.510009765625,-400000.0625
422.09391260147095,-400000.0625,181.10000610351562,11.829999923706055,-400000.0625,-3574.800048828125,-400000.0625,-2700.330078125,-400000.0625
422.1193435192108,-400000.0625,166.85000610351562,1.4800000190734863,-400000.0625,-3590.969970703125,-400000.0625,-2708.530029296875,-400000.0625
422.1565330028534,-400000.0625,172.52000427246094,5.53000020980835,-400000.0625,-3589.43994140625,-400000.0625,-2707.239990234375,-400000.0625
422.2129557132721,-400000.0625,183.49000549316406,17.450000762939453,-400000.0625,-3589.25,-400000.0625,-2701.570068359375,-400000.0625
422.2460570335388,-400000.0625,187.3000030517578,21.790000915527344,-400000.0625,-3568.27001953125,-400000.0625,-2698.139892578125,-400000.0625
422.2824740409851,-400000.0625,180.91000366210938,14.020000457763672,-400000.0625,-3552.010009765625,-400000.0625,-2702.669921875,-400000.0625
422.3707695007324,-400000.0625,168.8000030517578,3.2899999618530273,-400000.0625,-3560.449951171875,-400000.0625,-2711.199951171875,-400000.0625
422.39741492271423,-400000.0625,173.0399932861328,7.440000057220459,-400000.0625,-3572.179931640625,-400000.0625,-2710.300048828125,-400000.0625
422.4628758430481,-400000.0625,183.9600067138672,18.06999969482422,-400000.0625,-3569.7900390625,-400000.0625,-2706.47998046875,-400000.0625
422.490642786026,-400000.0625,183.33999633789062,21.84000015258789,-400000.0625,-3562.929931640625,-400000.0625,-2705.3798828125,-400000.0625
422.52198934555054,-400000.0625,172.80999755859375,8.869999885559082,-400000.0625,-3581.52001953125,-400000.0625,-2714.590087890625,-400000.0625
422.5798318386078,-400000.0625,164.41000366210938,-1.7200000286102295,-400000.0625,-3593.300048828125,-400000.0625,-2724.1201171875,-400000.0625
422.63783502578735,-400000.0625,169.66000366210938,2.190000057220459,-400000.0625,-3583.669921875,-400000.0625,-2724.929931640625,-400000.0625
422.68330430984497,-400000.0625,173.27999877929688,7.059999942779541,-400000.0625,-3567.64990234375,-400000.0625,-2712.820068359375,-400000.0625
422.712495803833,-400000.0625,176.24000549316406,0.14000000059604645,-400000.0625,-3556.72998046875,-400000.0625,-2691.840087890625,-400000.0625
422.73989176750183,-400000.0625,168.08999633789062,-16.549999237060547,-400000.0625,-3572.699951171875,-400000.0625,-2682.830078125,-400000.0625
422.7783234119415,-400000.0625,161.4600067138672,-29.75,-400000.0625,-3594.2099609375,-400000.0625,-2674.389892578125,-400000.0625
422.8000707626343,-400000.0625,171.57000732421875,-35.619998931884766,-400000.0625,-3604.56005859375,-400000.0625,-2661.800048828125,-400000.0625
422.82453417778015,-400000.0625,181.8699951171875,-34.09000015258789,-400000.0625,-3590.159912109375,-400000.0625,-2644.780029296875,-400000.0625
422.8485803604126,-400000.0625,186.16000366210938,-35.380001068115234,-400000.0625,-3589.43994140625,-400000.0625,-2630.18994140625,-400000.0625
422.90512919425964,-400000.0625,175.42999267578125,-54.06999969482422,-400000.0625,-3605.699951171875,-400000.0625,-2627.89990234375,-400000.0625
422.93342447280884,-400000.0625,166.02999877929688,-66.47000122070312,-400000.0625,-3611.989990234375,-400000.0625,-2629.800048828125,-400000.0625
422.9475827217102,-400000.0625,171.27999877929688,-62.88999938964844,-400000.0625,-3611.22998046875,-400000.0625,-2624.699951171875,-400000.0625
422.96930599212646,-400000.0625,186.6300048828125,-55.599998474121094,-400000.0625,-3601.60009765625,-400000.0625,-2614.449951171875,-400000.0625
423.00344681739807,-400000.0625,200.1300048828125,-49.209999084472656,-400000.0625,-3598.5,-400000.0625,-2609.2099609375,-400000.0625
423.0251417160034,-400000.0625,193.60000610351562,-56.93000030517578,-400000.0625,-3608.0400390625,-400000.0625,-2613.929931640625,-400000.0625
423.0457537174225,-400000.0625,180.6300048828125,-70.0,-400000.0625,-3613.280029296875,-400000.0625,-2618.739990234375,-400000.0625
423.06674790382385,-400000.0625,184.35000610351562,-66.33000183105469,-400000.0625,-3614.139892578125,-400000.0625,-2615.39990234375,-400000.0625
423.08572578430176,-400000.0625,198.32000732421875,-53.36000061035156,-400000.0625,-3609.469970703125,-400000.0625,-2610.110107421875,-400000.0625
423.1223237514496,-400000.0625,202.1300048828125,-46.68000030517578,-400000.0625,-3616.909912109375,-400000.0625,-2605.820068359375,-400000.0625
423.142849445343,-400000.0625,193.7899932861328,-55.599998474121094,-400000.0625,-3613.419921875,-400000.0625,-2611.489990234375,-400000.0625
423.1620318889618,-400000.0625,181.25,-67.2300033569336,-400000.0625,-3601.68994140625,-400000.0625,-2619.360107421875,-400000.0625
423.1795778274536,-400000.0625,184.49000549316406,-63.470001220703125,-400000.0625,-3603.219970703125,-400000.0625,-2615.97998046875,-400000.0625
423.1997871398926,-400000.0625,195.30999755859375,-52.790000915527344,-400000.0625,-3604.4599609375,-400000.0625,-2610.300048828125,-400000.0625
423.2304964065552,-400000.0625,204.4199981689453,-46.060001373291016,-400000.0625,-3607.800048828125,-400000.0625,-2606.820068359375,-400000.0625
423.250230550766,-400000.0625,197.4600067138672,-56.84000015258789,-400000.0625,-3614.429931640625,-400000.0625,-2611.449951171875,-400000.0625
423.2701816558838,-400000.0625,184.97000122070312,-65.37000274658203,-400000.0625,-3611.610107421875,-400000.0625,-2619.929931640625,-400000.0625
423.2832019329071,-400000.0625,189.72999572753906,-57.70000076293945,-400000.0625,-3610.469970703125,-400000.0625,-2613.590087890625,-400000.0625
423.30574464797974,-400000.0625,204.52000427246094,-48.209999084472656,-400000.0625,-3609.280029296875,-400000.0625,-2601.669921875,-400000.0625
423.3566348552704,-400000.0625,208.0399932861328,-42.720001220703125,-400000.0625,-3603.64990234375,-400000.0625,-2596.760009765625,-400000.0625
423.380074262619,-400000.0625,200.3699951171875,-51.06999969482422,-400000.0625,-3609.3701171875,-400000.0625,-2599.760009765625,-400000.0625
423.40500044822693,-400000.0625,192.1699981689453,-60.75,-400000.0625,-3613.81005859375,-400000.0625,-2608.6298828125,-400000.0625
423.4291377067566,-400000.0625,193.07000732421875,-59.220001220703125,-400000.0625,-3606.610107421875,-400000.0625,-2608.780029296875,-400000.0625
423.4808042049408,-400000.0625,202.8000030517578,-53.7400016784668,-400000.0625,-3601.409912109375,-400000.0625,-2598.330078125,-400000.0625
423.5122241973877,-400000.0625,209.86000061035156,-51.400001525878906,-400000.0625,-3602.080078125,-400000.0625,-2591.610107421875,-400000.0625
423.5324864387512,-400000.0625,204.85000610351562,-56.5099983215332,-400000.0625,-3612.419921875,-400000.0625,-2597.949951171875,-400000.0625
423.57801604270935,-400000.0625,194.25999450683594,-67.47000122070312,-400000.0625,-3607.610107421875,-400000.0625,-2605.14990234375,-400000.0625
423.62439346313477,-400000.0625,198.50999450683594,-62.31999969482422,-400000.0625,-3601.739990234375,-400000.0625,-2601.10009765625,-400000.0625
423.64915919303894,-400000.0625,209.24000549316406,-50.63999938964844,-400000.0625,-3601.1201171875,-400000.0625,-2592.7099609375,-400000.0625
423.6955518722534,-400000.0625,215.82000732421875,-45.38999938964844,-400000.0625,-3598.7900390625,-400000.0625,-2589.800048828125,-400000.0625
423.71912002563477,-400000.0625,205.55999755859375,-57.31999969482422,-400000.0625,-3605.179931640625,-400000.0625,-2598.570068359375,-400000.0625
423.741144657135,-400000.0625,195.4600067138672,-69.80999755859375,-400000.0625,-3621.2900390625,-400000.0625,-2605.199951171875,-400000.0625
423.76101779937744,-400000.0625,202.3699951171875,-65.66000366210938,-400000.0625,-3623.300048828125,-400000.0625,-2602.2900390625,-400000.0625
423.80003595352173,-400000.0625,216.2899932861328,-55.88999938964844,-400000.0625,-3614.090087890625,-400000.0625,-2592.989990234375,-400000.0625
423.82093024253845,-400000.0625,218.1999969482422,-54.97999954223633,-400000.0625,-3606.1298828125,-400000.0625,-2587.840087890625,-400000.0625
423.84331011772156,-400000.0625,208.3800048828125,-63.709999084472656,-400000.0625,-3607.080078125,-400000.0625,-2591.659912109375,-400000.0625
423.870774269104,-400000.0625,200.1300048828125,-73.72000122070312,-400000.0625,-3617.330078125,-400000.0625,-2597.81005859375,-400000.0625
423.9137954711914,-400000.0625,203.66000366210938,-70.62000274658203,-400000.0625,-3617.6201171875,-400000.0625,-2595.89990234375,-400000.0625
423.9404249191284,-400000.0625,209.24000549316406,-64.04000091552734,-400000.0625,-3603.27001953125,-400000.0625,-2589.1298828125,-400000.0625
423.96681213378906,-400000.0625,216.6300048828125,-58.5099983215332,-400000.0625,-3601.840087890625,-400000.0625,-2585.360107421875,-400000.0625
423.99182295799255,-400000.0625,212.10000610351562,-67.19000244140625,-400000.0625,-3612.330078125,-400000.0625,-2594.22998046875,-400000.0625
424.03771781921387,-400000.0625,205.0399932861328,-76.81999969482422,-400000.0625,-3631.830078125,-400000.0625,-2597.429931640625,-400000.0625
424.05236196517944,-400000.0625,205.47000122070312,-74.66999816894531,-400000.0625,-3637.31005859375,-400000.0625,-2593.570068359375,-400000.0625
424.07102227211,-400000.0625,214.1999969482422,-66.41999816894531,-400000.0625,-3617.2900390625,-400000.0625,-2587.64990234375,-400000.0625
424.09479546546936,-400000.0625,226.63999938964844,-59.79999923706055,-400000.0625,-3612.330078125,-400000.0625,-2580.60009765625,-400000.0625
424.12610721588135,-400000.0625,217.38999938964844,-67.04000091552734,-400000.0625,-3606.64990234375,-400000.0625,-2583.60009765625,-400000.0625
424.15150713920593,-400000.0625,210.86000061035156,-70.91000366210938,-400000.0625,-3612.090087890625,-400000.0625,-2589.56005859375,-400000.0625
424.17012095451355,-400000.0625,217.00999450683594,-67.27999877929688,-400000.0625,-3615.669921875,-400000.0625,-2586.1298828125,-400000.0625
424.19216418266296,-400000.0625,228.07000732421875,-54.599998474121094,-400000.0625,-3604.219970703125,-400000.0625,-2578.2099609375,-400000.0625
424.21423268318176,-400000.0625,231.5500030517578,-48.2599983215332,-400000.0625,-3601.64990234375,-400000.0625,-2569.820068359375,-400000.0625
424.2572536468506,-400000.0625,219.97000122070312,-55.84000015258789,-400000.0625,-3609.320068359375,-400000.0625,-2576.68994140625,-400000.0625
424.2718641757965,-400000.0625,209.0,-66.9000015258789,-400000.0625,-3613.89990234375,-400000.0625,-2590.56005859375,-400000.0625
424.2908282279968,-400000.0625,211.91000366210938,-64.94999694824219,-400000.0625,-3615.860107421875,-400000.0625,-2588.889892578125,-400000.0625
424.3112418651581,-400000.0625,220.9199981689453,-55.310001373291016,-400000.0625,-3601.97998046875,-400000.0625,-2579.780029296875,-400000.0625
424.32651710510254,-400000.0625,235.99000549316406,-50.15999984741211,-400000.0625,-3595.300048828125,-400000.0625,-2573.010009765625,-400000.0625
424.3581643104553,-400000.0625,227.63999938964844,-59.220001220703125,-400000.0625,-3609.510009765625,-400000.0625,-2583.929931640625,-400000.0625
424.37386322021484,-400000.0625,207.85000610351562,-71.23999786376953,-400000.0625,-3627.25,-400000.0625,-2590.610107421875,-400000.0625
424.39269638061523,-400000.0625,200.4600067138672,-71.62000274658203,-400000.0625,-3628.06005859375,-400000.0625,-2586.93994140625,-400000.0625
424.40838718414307,-400000.0625,218.25,-54.40999984741211,-400000.0625,-3596.5400390625,-400000.0625,-2581.60009765625,-400000.0625
424.43295311927795,-400000.0625,242.85000610351562,-38.099998474121094,-400000.0625,-3575.52001953125,-400000.0625,-2584.030029296875,-400000.0625
424.4639618396759,-400000.0625,231.36000061035156,-46.0099983215332,-400000.0625,-3584.340087890625,-400000.0625,-2602.6298828125,-400000.0625
424.48335814476013,-400000.0625,221.5399932861328,-52.63999938964844,-400000.0625,-3600.64990234375,-400000.0625,-2619.929931640625,-400000.0625
424.50516510009766,-400000.0625,231.4600067138672,-38.959999084472656,-400000.0625,-3598.639892578125,-400000.0625,-2626.510009765625,-400000.0625
424.52280259132385,-400000.0625,248.2899932861328,-23.940000534057617,-400000.0625,-3586.669921875,-400000.0625,-2631.6201171875,-400000.0625
424.539598941803,-400000.0625,256.44000244140625,-12.970000267028809,-400000.0625,-3577.52001953125,-400000.0625,-2642.820068359375,-400000.0625
424.5783269405365,-400000.0625,248.52999877929688,-17.690000534057617,-400000.0625,-3581.860107421875,-400000.0625,-2659.56005859375,-400000.0625
424.6088855266571,-400000.0625,233.32000732421875,-26.889999389648438,-400000.0625,-3598.449951171875,-400000.0625,-2674.719970703125,-400000.0625
424.64077830314636,-400000.0625,238.85000610351562,-21.219999313354492,-400000.0625,-3592.780029296875,-400000.0625,-2680.590087890625,-400000.0625
424.68365693092346,-400000.0625,247.13999938964844,-9.869999885559082,-400000.0625,-3577.469970703125,-400000.0625,-2675.77001953125,-400000.0625
424.70358204841614,-400000.0625,249.9600067138672,-0.4300000071525574,-400000.0625,-3571.1298828125,-400000.0625,-2668.3798828125,-400000.0625
424.72017455101013,-400000.0625,238.0800018310547,-7.71999979019165,-400000.0625,-3577.52001953125,-400000.0625,-2673.669921875,-400000.0625
424.7447953224182,-400000.0625,231.5500030517578,-16.780000686645508,-400000.0625,-3589.820068359375,-400000.0625,-2681.830078125,-400000.0625
424.78250885009766,-400000.0625,230.92999267578125,-17.209999084472656,-400000.0625,-3590.5400390625,-400000.0625,-2679.489990234375,-400000.0625
424.79640197753906,-400000.0625,235.22000122070312,-7.010000228881836,-400000.0625,-3581.330078125,-400000.0625,-2670.340087890625,-400000.0625
424.8200407028198,-400000.0625,243.13999938964844,-0.4300000071525574,-400000.0625,-3573.280029296875,-400000.0625,-2665.760009765625,-400000.0625
424.8400948047638,-400000.0625,235.22000122070312,-11.25,-400000.0625,-3583.239990234375,-400000.0625,-2669.2900390625,-400000.0625
424.8566427230835,-400000.0625,227.63999938964844,-18.450000762939453,-400000.0625,-3602.219970703125,-400000.0625,-2676.8701171875,-400000.0625
424.8931267261505,-400000.0625,225.8300018310547,-16.93000030517578,-400000.0625,-3593.919921875,-400000.0625,-2678.5400390625,-400000.0625
424.9129135608673,-400000.0625,236.0800018310547,-8.149999618530273,-400000.0625,-3583.3798828125,-400000.0625,-2673.820068359375,-400000.0625
424.9335558414459,-400000.0625,244.89999389648438,-0.4300000071525574,-400000.0625,-3587.199951171875,-400000.0625,-2667.570068359375,-400000.0625
424.9502537250519,-400000.0625,231.22000122070312,-9.25,-400000.0625,-3586.10009765625,-400000.0625,-2673.43994140625,-400000.0625
424.97273659706116,-400000.0625,223.3000030517578,-18.170000076293945,-400000.0625,-3591.25,-400000.0625,-2681.639892578125,-400000.0625
425.01238656044006,-400000.0625,226.97000122070312,-17.8799991607666,-400000.0625,-3600.070068359375,-400000.0625,-2680.449951171875,-400000.0625
425.0386612415314,-400000.0625,234.55999755859375,-10.4399995803833,-400000.0625,-3598.39990234375,-400000.0625,-2673.77001953125,-400000.0625
425.05720710754395,-400000.0625,243.57000732421875,-1.5299999713897705,-400000.0625,-3589.25,-400000.0625,-2671.47998046875,-400000.0625
425.07613372802734,-400000.0625,236.8000030517578,-8.770000457763672,-400000.0625,-3593.969970703125,-400000.0625,-2680.35009765625,-400000.0625
425.1065945625305,-400000.0625,220.1999969482422,-22.270000457763672,-400000.0625,-3605.179931640625,-400000.0625,-2689.31005859375,-400000.0625
425.1236457824707,-400000.0625,224.77999877929688,-17.93000030517578,-400000.0625,-3598.68994140625,-400000.0625,-2688.31005859375,-400000.0625
425.1411762237549,-400000.0625,238.61000061035156,-3.430000066757202,-400000.0625,-3581.0,-400000.0625,-2680.639892578125,-400000.0625
425.15703797340393,-400000.0625,245.24000549316406,2.0999999046325684,-400000.0625,-3587.199951171875,-400000.0625,-2678.199951171875,-400000.0625
425.1765387058258,-400000.0625,238.0399932861328,-7.300000190734863,-400000.0625,-3599.2099609375,-400000.0625,-2684.260009765625,-400000.0625
425.2184178829193,-400000.0625,228.1199951171875,-15.119999885559082,-400000.0625,-3611.989990234375,-400000.0625,-2689.169921875,-400000.0625
425.23775005340576,-400000.0625,232.27000427246094,-12.25,-400000.0625,-3600.64990234375,-400000.0625,-2688.1201171875,-400000.0625
425.2578852176666,-400000.0625,245.89999389648438,0.5199999809265137,-400000.0625,-3582.6201171875,-400000.0625,-2680.25,-400000.0625
425.2766487598419,-400000.0625,246.10000610351562,3.390000104904175,-400000.0625,-3580.860107421875,-400000.0625,-2676.77001953125,-400000.0625
425.3114085197449,-400000.0625,241.08999633789062,-2.569999933242798,-400000.0625,-3592.110107421875,-400000.0625,-2679.06005859375,-400000.0625
425.3278193473816,-400000.0625,232.0800018310547,-10.59000015258789,-400000.0625,-3592.25,-400000.0625,-2687.31005859375,-400000.0625
425.3564920425415,-400000.0625,231.60000610351562,-12.0600004196167,-400000.0625,-3583.77001953125,-400000.0625,-2685.5,-400000.0625
425.37351298332214,-400000.0625,241.89999389648438,-5.670000076293945,-400000.0625,-3584.050048828125,-400000.0625,-2678.110107421875,-400000.0625
425.3902575969696,-400000.0625,242.89999389648438,-2.6700000762939453,-400000.0625,-3595.919921875,-400000.0625,-2676.43994140625,-400000.0625
425.4248411655426,-400000.0625,234.64999389648438,-9.729999542236328,-400000.0625,-3602.219970703125,-400000.0625,-2687.219970703125,-400000.0625
425.44564938545227,-400000.0625,222.2100067138672,-18.600000381469727,-400000.0625,-3596.449951171875,-400000.0625,-2695.27001953125,-400000.0625
425.45679545402527,-400000.0625,227.39999389648438,-15.069999694824219,-400000.0625,-3597.070068359375,-400000.0625,-2690.97998046875,-400000.0625
425.47606134414673,-400000.0625,241.3300018310547,-4.099999904632568,-400000.0625,-3590.77001953125,-400000.0625,-2685.02001953125,-400000.0625
425.498961687088,-400000.0625,242.0399932861328,-0.1899999976158142,-400000.0625,-3587.10009765625,-400000.0625,-2682.260009765625,-400000.0625
425.5390386581421,-400000.0625,223.11000061035156,-7.579999923706055,-400000.0625,-3588.389892578125,-400000.0625,-2691.75,-400000.0625
425.55789399147034,-400000.0625,221.05999755859375,-16.309999465942383,-400000.0625,-3584.719970703125,-400000.0625,-2690.169921875,-400000.0625
425.57912611961365,-400000.0625,231.41000366210938,-24.270000457763672,-400000.0625,-3594.449951171875,-400000.0625,-2679.780029296875,-400000.0625
425.5951669216156,-400000.0625,228.36000061035156,-24.989999771118164,-400000.0625,-3598.169921875,-400000.0625,-2672.860107421875,-400000.0625
425.6272301673889,-400000.0625,223.25999450683594,-21.170000076293945,-400000.0625,-3595.72998046875,-400000.0625,-2668.330078125,-400000.0625
425.67193603515625,-400000.0625,214.14999389648438,-27.469999313354492,-400000.0625,-3598.739990234375,-400000.0625,-2671.050048828125,-400000.0625
425.6920840740204,-400000.0625,202.27000427246094,-40.099998474121094,-400000.0625,-3606.4599609375,-400000.0625,-2674.679931640625,-400000.0625
425.7140362262726,-400000.0625,207.3800048828125,-39.290000915527344,-400000.0625,-3598.31005859375,-400000.0625,-2668.3798828125,-400000.0625
425.73209142684937,-400000.0625,220.11000061035156,-30.950000762939453,-400000.0625,-3578.0400390625,-400000.0625,-2662.1298828125,-400000.0625
425.7748041152954,-400000.0625,221.5399932861328,-25.420000076293945,-400000.0625,-3573.93994140625,-400000.0625,-2658.510009765625,-400000.0625
425.79161286354065,-400000.0625,212.33999633789062,-32.95000076293945,-400000.0625,-3589.43994140625,-400000.0625,-2659.889892578125,-400000.0625
425.8172380924225,-400000.0625,202.66000366210938,-45.869998931884766,-400000.0625,-3604.219970703125,-400000.0625,-2671.81005859375,-400000.0625
425.8379650115967,-400000.0625,207.7100067138672,-42.529998779296875,-400000.0625,-3610.7099609375,-400000.0625,-2672.2900390625,-400000.0625
425.873925447464,-400000.0625,217.14999389648438,-32.040000915527344,-400000.0625,-3604.93994140625,-400000.0625,-2657.030029296875,-400000.0625
425.89293575286865,-400000.0625,222.16000366210938,-28.3700008392334,-400000.0625,-3593.780029296875,-400000.0625,-2652.8798828125,-400000.0625
425.90914845466614,-400000.0625,217.33999633789062,-33.0,-400000.0625,-3580.050048828125,-400000.0625,-2660.419921875,-400000.0625
425.9270122051239,-400000.0625,205.85000610351562,-44.970001220703125,-400000.0625,-3580.52001953125,-400000.0625,-2665.18994140625,-400000.0625
425.9446132183075,-400000.0625,206.3800048828125,-42.77000045776367,-400000.0625,-3583.47998046875,-400000.0625,-2662.75,-400000.0625
425.9756078720093,-400000.0625,218.14999389648438,-31.09000015258789,-400000.0625,-3580.669921875,-400000.0625,-2653.070068359375,-400000.0625
425.99587988853455,-400000.0625,225.63999938964844,-28.280000686645508,-400000.0625,-3576.22998046875,-400000.0625,-2647.780029296875,-400000.0625
426.03431844711304,-400000.0625,219.49000549316406,-35.720001220703125,-400000.0625,-3585.429931640625,-400000.0625,-2652.64990234375,-400000.0625
426.05494356155396,-400000.0625,208.27999877929688,-47.63999938964844,-400000.0625,-3603.030029296875,-400000.0625,-2662.419921875,-400000.0625
426.09067583084106,-400000.0625,210.3300018310547,-47.25,-400000.0625,-3608.989990234375,-400000.0625,-2661.22998046875,-400000.0625
426.11968445777893,-400000.0625,219.3000030517578,-36.189998626708984,-400000.0625,-3592.35009765625,-400000.0625,-2657.699951171875,-400000.0625
426.13853335380554,-400000.0625,221.67999267578125,-32.09000015258789,-400000.0625,-3577.570068359375,-400000.0625,-2652.8798828125,-400000.0625
426.15967631340027,-400000.0625,214.0,-38.099998474121094,-400000.0625,-3590.489990234375,-400000.0625,-2656.7900390625,-400000.0625
426.20403027534485,-400000.0625,202.32000732421875,-51.119998931884766,-400000.0625,-3607.3701171875,-400000.0625,-2667.280029296875,-400000.0625
426.22203373908997,-400000.0625,205.47000122070312,-50.540000915527344,-400000.0625,-3597.550048828125,-400000.0625,-2666.81005859375,-400000.0625
426.24390292167664,-400000.0625,221.5399932861328,-37.720001220703125,-400000.0625,-3582.909912109375,-400000.0625,-2656.27001953125,-400000.0625
426.2619376182556,-400000.0625,225.4499969482422,-31.809999465942383,-400000.0625,-3581.760009765625,-400000.0625,-2652.260009765625,-400000.0625
426.29727387428284,-400000.0625,219.05999755859375,-39.099998474121094,-400000.0625,-3594.2099609375,-400000.0625,-2660.699951171875,-400000.0625
426.3235423564911,-400000.0625,207.0,-48.689998626708984,-400000.0625,-3606.1298828125,-400000.0625,-2670.909912109375,-400000.0625
426.3468451499939,-400000.0625,206.3300018310547,-46.970001220703125,-400000.0625,-3601.030029296875,-400000.0625,-2671.18994140625,-400000.0625
426.362872838974,-400000.0625,217.49000549316406,-37.959999084472656,-400000.0625,-3579.280029296875,-400000.0625,-2661.989990234375,-400000.0625
426.41338777542114,-400000.0625,227.07000732421875,-29.610000610351562,-400000.0625,-3578.330078125,-400000.0625,-2652.929931640625,-400000.0625
426.4327619075775,-400000.0625,215.6699981689453,-40.47999954223633,-400000.0625,-3593.5400390625,-400000.0625,-2660.93994140625,-400000.0625
426.45100450515747,-400000.0625,206.27999877929688,-50.970001220703125,-400000.0625,-3598.5,-400000.0625,-2672.050048828125,-400000.0625
426.4627916812897,-400000.0625,210.52000427246094,-47.02000045776367,-400000.0625,-3593.489990234375,-400000.0625,-2670.719970703125,-400000.0625
426.48823285102844,-400000.0625,213.77000427246094,-38.959999084472656,-400000.0625,-3590.199951171875,-400000.0625,-2664.090087890625,-400000.0625
426.52745628356934,-400000.0625,219.67999267578125,-32.56999969482422,-400000.0625,-3579.090087890625,-400000.0625,-2663.800048828125,-400000.0625
426.5547904968262,-400000.0625,212.19000244140625,-42.81999969482422,-400000.0625,-3585.820068359375,-400000.0625,-2673.199951171875,-400000.0625
426.5728921890259,-400000.0625,202.55999755859375,-53.5,-400000.0625,-3603.510009765625,-400000.0625,-2682.070068359375,-400000.0625
426.5890998840332,-400000.0625,201.85000610351562,-53.83000183105469,-400000.0625,-3609.090087890625,-400000.0625,-2674.9599609375,-400000.0625
426.6560800075531,-400000.0625,207.47000122070312,-48.349998474121094,-400000.0625,-3602.64990234375,-400000.0625,-2666.0,-400000.0625
426.6761152744293,-400000.0625,214.2899932861328,-41.68000030517578,-400000.0625,-3593.2099609375,-400000.0625,-2657.93994140625,-400000.0625
426.69927072525024,-400000.0625,207.80999755859375,-48.72999954223633,-400000.0625,-3590.43994140625,-400000.0625,-2658.080078125,-400000.0625
426.7394587993622,-400000.0625,194.74000549316406,-60.88999938964844,-400000.0625,-3593.06005859375,-400000.0625,-2661.800048828125,-400000.0625
426.7571396827698,-400000.0625,188.25999450683594,-63.470001220703125,-400000.0625,-3597.929931640625,-400000.0625,-2665.6201171875,-400000.0625
426.77460193634033,-400000.0625,202.22999572753906,-53.36000061035156,-400000.0625,-3597.2099609375,-400000.0625,-2658.75,-400000.0625
426.79658102989197,-400000.0625,223.05999755859375,-45.20000076293945,-400000.0625,-3598.169921875,-400000.0625,-2646.489990234375,-400000.0625
426.8111231327057,-400000.0625,216.38999938964844,-52.5,-400000.0625,-3611.52001953125,-400000.0625,-2653.31005859375,-400000.0625
426.8534553050995,-400000.0625,195.1699981689453,-67.04000091552734,-400000.0625,-3601.64990234375,-400000.0625,-2665.22998046875,-400000.0625
426.86958622932434,-400000.0625,194.60000610351562,-64.47000122070312,-400000.0625,-3585.77001953125,-400000.0625,-2664.419921875,-400000.0625
426.88743352890015,-400000.0625,207.7100067138672,-54.36000061035156,-400000.0625,-3579.0,-400000.0625,-2656.169921875,-400000.0625
426.90415954589844,-400000.0625,215.00999450683594,-50.2599983215332,-400000.0625,-3585.860107421875,-400000.0625,-2652.550048828125,-400000.0625
426.92157220840454,-400000.0625,206.3800048828125,-54.650001525878906,-400000.0625,-3596.5,-400000.0625,-2660.320068359375,-400000.0625
426.9561941623688,-400000.0625,196.1199951171875,-64.08999633789062,-400000.0625,-3607.080078125,-400000.0625,-2667.89990234375,-400000.0625
426.97436571121216,-400000.0625,203.0399932861328,-60.70000076293945,-400000.0625,-3605.409912109375,-400000.0625,-2668.139892578125,-400000.0625
426.99131202697754,-400000.0625,213.47999572753906,-53.16999816894531,-400000.0625,-3602.409912109375,-400000.0625,-2660.610107421875,-400000.0625
427.01137018203735,-400000.0625,213.33999633789062,-50.45000076293945,-400000.0625,-3602.929931640625,-400000.0625,-2653.68994140625,-400000.0625
427.0334005355835,-400000.0625,211.2899932861328,-56.08000183105469,-400000.0625,-3604.60009765625,-400000.0625,-2660.800048828125,-400000.0625
427.0676107406616,-400000.0625,199.94000244140625,-66.76000213623047,-400000.0625,-3607.179931640625,-400000.0625,-2667.760009765625,-400000.0625
427.0900402069092,-400000.0625,200.3699951171875,-65.66000366210938,-400000.0625,-3600.070068359375,-400000.0625,-2663.89990234375,-400000.0625
427.1160821914673,-400000.0625,211.91000366210938,-53.40999984741211,-400000.0625,-3580.3798828125,-400000.0625,-2656.889892578125,-400000.0625
427.1369354724884,-400000.0625,221.25,-44.779998779296875,-400000.0625,-3575.3701171875,-400000.0625,-2640.679931640625,-400000.0625
427.1729075908661,-400000.0625,217.72000122070312,-52.63999938964844,-400000.0625,-3586.25,-400000.0625,-2645.919921875,-400000.0625
427.19489789009094,-400000.0625,205.17999267578125,-63.709999084472656,-400000.0625,-3593.02001953125,-400000.0625,-2659.56005859375,-400000.0625
427.21802949905396,-400000.0625,203.0800018310547,-65.04000091552734,-400000.0625,-3597.929931640625,-400000.0625,-2659.85009765625,-400000.0625
427.2391872406006,-400000.0625,213.2899932861328,-58.130001068115234,-400000.0625,-3601.929931640625,-400000.0625,-2653.27001953125,-400000.0625
427.27192735671997,-400000.0625,217.6300048828125,-53.93000030517578,-400000.0625,-3596.5400390625,-400000.0625,-2647.830078125,-400000.0625
427.28995752334595,-400000.0625,207.57000732421875,-62.040000915527344,-400000.0625,-3596.5,-400000.0625,-2653.60009765625,-400000.0625
427.33272099494934,-400000.0625,197.0800018310547,-72.19000244140625,-400000.0625,-3613.22998046875,-400000.0625,-2663.330078125,-400000.0625
427.42514419555664,-400000.0625,199.55999755859375,-70.33000183105469,-400000.0625,-3607.800048828125,-400000.0625,-2663.469970703125,-400000.0625
427.4954433441162,-400000.0625,213.19000244140625,-57.88999938964844,-400000.0625,-3595.39990234375,-400000.0625,-2652.7900390625,-400000.0625
427.5323054790497,-400000.0625,222.97000122070312,-51.02000045776367,-400000.0625,-3593.590087890625,-400000.0625,-2644.489990234375,-400000.0625
427.58421421051025,-400000.0625,215.2899932861328,-56.54999923706055,-400000.0625,-3594.02001953125,-400000.0625,-2650.360107421875,-400000.0625
427.61551785469055,-400000.0625,205.8000030517578,-65.04000091552734,-400000.0625,-3597.8798828125,-400000.0625,-2665.949951171875,-400000.0625
427.7033393383026,-400000.0625,206.89999389648438,-63.560001373291016,-400000.0625,-3594.159912109375,-400000.0625,-2666.090087890625,-400000.0625
427.76040053367615,-400000.0625,217.5800018310547,-54.220001220703125,-400000.0625,-3588.06005859375,-400000.0625,-2656.510009765625,-400000.0625
427.7969012260437,-400000.0625,226.07000732421875,-45.38999938964844,-400000.0625,-3589.9599609375,-400000.0625,-2651.60009765625,-400000.0625
427.8212480545044,-400000.0625,221.00999450683594,-52.310001373291016,-400000.0625,-3601.97998046875,-400000.0625,-2659.64990234375,-400000.0625
427.9081597328186,-400000.0625,207.3800048828125,-64.33000183105469,-400000.0625,-3611.52001953125,-400000.0625,-2667.050048828125,-400000.0625
427.93870997428894,-400000.0625,201.94000244140625,-64.70999908447266,-400000.0625,-3600.8798828125,-400000.0625,-2663.330078125,-400000.0625
427.9924404621124,-400000.0625,212.24000549316406,-50.400001525878906,-400000.0625,-3586.719970703125,-400000.0625,-2654.510009765625,-400000.0625
428.0447373390198,-400000.0625,240.7100067138672,-34.2400016784668,-400000.0625,-3569.840087890625,-400000.0625,-2658.840087890625,-400000.0625
428.15162420272827,-400000.0625,243.9499969482422,-36.290000915527344,-400000.0625,-3570.3701171875,-400000.0625,-2677.300048828125,-400000.0625
428.1995527744293,-400000.0625,238.22999572753906,-45.38999938964844,-400000.0625,-3590.820068359375,-400000.0625,-2695.800048828125,-400000.0625
428.2380518913269,-400000.0625,230.60000610351562,-43.630001068115234,-400000.0625,-3600.360107421875,-400000.0625,-2703.139892578125,-400000.0625
428.2747371196747,-400000.0625,240.55999755859375,-27.469999313354492,-400000.0625,-3585.010009765625,-400000.0625,-2700.659912109375,-400000.0625
428.37998127937317,-400000.0625,254.05999755859375,-17.690000534057617,-400000.0625,-3568.60009765625,-400000.0625,-2699.469970703125,-400000.0625
428.4488263130188,-400000.0625,240.27999877929688,-24.600000381469727,-400000.0625,-3566.030029296875,-400000.0625,-2710.06005859375,-400000.0625
428.47892594337463,-400000.0625,229.5,-32.279998779296875,-400000.0625,-3575.280029296875,-400000.0625,-2724.360107421875,-400000.0625
428.5153787136078,-400000.0625,235.02999877929688,-31.190000534057617,-400000.0625,-3581.6201171875,-400000.0625,-2716.8798828125,-400000.0625
428.5867500305176,-400000.0625,248.19000244140625,-18.600000381469727,-400000.0625,-3576.570068359375,-400000.0625,-2705.47998046875,-400000.0625
428.6440267562866,-400000.0625,251.2899932861328,-12.970000267028809,-400000.0625,-3570.3701171875,-400000.0625,-2703.3798828125,-400000.0625
428.71662044525146,-400000.0625,241.4199981689453,-22.270000457763672,-400000.0625,-3582.909912109375,-400000.0625,-2710.389892578125,-400000.0625
428.7598304748535,-400000.0625,229.83999633789062,-33.2400016784668,-400000.0625,-3600.64990234375,-400000.0625,-2717.449951171875,-400000.0625
428.83777952194214,-400000.0625,228.07000732421875,-32.13999938964844,-400000.0625,-3597.39990234375,-400000.0625,-2718.31005859375,-400000.0625
428.86900544166565,-400000.0625,234.0800018310547,-23.889999389648438,-400000.0625,-3564.639892578125,-400000.0625,-2717.159912109375,-400000.0625
428.90167212486267,-400000.0625,245.24000549316406,-17.639999389648438,-400000.0625,-3553.6298828125,-400000.0625,-2711.8701171875,-400000.0625
428.9146845340729,-400000.0625,239.66000366210938,-26.510000228881836,-400000.0625,-3567.4599609375,-400000.0625,-2718.070068359375,-400000.0625
428.92837166786194,-400000.0625,231.30999755859375,-35.43000030517578,-400000.0625,-3585.9599609375,-400000.0625,-2727.699951171875,-400000.0625
428.9507133960724,-400000.0625,234.02999877929688,-36.380001068115234,-400000.0625,-3592.39990234375,-400000.0625,-2725.64990234375,-400000.0625
428.9658875465393,-400000.0625,243.57000732421875,-26.229999542236328,-400000.0625,-3585.77001953125,-400000.0625,-2719.02001953125,-400000.0625
428.9823384284973,-400000.0625,249.77000427246094,-17.600000381469727,-400000.0625,-3571.27001953125,-400000.0625,-2710.06005859375,-400000.0625
429.01589465141296,-400000.0625,241.22999572753906,-24.989999771118164,-400000.0625,-3572.56005859375,-400000.0625,-2716.72998046875,-400000.0625
429.0403218269348,-400000.0625,223.2100067138672,-38.90999984741211,-400000.0625,-3585.389892578125,-400000.0625,-2727.3701171875,-400000.0625
429.05447459220886,-400000.0625,221.1999969482422,-37.34000015258789,-400000.0625,-3579.429931640625,-400000.0625,-2725.409912109375,-400000.0625
429.0726161003113,-400000.0625,232.02999877929688,-27.3700008392334,-400000.0625,-3567.97998046875,-400000.0625,-2717.02001953125,-400000.0625
429.0900254249573,-400000.0625,241.89999389648438,-20.690000534057617,-400000.0625,-3564.639892578125,-400000.0625,-2708.389892578125,-400000.0625
429.1170377731323,-400000.0625,238.0399932861328,-27.700000762939453,-400000.0625,-3572.93994140625,-400000.0625,-2717.639892578125,-400000.0625
429.1304955482483,-400000.0625,220.44000244140625,-41.529998779296875,-400000.0625,-3588.719970703125,-400000.0625,-2728.27001953125,-400000.0625
429.1588542461395,-400000.0625,228.36000061035156,-37.290000915527344,-400000.0625,-3595.35009765625,-400000.0625,-2725.93994140625,-400000.0625
429.1812672615051,-400000.0625,239.4199981689453,-28.469999313354492,-400000.0625,-3583.0,-400000.0625,-2718.070068359375,-400000.0625
429.19389486312866,-400000.0625,243.08999633789062,-26.040000915527344,-400000.0625,-3577.330078125,-400000.0625,-2711.25,-400000.0625
429.2247586250305,-400000.0625,236.6999969482422,-32.849998474121094,-400000.0625,-3573.510009765625,-400000.0625,-2714.679931640625,-400000.0625
429.2480773925781,-400000.0625,219.38999938964844,-46.68000030517578,-400000.0625,-3576.570068359375,-400000.0625,-2727.320068359375,-400000.0625
429.27169466018677,-400000.0625,216.2899932861328,-49.83000183105469,-400000.0625,-3583.050048828125,-400000.0625,-2728.610107421875,-400000.0625
429.28643798828125,-400000.0625,221.44000244140625,-41.81999969482422,-400000.0625,-3583.14990234375,-400000.0625,-2718.780029296875,-400000.0625
429.3102660179138,-400000.0625,230.36000061035156,-35.33000183105469,-400000.0625,-3577.949951171875,-400000.0625,-2711.9599609375,-400000.0625
429.33986234664917,-400000.0625,219.38999938964844,-42.34000015258789,-400000.0625,-3576.85009765625,-400000.0625,-2716.72998046875,-400000.0625
429.35594511032104,-400000.0625,198.36000061035156,-56.599998474121094,-400000.0625,-3581.949951171875,-400000.0625,-2726.080078125,-400000.0625
429.37267565727234,-400000.0625,189.97000122070312,-53.93000030517578,-400000.0625,-3585.2900390625,-400000.0625,-2723.5,-400000.0625
429.38725662231445,-400000.0625,188.02000427246094,-32.619998931884766,-400000.0625,-3573.469970703125,-400000.0625,-2721.260009765625,-400000.0625
429.40524077415466,-400000.0625,169.7100067138672,-32.7599983215332,-400000.0625,-3567.409912109375,-400000.0625,-2729.56005859375,-400000.0625
429.4193184375763,-400000.0625,144.5800018310547,-52.310001373291016,-400000.0625,-3559.02001953125,-400000.0625,-2738.909912109375,-400000.0625
429.4520626068115,-400000.0625,132.47000122070312,-74.95999908447266,-400000.0625,-3574.75,-400000.0625,-2738.47998046875,-400000.0625
429.4704954624176,-400000.0625,131.64999389648438,-112.33999633789062,-400000.0625,-3586.580078125,-400000.0625,-2830.080078125,-400000.0625
429.48512172698975,-400000.0625,82.20999908447266,-130.75,-400000.0625,-3576.570068359375,-400000.0625,-2711.530029296875,-400000.0625
429.5065221786499,-400000.0625,82.91999816894531,-156.1199951171875,-400000.0625,-3561.969970703125,-400000.0625,-2614.780029296875,-400000.0625
429.5535182952881,-400000.0625,42.81999969482422,-165.32000732421875,-400000.0625,-3563.31005859375,-400000.0625,-2586.510009765625,-400000.0625
429.63775849342346,-400000.0625,-8.869999885559082,-215.38999938964844,-400000.0625,-3578.949951171875,-400000.0625,-2573.5400390625,-400000.0625
429.67464685440063,-400000.0625,-76.0999984741211,-255.3000030517578,-400000.0625,-3574.56005859375,-400000.0625,-2495.0,-400000.0625
429.7491943836212,-400000.0625,-116.16000366210938,-281.04998779296875,-400000.0625,-3561.070068359375,-400000.0625,-2350.139892578125,-400000.0625
429.791307926178,-400000.0625,-141.10000610351562,-293.3999938964844,-400000.0625,-3548.18994140625,-400000.0625,-2182.340087890625,-400000.0625
429.8837699890137,-400000.0625,-192.4499969482422,-298.07000732421875,-400000.0625,-3540.22998046875,-400000.0625,-2025.989990234375,-400000.0625
429.9241256713867,-400000.0625,-246.6199951171875,-332.45001220703125,-400000.0625,-3554.010009765625,-400000.0625,-1884.5999755859375,-400000.0625
429.9767723083496,-400000.0625,-290.5400085449219,-349.4700012207031,-400000.0625,-3534.840087890625,-400000.0625,-1674.219970703125,-400000.0625
430.0097007751465,-400000.0625,-253.3000030517578,-354.6199951171875,-400000.0625,-3514.2900390625,-400000.0625,-1415.06005859375,-400000.0625
430.04400157928467,-400000.0625,-264.6000061035156,-366.2099914550781,-400000.0625,-3513.47998046875,-400000.0625,-1232.050048828125,-400000.0625
430.1239984035492,-400000.0625,-288.7200012207031,-380.7099914550781,-400000.0625,-3515.669921875,-400000.0625,-1116.8499755859375,-400000.0625
430.1776285171509,-400000.0625,-329.1600036621094,-388.19000244140625,-400000.0625,-3520.25,-400000.0625,-1031.8299560546875,-400000.0625
430.24574971199036,-400000.0625,-342.510009765625,-390.3900146484375,-400000.0625,-3527.02001953125,-400000.0625,-964.4000244140625,-400000.0625
430.3000180721283,-400000.0625,-328.9700012207031,-389.19000244140625,-400000.0625,-3516.25,-400000.0625,-928.0700073242188,-400000.0625
430.35360288619995,-400000.0625,-307.510009765625,-389.3399963378906,-400000.0625,-3507.419921875,-400000.0625,-888.5399780273438,-400000.0625
430.3863387107849,-400000.0625,-324.9200134277344,-391.1499938964844,-400000.0625,-3499.3701171875,-400000.0625,-867.5599975585938,-400000.0625
430.42276096343994,-400000.0625,-350.760009765625,-405.9800109863281,-400000.0625,-3495.97998046875,-400000.0625,-895.8800048828125,-400000.0625
430.4854531288147,-400000.0625,-355.42999267578125,-414.79998779296875,-400000.0625,-3503.1298828125,-400000.0625,-919.77001953125,-400000.0625
430.52884888648987,-400000.0625,-339.55999755859375,-397.8699951171875,-400000.0625,-3498.889892578125,-400000.0625,-935.4099731445312,-400000.0625
430.59109807014465,-400000.0625,-325.7300109863281,-391.9100036621094,-400000.0625,-3493.39990234375,-400000.0625,-976.8499755859375,-400000.0625
430.63621830940247,-400000.0625,-326.67999267578125,-398.9700012207031,-400000.0625,-3497.840087890625,-400000.0625,-1055.6700439453125,-400000.0625
430.71824288368225,-400000.0625,-330.6400146484375,-402.9800109863281,-400000.0625,-3509.949951171875,-400000.0625,-1160.0,-400000.0625
430.7763056755066,-400000.0625,-303.2200012207031,-391.2900085449219,-400000.0625,-3524.159912109375,-400000.0625,-1285.27001953125,-400000.0625
430.8427860736847,-400000.0625,-277.95001220703125,-372.2699890136719,-400000.0625,-3522.489990234375,-400000.0625,-1432.8499755859375,-400000.0625
430.8622148036957,-400000.0625,-259.7799987792969,-355.9100036621094,-400000.0625,-3487.8701171875,-400000.0625,-1585.9100341796875,-400000.0625
430.88403701782227,-400000.0625,-243.0399932861328,-350.0899963378906,-400000.0625,-3486.820068359375,-400000.0625,-1731.010009765625,-400000.0625
430.92732882499695,-400000.0625,-220.67999267578125,-347.3800048828125,-400000.0625,-3492.68994140625,-400000.0625,-1843.8800048828125,-400000.0625
430.94897985458374,-400000.0625,-189.2100067138672,-334.1700134277344,-400000.0625,-3498.97998046875,-400000.0625,-1913.02001953125,-400000.0625
430.9652943611145,-400000.0625,-153.02000427246094,-312.8500061035156,-400000.0625,-3506.52001953125,-400000.0625,-1938.010009765625,-400000.0625
430.9847197532654,-400000.0625,-118.30000305175781,-296.7799987792969,-400000.0625,-3499.3701171875,-400000.0625,-1940.6300048828125,-400000.0625
431.0205681324005,-400000.0625,-100.98999786376953,-291.44000244140625,-400000.0625,-3495.070068359375,-400000.0625,-1942.3499755859375,-400000.0625
431.04561257362366,-400000.0625,-89.69000244140625,-292.9200134277344,-400000.0625,-3517.489990234375,-400000.0625,-1960.0400390625,-400000.0625
431.0597791671753,-400000.0625,-68.5199966430664,-288.05999755859375,-400000.0625,-3528.169921875,-400000.0625,-1973.0999755859375,-400000.0625
431.07534980773926,-400000.0625,-34.2400016784668,-269.6000061035156,-400000.0625,-3536.800048828125,-400000.0625,-1974.06005859375,-400000.0625
431.09917092323303,-400000.0625,-0.5199999809265137,-252.52999877929688,-400000.0625,-3542.280029296875,-400000.0625,-1978.6800537109375,-400000.0625
431.1350374221802,-400000.0625,3.7200000286102295,-254.82000732421875,-400000.0625,-3553.820068359375,-400000.0625,-2002.6199951171875,-400000.0625
431.1639235019684,-400000.0625,11.869999885559082,-262.92999267578125,-400000.0625,-3586.10009765625,-400000.0625,-2025.6500244140625,-400000.0625
431.1775691509247,-400000.0625,34.709999084472656,-254.5399932861328,-400000.0625,-3588.9599609375,-400000.0625,-2038.6700439453125,-400000.0625
431.1926498413086,-400000.0625,62.65999984741211,-236.85000610351562,-400000.0625,-3586.43994140625,-400000.0625,-2053.070068359375,-400000.0625
431.21548414230347,-400000.0625,81.48999786376953,-226.4499969482422,-400000.0625,-3558.780029296875,-400000.0625,-2067.760009765625,-400000.0625
431.25289273262024,-400000.0625,97.12999725341797,-223.25999450683594,-400000.0625,-3557.489990234375,-400000.0625,-2087.68994140625,-400000.0625
431.2734088897705,-400000.0625,104.33000183105469,-225.8300018310547,-400000.0625,-3576.85009765625,-400000.0625,-2107.669921875,-400000.0625
431.288969039917,-400000.0625,119.7300033569336,-217.38999938964844,-400000.0625,-3585.199951171875,-400000.0625,-2114.340087890625,-400000.0625
431.30408453941345,-400000.0625,146.38999938964844,-199.60000610351562,-400000.0625,-3595.590087890625,-400000.0625,-2111.820068359375,-400000.0625
431.3350636959076,-400000.0625,169.94000244140625,-186.82000732421875,-400000.0625,-3590.6298828125,-400000.0625,-2120.35009765625,-400000.0625
431.3901426792145,-400000.0625,176.86000061035156,-183.8699951171875,-400000.0625,-3599.830078125,-400000.0625,-2135.320068359375,-400000.0625
431.42093229293823,-400000.0625,172.57000732421875,-192.2100067138672,-400000.0625,-3620.9599609375,-400000.0625,-2148.25,-400000.0625
431.44193816185,-400000.0625,191.25999450683594,-182.91000366210938,-400000.0625,-3624.489990234375,-400000.0625,-2155.02001953125,-400000.0625
431.4864776134491,-400000.0625,217.49000549316406,-167.32000732421875,-400000.0625,-3617.949951171875,-400000.0625,-2154.159912109375,-400000.0625
431.50710272789,-400000.0625,235.1300048828125,-157.5500030517578,-400000.0625,-3608.080078125,-400000.0625,-2157.739990234375,-400000.0625
431.53200912475586,-400000.0625,237.61000061035156,-156.58999633789062,-400000.0625,-3612.570068359375,-400000.0625,-2171.139892578125,-400000.0625
431.55247259140015,-400000.0625,236.0800018310547,-164.27000427246094,-400000.0625,-3622.2900390625,-400000.0625,-2184.530029296875,-400000.0625
431.5941731929779,-400000.0625,242.52000427246094,-163.02999877929688,-400000.0625,-3622.389892578125,-400000.0625,-2186.580078125,-400000.0625
431.6410596370697,-400000.0625,258.1099853515625,-149.1999969482422,-400000.0625,-3618.570068359375,-400000.0625,-2185.8701171875,-400000.0625
431.66297721862793,-400000.0625,274.2300109863281,-137.27999877929688,-400000.0625,-3610.3701171875,-400000.0625,-2184.679931640625,-400000.0625
431.70951223373413,-400000.0625,270.17999267578125,-142.57000732421875,-400000.0625,-3621.6298828125,-400000.0625,-2193.070068359375,-400000.0625
431.7361171245575,-400000.0625,263.0199890136719,-152.5399932861328,-400000.0625,-3635.360107421875,-400000.0625,-2205.469970703125,-400000.0625
431.7571566104889,-400000.0625,272.32000732421875,-146.00999450683594,-400000.0625,-3638.97998046875,-400000.0625,-2209.330078125,-400000.0625
431.7782790660858,-400000.0625,283.9100036621094,-134.47000122070312,-400000.0625,-3632.550048828125,-400000.0625,-2205.469970703125,-400000.0625
431.821373462677,-400000.0625,296.9700012207031,-124.5,-400000.0625,-3614.52001953125,-400000.0625,-2204.93994140625,-400000.0625
431.8421838283539,-400000.0625,294.5899963378906,-129.4600067138672,-400000.0625,-3618.340087890625,-400000.0625,-2215.860107421875,-400000.0625
431.86712741851807,-400000.0625,284.6199951171875,-137.27999877929688,-400000.0625,-3635.360107421875,-400000.0625,-2222.6298828125,-400000.0625
431.89218854904175,-400000.0625,275.75,-141.13999938964844,-400000.0625,-3637.169921875,-400000.0625,-2236.699951171875,-400000.0625
431.9326710700989,-400000.0625,282.1400146484375,-134.4199981689453,-400000.0625,-3625.199951171875,-400000.0625,-2235.699951171875,-400000.0625
431.9513363838196,-400000.0625,298.92999267578125,-118.91999816894531,-400000.0625,-3615.429931640625,-400000.0625,-2210.81005859375,-400000.0625
431.96416115760803,-400000.0625,268.510009765625,-125.83999633789062,-400000.0625,-3624.489990234375,-400000.0625,-2231.739990234375,-400000.0625
431.98081827163696,-400000.0625,247.9600067138672,-142.42999267578125,-400000.0625,-3634.070068359375,-400000.0625,-2253.719970703125,-400000.0625
432.00521326065063,-400000.0625,233.36000061035156,-141.80999755859375,-400000.0625,-3628.2099609375,-400000.0625,-2269.889892578125,-400000.0625
432.04311299324036,-400000.0625,224.2100067138672,-145.24000549316406,-400000.0625,-3620.389892578125,-400000.0625,-2254.199951171875,-400000.0625
432.0627408027649,-400000.0625,193.74000549316406,-160.02999877929688,-400000.0625,-3605.75,-400000.0625,-2235.1298828125,-400000.0625
432.0785024166107,-400000.0625,171.22999572753906,-160.74000549316406,-400000.0625,-3602.739990234375,-400000.0625,-2212.949951171875,-400000.0625
432.0986137390137,-400000.0625,141.6699981689453,-210.3800048828125,-400000.0625,-3616.3798828125,-400000.0625,-2226.969970703125,-400000.0625
432.12322330474854,-400000.0625,104.5199966430664,-250.6699981689453,-400000.0625,-3615.47998046875,-400000.0625,-2128.93994140625,-400000.0625
432.1647152900696,-400000.0625,53.220001220703125,-272.4599914550781,-400000.0625,-3598.550048828125,-400000.0625,-1997.469970703125,-400000.0625
432.1821482181549,-400000.0625,-1.1399999856948853,-285.7200012207031,-400000.0625,-3570.889892578125,-400000.0625,-1895.8599853515625,-400000.0625
432.20751309394836,-400000.0625,-88.79000091552734,-295.7300109863281,-400000.0625,-3560.5,-400000.0625,-1829.719970703125,-400000.0625
432.2296118736267,-400000.0625,-107.72000122070312,-345.17999267578125,-400000.0625,-3559.830078125,-400000.0625,-1773.5999755859375,-400000.0625
432.26783776283264,-400000.0625,-133.1300048828125,-353.3800048828125,-400000.0625,-3555.110107421875,-400000.0625,-1565.4100341796875,-400000.0625
432.2871639728546,-400000.0625,-207.13999938964844,-347.1400146484375,-400000.0625,-3540.469970703125,-400000.0625,-1416.43994140625,-400000.0625
432.3045196533203,-400000.0625,-209.7100067138672,-362.6300048828125,-400000.0625,-3521.489990234375,-400000.0625,-1330.7099609375,-400000.0625
432.32370591163635,-400000.0625,-195.30999755859375,-364.8800048828125,-400000.0625,-3534.56005859375,-400000.0625,-1276.6400146484375,-400000.0625
432.3434224128723,-400000.0625,-250.77000427246094,-382.2300109863281,-400000.0625,-3530.1201171875,-400000.0625,-1193.8599853515625,-400000.0625
432.38914012908936,-400000.0625,-223.49000549316406,-397.7799987792969,-400000.0625,-3519.5400390625,-400000.0625,-1050.18994140625,-400000.0625
432.4161491394043,-400000.0625,-229.41000366210938,-394.9200134277344,-400000.0625,-3515.530029296875,-400000.0625,-787.5,-400000.0625
432.4375870227814,-400000.0625,-247.13999938964844,-396.44000244140625,-400000.0625,-3514.909912109375,-400000.0625,-492.80999755859375,-400000.0625
432.46047043800354,-400000.0625,-228.4499969482422,-394.3900146484375,-400000.0625,-3517.679931640625,-400000.0625,-285.010009765625,-400000.0625
432.50927329063416,-400000.0625,-264.1199951171875,-409.3599853515625,-400000.0625,-3522.2099609375,-400000.0625,-168.75,-400000.0625
432.53837966918945,-400000.0625,-276.1400146484375,-404.6000061035156,-400000.0625,-3508.330078125,-400000.0625,-104.33000183105469,-400000.0625
432.5615816116333,-400000.0625,-220.16000366210938,-421.4800109863281,-400000.0625,-3504.179931640625,-400000.0625,-78.1500015258789,-400000.0625
432.6298897266388,-400000.0625,-198.7899932861328,-405.9800109863281,-400000.0625,-3495.739990234375,-400000.0625,-24.270000457763672,-400000.0625
432.6547882556915,-400000.0625,-219.35000610351562,-410.2200012207031,-400000.0625,-3501.989990234375,-400000.0625,45.20000076293945,-400000.0625
432.67440009117126,-400000.0625,-228.97999572753906,-424.0,-400000.0625,-3514.47998046875,-400000.0625,63.61000061035156,-400000.0625
432.7211105823517,-400000.0625,-215.14999389648438,-415.2799987792969,-400000.0625,-3504.89990234375,-400000.0625,37.86000061035156,-400000.0625
432.7490465641022,-400000.0625,-203.89999389648438,-404.7900085449219,-400000.0625,-3493.39990234375,-400000.0625,-43.25,-400000.0625
432.77400946617126,-400000.0625,-186.39999389648438,-391.239990234375,-400000.0625,-3488.159912109375,-400000.0625,-159.22000122070312,-400000.0625
432.7990744113922,-400000.0625,-180.10000610351562,-396.3900146484375,-400000.0625,-3488.300048828125,-400000.0625,-310.4200134277344,-400000.0625
432.8390829563141,-400000.0625,-168.08999633789062,-400.3500061035156,-400000.0625,-3500.989990234375,-400000.0625,-488.2300109863281,-400000.0625
432.8614196777344,-400000.0625,-149.44000244140625,-390.7200012207031,-400000.0625,-3513.909912109375,-400000.0625,-647.5399780273438,-400000.0625
432.89164757728577,-400000.0625,-112.48999786376953,-366.8800048828125,-400000.0625,-3498.97998046875,-400000.0625,-808.0,-400000.0625
432.9173650741577,-400000.0625,-75.38999938964844,-345.0400085449219,-400000.0625,-3484.820068359375,-400000.0625,-986.6199951171875,-400000.0625
432.95444536209106,-400000.0625,-51.63999938964844,-346.17999267578125,-400000.0625,-3497.699951171875,-400000.0625,-1083.949951171875,-400000.0625
432.9759120941162,-400000.0625,-39.20000076293945,-348.0,-400000.0625,-3501.93994140625,-400000.0625,-1127.3399658203125,-400000.0625
432.9947683811188,-400000.0625,-12.25,-338.7900085449219,-400000.0625,-3513.18994140625,-400000.0625,-1134.9200439453125,-400000.0625
433.0137815475464,-400000.0625,29.3700008392334,-319.80999755859375,-400000.0625,-3523.969970703125,-400000.0625,-1135.02001953125,-400000.0625
433.03556656837463,-400000.0625,68.0,-303.54998779296875,-400000.0625,-3523.300048828125,-400000.0625,-1144.9300537109375,-400000.0625
433.0761046409607,-400000.0625,84.58999633789062,-302.70001220703125,-400000.0625,-3544.090087890625,-400000.0625,-1165.3399658203125,-400000.0625
433.09469270706177,-400000.0625,96.51000213623047,-307.2699890136719,-400000.0625,-3539.610107421875,-400000.0625,-1196.8599853515625,-400000.0625
433.11482524871826,-400000.0625,124.02999877929688,-298.7900085449219,-400000.0625,-3533.360107421875,-400000.0625,-1224.9000244140625,-400000.0625
433.13742566108704,-400000.0625,146.77000427246094,-282.3399963378906,-400000.0625,-3543.949951171875,-400000.0625,-1254.93994140625,-400000.0625
433.1720345020294,-400000.0625,168.94000244140625,-264.92999267578125,-400000.0625,-3537.56005859375,-400000.0625,-1282.7900390625,-400000.0625
433.19007778167725,-400000.0625,174.57000732421875,-263.9800109863281,-400000.0625,-3528.31005859375,-400000.0625,-1318.550048828125,-400000.0625
433.2102720737457,-400000.0625,178.24000549316406,-266.30999755859375,-400000.0625,-3551.2900390625,-400000.0625,-1358.3199462890625,-400000.0625
433.2268936634064,-400000.0625,196.88999938964844,-257.489990234375,-400000.0625,-3565.360107421875,-400000.0625,-1384.8299560546875,-400000.0625
433.24727964401245,-400000.0625,212.72000122070312,-244.6699981689453,-400000.0625,-3565.97998046875,-400000.0625,-1405.6700439453125,-400000.0625
433.28827023506165,-400000.0625,229.02000427246094,-232.6999969482422,-400000.0625,-3566.1201171875,-400000.0625,-1425.0799560546875,-400000.0625
433.3070158958435,-400000.0625,240.3300018310547,-230.02999877929688,-400000.0625,-3575.85009765625,-400000.0625,-1453.4000244140625,-400000.0625
433.3323233127594,-400000.0625,241.8000030517578,-232.5500030517578,-400000.0625,-3595.300048828125,-400000.0625,-1480.199951171875,-400000.0625
433.35483622550964,-400000.0625,249.42999267578125,-227.30999755859375,-400000.0625,-3596.739990234375,-400000.0625,-1500.22998046875,-400000.0625
