time,ch1,ch2,ch3,ch4,ch5,ch6,ch7,ch8
130.50057554244995,-400000.0625,-21078.16015625,-16756.630859375,-400000.0625,-21000.9609375,-400000.0625,-15411.4697265625,-400000.0625
130.5115053653717,-400000.0625,-21105.8203125,-16784.669921875,-400000.0625,-21026.7109375,-400000.0625,-15443.5703125,-400000.0625
130.51693558692932,-400000.0625,-21115.880859375,-16793.109375,-400000.0625,-21030.4296875,-400000.0625,-15449.48046875,-400000.0625
130.52191042900085,-400000.0625,-21081.55078125,-16763.359375,-400000.0625,-21003.490234375,-400000.0625,-15419.009765625,-400000.0625
130.52192187309265,-400000.0625,-21057.1796875,-16739.419921875,-400000.0625,-20984.69921875,-400000.0625,-15394.8798828125,-400000.0625
130.52192640304565,-400000.0625,-21074.490234375,-16756.76953125,-400000.0625,-20997.33984375,-400000.0625,-15410.1396484375,-400000.0625
130.52193069458008,-400000.0625,-21110.349609375,-16788.6796875,-400000.0625,-21025.560546875,-400000.0625,-15445.419921875,-400000.0625
130.5219349861145,-400000.0625,-21116.01953125,-16794.30078125,-400000.0625,-21029.619140625,-400000.0625,-15450.5703125,-400000.0625
130.5219395160675,-400000.0625,-21085.119140625,-16765.01953125,-400000.0625,-21002.060546875,-400000.0625,-15420.4404296875,-400000.0625
130.52194356918335,-400000.0625,-21066.240234375,-16743.419921875,-400000.0625,-20986.4609375,-400000.0625,-15396.3095703125,-400000.0625
130.52672839164734,-400000.0625,-21080.830078125,-16757.25,-400000.0625,-21000.099609375,-400000.0625,-15408.849609375,-400000.0625
130.52673864364624,-400000.0625,-21114.16015625,-16790.869140625,-400000.0625,-21029.900390625,-400000.0625,-15442.75,-400000.0625
130.52674317359924,-400000.0625,-21119.689453125,-16795.6796875,-400000.0625,-21034.580078125,-400000.0625,-15452.2001953125,-400000.0625
130.52674794197083,-400000.0625,-21084.5,-16761.349609375,-400000.0625,-21001.91015625,-400000.0625,-15417.33984375,-400000.0625
130.5267527103424,-400000.0625,-21061.759765625,-16738.0390625,-400000.0625,-20984.939453125,-400000.0625,-15390.73046875,-400000.0625
130.526757478714,-400000.0625,-21083.359375,-16756.349609375,-400000.0625,-21002.720703125,-400000.0625,-15408.5703125,-400000.0625
130.52676224708557,-400000.0625,-21114.5390625,-16786.529296875,-400000.0625,-21027.759765625,-400000.0625,-15442.900390625,-400000.0625
130.52676653862,-400000.0625,-21117.98046875,-16789.439453125,-400000.0625,-21032.2890625,-400000.0625,-15451.5302734375,-400000.0625
130.52677083015442,-400000.0625,-21087.509765625,-16762.16015625,-400000.0625,-21001.630859375,-400000.0625,-15421.6796875,-400000.0625
130.526775598526,-400000.0625,-21066.0,-16738.4609375,-400000.0625,-20984.26953125,-400000.0625,-15398.080078125,-400000.0625
130.52678060531616,-400000.0625,-21080.16015625,-16753.009765625,-400000.0625,-20997.5703125,-400000.0625,-15411.330078125,-400000.0625
130.52678442001343,-400000.0625,-21108.8203125,-16781.669921875,-400000.0625,-21021.1796875,-400000.0625,-15440.900390625,-400000.0625
130.52678894996643,-400000.0625,-21112.400390625,-16786.859375,-400000.0625,-21028.5703125,-400000.0625,-15449.0498046875,-400000.0625
130.52679347991943,-400000.0625,-21086.080078125,-16761.44921875,-400000.0625,-21008.44921875,-400000.0625,-15421.9599609375,-400000.0625
130.52679753303528,-400000.0625,-21065.0,-16741.23046875,-400000.0625,-20989.369140625,-400000.0625,-15396.3095703125,-400000.0625
130.52680158615112,-400000.0625,-21079.01953125,-16752.76953125,-400000.0625,-21001.2890625,-400000.0625,-15411.51953125,-400000.0625
130.5268054008484,-400000.0625,-21112.349609375,-16786.76953125,-400000.0625,-21023.939453125,-400000.0625,-15442.990234375,-400000.0625
130.52680897712708,-400000.0625,-21116.740234375,-16792.109375,-400000.0625,-21026.66015625,-400000.0625,-15447.5703125,-400000.0625
130.52681303024292,-400000.0625,-21085.9296875,-16761.830078125,-400000.0625,-21004.19921875,-400000.0625,-15414.8095703125,-400000.0625
130.5268166065216,-400000.0625,-21059.130859375,-16735.080078125,-400000.0625,-20985.4609375,-400000.0625,-15392.349609375,-400000.0625
130.5457227230072,-400000.0625,-21072.9609375,-16747.859375,-400000.0625,-20995.4296875,-400000.0625,-15410.4296875,-400000.0625
130.55089688301086,-400000.0625,-21107.76953125,-16781.4296875,-400000.0625,-21022.609375,-400000.0625,-15443.990234375,-400000.0625
130.5555489063263,-400000.0625,-21111.009765625,-16784.810546875,-400000.0625,-21023.08984375,-400000.0625,-15448.91015625,-400000.0625
130.55555653572083,-400000.0625,-21081.779296875,-16756.009765625,-400000.0625,-21000.439453125,-400000.0625,-15417.669921875,-400000.0625
130.5555613040924,-400000.0625,-21063.140625,-16738.849609375,-400000.0625,-20984.41015625,-400000.0625,-15393.3095703125,-400000.0625
130.55556559562683,-400000.0625,-21077.73046875,-16752.529296875,-400000.0625,-20999.619140625,-400000.0625,-15410.23046875,-400000.0625
130.55556917190552,-400000.0625,-21113.5390625,-16786.669921875,-400000.0625,-21026.849609375,-400000.0625,-15442.08984375,-400000.0625
130.55557322502136,-400000.0625,-21117.640625,-16788.580078125,-400000.0625,-21027.0,-400000.0625,-15446.3798828125,-400000.0625
130.55557703971863,-400000.0625,-21084.119140625,-16757.390625,-400000.0625,-21002.30078125,-400000.0625,-15415.8603515625,-400000.0625
130.55558061599731,-400000.0625,-21061.23046875,-16736.220703125,-400000.0625,-20986.890625,-400000.0625,-15390.1103515625,-400000.0625
130.555584192276,-400000.0625,-21077.400390625,-16750.390625,-400000.0625,-21000.33984375,-400000.0625,-15402.509765625,-400000.0625
130.55558800697327,-400000.0625,-21108.439453125,-16778.23046875,-400000.0625,-21019.890625,-400000.0625,-15434.8896484375,-400000.0625
130.55559158325195,-400000.0625,-21115.970703125,-16785.2890625,-400000.0625,-21030.48046875,-400000.0625,-15444.3798828125,-400000.0625
130.55559539794922,-400000.0625,-21087.599609375,-16758.30078125,-400000.0625,-21005.58984375,-400000.0625,-15415.2900390625,-400000.0625
130.55559945106506,-400000.0625,-21063.380859375,-16736.83984375,-400000.0625,-20984.369140625,-400000.0625,-15389.25,-400000.0625
130.5556035041809,-400000.0625,-21075.30078125,-16751.580078125,-400000.0625,-20998.33984375,-400000.0625,-15402.83984375,-400000.0625
130.57999658584595,-400000.0625,-21106.669921875,-16781.759765625,-400000.0625,-21024.470703125,-400000.0625,-15435.75,-400000.0625
130.58515119552612,-400000.0625,-21112.970703125,-16785.240234375,-400000.0625,-21029.240234375,-400000.0625,-15443.2802734375,-400000.0625
130.59017491340637,-400000.0625,-21082.98046875,-16759.919921875,-400000.0625,-21006.2109375,-400000.0625,-15411.51953125,-400000.0625
130.59427499771118,-400000.0625,-21062.7109375,-16738.75,-400000.0625,-20989.609375,-400000.0625,-15388.0595703125,-400000.0625
130.59428238868713,-400000.0625,-21075.19921875,-16751.630859375,-400000.0625,-21001.630859375,-400000.0625,-15404.23046875,-400000.0625
130.5942862033844,-400000.0625,-21109.390625,-16786.150390625,-400000.0625,-21028.08984375,-400000.0625,-15439.1298828125,-400000.0625
130.59429025650024,-400000.0625,-21114.970703125,-16789.6796875,-400000.0625,-21029.5703125,-400000.0625,-15445.330078125,-400000.0625
130.5942943096161,-400000.0625,-21082.5,-16762.0703125,-400000.0625,-21007.640625,-400000.0625,-15412.1396484375,-400000.0625
130.59429836273193,-400000.0625,-21064.330078125,-16742.279296875,-400000.0625,-20994.4296875,-400000.0625,-15386.6796875,-400000.0625
130.5943021774292,-400000.0625,-21076.30078125,-16753.390625,-400000.0625,-21001.2890625,-400000.0625,-15404.9404296875,-400000.0625
130.59430599212646,-400000.0625,-21107.390625,-16783.380859375,-400000.0625,-21024.560546875,-400000.0625,-15437.9404296875,-400000.0625
130.59430980682373,-400000.0625,-21113.109375,-16789.060546875,-400000.0625,-21029.08984375,-400000.0625,-15441.2802734375,-400000.0625
130.59431338310242,-400000.0625,-21082.5,-16758.779296875,-400000.0625,-21010.259765625,-400000.0625,-15412.4296875,-400000.0625
130.59431719779968,-400000.0625,-21058.80078125,-16734.890625,-400000.0625,-20992.66015625,-400000.0625,-15390.73046875,-400000.0625
130.59432125091553,-400000.0625,-21077.349609375,-16752.91015625,-400000.0625,-20999.859375,-400000.0625,-15406.3701171875,-400000.0625
130.5943250656128,-400000.0625,-21112.349609375,-16786.4296875,-400000.0625,-21022.69921875,-400000.0625,-15438.7001953125,-400000.0625
130.64576077461243,-400000.0625,-21118.310546875,-16791.919921875,-400000.0625,-21028.849609375,-400000.0625,-15445.759765625,-400000.0625
130.6552004814148,-400000.0625,-21087.359375,-16766.650390625,-400000.0625,-21007.400390625,-400000.0625,-15415.099609375,-400000.0625
130.659734249115,-400000.0625,-21064.380859375,-16743.849609375,-400000.0625,-20992.0,-400000.0625,-15390.2998046875,-400000.0625
130.65974378585815,-400000.0625,-21078.58984375,-16756.630859375,-400000.0625,-21009.349609375,-400000.0625,-15406.9404296875,-400000.0625
130.65974807739258,-400000.0625,-21111.5390625,-16785.720703125,-400000.0625,-21035.76953125,-400000.0625,-15443.3701171875,-400000.0625
130.65975213050842,-400000.0625,-21116.310546875,-16788.76953125,-400000.0625,-21029.759765625,-400000.0625,-15446.3798828125,-400000.0625
130.65975713729858,-400000.0625,-21087.939453125,-16762.5390625,-400000.0625,-21005.25,-400000.0625,-15416.8095703125,-400000.0625
130.65976071357727,-400000.0625,-21062.0,-16737.029296875,-400000.0625,-20985.509765625,-400000.0625,-15396.0703125,-400000.0625
130.65976452827454,-400000.0625,-21077.349609375,-16752.630859375,-400000.0625,-20996.759765625,-400000.0625,-15409.4697265625,-400000.0625
130.65976810455322,-400000.0625,-21111.349609375,-16786.8203125,-400000.0625,-21025.0390625,-400000.0625,-15439.419921875,-400000.0625
130.6597716808319,-400000.0625,-21115.970703125,-16791.439453125,-400000.0625,-21031.91015625,-400000.0625,-15447.0,-400000.0625
130.65977549552917,-400000.0625,-21085.0703125,-16763.5,-400000.0625,-21004.73046875,-400000.0625,-15417.76953125,-400000.0625
130.65977907180786,-400000.0625,-21062.23046875,-16740.7109375,-400000.0625,-20991.1796875,-400000.0625,-15391.16015625,-400000.0625
130.65978240966797,-400000.0625,-21077.779296875,-16755.6796875,-400000.0625,-21009.640625,-400000.0625,-15405.3203125,-400000.0625
130.65978598594666,-400000.0625,-21111.439453125,-16784.05078125,-400000.0625,-21027.0390625,-400000.0625,-15441.1298828125,-400000.0625
130.65979051589966,-400000.0625,-21114.689453125,-16784.859375,-400000.0625,-21025.900390625,-400000.0625,-15448.1396484375,-400000.0625
130.70998978614807,-400000.0625,-21079.30078125,-16754.869140625,-400000.0625,-20999.580078125,-400000.0625,-15412.51953125,-400000.0625
130.71586656570435,-400000.0625,-21058.130859375,-16735.169921875,-400000.0625,-20982.169921875,-400000.0625,-15390.7802734375,-400000.0625
130.72101831436157,-400000.0625,-21073.580078125,-16751.099609375,-400000.0625,-20997.150390625,-400000.0625,-15409.51953125,-400000.0625
130.72575044631958,-400000.0625,-21102.759765625,-16780.51953125,-400000.0625,-21030.48046875,-400000.0625,-15439.4599609375,-400000.0625
130.72576022148132,-400000.0625,-21111.16015625,-16788.060546875,-400000.0625,-21036.19921875,-400000.0625,-15442.419921875,-400000.0625
130.72576451301575,-400000.0625,-21080.259765625,-16757.8203125,-400000.0625,-20997.619140625,-400000.0625,-15411.08984375,-400000.0625
130.72576808929443,-400000.0625,-21058.990234375,-16735.890625,-400000.0625,-20979.689453125,-400000.0625,-15389.8701171875,-400000.0625
130.7257719039917,-400000.0625,-21075.439453125,-16751.48046875,-400000.0625,-20994.240234375,-400000.0625,-15407.0400390625,-400000.0625
130.72577571868896,-400000.0625,-21108.009765625,-16785.580078125,-400000.0625,-21022.1796875,-400000.0625,-15438.7998046875,-400000.0625
130.72577953338623,-400000.0625,-21111.5390625,-16788.2890625,-400000.0625,-21028.380859375,-400000.0625,-15443.759765625,-400000.0625
130.72578287124634,-400000.0625,-21080.44921875,-16755.490234375,-400000.0625,-21008.30078125,-400000.0625,-15413.48046875,-400000.0625
130.72578644752502,-400000.0625,-21062.08984375,-16737.609375,-400000.0625,-20991.380859375,-400000.0625,-15395.3603515625,-400000.0625
130.7257900238037,-400000.0625,-21079.640625,-16757.390625,-400000.0625,-21002.060546875,-400000.0625,-15408.0400390625,-400000.0625
130.72579336166382,-400000.0625,-21109.8203125,-16787.19921875,-400000.0625,-21025.7109375,-400000.0625,-15440.2802734375,-400000.0625
130.7257969379425,-400000.0625,-21114.880859375,-16789.439453125,-400000.0625,-21027.7109375,-400000.0625,-15449.6201171875,-400000.0625
130.72580194473267,-400000.0625,-21080.310546875,-16757.060546875,-400000.0625,-21004.349609375,-400000.0625,-15416.4296875,-400000.0625
130.7721483707428,-400000.0625,-21059.470703125,-16737.83984375,-400000.0625,-20987.69921875,-400000.0625,-15390.5400390625,-400000.0625
130.7817177772522,-400000.0625,-21074.8203125,-16754.580078125,-400000.0625,-21000.720703125,-400000.0625,-15403.990234375,-400000.0625
130.7865447998047,-400000.0625,-21103.859375,-16781.859375,-400000.0625,-21021.3203125,-400000.0625,-15436.41015625,-400000.0625
130.78655433654785,-400000.0625,-21109.869140625,-16786.2890625,-400000.0625,-21027.66015625,-400000.0625,-15444.5703125,-400000.0625
130.7865583896637,-400000.0625,-21081.5,-16758.630859375,-400000.0625,-21011.0703125,-400000.0625,-15413.6201171875,-400000.0625
130.78656268119812,-400000.0625,-21056.849609375,-16735.509765625,-400000.0625,-20994.4296875,-400000.0625,-15387.4404296875,-400000.0625
130.78656649589539,-400000.0625,-21070.439453125,-16748.48046875,-400000.0625,-21003.30078125,-400000.0625,-15404.7998046875,-400000.0625
130.78657031059265,-400000.0625,-21101.669921875,-16778.849609375,-400000.0625,-21020.939453125,-400000.0625,-15434.599609375,-400000.0625
130.78657412528992,-400000.0625,-21109.390625,-16785.810546875,-400000.0625,-21026.900390625,-400000.0625,-15439.7001953125,-400000.0625
130.7865777015686,-400000.0625,-21080.689453125,-16758.630859375,-400000.0625,-21008.2109375,-400000.0625,-15410.2802734375,-400000.0625
130.7865812778473,-400000.0625,-21056.509765625,-16737.890625,-400000.0625,-20989.849609375,-400000.0625,-15389.0595703125,-400000.0625
130.78658533096313,-400000.0625,-21072.25,-16753.009765625,-400000.0625,-21002.099609375,-400000.0625,-15401.7900390625,-400000.0625
130.78658890724182,-400000.0625,-21105.720703125,-16785.150390625,-400000.0625,-21028.619140625,-400000.0625,-15438.75,-400000.0625
130.78659224510193,-400000.0625,-21111.109375,-16788.580078125,-400000.0625,-21030.05078125,-400000.0625,-15447.240234375,-400000.0625
130.78659582138062,-400000.0625,-21080.5390625,-16757.490234375,-400000.0625,-21004.109375,-400000.0625,-15413.4296875,-400000.0625
130.78660082817078,-400000.0625,-21057.560546875,-16739.1796875,-400000.0625,-20981.890625,-400000.0625,-15387.73046875,-400000.0625
130.84944653511047,-400000.0625,-21075.779296875,-16756.76953125,-400000.0625,-21008.060546875,-400000.0625,-15407.08984375,-400000.0625
130.85471868515015,-400000.0625,-21108.8203125,-16785.4296875,-400000.0625,-21033.859375,-400000.0625,-15437.7998046875,-400000.0625
130.8593282699585,-400000.0625,-21114.349609375,-16789.720703125,-400000.0625,-21032.810546875,-400000.0625,-15442.3701171875,-400000.0625
130.85933566093445,-400000.0625,-21082.259765625,-16758.630859375,-400000.0625,-21006.73046875,-400000.0625,-15410.7099609375,-400000.0625
130.8593397140503,-400000.0625,-21059.560546875,-16736.69921875,-400000.0625,-20988.509765625,-400000.0625,-15385.25,-400000.0625
130.85934376716614,-400000.0625,-21075.349609375,-16751.9609375,-400000.0625,-21000.240234375,-400000.0625,-15403.7998046875,-400000.0625
130.8593475818634,-400000.0625,-21107.720703125,-16785.2890625,-400000.0625,-21029.330078125,-400000.0625,-15439.080078125,-400000.0625
130.85935139656067,-400000.0625,-21112.349609375,-16790.580078125,-400000.0625,-21032.150390625,-400000.0625,-15445.0,-400000.0625
130.85935497283936,-400000.0625,-21081.259765625,-16759.30078125,-400000.0625,-21008.830078125,-400000.0625,-15411.759765625,-400000.0625
130.85935854911804,-400000.0625,-21058.900390625,-16739.75,-400000.0625,-20992.330078125,-400000.0625,-15387.580078125,-400000.0625
130.8593623638153,-400000.0625,-21069.91015625,-16752.33984375,-400000.0625,-21005.009765625,-400000.0625,-15405.6103515625,-400000.0625
130.859365940094,-400000.0625,-21100.619140625,-16780.240234375,-400000.0625,-21030.859375,-400000.0625,-15437.599609375,-400000.0625
130.85936951637268,-400000.0625,-21108.73046875,-16785.76953125,-400000.0625,-21028.66015625,-400000.0625,-15442.1796875,-400000.0625
130.85937333106995,-400000.0625,-21075.779296875,-16756.8203125,-400000.0625,-21004.150390625,-400000.0625,-15408.51953125,-400000.0625
130.8593771457672,-400000.0625,-21054.26953125,-16735.599609375,-400000.0625,-20994.140625,-400000.0625,-15382.2900390625,-400000.0625
130.85938119888306,-400000.0625,-21072.390625,-16753.150390625,-400000.0625,-21004.060546875,-400000.0625,-15401.9404296875,-400000.0625
130.95912528038025,-400000.0625,-21104.669921875,-16784.669921875,-400000.0625,-21027.419921875,-400000.0625,-15435.7900390625,-400000.0625
130.97131943702698,-400000.0625,-21108.439453125,-16786.91015625,-400000.0625,-21032.240234375,-400000.0625,-15442.51953125,-400000.0625
130.9762246608734,-400000.0625,-21075.349609375,-16754.19921875,-400000.0625,-21009.779296875,-400000.0625,-15411.5703125,-400000.0625
130.97623491287231,-400000.0625,-21053.359375,-16735.169921875,-400000.0625,-20995.5703125,-400000.0625,-15388.0595703125,-400000.0625
130.97623920440674,-400000.0625,-21070.150390625,-16750.619140625,-400000.0625,-21005.19921875,-400000.0625,-15403.8896484375,-400000.0625
130.976243019104,-400000.0625,-21097.94921875,-16776.75,-400000.0625,-21023.369140625,-400000.0625,-15434.599609375,-400000.0625
130.97624683380127,-400000.0625,-21099.94921875,-16778.80078125,-400000.0625,-21018.7890625,-400000.0625,-15441.5595703125,-400000.0625
130.9762499332428,-400000.0625,-21076.439453125,-16756.439453125,-400000.0625,-21000.33984375,-400000.0625,-15414.669921875,-400000.0625
130.9762532711029,-400000.0625,-21052.3203125,-16733.69921875,-400000.0625,-20987.23046875,-400000.0625,-15390.1103515625,-400000.0625
130.976256608963,-400000.0625,-21066.669921875,-16744.0,-400000.0625,-20998.2890625,-400000.0625,-15405.849609375,-400000.0625
130.9762601852417,-400000.0625,-21098.810546875,-16776.369140625,-400000.0625,-21024.75,-400000.0625,-15437.3701171875,-400000.0625
130.97626304626465,-400000.0625,-21100.91015625,-16781.619140625,-400000.0625,-21031.48046875,-400000.0625,-15439.4599609375,-400000.0625
130.97626614570618,-400000.0625,-21066.810546875,-16748.48046875,-400000.0625,-21005.73046875,-400000.0625,-15408.7099609375,-400000.0625
130.97626948356628,-400000.0625,-21048.740234375,-16728.98046875,-400000.0625,-20989.330078125,-400000.0625,-15386.919921875,-400000.0625
130.9762728214264,-400000.0625,-21064.140625,-16743.0390625,-400000.0625,-20995.08984375,-400000.0625,-15403.1298828125,-400000.0625
130.97628593444824,-400000.0625,-21090.369140625,-16770.41015625,-400000.0625,-21014.310546875,-400000.0625,-15432.7900390625,-400000.0625
130.98422837257385,-400000.0625,-21096.7109375,-16774.939453125,-400000.0625,-21023.7109375,-400000.0625,-15436.1298828125,-400000.0625
130.98960638046265,-400000.0625,-21068.150390625,-16748.0,-400000.0625,-21009.400390625,-400000.0625,-15406.7099609375,-400000.0625
130.99434232711792,-400000.0625,-21044.779296875,-16728.58984375,-400000.0625,-20992.810546875,-400000.0625,-15383.099609375,-400000.0625
130.9943504333496,-400000.0625,-21061.759765625,-16742.66015625,-400000.0625,-21004.009765625,-400000.0625,-15400.0302734375,-400000.0625
130.99435544013977,-400000.0625,-21093.69921875,-16770.69921875,-400000.0625,-21025.849609375,-400000.0625,-15434.1201171875,-400000.0625
130.99435925483704,-400000.0625,-21095.80078125,-16774.369140625,-400000.0625,-21030.140625,-400000.0625,-15436.7001953125,-400000.0625
130.99436283111572,-400000.0625,-21068.619140625,-16744.23046875,-400000.0625,-21005.970703125,-400000.0625,-15402.0302734375,-400000.0625
130.99436902999878,-400000.0625,-21056.890625,-16725.970703125,-400000.0625,-20984.080078125,-400000.0625,-15386.4404296875,-400000.0625
130.99437308311462,-400000.0625,-21086.4609375,-16745.5703125,-400000.0625,-20999.859375,-400000.0625,-15407.51953125,-400000.0625
130.9943766593933,-400000.0625,-21123.7890625,-16777.990234375,-400000.0625,-21025.23046875,-400000.0625,-15439.1796875,-400000.0625
130.994380235672,-400000.0625,-21121.69921875,-16789.099609375,-400000.0625,-21027.5703125,-400000.0625,-15445.3798828125,-400000.0625
130.99438381195068,-400000.0625,-21105.48046875,-16774.849609375,-400000.0625,-21005.109375,-400000.0625,-15424.4404296875,-400000.0625
130.99438738822937,-400000.0625,-21101.810546875,-16764.5,-400000.0625,-20982.890625,-400000.0625,-15412.9501953125,-400000.0625
130.99439096450806,-400000.0625,-21130.990234375,-16788.6796875,-400000.0625,-20988.130859375,-400000.0625,-15438.26953125,-400000.0625
130.99439430236816,-400000.0625,-21182.109375,-16838.55078125,-400000.0625,-21020.029296875,-400000.0625,-15478.759765625,-400000.0625
130.99439811706543,-400000.0625,-21211.25,-16860.490234375,-400000.0625,-21032.240234375,-400000.0625,-15495.16015625,-400000.0625
131.03839874267578,-400000.0625,-21192.599609375,-16839.69921875,-400000.0625,-21000.439453125,-400000.0625,-15467.650390625,-400000.0625
131.04396772384644,-400000.0625,-21177.490234375,-16827.6796875,-400000.0625,-20981.599609375,-400000.0625,-15447.900390625,-400000.0625
131.04965901374817,-400000.0625,-21211.439453125,-16856.05078125,-400000.0625,-21002.009765625,-400000.0625,-15467.599609375,-400000.0625
131.0561945438385,-400000.0625,-21258.7890625,-16896.439453125,-400000.0625,-21030.5703125,-400000.0625,-15507.5595703125,-400000.0625
131.06098079681396,-400000.0625,-21269.23046875,-16904.55078125,-400000.0625,-21030.7109375,-400000.0625,-15511.509765625,-400000.0625
131.06629610061646,-400000.0625,-21242.94921875,-16880.0390625,-400000.0625,-21001.869140625,-400000.0625,-15484.1904296875,-400000.0625
131.07107043266296,-400000.0625,-21228.650390625,-16867.16015625,-400000.0625,-20986.560546875,-400000.0625,-15466.169921875,-400000.0625
131.07107949256897,-400000.0625,-21252.25,-16884.279296875,-400000.0625,-20999.76953125,-400000.0625,-15483.51953125,-400000.0625
131.07108402252197,-400000.0625,-21293.640625,-16919.23046875,-400000.0625,-21030.05078125,-400000.0625,-15513.9501953125,-400000.0625
131.07108807563782,-400000.0625,-21293.259765625,-16924.240234375,-400000.0625,-21030.08984375,-400000.0625,-15517.330078125,-400000.0625
131.0710916519165,-400000.0625,-21266.560546875,-16904.640625,-400000.0625,-21007.970703125,-400000.0625,-15486.4296875,-400000.0625
131.0710952281952,-400000.0625,-21248.150390625,-16887.380859375,-400000.0625,-20993.810546875,-400000.0625,-15463.7802734375,-400000.0625
131.07109880447388,-400000.0625,-21264.650390625,-16901.109375,-400000.0625,-21006.58984375,-400000.0625,-15483.0,-400000.0625
131.07110261917114,-400000.0625,-21300.130859375,-16934.01953125,-400000.0625,-21033.859375,-400000.0625,-15514.7099609375,-400000.0625
131.0711064338684,-400000.0625,-21305.849609375,-16936.400390625,-400000.0625,-21037.390625,-400000.0625,-15515.6201171875,-400000.0625
131.07111120224,-400000.0625,-21274.900390625,-16904.44921875,-400000.0625,-21011.830078125,-400000.0625,-15481.4296875,-400000.0625
131.09575390815735,-400000.0625,-21251.8203125,-16883.5703125,-400000.0625,-20994.7109375,-400000.0625,-15458.7802734375,-400000.0625
131.10132765769958,-400000.0625,-21264.83984375,-16897.25,-400000.0625,-21006.2109375,-400000.0625,-15474.080078125,-400000.0625
131.1059045791626,-400000.0625,-21292.44921875,-16925.0,-400000.0625,-21030.05078125,-400000.0625,-15501.7900390625,-400000.0625
131.10591220855713,-400000.0625,-21295.259765625,-16927.91015625,-400000.0625,-21035.720703125,-400000.0625,-15508.7998046875,-400000.0625
131.10591626167297,-400000.0625,-21264.890625,-16897.439453125,-400000.0625,-21016.650390625,-400000.0625,-15478.330078125,-400000.0625
131.10592007637024,-400000.0625,-21242.94921875,-16875.220703125,-400000.0625,-21000.859375,-400000.0625,-15452.8203125,-400000.0625
131.10592365264893,-400000.0625,-21260.169921875,-16894.19921875,-400000.0625,-21015.41015625,-400000.0625,-15475.1796875,-400000.0625
131.10592699050903,-400000.0625,-21290.109375,-16924.91015625,-400000.0625,-21034.669921875,-400000.0625,-15506.3603515625,-400000.0625
131.10593032836914,-400000.0625,-21295.83984375,-16929.490234375,-400000.0625,-21036.439453125,-400000.0625,-15504.4599609375,-400000.0625
131.1059331893921,-400000.0625,-21267.75,-16903.740234375,-400000.0625,-21015.83984375,-400000.0625,-15472.990234375,-400000.0625
131.10593628883362,-400000.0625,-21244.099609375,-16880.939453125,-400000.0625,-20998.33984375,-400000.0625,-15450.5302734375,-400000.0625
131.10594201087952,-400000.0625,-21260.55078125,-16893.580078125,-400000.0625,-21012.359375,-400000.0625,-15465.599609375,-400000.0625
131.10594511032104,-400000.0625,-21289.30078125,-16920.0390625,-400000.0625,-21039.630859375,-400000.0625,-15492.6298828125,-400000.0625
131.10594844818115,-400000.0625,-21289.830078125,-16924.099609375,-400000.0625,-21046.9296875,-400000.0625,-15498.830078125,-400000.0625
131.10595154762268,-400000.0625,-21260.44921875,-16897.009765625,-400000.0625,-21024.51953125,-400000.0625,-15467.98046875,-400000.0625
131.1059548854828,-400000.0625,-21242.240234375,-16875.83984375,-400000.0625,-20998.810546875,-400000.0625,-15444.4697265625,-400000.0625
131.1585042476654,-400000.0625,-21255.2109375,-16888.05078125,-400000.0625,-21007.869140625,-400000.0625,-15457.8701171875,-400000.0625
131.16433238983154,-400000.0625,-21282.009765625,-16917.66015625,-400000.0625,-21035.05078125,-400000.0625,-15492.5400390625,-400000.0625
131.17279624938965,-400000.0625,-21286.8203125,-16923.4296875,-400000.0625,-21043.73046875,-400000.0625,-15497.9697265625,-400000.0625
131.17728781700134,-400000.0625,-21255.01953125,-16891.05078125,-400000.0625,-21018.560546875,-400000.0625,-15464.0703125,-400000.0625
131.17729711532593,-400000.0625,-21227.220703125,-16866.400390625,-400000.0625,-20994.380859375,-400000.0625,-15440.0400390625,-400000.0625
131.17730140686035,-400000.0625,-21247.720703125,-16885.7109375,-400000.0625,-21015.029296875,-400000.0625,-15457.4404296875,-400000.0625
131.17730617523193,-400000.0625,-21282.2890625,-16916.3203125,-400000.0625,-21041.25,-400000.0625,-15493.4404296875,-400000.0625
131.17730975151062,-400000.0625,-21289.44921875,-16919.0,-400000.0625,-21042.16015625,-400000.0625,-15494.6796875,-400000.0625
131.1773133277893,-400000.0625,-21259.169921875,-16893.91015625,-400000.0625,-21017.509765625,-400000.0625,-15463.0703125,-400000.0625
131.1773166656494,-400000.0625,-21237.900390625,-16874.26953125,-400000.0625,-21001.19921875,-400000.0625,-15442.0400390625,-400000.0625
131.17732000350952,-400000.0625,-21255.259765625,-16889.759765625,-400000.0625,-21013.310546875,-400000.0625,-15460.6396484375,-400000.0625
131.17732453346252,-400000.0625,-21286.25,-16915.900390625,-400000.0625,-21035.48046875,-400000.0625,-15496.4501953125,-400000.0625
131.1773281097412,-400000.0625,-21285.150390625,-16915.509765625,-400000.0625,-21035.720703125,-400000.0625,-15496.1103515625,-400000.0625
131.1773316860199,-400000.0625,-21252.349609375,-16893.9609375,-400000.0625,-21015.880859375,-400000.0625,-15458.2001953125,-400000.0625
131.17733502388,-400000.0625,-21237.7109375,-16882.759765625,-400000.0625,-21007.5390625,-400000.0625,-15436.4599609375,-400000.0625
131.17733883857727,-400000.0625,-21262.4609375,-16902.259765625,-400000.0625,-21017.890625,-400000.0625,-15453.150390625,-400000.0625
131.23828983306885,-400000.0625,-21298.509765625,-16936.73046875,-400000.0625,-21041.58984375,-400000.0625,-15481.900390625,-400000.0625
131.24396467208862,-400000.0625,-21305.23046875,-16944.650390625,-400000.0625,-21048.55078125,-400000.0625,-15485.099609375,-400000.0625
131.2486047744751,-400000.0625,-21275.05078125,-16922.08984375,-400000.0625,-21030.2890625,-400000.0625,-15451.1904296875,-400000.0625
131.24861454963684,-400000.0625,-21250.439453125,-16899.400390625,-400000.0625,-21007.01953125,-400000.0625,-15426.4501953125,-400000.0625
131.24861931800842,-400000.0625,-21268.080078125,-16911.75,-400000.0625,-21015.55078125,-400000.0625,-15440.66015625,-400000.0625
131.24876952171326,-400000.0625,-21297.169921875,-16945.359375,-400000.0625,-21046.259765625,-400000.0625,-15474.509765625,-400000.0625
131.2487735748291,-400000.0625,-21301.1796875,-16953.470703125,-400000.0625,-21056.990234375,-400000.0625,-15480.849609375,-400000.0625
131.2487771511078,-400000.0625,-21267.849609375,-16918.80078125,-400000.0625,-21028.0,-400000.0625,-15446.66015625,-400000.0625
131.24878096580505,-400000.0625,-21245.529296875,-16896.8203125,-400000.0625,-21014.740234375,-400000.0625,-15424.9697265625,-400000.0625
131.24878454208374,-400000.0625,-21261.310546875,-16915.419921875,-400000.0625,-21025.849609375,-400000.0625,-15442.900390625,-400000.0625
131.24878811836243,-400000.0625,-21290.640625,-16942.0703125,-400000.0625,-21043.73046875,-400000.0625,-15473.8896484375,-400000.0625
131.2487916946411,-400000.0625,-21298.939453125,-16948.509765625,-400000.0625,-21047.2109375,-400000.0625,-15478.66015625,-400000.0625
131.2487952709198,-400000.0625,-21265.220703125,-16917.7109375,-400000.0625,-21027.0390625,-400000.0625,-15443.419921875,-400000.0625
131.2487988471985,-400000.0625,-21244.0,-16897.970703125,-400000.0625,-21010.9296875,-400000.0625,-15417.8603515625,-400000.0625
131.24880266189575,-400000.0625,-21259.880859375,-16911.4609375,-400000.0625,-21022.26953125,-400000.0625,-15437.990234375,-400000.0625
131.24880623817444,-400000.0625,-21290.5390625,-16939.830078125,-400000.0625,-21050.310546875,-400000.0625,-15473.0302734375,-400000.0625
131.3076012134552,-400000.0625,-21293.44921875,-16944.9296875,-400000.0625,-21052.890625,-400000.0625,-15474.1298828125,-400000.0625
131.32106947898865,-400000.0625,-21263.55078125,-16912.80078125,-400000.0625,-21028.810546875,-400000.0625,-15440.66015625,-400000.0625
131.32586431503296,-400000.0625,-21243.529296875,-16893.009765625,-400000.0625,-21010.970703125,-400000.0625,-15420.009765625,-400000.0625
131.32587313652039,-400000.0625,-21260.359375,-16910.650390625,-400000.0625,-21023.08984375,-400000.0625,-15438.3203125,-400000.0625
131.3258774280548,-400000.0625,-21291.5,-16938.55078125,-400000.0625,-21045.349609375,-400000.0625,-15469.26953125,-400000.0625
131.32588124275208,-400000.0625,-21296.599609375,-16942.740234375,-400000.0625,-21053.26953125,-400000.0625,-15473.1796875,-400000.0625
131.32588577270508,-400000.0625,-21264.41015625,-16912.80078125,-400000.0625,-21029.380859375,-400000.0625,-15439.1796875,-400000.0625
131.32588934898376,-400000.0625,-21241.240234375,-16888.48046875,-400000.0625,-21006.6796875,-400000.0625,-15417.580078125,-400000.0625
131.32589292526245,-400000.0625,-21258.0703125,-16906.119140625,-400000.0625,-21020.130859375,-400000.0625,-15436.1298828125,-400000.0625
131.32589650154114,-400000.0625,-21289.6796875,-16937.5390625,-400000.0625,-21047.119140625,-400000.0625,-15470.7001953125,-400000.0625
131.32590007781982,-400000.0625,-21294.119140625,-16940.9296875,-400000.0625,-21050.119140625,-400000.0625,-15475.3701171875,-400000.0625
131.32590627670288,-400000.0625,-21263.69921875,-16915.419921875,-400000.0625,-21027.189453125,-400000.0625,-15441.5595703125,-400000.0625
131.32590985298157,-400000.0625,-21236.900390625,-16887.859375,-400000.0625,-21007.869140625,-400000.0625,-15417.5302734375,-400000.0625
131.32591366767883,-400000.0625,-21254.2109375,-16904.169921875,-400000.0625,-21022.26953125,-400000.0625,-15437.080078125,-400000.0625
131.32591724395752,-400000.0625,-21289.0703125,-16936.16015625,-400000.0625,-21049.0703125,-400000.0625,-15470.3203125,-400000.0625
131.3259208202362,-400000.0625,-21293.830078125,-16940.169921875,-400000.0625,-21050.599609375,-400000.0625,-15472.2197265625,-400000.0625
131.34779143333435,-400000.0625,-21262.4609375,-16908.119140625,-400000.0625,-21023.990234375,-400000.0625,-15441.849609375,-400000.0625
131.35302925109863,-400000.0625,-21239.859375,-16887.94921875,-400000.0625,-21007.109375,-400000.0625,-15418.4404296875,-400000.0625
131.35762310028076,-400000.0625,-21255.0703125,-16903.01953125,-400000.0625,-21014.83984375,-400000.0625,-15432.8798828125,-400000.0625
131.35763120651245,-400000.0625,-21288.6796875,-16933.5390625,-400000.0625,-21042.060546875,-400000.0625,-15465.1201171875,-400000.0625
131.35763549804688,-400000.0625,-21292.16015625,-16939.259765625,-400000.0625,-21048.740234375,-400000.0625,-15467.740234375,-400000.0625
131.35763955116272,-400000.0625,-21261.220703125,-16904.689453125,-400000.0625,-21022.419921875,-400000.0625,-15441.75,-400000.0625
131.35764336585999,-400000.0625,-21237.66015625,-16886.5703125,-400000.0625,-21003.19921875,-400000.0625,-15420.2998046875,-400000.0625
131.35764718055725,-400000.0625,-21253.2109375,-16905.169921875,-400000.0625,-21017.939453125,-400000.0625,-15435.169921875,-400000.0625
131.35765075683594,-400000.0625,-21288.349609375,-16934.349609375,-400000.0625,-21041.970703125,-400000.0625,-15469.3095703125,-400000.0625
131.35765433311462,-400000.0625,-21293.740234375,-16939.44921875,-400000.0625,-21049.259765625,-400000.0625,-15474.6103515625,-400000.0625
131.3576579093933,-400000.0625,-21263.029296875,-16907.9296875,-400000.0625,-21027.5703125,-400000.0625,-15442.330078125,-400000.0625
131.35766172409058,-400000.0625,-21241.05078125,-16887.4296875,-400000.0625,-21001.869140625,-400000.0625,-15418.150390625,-400000.0625
131.35766530036926,-400000.0625,-21257.2109375,-16904.359375,-400000.0625,-21011.16015625,-400000.0625,-15434.7900390625,-400000.0625
131.35766887664795,-400000.0625,-21290.01953125,-16934.58984375,-400000.0625,-21046.740234375,-400000.0625,-15466.41015625,-400000.0625
131.35767245292664,-400000.0625,-21293.44921875,-16937.44921875,-400000.0625,-21052.41015625,-400000.0625,-15470.7900390625,-400000.0625
131.3576762676239,-400000.0625,-21257.5,-16906.9296875,-400000.0625,-21022.75,-400000.0625,-15439.7001953125,-400000.0625
131.4111523628235,-400000.0625,-21237.189453125,-16885.4296875,-400000.0625,-21003.19921875,-400000.0625,-15413.91015625,-400000.0625
131.42140936851501,-400000.0625,-21257.2109375,-16902.5390625,-400000.0625,-21014.98046875,-400000.0625,-15434.83984375,-400000.0625
131.4261667728424,-400000.0625,-21291.44921875,-16936.880859375,-400000.0625,-21044.44921875,-400000.0625,-15468.650390625,-400000.0625
131.42617535591125,-400000.0625,-21297.41015625,-16945.169921875,-400000.0625,-21051.650390625,-400000.0625,-15470.83984375,-400000.0625
131.42617988586426,-400000.0625,-21268.369140625,-16913.369140625,-400000.0625,-21023.80078125,-400000.0625,-15439.9404296875,-400000.0625
131.42618370056152,-400000.0625,-21245.720703125,-16889.759765625,-400000.0625,-21004.30078125,-400000.0625,-15417.7197265625,-400000.0625
131.42618823051453,-400000.0625,-21258.98046875,-16906.55078125,-400000.0625,-21021.890625,-400000.0625,-15433.98046875,-400000.0625
131.4261918067932,-400000.0625,-21292.310546875,-16938.970703125,-400000.0625,-21048.740234375,-400000.0625,-15468.3603515625,-400000.0625
131.4261953830719,-400000.0625,-21298.4609375,-16943.5,-400000.0625,-21051.7890625,-400000.0625,-15473.3203125,-400000.0625
131.42619919776917,-400000.0625,-21265.369140625,-16911.080078125,-400000.0625,-21025.849609375,-400000.0625,-15439.6103515625,-400000.0625
131.42620277404785,-400000.0625,-21244.150390625,-16889.48046875,-400000.0625,-21012.689453125,-400000.0625,-15420.0595703125,-400000.0625
131.42620635032654,-400000.0625,-21259.640625,-16904.359375,-400000.0625,-21022.509765625,-400000.0625,-15439.6103515625,-400000.0625
131.42621064186096,-400000.0625,-21290.880859375,-16936.689453125,-400000.0625,-21040.390625,-400000.0625,-15468.8896484375,-400000.0625
131.42621445655823,-400000.0625,-21292.98046875,-16939.880859375,-400000.0625,-21045.0703125,-400000.0625,-15474.080078125,-400000.0625
131.4262180328369,-400000.0625,-21259.01953125,-16912.26953125,-400000.0625,-21025.0390625,-400000.0625,-15441.3701171875,-400000.0625
131.42622327804565,-400000.0625,-21238.849609375,-16890.099609375,-400000.0625,-21010.119140625,-400000.0625,-15417.099609375,-400000.0625
131.4793210029602,-400000.0625,-21256.5390625,-16901.58984375,-400000.0625,-21018.26953125,-400000.0625,-15434.1201171875,-400000.0625
131.48504114151,-400000.0625,-21283.720703125,-16930.30078125,-400000.0625,-21037.33984375,-400000.0625,-15469.3603515625,-400000.0625
131.49128937721252,-400000.0625,-21290.689453125,-16936.919921875,-400000.0625,-21047.7890625,-400000.0625,-15473.650390625,-400000.0625
131.49591302871704,-400000.0625,-21260.650390625,-16907.650390625,-400000.0625,-21026.08984375,-400000.0625,-15441.2802734375,-400000.0625
131.4959216117859,-400000.0625,-21235.23046875,-16884.470703125,-400000.0625,-20998.240234375,-400000.0625,-15417.0498046875,-400000.0625
131.4959261417389,-400000.0625,-21256.640625,-16902.830078125,-400000.0625,-21012.640625,-400000.0625,-15438.1298828125,-400000.0625
131.4959306716919,-400000.0625,-21290.30078125,-16931.150390625,-400000.0625,-21043.259765625,-400000.0625,-15470.7900390625,-400000.0625
131.49593472480774,-400000.0625,-21293.880859375,-16934.349609375,-400000.0625,-21052.3203125,-400000.0625,-15474.8896484375,-400000.0625
131.495938539505,-400000.0625,-21262.220703125,-16902.2109375,-400000.0625,-21027.66015625,-400000.0625,-15443.7099609375,-400000.0625
131.4959421157837,-400000.0625,-21237.140625,-16875.029296875,-400000.0625,-21007.349609375,-400000.0625,-15423.25,-400000.0625
131.49594593048096,-400000.0625,-21253.869140625,-16888.5703125,-400000.0625,-21013.55078125,-400000.0625,-15440.0400390625,-400000.0625
131.49594950675964,-400000.0625,-21291.740234375,-16919.51953125,-400000.0625,-21034.19921875,-400000.0625,-15472.080078125,-400000.0625
131.49595308303833,-400000.0625,-21305.279296875,-16923.51953125,-400000.0625,-21046.119140625,-400000.0625,-15475.3203125,-400000.0625
131.49595713615417,-400000.0625,-21260.83984375,-16882.369140625,-400000.0625,-21016.359375,-400000.0625,-15447.08984375,-400000.0625
131.49596071243286,-400000.0625,-21216.490234375,-16846.75,-400000.0625,-20986.75,-400000.0625,-15433.0302734375,-400000.0625
131.49596428871155,-400000.0625,-21226.98046875,-16859.8203125,-400000.0625,-21001.529296875,-400000.0625,-15462.9697265625,-400000.0625
131.54491257667542,-400000.0625,-21264.130859375,-16887.759765625,-400000.0625,-21030.2890625,-400000.0625,-15504.3095703125,-400000.0625
131.55683755874634,-400000.0625,-21265.599609375,-16883.23046875,-400000.0625,-21029.4296875,-400000.0625,-15518.2900390625,-400000.0625
131.56220293045044,-400000.0625,-21226.0703125,-16841.650390625,-400000.0625,-21000.8203125,-400000.0625,-15496.919921875,-400000.0625
131.57036590576172,-400000.0625,-21201.80078125,-16812.369140625,-400000.0625,-20978.640625,-400000.0625,-15483.91015625,-400000.0625
131.57563734054565,-400000.0625,-21211.8203125,-16814.51953125,-400000.0625,-20985.939453125,-400000.0625,-15508.1298828125,-400000.0625
131.5815076828003,-400000.0625,-21242.380859375,-16839.3203125,-400000.0625,-21010.2109375,-400000.0625,-15545.5595703125,-400000.0625
131.5862147808075,-400000.0625,-21249.630859375,-16840.890625,-400000.0625,-21011.44921875,-400000.0625,-15554.2900390625,-400000.0625
131.58622479438782,-400000.0625,-21216.970703125,-16804.98046875,-400000.0625,-20986.609375,-400000.0625,-15521.0,-400000.0625
131.58622980117798,-400000.0625,-21189.740234375,-16781.0,-400000.0625,-20970.19921875,-400000.0625,-15499.2099609375,-400000.0625
131.58623385429382,-400000.0625,-21208.240234375,-16799.2109375,-400000.0625,-20986.990234375,-400000.0625,-15518.330078125,-400000.0625
131.5862376689911,-400000.0625,-21246.580078125,-16831.44921875,-400000.0625,-21010.400390625,-400000.0625,-15548.1796875,-400000.0625
131.58624124526978,-400000.0625,-21249.439453125,-16835.169921875,-400000.0625,-21012.2109375,-400000.0625,-15555.2900390625,-400000.0625
131.58624505996704,-400000.0625,-21217.58984375,-16805.130859375,-400000.0625,-20987.369140625,-400000.0625,-15525.0595703125,-400000.0625
131.58624863624573,-400000.0625,-21196.369140625,-16783.0,-400000.0625,-20970.919921875,-400000.0625,-15503.1201171875,-400000.0625
131.586252450943,-400000.0625,-21212.580078125,-16798.740234375,-400000.0625,-20986.609375,-400000.0625,-15521.580078125,-400000.0625
131.58625626564026,-400000.0625,-21242.240234375,-16824.919921875,-400000.0625,-21009.259765625,-400000.0625,-15549.900390625,-400000.0625
131.60306787490845,-400000.0625,-21248.390625,-16831.779296875,-400000.0625,-21008.58984375,-400000.0625,-15553.48046875,-400000.0625
131.60816764831543,-400000.0625,-21214.060546875,-16797.779296875,-400000.0625,-20984.080078125,-400000.0625,-15520.7197265625,-400000.0625
131.61337447166443,-400000.0625,-21194.41015625,-16777.369140625,-400000.0625,-20973.73046875,-400000.0625,-15495.73046875,-400000.0625
131.617746591568,-400000.0625,-21208.529296875,-16791.970703125,-400000.0625,-20984.509765625,-400000.0625,-15513.4697265625,-400000.0625
131.61775398254395,-400000.0625,-21243.33984375,-16821.390625,-400000.0625,-21007.970703125,-400000.0625,-15544.6103515625,-400000.0625
131.61775827407837,-400000.0625,-21248.6796875,-16829.439453125,-400000.0625,-21018.650390625,-400000.0625,-15547.75,-400000.0625
131.61776161193848,-400000.0625,-21216.919921875,-16800.689453125,-400000.0625,-20992.94921875,-400000.0625,-15519.759765625,-400000.0625
131.6177659034729,-400000.0625,-21197.849609375,-16778.7109375,-400000.0625,-20971.16015625,-400000.0625,-15495.2998046875,-400000.0625
131.617769241333,-400000.0625,-21214.8203125,-16796.01953125,-400000.0625,-20985.369140625,-400000.0625,-15514.08984375,-400000.0625
131.61777234077454,-400000.0625,-21248.060546875,-16829.2109375,-400000.0625,-21008.880859375,-400000.0625,-15543.650390625,-400000.0625
131.61777567863464,-400000.0625,-21249.060546875,-16832.970703125,-400000.0625,-21012.830078125,-400000.0625,-15549.51953125,-400000.0625
131.61777901649475,-400000.0625,-21219.58984375,-16802.890625,-400000.0625,-20991.849609375,-400000.0625,-15521.0,-400000.0625
131.61778211593628,-400000.0625,-21195.599609375,-16779.7109375,-400000.0625,-20970.390625,-400000.0625,-15495.349609375,-400000.0625
131.61778497695923,-400000.0625,-21203.330078125,-16791.919921875,-400000.0625,-20983.26953125,-400000.0625,-15510.1796875,-400000.0625
131.61778855323792,-400000.0625,-21240.4296875,-16823.630859375,-400000.0625,-21007.869140625,-400000.0625,-15543.6103515625,-400000.0625
131.61779165267944,-400000.0625,-21249.9609375,-16828.16015625,-400000.0625,-21012.640625,-400000.0625,-15547.2802734375,-400000.0625
131.68043780326843,-400000.0625,-21213.580078125,-16792.970703125,-400000.0625,-20986.3203125,-400000.0625,-15513.759765625,-400000.0625
131.68950390815735,-400000.0625,-21196.80078125,-16776.849609375,-400000.0625,-20968.73046875,-400000.0625,-15490.6298828125,-400000.0625
131.69401097297668,-400000.0625,-21214.580078125,-16793.349609375,-400000.0625,-20984.080078125,-400000.0625,-15508.509765625,-400000.0625
131.69401860237122,-400000.0625,-21242.140625,-16820.2890625,-400000.0625,-21002.009765625,-400000.0625,-15539.5,-400000.0625
131.69402289390564,-400000.0625,-21254.259765625,-16827.8203125,-400000.0625,-21009.970703125,-400000.0625,-15542.2197265625,-400000.0625
131.69402647018433,-400000.0625,-21226.119140625,-16793.30078125,-400000.0625,-20986.080078125,-400000.0625,-15505.1201171875,-400000.0625
131.69403052330017,-400000.0625,-21213.9609375,-16765.41015625,-400000.0625,-20968.439453125,-400000.0625,-15481.66015625,-400000.0625
131.69403386116028,-400000.0625,-21256.2109375,-16764.01953125,-400000.0625,-20968.25,-400000.0625,-15480.8095703125,-400000.0625
131.69403719902039,-400000.0625,-21286.869140625,-16795.01953125,-400000.0625,-20983.939453125,-400000.0625,-15519.240234375,-400000.0625
131.6940405368805,-400000.0625,-21282.009765625,-16815.380859375,-400000.0625,-20994.51953125,-400000.0625,-15528.73046875,-400000.0625
131.69404363632202,-400000.0625,-21258.9296875,-16793.349609375,-400000.0625,-20971.25,-400000.0625,-15505.83984375,-400000.0625
131.69404697418213,-400000.0625,-21233.419921875,-16777.419921875,-400000.0625,-20951.419921875,-400000.0625,-15491.919921875,-400000.0625
131.69405031204224,-400000.0625,-21270.609375,-16806.4609375,-400000.0625,-20959.900390625,-400000.0625,-15528.2001953125,-400000.0625
131.69405341148376,-400000.0625,-21331.119140625,-16844.1796875,-400000.0625,-20978.5,-400000.0625,-15554.0498046875,-400000.0625
131.6940565109253,-400000.0625,-21362.349609375,-16836.880859375,-400000.0625,-20967.390625,-400000.0625,-15551.759765625,-400000.0625
131.6940598487854,-400000.0625,-21334.75,-16829.58984375,-400000.0625,-20936.349609375,-400000.0625,-15553.1904296875,-400000.0625
131.74629664421082,-400000.0625,-21337.69921875,-16848.80078125,-400000.0625,-20917.990234375,-400000.0625,-15565.2099609375,-400000.0625
131.75182223320007,-400000.0625,-21398.740234375,-16881.990234375,-400000.0625,-20919.0390625,-400000.0625,-15597.490234375,-400000.0625
131.75639462471008,-400000.0625,-21480.900390625,-16928.869140625,-400000.0625,-20928.240234375,-400000.0625,-15646.75,-400000.0625
131.75640439987183,-400000.0625,-21532.58984375,-16953.08984375,-400000.0625,-20922.140625,-400000.0625,-15668.0595703125,-400000.0625
131.75640892982483,-400000.0625,-21536.640625,-16930.30078125,-400000.0625,-20883.130859375,-400000.0625,-15653.900390625,-400000.0625
131.7564127445221,-400000.0625,-21537.58984375,-16917.51953125,-400000.0625,-20852.189453125,-400000.0625,-15641.98046875,-400000.0625
131.75641655921936,-400000.0625,-21572.349609375,-16939.2109375,-400000.0625,-20856.810546875,-400000.0625,-15671.1103515625,-400000.0625
131.75642013549805,-400000.0625,-21621.08984375,-16969.01953125,-400000.0625,-20875.220703125,-400000.0625,-15712.740234375,-400000.0625
131.75642371177673,-400000.0625,-21642.44921875,-16976.640625,-400000.0625,-20876.7890625,-400000.0625,-15719.75,-400000.0625
131.75642728805542,-400000.0625,-21614.98046875,-16940.689453125,-400000.0625,-20854.51953125,-400000.0625,-15688.990234375,-400000.0625
131.7564308643341,-400000.0625,-21594.240234375,-16920.330078125,-400000.0625,-20837.9296875,-400000.0625,-15666.0595703125,-400000.0625
131.75643467903137,-400000.0625,-21608.400390625,-16932.30078125,-400000.0625,-20847.939453125,-400000.0625,-15678.599609375,-400000.0625
131.75643801689148,-400000.0625,-21636.76953125,-16955.5703125,-400000.0625,-20875.0703125,-400000.0625,-15712.6904296875,-400000.0625
131.75644159317017,-400000.0625,-21635.25,-16954.849609375,-400000.0625,-20877.939453125,-400000.0625,-15715.650390625,-400000.0625
131.75644516944885,-400000.0625,-21593.529296875,-16921.08984375,-400000.0625,-20861.439453125,-400000.0625,-15682.1298828125,-400000.0625
131.75644874572754,-400000.0625,-21549.990234375,-16891.4296875,-400000.0625,-20847.560546875,-400000.0625,-15656.2802734375,-400000.0625
131.79882836341858,-400000.0625,-21556.4296875,-16906.740234375,-400000.0625,-20861.009765625,-400000.0625,-15671.830078125,-400000.0625
131.80840516090393,-400000.0625,-21577.0703125,-16931.9609375,-400000.0625,-20889.619140625,-400000.0625,-15701.0595703125,-400000.0625
131.81414699554443,-400000.0625,-21561.48046875,-16929.529296875,-400000.0625,-20901.060546875,-400000.0625,-15704.1103515625,-400000.0625
131.81865453720093,-400000.0625,-21517.470703125,-16899.349609375,-400000.0625,-20887.140625,-400000.0625,-15664.91015625,-400000.0625
131.8186628818512,-400000.0625,-21483.810546875,-16874.3203125,-400000.0625,-20872.259765625,-400000.0625,-15635.7802734375,-400000.0625
131.81866669654846,-400000.0625,-21477.890625,-16881.130859375,-400000.0625,-20889.330078125,-400000.0625,-15651.9404296875,-400000.0625
131.81867051124573,-400000.0625,-21490.619140625,-16904.640625,-400000.0625,-20925.720703125,-400000.0625,-15677.7900390625,-400000.0625
131.81867361068726,-400000.0625,-21480.900390625,-16903.2109375,-400000.0625,-20934.30078125,-400000.0625,-15672.400390625,-400000.0625
131.81867694854736,-400000.0625,-21437.080078125,-16869.119140625,-400000.0625,-20914.220703125,-400000.0625,-15633.1103515625,-400000.0625
131.81868028640747,-400000.0625,-21401.599609375,-16845.130859375,-400000.0625,-20904.919921875,-400000.0625,-15604.58984375,-400000.0625
131.81868362426758,-400000.0625,-21406.369140625,-16859.439453125,-400000.0625,-20928.189453125,-400000.0625,-15618.1396484375,-400000.0625
131.8186867237091,-400000.0625,-21424.150390625,-16882.279296875,-400000.0625,-20953.23046875,-400000.0625,-15643.3095703125,-400000.0625
131.8186900615692,-400000.0625,-21414.0,-16881.80078125,-400000.0625,-20955.990234375,-400000.0625,-15640.9296875,-400000.0625
131.81869316101074,-400000.0625,-21372.939453125,-16845.900390625,-400000.0625,-20938.830078125,-400000.0625,-15604.3095703125,-400000.0625
131.81869649887085,-400000.0625,-21343.66015625,-16821.150390625,-400000.0625,-20929.76953125,-400000.0625,-15575.83984375,-400000.0625
131.81869983673096,-400000.0625,-21349.669921875,-16835.359375,-400000.0625,-20945.5,-400000.0625,-15588.0,-400000.0625
131.85986232757568,-400000.0625,-21368.69921875,-16857.630859375,-400000.0625,-20972.44921875,-400000.0625,-15615.8896484375,-400000.0625
131.8651475906372,-400000.0625,-21362.310546875,-16858.529296875,-400000.0625,-20980.0703125,-400000.0625,-15613.990234375,-400000.0625
131.87042140960693,-400000.0625,-21322.30078125,-16821.91015625,-400000.0625,-20957.0390625,-400000.0625,-15574.3095703125,-400000.0625
131.87511467933655,-400000.0625,-21292.16015625,-16796.919921875,-400000.0625,-20940.58984375,-400000.0625,-15552.8095703125,-400000.0625
131.87512469291687,-400000.0625,-21302.990234375,-16813.1796875,-400000.0625,-20957.7109375,-400000.0625,-15568.01953125,-400000.0625
131.87512922286987,-400000.0625,-21323.919921875,-16840.3203125,-400000.0625,-20980.5,-400000.0625,-15595.5302734375,-400000.0625
131.8751344680786,-400000.0625,-21323.349609375,-16845.80078125,-400000.0625,-20993.08984375,-400000.0625,-15600.25,-400000.0625
131.87513899803162,-400000.0625,-21288.349609375,-16814.5703125,-400000.0625,-20974.259765625,-400000.0625,-15564.2099609375,-400000.0625
131.87514424324036,-400000.0625,-21258.55078125,-16791.5390625,-400000.0625,-20957.189453125,-400000.0625,-15538.169921875,-400000.0625
131.8751494884491,-400000.0625,-21268.470703125,-16803.69921875,-400000.0625,-20970.970703125,-400000.0625,-15552.0,-400000.0625
131.87515473365784,-400000.0625,-21296.310546875,-16829.73046875,-400000.0625,-20993.0390625,-400000.0625,-15581.4697265625,-400000.0625
131.8751609325409,-400000.0625,-21293.310546875,-16830.880859375,-400000.0625,-20995.48046875,-400000.0625,-15582.1796875,-400000.0625
131.8751654624939,-400000.0625,-21258.55078125,-16798.9296875,-400000.0625,-20976.58984375,-400000.0625,-15545.9404296875,-400000.0625
131.87517023086548,-400000.0625,-21227.220703125,-16773.26953125,-400000.0625,-20955.470703125,-400000.0625,-15519.5703125,-400000.0625
131.87517404556274,-400000.0625,-21244.099609375,-16789.869140625,-400000.0625,-20970.630859375,-400000.0625,-15536.41015625,-400000.0625
131.87517881393433,-400000.0625,-21273.23046875,-16819.669921875,-400000.0625,-20999.9609375,-400000.0625,-15566.349609375,-400000.0625
131.92910766601562,-400000.0625,-21275.140625,-16821.240234375,-400000.0625,-21007.919921875,-400000.0625,-15572.599609375,-400000.0625
131.93853759765625,-400000.0625,-21242.330078125,-16788.48046875,-400000.0625,-20984.599609375,-400000.0625,-15539.740234375,-400000.0625
131.94291234016418,-400000.0625,-21218.25,-16768.119140625,-400000.0625,-20961.48046875,-400000.0625,-15515.849609375,-400000.0625
131.9429214000702,-400000.0625,-21230.80078125,-16783.2890625,-400000.0625,-20974.109375,-400000.0625,-15533.400390625,-400000.0625
131.94292569160461,-400000.0625,-21260.650390625,-16813.140625,-400000.0625,-21003.6796875,-400000.0625,-15562.8203125,-400000.0625
131.94292974472046,-400000.0625,-21264.169921875,-16818.099609375,-400000.0625,-21009.44921875,-400000.0625,-15565.830078125,-400000.0625
131.94293403625488,-400000.0625,-21228.26953125,-16785.150390625,-400000.0625,-20980.5,-400000.0625,-15536.169921875,-400000.0625
131.94293761253357,-400000.0625,-21204.5703125,-16762.5390625,-400000.0625,-20964.580078125,-400000.0625,-15510.990234375,-400000.0625
131.9429416656494,-400000.0625,-21215.5390625,-16775.130859375,-400000.0625,-20979.119140625,-400000.0625,-15526.150390625,-400000.0625
131.94294595718384,-400000.0625,-21244.9609375,-16804.599609375,-400000.0625,-21002.439453125,-400000.0625,-15556.150390625,-400000.0625
131.94295072555542,-400000.0625,-21249.150390625,-16805.599609375,-400000.0625,-21007.25,-400000.0625,-15558.48046875,-400000.0625
131.94295477867126,-400000.0625,-21217.25,-16775.509765625,-400000.0625,-20986.849609375,-400000.0625,-15528.1103515625,-400000.0625
131.94295835494995,-400000.0625,-21195.41015625,-16756.5390625,-400000.0625,-20967.19921875,-400000.0625,-15509.080078125,-400000.0625
131.94296216964722,-400000.0625,-21211.2890625,-16772.4609375,-400000.0625,-20976.16015625,-400000.0625,-15522.91015625,-400000.0625
131.9429657459259,-400000.0625,-21241.05078125,-16800.01953125,-400000.0625,-21001.720703125,-400000.0625,-15554.5703125,-400000.0625
131.942969083786,-400000.0625,-21243.189453125,-16802.119140625,-400000.0625,-21003.8203125,-400000.0625,-15557.48046875,-400000.0625
132.04150223731995,-400000.0625,-21211.9609375,-16773.419921875,-400000.0625,-20978.689453125,-400000.0625,-15523.9599609375,-400000.0625
132.0534110069275,-400000.0625,-21190.650390625,-16755.19921875,-400000.0625,-20968.150390625,-400000.0625,-15501.599609375,-400000.0625
132.05836176872253,-400000.0625,-21210.859375,-16775.279296875,-400000.0625,-20983.080078125,-400000.0625,-15520.240234375,-400000.0625
132.05837225914001,-400000.0625,-21241.2890625,-16804.599609375,-400000.0625,-21002.009765625,-400000.0625,-15554.7197265625,-400000.0625
132.0583779811859,-400000.0625,-21245.05078125,-16809.23046875,-400000.0625,-21008.060546875,-400000.0625,-15558.7197265625,-400000.0625
132.05838227272034,-400000.0625,-21212.76953125,-16778.279296875,-400000.0625,-20983.4609375,-400000.0625,-15527.580078125,-400000.0625
132.05838823318481,-400000.0625,-21194.509765625,-16760.30078125,-400000.0625,-20965.240234375,-400000.0625,-15504.1201171875,-400000.0625
132.05839252471924,-400000.0625,-21209.2890625,-16777.140625,-400000.0625,-20979.119140625,-400000.0625,-15520.5302734375,-400000.0625
132.05839705467224,-400000.0625,-21241.140625,-16810.509765625,-400000.0625,-21006.630859375,-400000.0625,-15555.5302734375,-400000.0625
132.05840134620667,-400000.0625,-21245.150390625,-16813.279296875,-400000.0625,-21008.44921875,-400000.0625,-15561.5302734375,-400000.0625
132.0584053993225,-400000.0625,-21208.810546875,-16779.0390625,-400000.0625,-20982.740234375,-400000.0625,-15528.4404296875,-400000.0625
132.05840921401978,-400000.0625,-21185.2109375,-16756.8203125,-400000.0625,-20969.580078125,-400000.0625,-15504.4599609375,-400000.0625
132.05841326713562,-400000.0625,-21208.380859375,-16778.759765625,-400000.0625,-20986.849609375,-400000.0625,-15523.3896484375,-400000.0625
132.05841755867004,-400000.0625,-21238.619140625,-16807.650390625,-400000.0625,-21003.009765625,-400000.0625,-15558.0498046875,-400000.0625
132.06357884407043,-400000.0625,-21237.900390625,-16807.4609375,-400000.0625,-21001.630859375,-400000.0625,-15561.919921875,-400000.0625
132.06834745407104,-400000.0625,-21210.9609375,-16780.759765625,-400000.0625,-20986.80078125,-400000.0625,-15528.009765625,-400000.0625
132.06835794448853,-400000.0625,-21190.9296875,-16761.58984375,-400000.0625,-20974.640625,-400000.0625,-15506.3603515625,-400000.0625
132.06836318969727,-400000.0625,-21202.94921875,-16777.419921875,-400000.0625,-20985.130859375,-400000.0625,-15525.6298828125,-400000.0625
132.0683674812317,-400000.0625,-21237.5703125,-16810.1796875,-400000.0625,-21006.73046875,-400000.0625,-15554.2900390625,-400000.0625
132.0683720111847,-400000.0625,-21239.94921875,-16808.939453125,-400000.0625,-21008.30078125,-400000.0625,-15556.3798828125,-400000.0625
132.06837630271912,-400000.0625,-21205.05078125,-16776.900390625,-400000.0625,-20982.83984375,-400000.0625,-15524.8701171875,-400000.0625
132.06838059425354,-400000.0625,-21182.490234375,-16760.01953125,-400000.0625,-20962.4296875,-400000.0625,-15502.41015625,-400000.0625
132.0683844089508,-400000.0625,-21196.75,-16773.609375,-400000.0625,-20978.41015625,-400000.0625,-15519.669921875,-400000.0625
132.0683901309967,-400000.0625,-21227.169921875,-16801.41015625,-400000.0625,-21006.2109375,-400000.0625,-15551.4697265625,-400000.0625
132.06839418411255,-400000.0625,-21234.0390625,-16804.7890625,-400000.0625,-21013.44921875,-400000.0625,-15555.150390625,-400000.0625
132.06839752197266,-400000.0625,-21202.140625,-16778.900390625,-400000.0625,-20990.140625,-400000.0625,-15519.7197265625,-400000.0625
132.06840252876282,-400000.0625,-21181.5390625,-16759.44921875,-400000.0625,-20967.9609375,-400000.0625,-15498.1201171875,-400000.0625
132.06840682029724,-400000.0625,-21199.0390625,-16773.66015625,-400000.0625,-20979.119140625,-400000.0625,-15517.8095703125,-400000.0625
132.06841111183167,-400000.0625,-21229.939453125,-16805.130859375,-400000.0625,-21001.25,-400000.0625,-15545.4697265625,-400000.0625
132.06841492652893,-400000.0625,-21232.939453125,-16810.7109375,-400000.0625,-21007.400390625,-400000.0625,-15549.51953125,-400000.0625
132.06841945648193,-400000.0625,-21200.94921875,-16781.140625,-400000.0625,-20988.609375,-400000.0625,-15522.2001953125,-400000.0625
132.06842422485352,-400000.0625,-21182.16015625,-16759.779296875,-400000.0625,-20972.01953125,-400000.0625,-15500.01953125,-400000.0625
132.11558055877686,-400000.0625,-21199.08984375,-16777.5703125,-400000.0625,-20986.369140625,-400000.0625,-15515.7099609375,-400000.0625
132.12100863456726,-400000.0625,-21226.26953125,-16805.75,-400000.0625,-21013.689453125,-400000.0625,-15549.2802734375,-400000.0625
132.1255669593811,-400000.0625,-21230.939453125,-16806.83984375,-400000.0625,-21012.880859375,-400000.0625,-15551.9501953125,-400000.0625
132.1255750656128,-400000.0625,-21196.650390625,-16772.69921875,-400000.0625,-20986.369140625,-400000.0625,-15518.8603515625,-400000.0625
132.1255795955658,-400000.0625,-21170.4296875,-16747.669921875,-400000.0625,-20962.529296875,-400000.0625,-15497.6904296875,-400000.0625
132.12558341026306,-400000.0625,-21187.58984375,-16763.880859375,-400000.0625,-20970.779296875,-400000.0625,-15515.1396484375,-400000.0625
132.12558722496033,-400000.0625,-21215.439453125,-16793.779296875,-400000.0625,-21000.76953125,-400000.0625,-15544.26953125,-400000.0625
132.1255910396576,-400000.0625,-21222.740234375,-16802.41015625,-400000.0625,-21008.640625,-400000.0625,-15551.1396484375,-400000.0625
132.1255943775177,-400000.0625,-21194.080078125,-16775.990234375,-400000.0625,-20984.369140625,-400000.0625,-15521.7197265625,-400000.0625
132.1255979537964,-400000.0625,-21174.619140625,-16754.33984375,-400000.0625,-20970.349609375,-400000.0625,-15499.3603515625,-400000.0625
132.12560176849365,-400000.0625,-21191.98046875,-16771.3203125,-400000.0625,-20990.94921875,-400000.0625,-15516.4697265625,-400000.0625
132.12560534477234,-400000.0625,-21225.029296875,-16801.0703125,-400000.0625,-21013.740234375,-400000.0625,-15549.1396484375,-400000.0625
132.12560892105103,-400000.0625,-21223.830078125,-16799.5,-400000.0625,-21012.169921875,-400000.0625,-15549.23046875,-400000.0625
132.1256127357483,-400000.0625,-21186.9296875,-16768.359375,-400000.0625,-20983.83984375,-400000.0625,-15514.7998046875,-400000.0625
132.12561631202698,-400000.0625,-21167.380859375,-16747.859375,-400000.0625,-20962.48046875,-400000.0625,-15493.349609375,-400000.0625
132.12561988830566,-400000.0625,-21188.689453125,-16767.4609375,-400000.0625,-20983.7890625,-400000.0625,-15515.1904296875,-400000.0625
132.19615530967712,-400000.0625,-21216.060546875,-16799.01953125,-400000.0625,-21008.919921875,-400000.0625,-15545.9404296875,-400000.0625
132.2067391872406,-400000.0625,-21224.119140625,-16806.75,-400000.0625,-21015.4609375,-400000.0625,-15550.08984375,-400000.0625
132.21150016784668,-400000.0625,-21188.830078125,-16772.4609375,-400000.0625,-20991.419921875,-400000.0625,-15517.48046875,-400000.0625
132.2115080356598,-400000.0625,-21164.470703125,-16749.099609375,-400000.0625,-20971.5390625,-400000.0625,-15493.8203125,-400000.0625
132.2115125656128,-400000.0625,-21185.44921875,-16769.3203125,-400000.0625,-20975.640625,-400000.0625,-15512.75,-400000.0625
132.21151638031006,-400000.0625,-21214.009765625,-16796.5390625,-400000.0625,-21001.2890625,-400000.0625,-15543.75,-400000.0625
132.2115204334259,-400000.0625,-21213.439453125,-16794.16015625,-400000.0625,-21005.970703125,-400000.0625,-15544.6103515625,-400000.0625
132.211523771286,-400000.0625,-21183.919921875,-16764.830078125,-400000.0625,-20985.1796875,-400000.0625,-15512.849609375,-400000.0625
132.21152710914612,-400000.0625,-21163.0390625,-16743.759765625,-400000.0625,-20971.16015625,-400000.0625,-15490.3896484375,-400000.0625
132.2115306854248,-400000.0625,-21182.58984375,-16763.0703125,-400000.0625,-20982.599609375,-400000.0625,-15511.6103515625,-400000.0625
132.2115340232849,-400000.0625,-21212.76953125,-16793.109375,-400000.0625,-21003.6796875,-400000.0625,-15543.1796875,-400000.0625
132.21153903007507,-400000.0625,-21214.150390625,-16796.779296875,-400000.0625,-21008.349609375,-400000.0625,-15545.7998046875,-400000.0625
132.21154236793518,-400000.0625,-21180.630859375,-16764.689453125,-400000.0625,-20982.55078125,-400000.0625,-15514.7099609375,-400000.0625
132.21154594421387,-400000.0625,-21160.560546875,-16746.48046875,-400000.0625,-20968.009765625,-400000.0625,-15490.580078125,-400000.0625
132.21154928207397,-400000.0625,-21176.869140625,-16760.0703125,-400000.0625,-20978.640625,-400000.0625,-15509.990234375,-400000.0625
132.21156430244446,-400000.0625,-21206.94921875,-16792.439453125,-400000.0625,-20999.390625,-400000.0625,-15543.0302734375,-400000.0625
132.24605202674866,-400000.0625,-21211.33984375,-16797.119140625,-400000.0625,-21002.099609375,-400000.0625,-15543.990234375,-400000.0625
132.25158023834229,-400000.0625,-21176.33984375,-16764.44921875,-400000.0625,-20981.029296875,-400000.0625,-15511.509765625,-400000.0625
132.25632524490356,-400000.0625,-21152.44921875,-16742.1796875,-400000.0625,-20967.529296875,-400000.0625,-15490.2998046875,-400000.0625
132.25633430480957,-400000.0625,-21172.91015625,-16758.779296875,-400000.0625,-20984.1796875,-400000.0625,-15509.3203125,-400000.0625
132.25633883476257,-400000.0625,-21201.5703125,-16787.48046875,-400000.0625,-21005.8203125,-400000.0625,-15536.6904296875,-400000.0625
132.25634264945984,-400000.0625,-21200.75,-16786.4296875,-400000.0625,-21001.91015625,-400000.0625,-15537.4501953125,-400000.0625
132.25634694099426,-400000.0625,-21173.529296875,-16761.400390625,-400000.0625,-20985.080078125,-400000.0625,-15508.509765625,-400000.0625
132.25635075569153,-400000.0625,-21154.5,-16741.94921875,-400000.0625,-20968.490234375,-400000.0625,-15485.91015625,-400000.0625
132.25635480880737,-400000.0625,-21171.94921875,-16758.73046875,-400000.0625,-20978.880859375,-400000.0625,-15503.6904296875,-400000.0625
132.25635838508606,-400000.0625,-21200.849609375,-16788.580078125,-400000.0625,-21000.099609375,-400000.0625,-15538.5,-400000.0625
132.25636219978333,-400000.0625,-21203.94921875,-16789.919921875,-400000.0625,-21003.76953125,-400000.0625,-15544.1298828125,-400000.0625
132.256365776062,-400000.0625,-21173.669921875,-16758.869140625,-400000.0625,-20981.55078125,-400000.0625,-15513.0400390625,-400000.0625
132.25636959075928,-400000.0625,-21153.310546875,-16741.419921875,-400000.0625,-20963.48046875,-400000.0625,-15490.3896484375,-400000.0625
132.25637340545654,-400000.0625,-21166.140625,-16756.73046875,-400000.0625,-20976.16015625,-400000.0625,-15505.98046875,-400000.0625
132.25637698173523,-400000.0625,-21195.69921875,-16783.4296875,-400000.0625,-21003.919921875,-400000.0625,-15535.3095703125,-400000.0625
132.2563807964325,-400000.0625,-21203.900390625,-16791.580078125,-400000.0625,-21015.0703125,-400000.0625,-15542.650390625,-400000.0625
132.3060176372528,-400000.0625,-21172.9609375,-16764.01953125,-400000.0625,-20985.369140625,-400000.0625,-15509.3203125,-400000.0625
132.3154137134552,-400000.0625,-21150.0703125,-16741.419921875,-400000.0625,-20964.19921875,-400000.0625,-15488.150390625,-400000.0625
132.32005715370178,-400000.0625,-21168.279296875,-16758.73046875,-400000.0625,-20976.98046875,-400000.0625,-15504.169921875,-400000.0625
132.32006740570068,-400000.0625,-21196.4609375,-16785.91015625,-400000.0625,-21002.009765625,-400000.0625,-15536.9296875,-400000.0625
132.32007217407227,-400000.0625,-21200.470703125,-16789.060546875,-400000.0625,-21009.880859375,-400000.0625,-15542.75,-400000.0625
132.32007694244385,-400000.0625,-21171.330078125,-16759.58984375,-400000.0625,-20980.689453125,-400000.0625,-15509.75,-400000.0625
132.32008266448975,-400000.0625,-21146.16015625,-16737.419921875,-400000.0625,-20965.630859375,-400000.0625,-15485.099609375,-400000.0625
132.32008934020996,-400000.0625,-21166.1796875,-16756.25,-400000.0625,-20981.029296875,-400000.0625,-15508.2197265625,-400000.0625
132.32009625434875,-400000.0625,-21200.419921875,-16789.869140625,-400000.0625,-21002.630859375,-400000.0625,-15544.75,-400000.0625
132.3201026916504,-400000.0625,-21203.470703125,-16790.150390625,-400000.0625,-21003.33984375,-400000.0625,-15545.3203125,-400000.0625
132.32010769844055,-400000.0625,-21170.330078125,-16758.439453125,-400000.0625,-20982.080078125,-400000.0625,-15512.23046875,-400000.0625
132.3201127052307,-400000.0625,-21146.970703125,-16736.890625,-400000.0625,-20966.6796875,-400000.0625,-15488.009765625,-400000.0625
132.32011818885803,-400000.0625,-21164.900390625,-16755.5390625,-400000.0625,-20976.880859375,-400000.0625,-15506.650390625,-400000.0625
132.32012343406677,-400000.0625,-21197.0390625,-16785.390625,-400000.0625,-20998.810546875,-400000.0625,-15538.740234375,-400000.0625
132.3201277256012,-400000.0625,-21201.759765625,-16788.439453125,-400000.0625,-20997.91015625,-400000.0625,-15540.2197265625,-400000.0625
132.32013154029846,-400000.0625,-21171.140625,-16759.25,-400000.0625,-20977.58984375,-400000.0625,-15509.419921875,-400000.0625
132.41374492645264,-400000.0625,-21152.740234375,-16741.1796875,-400000.0625,-20966.8203125,-400000.0625,-15485.33984375,-400000.0625
132.42386174201965,-400000.0625,-21170.669921875,-16758.869140625,-400000.0625,-20982.119140625,-400000.0625,-15506.2197265625,-400000.0625
132.42805767059326,-400000.0625,-21197.080078125,-16785.580078125,-400000.0625,-21007.2109375,-400000.0625,-15536.830078125,-400000.0625
132.42806339263916,-400000.0625,-21193.359375,-16781.279296875,-400000.0625,-21005.439453125,-400000.0625,-15538.3603515625,-400000.0625
132.42806768417358,-400000.0625,-21165.900390625,-16753.720703125,-400000.0625,-20979.83984375,-400000.0625,-15508.650390625,-400000.0625
132.42807126045227,-400000.0625,-21146.439453125,-16734.890625,-400000.0625,-20964.580078125,-400000.0625,-15485.5302734375,-400000.0625
132.42807531356812,-400000.0625,-21165.609375,-16753.150390625,-400000.0625,-20979.0703125,-400000.0625,-15505.3603515625,-400000.0625
132.4280788898468,-400000.0625,-21191.55078125,-16780.51953125,-400000.0625,-21001.009765625,-400000.0625,-15537.169921875,-400000.0625
132.4280824661255,-400000.0625,-21194.26953125,-16785.0,-400000.0625,-21002.529296875,-400000.0625,-15540.3203125,-400000.0625
132.42808604240417,-400000.0625,-21168.4296875,-16759.640625,-400000.0625,-20975.5390625,-400000.0625,-15506.3603515625,-400000.0625
132.42808938026428,-400000.0625,-21148.400390625,-16738.609375,-400000.0625,-20964.9609375,-400000.0625,-15486.1904296875,-400000.0625
132.42809319496155,-400000.0625,-21163.69921875,-16753.009765625,-400000.0625,-20982.740234375,-400000.0625,-15505.2197265625,-400000.0625
132.42809653282166,-400000.0625,-21193.4609375,-16782.7109375,-400000.0625,-21001.8203125,-400000.0625,-15537.5498046875,-400000.0625
132.42809987068176,-400000.0625,-21194.599609375,-16786.720703125,-400000.0625,-21003.060546875,-400000.0625,-15539.83984375,-400000.0625
132.42810344696045,-400000.0625,-21162.4609375,-16755.580078125,-400000.0625,-20980.029296875,-400000.0625,-15502.98046875,-400000.0625
132.42810654640198,-400000.0625,-21139.76953125,-16733.26953125,-400000.0625,-20958.240234375,-400000.0625,-15483.7099609375,-400000.0625
132.4457926750183,-400000.0625,-21163.990234375,-16754.009765625,-400000.0625,-20976.310546875,-400000.0625,-15503.5,-400000.0625
132.4522843360901,-400000.0625,-21192.83984375,-16783.4296875,-400000.0625,-21006.73046875,-400000.0625,-15535.9296875,-400000.0625
132.4567573070526,-400000.0625,-21194.69921875,-16783.91015625,-400000.0625,-21005.919921875,-400000.0625,-15537.3095703125,-400000.0625
132.45676589012146,-400000.0625,-21161.80078125,-16751.48046875,-400000.0625,-20978.5,-400000.0625,-15505.8896484375,-400000.0625
132.4567699432373,-400000.0625,-21140.390625,-16732.740234375,-400000.0625,-20957.810546875,-400000.0625,-15487.48046875,-400000.0625
132.45677423477173,-400000.0625,-21160.69921875,-16750.720703125,-400000.0625,-20970.630859375,-400000.0625,-15507.7001953125,-400000.0625
132.45677876472473,-400000.0625,-21192.080078125,-16779.94921875,-400000.0625,-20997.859375,-400000.0625,-15535.98046875,-400000.0625
132.45678305625916,-400000.0625,-21190.359375,-16778.759765625,-400000.0625,-21001.060546875,-400000.0625,-15540.98046875,-400000.0625
132.45678734779358,-400000.0625,-21161.650390625,-16748.4296875,-400000.0625,-20976.01953125,-400000.0625,-15511.849609375,-400000.0625
132.45679116249084,-400000.0625,-21144.25,-16733.359375,-400000.0625,-20963.859375,-400000.0625,-15487.9599609375,-400000.0625
132.45679545402527,-400000.0625,-21157.7890625,-16749.33984375,-400000.0625,-20976.400390625,-400000.0625,-15506.5595703125,-400000.0625
132.456800699234,-400000.0625,-21188.310546875,-16779.0390625,-400000.0625,-21001.439453125,-400000.0625,-15538.83984375,-400000.0625
132.4568042755127,-400000.0625,-21193.650390625,-16780.94921875,-400000.0625,-20999.48046875,-400000.0625,-15540.7001953125,-400000.0625
132.45680809020996,-400000.0625,-21160.69921875,-16751.150390625,-400000.0625,-20972.349609375,-400000.0625,-15509.23046875,-400000.0625
132.45681190490723,-400000.0625,-21139.91015625,-16731.7890625,-400000.0625,-20956.759765625,-400000.0625,-15488.48046875,-400000.0625
132.45681595802307,-400000.0625,-21157.7890625,-16750.4296875,-400000.0625,-20972.779296875,-400000.0625,-15509.1796875,-400000.0625
132.5007679462433,-400000.0625,-21188.830078125,-16779.330078125,-400000.0625,-21002.869140625,-400000.0625,-15541.650390625,-400000.0625
132.50629019737244,-400000.0625,-21190.5,-16781.51953125,-400000.0625,-21003.529296875,-400000.0625,-15545.23046875,-400000.0625
132.51159024238586,-400000.0625,-21159.3203125,-16752.529296875,-400000.0625,-20976.880859375,-400000.0625,-15514.330078125,-400000.0625
132.51662921905518,-400000.0625,-21140.150390625,-16734.220703125,-400000.0625,-20955.94921875,-400000.0625,-15491.919921875,-400000.0625
132.52602672576904,-400000.0625,-21159.4609375,-16753.439453125,-400000.0625,-20971.25,-400000.0625,-15512.5595703125,-400000.0625
132.53111696243286,-400000.0625,-21193.890625,-16784.150390625,-400000.0625,-21000.9609375,-400000.0625,-15543.26953125,-400000.0625
132.53638362884521,-400000.0625,-21195.599609375,-16783.48046875,-400000.0625,-21002.720703125,-400000.0625,-15543.0302734375,-400000.0625
132.5417172908783,-400000.0625,-21167.7109375,-16756.390625,-400000.0625,-20979.41015625,-400000.0625,-15513.3701171875,-400000.0625
132.54633283615112,-400000.0625,-21146.58984375,-16735.26953125,-400000.0625,-20958.94921875,-400000.0625,-15493.5400390625,-400000.0625
132.5463411808014,-400000.0625,-21160.130859375,-16750.150390625,-400000.0625,-20970.73046875,-400000.0625,-15511.4697265625,-400000.0625
132.54634594917297,-400000.0625,-21191.599609375,-16782.189453125,-400000.0625,-20996.619140625,-400000.0625,-15547.0400390625,-400000.0625
132.54635310173035,-400000.0625,-21199.560546875,-16788.869140625,-400000.0625,-21001.48046875,-400000.0625,-15549.1396484375,-400000.0625
132.5463569164276,-400000.0625,-21168.900390625,-16759.060546875,-400000.0625,-20977.58984375,-400000.0625,-15513.990234375,-400000.0625
132.54636096954346,-400000.0625,-21145.060546875,-16735.369140625,-400000.0625,-20958.0390625,-400000.0625,-15491.33984375,-400000.0625
132.54636526107788,-400000.0625,-21163.130859375,-16753.8203125,-400000.0625,-20976.55078125,-400000.0625,-15510.990234375,-400000.0625
132.54636931419373,-400000.0625,-21191.220703125,-16776.80078125,-400000.0625,-21002.490234375,-400000.0625,-15541.8896484375,-400000.0625
132.56472659111023,-400000.0625,-21191.689453125,-16778.330078125,-400000.0625,-20995.189453125,-400000.0625,-15546.900390625,-400000.0625
132.569908618927,-400000.0625,-21168.5703125,-16755.060546875,-400000.0625,-20971.400390625,-400000.0625,-15514.0400390625,-400000.0625
132.57469367980957,-400000.0625,-21144.6796875,-16731.7890625,-400000.0625,-20959.0,-400000.0625,-15493.009765625,-400000.0625
132.57470154762268,-400000.0625,-21159.990234375,-16747.380859375,-400000.0625,-20969.25,-400000.0625,-15513.4697265625,-400000.0625
132.57470536231995,-400000.0625,-21195.220703125,-16779.140625,-400000.0625,-20994.279296875,-400000.0625,-15544.1298828125,-400000.0625
132.5747094154358,-400000.0625,-21199.0390625,-16782.7109375,-400000.0625,-21000.009765625,-400000.0625,-15544.849609375,-400000.0625
132.57471299171448,-400000.0625,-21164.279296875,-16751.2890625,-400000.0625,-20976.310546875,-400000.0625,-15510.66015625,-400000.0625
132.57471656799316,-400000.0625,-21140.669921875,-16730.359375,-400000.0625,-20964.390625,-400000.0625,-15491.2998046875,-400000.0625
132.5747208595276,-400000.0625,-21159.4609375,-16749.33984375,-400000.0625,-20978.640625,-400000.0625,-15511.5595703125,-400000.0625
132.574725151062,-400000.0625,-21194.990234375,-16779.759765625,-400000.0625,-20997.240234375,-400000.0625,-15544.4599609375,-400000.0625
132.57472896575928,-400000.0625,-21199.7109375,-16783.94921875,-400000.0625,-21000.859375,-400000.0625,-15545.1796875,-400000.0625
132.57473278045654,-400000.0625,-21165.94921875,-16749.4296875,-400000.0625,-20971.970703125,-400000.0625,-15509.509765625,-400000.0625
132.5747365951538,-400000.0625,-21141.9609375,-16728.740234375,-400000.0625,-20953.75,-400000.0625,-15489.4404296875,-400000.0625
132.5747401714325,-400000.0625,-21157.41015625,-16749.240234375,-400000.0625,-20970.630859375,-400000.0625,-15507.599609375,-400000.0625
132.57474398612976,-400000.0625,-21189.640625,-16777.7109375,-400000.0625,-20996.380859375,-400000.0625,-15539.5,-400000.0625
132.57474756240845,-400000.0625,-21195.990234375,-16784.05078125,-400000.0625,-21000.720703125,-400000.0625,-15541.75,-400000.0625
132.63977599143982,-400000.0625,-21161.990234375,-16751.720703125,-400000.0625,-20973.349609375,-400000.0625,-15508.7001953125,-400000.0625
132.6492404937744,-400000.0625,-21139.669921875,-16727.0703125,-400000.0625,-20953.279296875,-400000.0625,-15489.6796875,-400000.0625
132.65398597717285,-400000.0625,-21159.509765625,-16747.330078125,-400000.0625,-20969.919921875,-400000.0625,-15509.3701171875,-400000.0625
132.65399646759033,-400000.0625,-21192.029296875,-16779.470703125,-400000.0625,-20996.0,-400000.0625,-15540.169921875,-400000.0625
132.6540012359619,-400000.0625,-21197.939453125,-16784.48046875,-400000.0625,-21003.19921875,-400000.0625,-15541.83984375,-400000.0625
132.65400576591492,-400000.0625,-21161.80078125,-16752.390625,-400000.0625,-20974.0703125,-400000.0625,-15510.419921875,-400000.0625
132.65401005744934,-400000.0625,-21145.779296875,-16734.69921875,-400000.0625,-20957.810546875,-400000.0625,-15490.7197265625,-400000.0625
132.6540138721466,-400000.0625,-21168.0390625,-16756.349609375,-400000.0625,-20978.7890625,-400000.0625,-15510.419921875,-400000.0625
132.65401768684387,-400000.0625,-21195.26953125,-16783.099609375,-400000.0625,-20999.8203125,-400000.0625,-15542.599609375,-400000.0625
132.65402126312256,-400000.0625,-21198.23046875,-16784.099609375,-400000.0625,-20999.9609375,-400000.0625,-15543.3203125,-400000.0625
132.65402483940125,-400000.0625,-21167.140625,-16755.919921875,-400000.0625,-20976.01953125,-400000.0625,-15509.3203125,-400000.0625
132.65402913093567,-400000.0625,-21143.630859375,-16737.3203125,-400000.0625,-20958.140625,-400000.0625,-15491.150390625,-400000.0625
132.65403294563293,-400000.0625,-21162.560546875,-16753.720703125,-400000.0625,-20971.919921875,-400000.0625,-15509.849609375,-400000.0625
132.6540367603302,-400000.0625,-21197.509765625,-16784.150390625,-400000.0625,-20996.720703125,-400000.0625,-15538.7900390625,-400000.0625
132.65404057502747,-400000.0625,-21201.1796875,-16787.19921875,-400000.0625,-21001.91015625,-400000.0625,-15544.0302734375,-400000.0625
132.65404415130615,-400000.0625,-21166.80078125,-16755.869140625,-400000.0625,-20975.880859375,-400000.0625,-15512.5595703125,-400000.0625
132.69230198860168,-400000.0625,-21146.490234375,-16734.939453125,-400000.0625,-20953.509765625,-400000.0625,-15488.33984375,-400000.0625
132.69764065742493,-400000.0625,-21167.810546875,-16750.91015625,-400000.0625,-20973.779296875,-400000.0625,-15505.650390625,-400000.0625
132.70254278182983,-400000.0625,-21195.890625,-16785.189453125,-400000.0625,-21003.19921875,-400000.0625,-15540.8896484375,-400000.0625
132.70255184173584,-400000.0625,-21194.650390625,-16786.8203125,-400000.0625,-21002.76953125,-400000.0625,-15542.1298828125,-400000.0625
132.70255613327026,-400000.0625,-21164.609375,-16755.19921875,-400000.0625,-20974.30078125,-400000.0625,-15509.650390625,-400000.0625
132.7025604248047,-400000.0625,-21148.869140625,-16736.83984375,-400000.0625,-20956.140625,-400000.0625,-15490.6298828125,-400000.0625
132.7025649547577,-400000.0625,-21166.1796875,-16755.439453125,-400000.0625,-20977.259765625,-400000.0625,-15509.5595703125,-400000.0625
132.70256853103638,-400000.0625,-21194.26953125,-16784.619140625,-400000.0625,-20998.580078125,-400000.0625,-15539.169921875,-400000.0625
132.70257234573364,-400000.0625,-21197.080078125,-16786.009765625,-400000.0625,-20997.2890625,-400000.0625,-15537.4501953125,-400000.0625
132.7025761604309,-400000.0625,-21162.69921875,-16754.099609375,-400000.0625,-20971.58984375,-400000.0625,-15504.3095703125,-400000.0625
132.70257997512817,-400000.0625,-21141.33984375,-16731.359375,-400000.0625,-20958.51953125,-400000.0625,-15485.099609375,-400000.0625
132.70258378982544,-400000.0625,-21162.130859375,-16754.009765625,-400000.0625,-20979.359375,-400000.0625,-15508.7001953125,-400000.0625
132.70258784294128,-400000.0625,-21191.359375,-16785.189453125,-400000.0625,-20997.810546875,-400000.0625,-15542.3701171875,-400000.0625
132.70259189605713,-400000.0625,-21194.560546875,-16784.76953125,-400000.0625,-20997.720703125,-400000.0625,-15542.509765625,-400000.0625
132.70259547233582,-400000.0625,-21159.599609375,-16752.669921875,-400000.0625,-20973.5390625,-400000.0625,-15511.23046875,-400000.0625
132.70259952545166,-400000.0625,-21138.76953125,-16734.41015625,-400000.0625,-20953.279296875,-400000.0625,-15488.669921875,-400000.0625
132.78124070167542,-400000.0625,-21157.55078125,-16752.580078125,-400000.0625,-20968.869140625,-400000.0625,-15507.7998046875,-400000.0625
132.79188084602356,-400000.0625,-21191.4609375,-16781.240234375,-400000.0625,-20995.4296875,-400000.0625,-15542.1796875,-400000.0625
132.7967083454132,-400000.0625,-21196.4609375,-16782.94921875,-400000.0625,-20998.05078125,-400000.0625,-15544.3203125,-400000.0625
132.79672169685364,-400000.0625,-21159.029296875,-16751.669921875,-400000.0625,-20969.490234375,-400000.0625,-15504.9296875,-400000.0625
132.7967267036438,-400000.0625,-21138.859375,-16732.650390625,-400000.0625,-20957.08984375,-400000.0625,-15484.099609375,-400000.0625
132.79673147201538,-400000.0625,-21157.359375,-16751.33984375,-400000.0625,-20974.259765625,-400000.0625,-15509.080078125,-400000.0625
132.7967357635498,-400000.0625,-21189.83984375,-16778.7109375,-400000.0625,-20999.669921875,-400000.0625,-15541.26953125,-400000.0625
132.79673981666565,-400000.0625,-21191.310546875,-16779.900390625,-400000.0625,-20998.76953125,-400000.0625,-15543.7998046875,-400000.0625
132.79674363136292,-400000.0625,-21160.4609375,-16750.0,-400000.0625,-20967.919921875,-400000.0625,-15511.7099609375,-400000.0625
132.79674768447876,-400000.0625,-21143.009765625,-16734.41015625,-400000.0625,-20953.369140625,-400000.0625,-15489.7197265625,-400000.0625
132.7967517375946,-400000.0625,-21163.279296875,-16755.060546875,-400000.0625,-20972.349609375,-400000.0625,-15511.3701171875,-400000.0625
132.79675602912903,-400000.0625,-21191.599609375,-16781.619140625,-400000.0625,-20997.4296875,-400000.0625,-15541.83984375,-400000.0625
132.79675960540771,-400000.0625,-21195.220703125,-16783.2890625,-400000.0625,-20999.529296875,-400000.0625,-15544.1796875,-400000.0625
132.7967631816864,-400000.0625,-21160.890625,-16751.099609375,-400000.0625,-20978.880859375,-400000.0625,-15511.849609375,-400000.0625
132.79676699638367,-400000.0625,-21142.529296875,-16734.3203125,-400000.0625,-20959.08984375,-400000.0625,-15491.33984375,-400000.0625
132.7967710494995,-400000.0625,-21163.900390625,-16754.099609375,-400000.0625,-20970.970703125,-400000.0625,-15507.7998046875,-400000.0625
132.83020067214966,-400000.0625,-21192.599609375,-16784.2890625,-400000.0625,-20995.189453125,-400000.0625,-15538.26953125,-400000.0625
132.8356068134308,-400000.0625,-21196.83984375,-16785.669921875,-400000.0625,-21001.099609375,-400000.0625,-15541.3603515625,-400000.0625
132.8407003879547,-400000.0625,-21165.80078125,-16754.76953125,-400000.0625,-20976.779296875,-400000.0625,-15509.650390625,-400000.0625
132.84522032737732,-400000.0625,-21137.380859375,-16730.169921875,-400000.0625,-20956.419921875,-400000.0625,-15486.5302734375,-400000.0625
132.84523010253906,-400000.0625,-21157.220703125,-16745.7109375,-400000.0625,-20970.919921875,-400000.0625,-15502.5,-400000.0625
132.8452343940735,-400000.0625,-21194.3203125,-16781.140625,-400000.0625,-21002.099609375,-400000.0625,-15535.3095703125,-400000.0625
132.84523844718933,-400000.0625,-21197.509765625,-16783.91015625,-400000.0625,-21000.099609375,-400000.0625,-15539.5,-400000.0625
132.8452422618866,-400000.0625,-21166.140625,-16752.439453125,-400000.0625,-20966.19921875,-400000.0625,-15504.8896484375,-400000.0625
132.84524655342102,-400000.0625,-21143.060546875,-16734.650390625,-400000.0625,-20953.369140625,-400000.0625,-15484.099609375,-400000.0625
132.8452503681183,-400000.0625,-21163.609375,-16754.630859375,-400000.0625,-20973.349609375,-400000.0625,-15502.169921875,-400000.0625
132.84525418281555,-400000.0625,-21194.7890625,-16785.2890625,-400000.0625,-21002.580078125,-400000.0625,-15533.830078125,-400000.0625
132.84525847434998,-400000.0625,-21195.509765625,-16786.8203125,-400000.0625,-21005.5390625,-400000.0625,-15538.5498046875,-400000.0625
132.84526252746582,-400000.0625,-21162.369140625,-16756.25,-400000.0625,-20973.16015625,-400000.0625,-15504.080078125,-400000.0625
132.84526658058167,-400000.0625,-21143.150390625,-16734.69921875,-400000.0625,-20950.80078125,-400000.0625,-15484.3798828125,-400000.0625
132.84527039527893,-400000.0625,-21163.0390625,-16756.439453125,-400000.0625,-20972.25,-400000.0625,-15504.9296875,-400000.0625
132.84527468681335,-400000.0625,-21194.220703125,-16784.76953125,-400000.0625,-20993.900390625,-400000.0625,-15539.3603515625,-400000.0625
132.88329148292542,-400000.0625,-21197.26953125,-16785.48046875,-400000.0625,-20994.05078125,-400000.0625,-15539.1201171875,-400000.0625
132.89282894134521,-400000.0625,-21163.560546875,-16758.16015625,-400000.0625,-20975.779296875,-400000.0625,-15504.3603515625,-400000.0625
132.89750957489014,-400000.0625,-21137.380859375,-16731.98046875,-400000.0625,-20963.91015625,-400000.0625,-15485.6201171875,-400000.0625
132.89751935005188,-400000.0625,-21157.69921875,-16751.48046875,-400000.0625,-20978.119140625,-400000.0625,-15503.1201171875,-400000.0625
132.89752411842346,-400000.0625,-21193.599609375,-16784.48046875,-400000.0625,-20992.470703125,-400000.0625,-15534.01953125,-400000.0625
132.89752864837646,-400000.0625,-21192.310546875,-16784.9609375,-400000.0625,-20988.3203125,-400000.0625,-15536.5,-400000.0625
132.89753317832947,-400000.0625,-21161.369140625,-16753.2890625,-400000.0625,-20967.439453125,-400000.0625,-15507.75,-400000.0625
132.89753675460815,-400000.0625,-21144.009765625,-16737.75,-400000.0625,-20954.80078125,-400000.0625,-15488.240234375,-400000.0625
132.89754128456116,-400000.0625,-21159.939453125,-16753.9609375,-400000.0625,-20970.16015625,-400000.0625,-15510.509765625,-400000.0625
132.897545337677,-400000.0625,-21187.400390625,-16783.0,-400000.0625,-20992.7109375,-400000.0625,-15542.8896484375,-400000.0625
132.89754962921143,-400000.0625,-21193.26953125,-16788.580078125,-400000.0625,-21003.439453125,-400000.0625,-15543.0302734375,-400000.0625
132.8975532054901,-400000.0625,-21160.41015625,-16754.33984375,-400000.0625,-20974.259765625,-400000.0625,-15506.75,-400000.0625
132.89755702018738,-400000.0625,-21141.91015625,-16734.7890625,-400000.0625,-20950.890625,-400000.0625,-15483.51953125,-400000.0625
132.89756083488464,-400000.0625,-21163.509765625,-16756.490234375,-400000.0625,-20965.05078125,-400000.0625,-15503.0302734375,-400000.0625
132.8975646495819,-400000.0625,-21191.4609375,-16783.669921875,-400000.0625,-20990.94921875,-400000.0625,-15533.7802734375,-400000.0625
132.8975682258606,-400000.0625,-21189.640625,-16784.189453125,-400000.0625,-20995.51953125,-400000.0625,-15535.98046875,-400000.0625
132.94871139526367,-400000.0625,-21157.310546875,-16753.150390625,-400000.0625,-20976.55078125,-400000.0625,-15504.8896484375,-400000.0625
132.95378041267395,-400000.0625,-21134.4296875,-16733.26953125,-400000.0625,-20962.5703125,-400000.0625,-15482.0,-400000.0625
132.95829343795776,-400000.0625,-21155.9296875,-16753.25,-400000.0625,-20969.73046875,-400000.0625,-15500.5,-400000.0625
132.95830035209656,-400000.0625,-21187.310546875,-16781.0,-400000.0625,-20983.98046875,-400000.0625,-15532.7802734375,-400000.0625
132.95830416679382,-400000.0625,-21193.080078125,-16785.810546875,-400000.0625,-20992.810546875,-400000.0625,-15535.740234375,-400000.0625
132.9583077430725,-400000.0625,-21159.41015625,-16753.9609375,-400000.0625,-20969.25,-400000.0625,-15503.26953125,-400000.0625
132.9583113193512,-400000.0625,-21134.189453125,-16730.640625,-400000.0625,-20949.4609375,-400000.0625,-15481.240234375,-400000.0625
132.9583146572113,-400000.0625,-21151.779296875,-16747.51953125,-400000.0625,-20961.619140625,-400000.0625,-15497.73046875,-400000.0625
132.9583179950714,-400000.0625,-21189.0703125,-16782.380859375,-400000.0625,-20997.5703125,-400000.0625,-15531.6396484375,-400000.0625
132.95832133293152,-400000.0625,-21194.509765625,-16783.759765625,-400000.0625,-21006.349609375,-400000.0625,-15535.5,-400000.0625
132.95832467079163,-400000.0625,-21158.41015625,-16747.619140625,-400000.0625,-20971.490234375,-400000.0625,-15501.6904296875,-400000.0625
132.95832777023315,-400000.0625,-21138.529296875,-16729.44921875,-400000.0625,-20947.650390625,-400000.0625,-15483.669921875,-400000.0625
132.95833110809326,-400000.0625,-21157.69921875,-16751.2890625,-400000.0625,-20963.529296875,-400000.0625,-15506.7900390625,-400000.0625
132.95833444595337,-400000.0625,-21191.359375,-16783.4296875,-400000.0625,-20990.470703125,-400000.0625,-15533.740234375,-400000.0625
132.9583375453949,-400000.0625,-21192.220703125,-16783.05078125,-400000.0625,-20994.51953125,-400000.0625,-15536.599609375,-400000.0625
132.958340883255,-400000.0625,-21158.080078125,-16750.91015625,-400000.0625,-20973.970703125,-400000.0625,-15505.2197265625,-400000.0625
133.01110577583313,-400000.0625,-21137.140625,-16728.119140625,-400000.0625,-20953.990234375,-400000.0625,-15484.5703125,-400000.0625
133.01984763145447,-400000.0625,-21162.69921875,-16750.91015625,-400000.0625,-20967.6796875,-400000.0625,-15507.080078125,-400000.0625
133.02422428131104,-400000.0625,-21192.650390625,-16780.380859375,-400000.0625,-20990.80078125,-400000.0625,-15538.5,-400000.0625
133.02423119544983,-400000.0625,-21195.029296875,-16783.189453125,-400000.0625,-20987.23046875,-400000.0625,-15541.98046875,-400000.0625
133.02423524856567,-400000.0625,-21160.080078125,-16752.9609375,-400000.0625,-20961.859375,-400000.0625,-15507.75,-400000.0625
133.02423858642578,-400000.0625,-21141.630859375,-16732.650390625,-400000.0625,-20947.3203125,-400000.0625,-15486.1904296875,-400000.0625
133.0242416858673,-400000.0625,-21161.1796875,-16749.619140625,-400000.0625,-20967.869140625,-400000.0625,-15506.9404296875,-400000.0625
133.024245262146,-400000.0625,-21195.509765625,-16784.240234375,-400000.0625,-20999.76953125,-400000.0625,-15541.080078125,-400000.0625
133.02424836158752,-400000.0625,-21198.80078125,-16788.009765625,-400000.0625,-21002.390625,-400000.0625,-15544.0302734375,-400000.0625
133.02425146102905,-400000.0625,-21164.1796875,-16755.439453125,-400000.0625,-20971.970703125,-400000.0625,-15508.6103515625,-400000.0625
133.02425456047058,-400000.0625,-21144.33984375,-16737.1796875,-400000.0625,-20955.80078125,-400000.0625,-15489.6796875,-400000.0625
133.0242576599121,-400000.0625,-21162.69921875,-16753.25,-400000.0625,-20966.720703125,-400000.0625,-15509.9404296875,-400000.0625
133.02426052093506,-400000.0625,-21193.650390625,-16782.4296875,-400000.0625,-20988.419921875,-400000.0625,-15538.3095703125,-400000.0625
133.02426385879517,-400000.0625,-21193.41015625,-16783.0,-400000.0625,-20989.419921875,-400000.0625,-15538.98046875,-400000.0625
133.0242669582367,-400000.0625,-21159.4609375,-16753.76953125,-400000.0625,-20970.779296875,-400000.0625,-15502.83984375,-400000.0625
133.0242702960968,-400000.0625,-21141.529296875,-16738.1796875,-400000.0625,-20960.4296875,-400000.0625,-15477.6103515625,-400000.0625
133.13009786605835,-400000.0625,-21159.369140625,-16751.91015625,-400000.0625,-20971.630859375,-400000.0625,-15499.7802734375,-400000.0625
133.1396553516388,-400000.0625,-21190.029296875,-16777.369140625,-400000.0625,-20991.1796875,-400000.0625,-15532.2099609375,-400000.0625
133.1445391178131,-400000.0625,-21196.75,-16785.099609375,-400000.0625,-20993.330078125,-400000.0625,-15534.259765625,-400000.0625
133.1445505619049,-400000.0625,-21165.94921875,-16756.630859375,-400000.0625,-20974.16015625,-400000.0625,-15503.740234375,-400000.0625
133.1445553302765,-400000.0625,-21142.630859375,-16736.83984375,-400000.0625,-20954.7109375,-400000.0625,-15484.1396484375,-400000.0625
133.14455938339233,-400000.0625,-21156.599609375,-16750.05078125,-400000.0625,-20967.099609375,-400000.0625,-15500.98046875,-400000.0625
133.1445631980896,-400000.0625,-21188.310546875,-16779.51953125,-400000.0625,-20995.759765625,-400000.0625,-15533.3095703125,-400000.0625
133.14456701278687,-400000.0625,-21193.169921875,-16784.0,-400000.0625,-20995.7109375,-400000.0625,-15536.0703125,-400000.0625
133.14457058906555,-400000.0625,-21160.080078125,-16749.720703125,-400000.0625,-20965.099609375,-400000.0625,-15504.599609375,-400000.0625
133.14457416534424,-400000.0625,-21141.9609375,-16732.26953125,-400000.0625,-20951.69921875,-400000.0625,-15484.3798828125,-400000.0625
133.14457774162292,-400000.0625,-21162.990234375,-16755.439453125,-400000.0625,-20968.390625,-400000.0625,-15506.0302734375,-400000.0625
133.1445813179016,-400000.0625,-21194.69921875,-16785.150390625,-400000.0625,-20992.5703125,-400000.0625,-15539.9296875,-400000.0625
133.14458465576172,-400000.0625,-21194.169921875,-16784.859375,-400000.0625,-21000.48046875,-400000.0625,-15540.650390625,-400000.0625
133.1445882320404,-400000.0625,-21161.509765625,-16751.669921875,-400000.0625,-20973.2109375,-400000.0625,-15507.650390625,-400000.0625
133.1445915699005,-400000.0625,-21140.580078125,-16731.310546875,-400000.0625,-20951.0390625,-400000.0625,-15485.5703125,-400000.0625
133.14459538459778,-400000.0625,-21159.509765625,-16751.720703125,-400000.0625,-20968.060546875,-400000.0625,-15503.3603515625,-400000.0625
133.14680194854736,-400000.0625,-21189.55078125,-16780.380859375,-400000.0625,-20992.330078125,-400000.0625,-15534.9697265625,-400000.0625
133.15273761749268,-400000.0625,-21190.169921875,-16778.66015625,-400000.0625,-20983.75,-400000.0625,-15539.3603515625,-400000.0625
133.15728116035461,-400000.0625,-21160.80078125,-16751.390625,-400000.0625,-20959.669921875,-400000.0625,-15505.0302734375,-400000.0625
133.15728878974915,-400000.0625,-21140.76953125,-16733.4609375,-400000.0625,-20952.080078125,-400000.0625,-15486.8095703125,-400000.0625
133.15729308128357,-400000.0625,-21162.990234375,-16751.9609375,-400000.0625,-20971.630859375,-400000.0625,-15508.3701171875,-400000.0625
133.15729784965515,-400000.0625,-21194.029296875,-16779.94921875,-400000.0625,-20995.05078125,-400000.0625,-15537.9296875,-400000.0625
133.15730094909668,-400000.0625,-21192.740234375,-16777.7109375,-400000.0625,-20994.140625,-400000.0625,-15540.1201171875,-400000.0625
133.15730452537537,-400000.0625,-21159.029296875,-16748.2890625,-400000.0625,-20966.630859375,-400000.0625,-15505.599609375,-400000.0625
133.1573076248169,-400000.0625,-21141.869140625,-16730.55078125,-400000.0625,-20942.359375,-400000.0625,-15483.759765625,-400000.0625
133.157310962677,-400000.0625,-21162.23046875,-16748.720703125,-400000.0625,-20957.51953125,-400000.0625,-15503.599609375,-400000.0625
133.1573145389557,-400000.0625,-21192.310546875,-16776.419921875,-400000.0625,-20983.080078125,-400000.0625,-15533.5,-400000.0625
133.1573178768158,-400000.0625,-21193.029296875,-16775.80078125,-400000.0625,-20989.419921875,-400000.0625,-15535.58984375,-400000.0625
133.1573212146759,-400000.0625,-21160.609375,-16745.380859375,-400000.0625,-20963.240234375,-400000.0625,-15501.5498046875,-400000.0625
133.157324552536,-400000.0625,-21138.48046875,-16725.259765625,-400000.0625,-20939.44921875,-400000.0625,-15483.240234375,-400000.0625
133.15732789039612,-400000.0625,-21155.9296875,-16743.759765625,-400000.0625,-20960.810546875,-400000.0625,-15505.83984375,-400000.0625
133.1573314666748,-400000.0625,-21194.029296875,-16781.189453125,-400000.0625,-20995.810546875,-400000.0625,-15532.349609375,-400000.0625
133.21322178840637,-400000.0625,-21195.509765625,-16780.0,-400000.0625,-20994.759765625,-400000.0625,-15536.7900390625,-400000.0625
133.21841621398926,-400000.0625,-21162.69921875,-16747.099609375,-400000.0625,-20961.720703125,-400000.0625,-15503.169921875,-400000.0625
133.2229199409485,-400000.0625,-21145.5390625,-16730.55078125,-400000.0625,-20945.650390625,-400000.0625,-15480.849609375,-400000.0625
133.22292733192444,-400000.0625,-21166.330078125,-16749.5703125,-400000.0625,-20965.529296875,-400000.0625,-15502.7900390625,-400000.0625
133.22293138504028,-400000.0625,-21195.939453125,-16779.51953125,-400000.0625,-20989.560546875,-400000.0625,-15535.5498046875,-400000.0625
133.22293519973755,-400000.0625,-21195.4609375,-16781.7109375,-400000.0625,-20993.94921875,-400000.0625,-15537.7900390625,-400000.0625
133.22293949127197,-400000.0625,-21160.080078125,-16748.669921875,-400000.0625,-20964.720703125,-400000.0625,-15504.1201171875,-400000.0625
133.22294306755066,-400000.0625,-21137.859375,-16727.01953125,-400000.0625,-20946.9296875,-400000.0625,-15481.330078125,-400000.0625
133.22294688224792,-400000.0625,-21158.650390625,-16748.2890625,-400000.0625,-20966.76953125,-400000.0625,-15497.6396484375,-400000.0625
133.2229504585266,-400000.0625,-21190.220703125,-16778.849609375,-400000.0625,-20992.380859375,-400000.0625,-15529.6298828125,-400000.0625
133.2229540348053,-400000.0625,-21188.2109375,-16774.75,-400000.0625,-20987.69921875,-400000.0625,-15532.830078125,-400000.0625
133.22295784950256,-400000.0625,-21158.650390625,-16744.5703125,-400000.0625,-20961.529296875,-400000.0625,-15497.919921875,-400000.0625
133.22296142578125,-400000.0625,-21140.33984375,-16731.220703125,-400000.0625,-20953.130859375,-400000.0625,-15479.23046875,-400000.0625
133.22296500205994,-400000.0625,-21160.1796875,-16747.759765625,-400000.0625,-20967.580078125,-400000.0625,-15502.169921875,-400000.0625
133.22296857833862,-400000.0625,-21192.599609375,-16779.419921875,-400000.0625,-20991.0390625,-400000.0625,-15534.0703125,-400000.0625
133.2229721546173,-400000.0625,-21193.55078125,-16780.279296875,-400000.0625,-20991.0390625,-400000.0625,-15536.259765625,-400000.0625
133.2797408103943,-400000.0625,-21163.0390625,-16748.720703125,-400000.0625,-20963.810546875,-400000.0625,-15500.5,-400000.0625
133.2892038822174,-400000.0625,-21141.669921875,-16729.9296875,-400000.0625,-20951.130859375,-400000.0625,-15480.0,-400000.0625
133.29415726661682,-400000.0625,-21159.560546875,-16748.240234375,-400000.0625,-20968.580078125,-400000.0625,-15499.7802734375,-400000.0625
133.29416465759277,-400000.0625,-21190.83984375,-16776.900390625,-400000.0625,-20991.609375,-400000.0625,-15530.16015625,-400000.0625
133.29416918754578,-400000.0625,-21192.119140625,-16776.369140625,-400000.0625,-20986.029296875,-400000.0625,-15531.830078125,-400000.0625
133.29417300224304,-400000.0625,-21160.1796875,-16744.7109375,-400000.0625,-20962.91015625,-400000.0625,-15500.01953125,-400000.0625
133.2941768169403,-400000.0625,-21138.580078125,-16726.919921875,-400000.0625,-20947.220703125,-400000.0625,-15479.900390625,-400000.0625
133.294180393219,-400000.0625,-21161.130859375,-16748.2890625,-400000.0625,-20960.859375,-400000.0625,-15502.259765625,-400000.0625
133.29418420791626,-400000.0625,-21191.83984375,-16777.80078125,-400000.0625,-20985.560546875,-400000.0625,-15534.400390625,-400000.0625
133.29418802261353,-400000.0625,-21194.169921875,-16782.48046875,-400000.0625,-20992.0390625,-400000.0625,-15537.0703125,-400000.0625
133.2941915988922,-400000.0625,-21164.470703125,-16753.060546875,-400000.0625,-20964.240234375,-400000.0625,-15503.5,-400000.0625
133.2941951751709,-400000.0625,-21145.19921875,-16732.650390625,-400000.0625,-20949.69921875,-400000.0625,-15478.900390625,-400000.0625
133.29419875144958,-400000.0625,-21170.279296875,-16757.009765625,-400000.0625,-20970.8203125,-400000.0625,-15502.8798828125,-400000.0625
133.29420232772827,-400000.0625,-21201.900390625,-16786.240234375,-400000.0625,-20998.2890625,-400000.0625,-15541.26953125,-400000.0625
133.29420590400696,-400000.0625,-21197.130859375,-16785.619140625,-400000.0625,-20994.4296875,-400000.0625,-15540.169921875,-400000.0625
133.29420948028564,-400000.0625,-21165.900390625,-16754.9609375,-400000.0625,-20963.76953125,-400000.0625,-15506.7001953125,-400000.0625
133.34511375427246,-400000.0625,-21143.9609375,-16732.310546875,-400000.0625,-20949.650390625,-400000.0625,-15486.2900390625,-400000.0625
133.3506782054901,-400000.0625,-21167.330078125,-16752.859375,-400000.0625,-20963.619140625,-400000.0625,-15508.26953125,-400000.0625
133.35555911064148,-400000.0625,-21196.75,-16780.470703125,-400000.0625,-20987.66015625,-400000.0625,-15540.7001953125,-400000.0625
133.35556817054749,-400000.0625,-21197.75,-16783.810546875,-400000.0625,-20990.0390625,-400000.0625,-15540.9404296875,-400000.0625
133.3555727005005,-400000.0625,-21166.1796875,-16753.48046875,-400000.0625,-20965.48046875,-400000.0625,-15509.7998046875,-400000.0625
133.35557651519775,-400000.0625,-21144.439453125,-16735.169921875,-400000.0625,-20950.990234375,-400000.0625,-15486.0498046875,-400000.0625
133.35558009147644,-400000.0625,-21167.900390625,-16755.060546875,-400000.0625,-20968.9609375,-400000.0625,-15505.740234375,-400000.0625
133.3555839061737,-400000.0625,-21202.0390625,-16784.48046875,-400000.0625,-20990.51953125,-400000.0625,-15542.8896484375,-400000.0625
133.3555874824524,-400000.0625,-21200.23046875,-16784.150390625,-400000.0625,-20988.990234375,-400000.0625,-15541.83984375,-400000.0625
133.35559105873108,-400000.0625,-21164.0390625,-16749.33984375,-400000.0625,-20958.619140625,-400000.0625,-15504.9296875,-400000.0625
133.35559463500977,-400000.0625,-21143.060546875,-16727.9296875,-400000.0625,-20939.44921875,-400000.0625,-15484.0498046875,-400000.0625
133.35559821128845,-400000.0625,-21165.75,-16750.390625,-400000.0625,-20958.0390625,-400000.0625,-15504.599609375,-400000.0625
133.35560178756714,-400000.0625,-21196.509765625,-16780.619140625,-400000.0625,-20985.1796875,-400000.0625,-15539.3603515625,-400000.0625
133.35560584068298,-400000.0625,-21196.560546875,-16782.5703125,-400000.0625,-20990.849609375,-400000.0625,-15540.0302734375,-400000.0625
133.35560941696167,-400000.0625,-21167.810546875,-16751.9609375,-400000.0625,-20967.009765625,-400000.0625,-15505.169921875,-400000.0625
133.35561323165894,-400000.0625,-21148.44921875,-16733.740234375,-400000.0625,-20944.689453125,-400000.0625,-15486.3896484375,-400000.0625
133.40015316009521,-400000.0625,-21167.810546875,-16755.630859375,-400000.0625,-20956.80078125,-400000.0625,-15506.7001953125,-400000.0625
133.41072583198547,-400000.0625,-21197.990234375,-16787.05078125,-400000.0625,-20983.560546875,-400000.0625,-15538.8896484375,-400000.0625
133.415917634964,-400000.0625,-21197.849609375,-16785.189453125,-400000.0625,-20986.130859375,-400000.0625,-15539.1201171875,-400000.0625
133.42110443115234,-400000.0625,-21162.130859375,-16752.669921875,-400000.0625,-20957.759765625,-400000.0625,-15503.8896484375,-400000.0625
133.425763130188,-400000.0625,-21143.919921875,-16731.9296875,-400000.0625,-20943.44921875,-400000.0625,-15481.8095703125,-400000.0625
133.42577123641968,-400000.0625,-21168.849609375,-16755.580078125,-400000.0625,-20968.109375,-400000.0625,-15503.7900390625,-400000.0625
133.42577528953552,-400000.0625,-21200.849609375,-16788.529296875,-400000.0625,-20990.759765625,-400000.0625,-15535.9296875,-400000.0625
133.4257791042328,-400000.0625,-21201.609375,-16789.19921875,-400000.0625,-20983.41015625,-400000.0625,-15539.41015625,-400000.0625
133.42578268051147,-400000.0625,-21166.140625,-16754.099609375,-400000.0625,-20954.330078125,-400000.0625,-15505.2197265625,-400000.0625
133.42578625679016,-400000.0625,-21147.16015625,-16737.1796875,-400000.0625,-20939.16015625,-400000.0625,-15485.8603515625,-400000.0625
133.42578983306885,-400000.0625,-21165.94921875,-16754.580078125,-400000.0625,-20958.4296875,-400000.0625,-15506.3603515625,-400000.0625
133.42579531669617,-400000.0625,-21194.890625,-16781.5703125,-400000.0625,-20986.609375,-400000.0625,-15536.0703125,-400000.0625
133.42579889297485,-400000.0625,-21194.650390625,-16781.08984375,-400000.0625,-20994.0,-400000.0625,-15531.8798828125,-400000.0625
133.42580246925354,-400000.0625,-21163.900390625,-16749.669921875,-400000.0625,-20971.869140625,-400000.0625,-15498.58984375,-400000.0625
133.42580604553223,-400000.0625,-21149.0703125,-16738.419921875,-400000.0625,-20946.740234375,-400000.0625,-15480.9501953125,-400000.0625
133.4258096218109,-400000.0625,-21169.859375,-16755.630859375,-400000.0625,-20953.279296875,-400000.0625,-15501.7900390625,-400000.0625
133.51240754127502,-400000.0625,-21200.279296875,-16787.91015625,-400000.0625,-20978.41015625,-400000.0625,-15533.5400390625,-400000.0625
133.52242636680603,-400000.0625,-21201.759765625,-16786.150390625,-400000.0625,-20984.369140625,-400000.0625,-15534.9296875,-400000.0625
133.52715229988098,-400000.0625,-21172.140625,-16756.009765625,-400000.0625,-20965.240234375,-400000.0625,-15506.9404296875,-400000.0625
133.52716279029846,-400000.0625,-21148.30078125,-16735.41015625,-400000.0625,-20947.509765625,-400000.0625,-15487.4296875,-400000.0625
133.5271668434143,-400000.0625,-21170.0,-16754.439453125,-400000.0625,-20967.33984375,-400000.0625,-15505.509765625,-400000.0625
133.5271713733673,-400000.0625,-21195.80078125,-16777.609375,-400000.0625,-20988.419921875,-400000.0625,-15535.2099609375,-400000.0625
133.5271761417389,-400000.0625,-21194.990234375,-16778.849609375,-400000.0625,-20983.98046875,-400000.0625,-15536.259765625,-400000.0625
133.52717971801758,-400000.0625,-21166.759765625,-16750.76953125,-400000.0625,-20952.990234375,-400000.0625,-15505.599609375,-400000.0625
133.52718329429626,-400000.0625,-21147.490234375,-16732.7890625,-400000.0625,-20941.830078125,-400000.0625,-15485.48046875,-400000.0625
133.52718687057495,-400000.0625,-21167.7109375,-16752.099609375,-400000.0625,-20959.279296875,-400000.0625,-15503.650390625,-400000.0625
133.52719068527222,-400000.0625,-21196.1796875,-16782.0,-400000.0625,-20981.83984375,-400000.0625,-15536.0703125,-400000.0625
133.52719402313232,-400000.0625,-21197.419921875,-16782.0,-400000.0625,-20985.890625,-400000.0625,-15537.1201171875,-400000.0625
133.527197599411,-400000.0625,-21164.939453125,-16749.720703125,-400000.0625,-20961.91015625,-400000.0625,-15501.98046875,-400000.0625
133.52720141410828,-400000.0625,-21141.869140625,-16727.689453125,-400000.0625,-20936.25,-400000.0625,-15480.1396484375,-400000.0625
133.52720475196838,-400000.0625,-21164.369140625,-16748.810546875,-400000.0625,-20951.609375,-400000.0625,-15500.830078125,-400000.0625
133.52720880508423,-400000.0625,-21196.369140625,-16781.189453125,-400000.0625,-20980.7890625,-400000.0625,-15536.3603515625,-400000.0625
133.55256628990173,-400000.0625,-21194.509765625,-16779.470703125,-400000.0625,-20980.599609375,-400000.0625,-15536.169921875,-400000.0625
133.55763220787048,-400000.0625,-21162.80078125,-16750.189453125,-400000.0625,-20956.08984375,-400000.0625,-15504.4599609375,-400000.0625
133.56260228157043,-400000.0625,-21145.779296875,-16732.98046875,-400000.0625,-20945.98046875,-400000.0625,-15486.5302734375,-400000.0625
133.56260919570923,-400000.0625,-21163.75,-16751.05078125,-400000.0625,-20958.7109375,-400000.0625,-15505.650390625,-400000.0625
133.56261324882507,-400000.0625,-21192.359375,-16777.849609375,-400000.0625,-20976.98046875,-400000.0625,-15536.259765625,-400000.0625
133.56261682510376,-400000.0625,-21198.80078125,-16784.099609375,-400000.0625,-20982.7890625,-400000.0625,-15537.0703125,-400000.0625
133.56262063980103,-400000.0625,-21166.0390625,-16754.529296875,-400000.0625,-20959.189453125,-400000.0625,-15502.6904296875,-400000.0625
133.5626242160797,-400000.0625,-21145.30078125,-16730.259765625,-400000.0625,-20941.830078125,-400000.0625,-15478.900390625,-400000.0625
133.56262755393982,-400000.0625,-21162.23046875,-16748.2890625,-400000.0625,-20957.5703125,-400000.0625,-15498.01953125,-400000.0625
133.5626311302185,-400000.0625,-21191.55078125,-16776.51953125,-400000.0625,-20976.58984375,-400000.0625,-15529.349609375,-400000.0625
133.5626347064972,-400000.0625,-21193.650390625,-16776.94921875,-400000.0625,-20983.7890625,-400000.0625,-15531.8798828125,-400000.0625
133.56263852119446,-400000.0625,-21162.609375,-16744.330078125,-400000.0625,-20960.099609375,-400000.0625,-15497.9697265625,-400000.0625
133.5673804283142,-400000.0625,-21147.919921875,-16727.16015625,-400000.0625,-20940.740234375,-400000.0625,-15475.849609375,-400000.0625
133.56738924980164,-400000.0625,-21165.560546875,-16747.4296875,-400000.0625,-20957.66015625,-400000.0625,-15500.169921875,-400000.0625
133.56739330291748,-400000.0625,-21194.4609375,-16777.990234375,-400000.0625,-20978.640625,-400000.0625,-15531.9697265625,-400000.0625
133.56739735603333,-400000.0625,-21195.560546875,-16777.470703125,-400000.0625,-20980.26953125,-400000.0625,-15534.830078125,-400000.0625
133.59681057929993,-400000.0625,-21164.419921875,-16743.380859375,-400000.0625,-20955.80078125,-400000.0625,-15500.8798828125,-400000.0625
133.60255980491638,-400000.0625,-21148.01953125,-16726.919921875,-400000.0625,-20940.2109375,-400000.0625,-15479.2802734375,-400000.0625
133.6068630218506,-400000.0625,-21168.5703125,-16746.189453125,-400000.0625,-20960.859375,-400000.0625,-15498.9697265625,-400000.0625
133.60687065124512,-400000.0625,-21200.369140625,-16776.66015625,-400000.0625,-20976.640625,-400000.0625,-15528.5400390625,-400000.0625
133.60687494277954,-400000.0625,-21202.0390625,-16778.0390625,-400000.0625,-20976.880859375,-400000.0625,-15528.16015625,-400000.0625
133.60687851905823,-400000.0625,-21170.240234375,-16749.669921875,-400000.0625,-20959.810546875,-400000.0625,-15500.2099609375,-400000.0625
133.60688185691833,-400000.0625,-21150.349609375,-16729.599609375,-400000.0625,-20947.169921875,-400000.0625,-15481.66015625,-400000.0625
133.60688495635986,-400000.0625,-21170.7109375,-16750.189453125,-400000.0625,-20958.380859375,-400000.0625,-15502.3095703125,-400000.0625
133.6068878173828,-400000.0625,-21199.3203125,-16780.51953125,-400000.0625,-20985.3203125,-400000.0625,-15535.0703125,-400000.0625
133.60689091682434,-400000.0625,-21201.419921875,-16783.189453125,-400000.0625,-20986.1796875,-400000.0625,-15535.4501953125,-400000.0625
133.60689401626587,-400000.0625,-21166.369140625,-16750.0,-400000.0625,-20952.66015625,-400000.0625,-15502.5,-400000.0625
133.6068971157074,-400000.0625,-21144.76953125,-16728.98046875,-400000.0625,-20932.630859375,-400000.0625,-15479.6103515625,-400000.0625
133.60690021514893,-400000.0625,-21166.609375,-16747.669921875,-400000.0625,-20950.83984375,-400000.0625,-15496.2998046875,-400000.0625
133.60690331459045,-400000.0625,-21198.69921875,-16777.609375,-400000.0625,-20977.0703125,-400000.0625,-15529.830078125,-400000.0625
133.60690641403198,-400000.0625,-21200.80078125,-16779.470703125,-400000.0625,-20981.650390625,-400000.0625,-15533.58984375,-400000.0625
133.60690927505493,-400000.0625,-21166.7109375,-16748.759765625,-400000.0625,-20958.380859375,-400000.0625,-15501.41015625,-400000.0625
133.65014553070068,-400000.0625,-21151.400390625,-16734.4609375,-400000.0625,-20945.83984375,-400000.0625,-15481.5703125,-400000.0625
133.6594433784485,-400000.0625,-21171.2890625,-16753.150390625,-400000.0625,-20961.810546875,-400000.0625,-15503.8896484375,-400000.0625
133.66422057151794,-400000.0625,-21195.369140625,-16779.279296875,-400000.0625,-20978.310546875,-400000.0625,-15534.1201171875,-400000.0625
133.66423106193542,-400000.0625,-21195.939453125,-16777.51953125,-400000.0625,-20977.0703125,-400000.0625,-15533.6904296875,-400000.0625
133.664235830307,-400000.0625,-21160.029296875,-16741.560546875,-400000.0625,-20948.939453125,-400000.0625,-15496.9697265625,-400000.0625
133.66423988342285,-400000.0625,-21144.109375,-16722.349609375,-400000.0625,-20932.25,-400000.0625,-15476.3203125,-400000.0625
133.6642439365387,-400000.0625,-21163.66015625,-16740.849609375,-400000.0625,-20949.1796875,-400000.0625,-15497.73046875,-400000.0625
133.66424775123596,-400000.0625,-21192.41015625,-16770.029296875,-400000.0625,-20977.310546875,-400000.0625,-15527.9697265625,-400000.0625
133.66425156593323,-400000.0625,-21196.26953125,-16773.1796875,-400000.0625,-20981.310546875,-400000.0625,-15528.009765625,-400000.0625
133.66425561904907,-400000.0625,-21165.94921875,-16744.380859375,-400000.0625,-20957.380859375,-400000.0625,-15496.919921875,-400000.0625
133.6642599105835,-400000.0625,-21146.009765625,-16724.919921875,-400000.0625,-20940.349609375,-400000.0625,-15480.1396484375,-400000.0625
133.66426372528076,-400000.0625,-21164.75,-16741.609375,-400000.0625,-20952.75,-400000.0625,-15501.98046875,-400000.0625
133.66426753997803,-400000.0625,-21196.609375,-16770.4609375,-400000.0625,-20973.779296875,-400000.0625,-15533.349609375,-400000.0625
133.66427159309387,-400000.0625,-21197.1796875,-16774.939453125,-400000.0625,-20977.119140625,-400000.0625,-15535.400390625,-400000.0625
133.66427493095398,-400000.0625,-21164.0390625,-16741.23046875,-400000.0625,-20955.0390625,-400000.0625,-15495.73046875,-400000.0625
133.66427874565125,-400000.0625,-21144.630859375,-16722.6796875,-400000.0625,-20940.970703125,-400000.0625,-15477.66015625,-400000.0625
133.71629214286804,-400000.0625,-21165.08984375,-16739.609375,-400000.0625,-20952.419921875,-400000.0625,-15500.6904296875,-400000.0625
133.72188329696655,-400000.0625,-21197.890625,-16772.080078125,-400000.0625,-20979.259765625,-400000.0625,-15529.58984375,-400000.0625
133.72647833824158,-400000.0625,-21199.419921875,-16774.990234375,-400000.0625,-20980.599609375,-400000.0625,-15531.1103515625,-400000.0625
133.72648549079895,-400000.0625,-21161.4609375,-16738.4609375,-400000.0625,-20949.509765625,-400000.0625,-15494.400390625,-400000.0625
133.72648978233337,-400000.0625,-21141.19921875,-16724.16015625,-400000.0625,-20938.44921875,-400000.0625,-15476.1298828125,-400000.0625
133.7264940738678,-400000.0625,-21163.130859375,-16743.140625,-400000.0625,-20957.810546875,-400000.0625,-15498.5400390625,-400000.0625
133.72649908065796,-400000.0625,-21193.220703125,-16770.83984375,-400000.0625,-20980.0703125,-400000.0625,-15530.2998046875,-400000.0625
133.72650289535522,-400000.0625,-21196.369140625,-16771.4609375,-400000.0625,-20979.119140625,-400000.0625,-15529.9697265625,-400000.0625
133.7265067100525,-400000.0625,-21161.609375,-16740.369140625,-400000.0625,-20956.759765625,-400000.0625,-15496.73046875,-400000.0625
133.72651076316833,-400000.0625,-21142.8203125,-16725.259765625,-400000.0625,-20946.359375,-400000.0625,-15477.3701171875,-400000.0625
133.7265145778656,-400000.0625,-21166.23046875,-16742.849609375,-400000.0625,-20955.609375,-400000.0625,-15498.58984375,-400000.0625
133.72651886940002,-400000.0625,-21192.119140625,-16769.220703125,-400000.0625,-20974.01953125,-400000.0625,-15528.0595703125,-400000.0625
133.7265224456787,-400000.0625,-21193.3203125,-16771.369140625,-400000.0625,-20976.98046875,-400000.0625,-15529.4404296875,-400000.0625
133.7265260219574,-400000.0625,-21161.890625,-16738.890625,-400000.0625,-20955.23046875,-400000.0625,-15497.1103515625,-400000.0625
133.72652959823608,-400000.0625,-21141.91015625,-16721.919921875,-400000.0625,-20945.0703125,-400000.0625,-15473.2197265625,-400000.0625
133.72653341293335,-400000.0625,-21162.939453125,-16740.279296875,-400000.0625,-20957.279296875,-400000.0625,-15495.2099609375,-400000.0625
133.79607772827148,-400000.0625,-21191.310546875,-16770.41015625,-400000.0625,-20976.830078125,-400000.0625,-15527.349609375,-400000.0625
133.8068995475769,-400000.0625,-21193.55078125,-16773.26953125,-400000.0625,-20976.640625,-400000.0625,-15528.009765625,-400000.0625
133.8120470046997,-400000.0625,-21164.51953125,-16740.80078125,-400000.0625,-20954.7109375,-400000.0625,-15493.490234375,-400000.0625
133.81679940223694,-400000.0625,-21145.16015625,-16720.8203125,-400000.0625,-20939.109375,-400000.0625,-15472.650390625,-400000.0625
133.81680941581726,-400000.0625,-21165.990234375,-16743.470703125,-400000.0625,-20952.560546875,-400000.0625,-15498.1201171875,-400000.0625
133.81681394577026,-400000.0625,-21199.80078125,-16777.23046875,-400000.0625,-20984.369140625,-400000.0625,-15532.919921875,-400000.0625
133.8168182373047,-400000.0625,-21198.130859375,-16776.419921875,-400000.0625,-20984.130859375,-400000.0625,-15534.01953125,-400000.0625
133.81682229042053,-400000.0625,-21165.609375,-16742.1796875,-400000.0625,-20952.69921875,-400000.0625,-15495.0595703125,-400000.0625
133.8168261051178,-400000.0625,-21145.73046875,-16723.58984375,-400000.0625,-20943.98046875,-400000.0625,-15475.4697265625,-400000.0625
133.81683039665222,-400000.0625,-21168.279296875,-16745.4296875,-400000.0625,-20961.720703125,-400000.0625,-15498.4501953125,-400000.0625
133.8168342113495,-400000.0625,-21199.0390625,-16773.23046875,-400000.0625,-20987.130859375,-400000.0625,-15526.0595703125,-400000.0625
133.8168385028839,-400000.0625,-21200.849609375,-16771.599609375,-400000.0625,-20984.990234375,-400000.0625,-15527.4404296875,-400000.0625
133.8168420791626,-400000.0625,-21169.470703125,-16741.51953125,-400000.0625,-20955.279296875,-400000.0625,-15493.9697265625,-400000.0625
133.81684589385986,-400000.0625,-21154.0703125,-16727.740234375,-400000.0625,-20938.919921875,-400000.0625,-15478.4697265625,-400000.0625
133.8168499469757,-400000.0625,-21172.529296875,-16746.330078125,-400000.0625,-20959.5703125,-400000.0625,-15499.740234375,-400000.0625
133.81685543060303,-400000.0625,-21201.23046875,-16773.609375,-400000.0625,-20988.1796875,-400000.0625,-15526.580078125,-400000.0625
133.87985610961914,-400000.0625,-21201.7109375,-16771.650390625,-400000.0625,-20985.4609375,-400000.0625,-15527.76953125,-400000.0625
133.8853747844696,-400000.0625,-21169.330078125,-16738.69921875,-400000.0625,-20956.80078125,-400000.0625,-15495.830078125,-400000.0625
133.89022636413574,-400000.0625,-21148.73046875,-16719.9609375,-400000.0625,-20940.9296875,-400000.0625,-15472.26953125,-400000.0625
133.89023566246033,-400000.0625,-21169.08984375,-16740.900390625,-400000.0625,-20962.859375,-400000.0625,-15495.25,-400000.0625
133.89023995399475,-400000.0625,-21201.5703125,-16774.369140625,-400000.0625,-20984.939453125,-400000.0625,-15530.6796875,-400000.0625
133.8902440071106,-400000.0625,-21204.4296875,-16773.939453125,-400000.0625,-20977.98046875,-400000.0625,-15531.16015625,-400000.0625
133.89024782180786,-400000.0625,-21172.0,-16743.94921875,-400000.0625,-20956.380859375,-400000.0625,-15496.0703125,-400000.0625
133.8902518749237,-400000.0625,-21149.970703125,-16726.779296875,-400000.0625,-20943.5,-400000.0625,-15476.509765625,-400000.0625
133.89025568962097,-400000.0625,-21171.759765625,-16745.51953125,-400000.0625,-20960.669921875,-400000.0625,-15497.7802734375,-400000.0625
133.89025926589966,-400000.0625,-21198.69921875,-16771.83984375,-400000.0625,-20982.939453125,-400000.0625,-15528.2998046875,-400000.0625
133.89026284217834,-400000.0625,-21201.900390625,-16772.560546875,-400000.0625,-20983.560546875,-400000.0625,-15528.2998046875,-400000.0625
133.89026641845703,-400000.0625,-21171.05078125,-16743.380859375,-400000.0625,-20955.94921875,-400000.0625,-15498.4501953125,-400000.0625
133.89026999473572,-400000.0625,-21148.16015625,-16721.25,-400000.0625,-20942.259765625,-400000.0625,-15479.51953125,-400000.0625
133.89027380943298,-400000.0625,-21168.08984375,-16739.470703125,-400000.0625,-20957.5703125,-400000.0625,-15499.3095703125,-400000.0625
133.8902771472931,-400000.0625,-21199.900390625,-16771.26953125,-400000.0625,-20980.0703125,-400000.0625,-15530.919921875,-400000.0625
133.89028072357178,-400000.0625,-21204.140625,-16772.4609375,-400000.0625,-20985.939453125,-400000.0625,-15530.2998046875,-400000.0625
133.9065043926239,-400000.0625,-21169.759765625,-16739.75,-400000.0625,-20960.619140625,-400000.0625,-15494.5400390625,-400000.0625
133.9157691001892,-400000.0625,-21146.8203125,-16718.630859375,-400000.0625,-20937.73046875,-400000.0625,-15477.1796875,-400000.0625
133.92075872421265,-400000.0625,-21174.189453125,-16744.279296875,-400000.0625,-20955.08984375,-400000.0625,-15497.6904296875,-400000.0625
133.92076754570007,-400000.0625,-21204.08984375,-16773.939453125,-400000.0625,-20975.779296875,-400000.0625,-15529.830078125,-400000.0625
133.9207718372345,-400000.0625,-21205.859375,-16774.130859375,-400000.0625,-20982.650390625,-400000.0625,-15526.76953125,-400000.0625
133.92077565193176,-400000.0625,-21174.0,-16744.619140625,-400000.0625,-20963.810546875,-400000.0625,-15495.400390625,-400000.0625
133.92538905143738,-400000.0625,-21153.55078125,-16723.400390625,-400000.0625,-20938.830078125,-400000.0625,-15477.0400390625,-400000.0625
133.9253966808319,-400000.0625,-21176.19921875,-16744.23046875,-400000.0625,-20955.759765625,-400000.0625,-15496.7802734375,-400000.0625
133.92540073394775,-400000.0625,-21203.619140625,-16771.83984375,-400000.0625,-20978.0703125,-400000.0625,-15525.6796875,-400000.0625
