time,ch1,ch2,ch3,ch4,ch5,ch6,ch7,ch8
153.73525261878967,-400000.0625,-7839.16015625,-4566.77001953125,-400000.0625,-16671.0390625,-400000.0625,-7162.0498046875,-400000.0625
153.74292159080505,-400000.0625,-7790.47021484375,-4520.75,-400000.0625,-16632.509765625,-400000.0625,-7114.27001953125,-400000.0625
153.75666069984436,-400000.0625,-7801.2998046875,-4531.18994140625,-400000.0625,-16641.619140625,-400000.0625,-7125.52001953125,-400000.0625
153.76603436470032,-400000.0625,-7860.14013671875,-4586.27001953125,-400000.0625,-16688.919921875,-400000.0625,-7183.35986328125,-400000.0625
153.7740671634674,-400000.0625,-7883.7900390625,-4605.39013671875,-400000.0625,-16706.80078125,-400000.0625,-7205.10986328125,-400000.0625
153.78524208068848,-400000.0625,-7840.16015625,-4563.759765625,-400000.0625,-16667.369140625,-400000.0625,-7160.759765625,-400000.0625
153.79596614837646,-400000.0625,-7789.0400390625,-4518.56005859375,-400000.0625,-16629.029296875,-400000.0625,-7113.740234375,-400000.0625
153.80393886566162,-400000.0625,-7798.81982421875,-4532.14990234375,-400000.0625,-16642.240234375,-400000.0625,-7126.240234375,-400000.0625
153.81130123138428,-400000.0625,-7860.3798828125,-4587.27001953125,-400000.0625,-16692.58984375,-400000.0625,-7183.60009765625,-400000.0625
153.8280074596405,-400000.0625,-7883.97998046875,-4608.2998046875,-400000.0625,-16707.470703125,-400000.0625,-7205.919921875,-400000.0625
153.83588886260986,-400000.0625,-7839.009765625,-4567.85986328125,-400000.0625,-16667.990234375,-400000.0625,-7165.2900390625,-400000.0625
153.84310793876648,-400000.0625,-7791.759765625,-4523.330078125,-400000.0625,-16628.509765625,-400000.0625,-7118.509765625,-400000.0625
153.85448622703552,-400000.0625,-7803.2001953125,-4533.39013671875,-400000.0625,-16638.140625,-400000.0625,-7129.72021484375,-400000.0625
153.8625190258026,-400000.0625,-7859.52001953125,-4585.35986328125,-400000.0625,-16686.970703125,-400000.0625,-7182.4599609375,-400000.0625
153.86959886550903,-400000.0625,-7883.35986328125,-4607.919921875,-400000.0625,-16707.369140625,-400000.0625,-7209.10986328125,-400000.0625
153.87856531143188,-400000.0625,-7839.2998046875,-4567.47998046875,-400000.0625,-16673.140625,-400000.0625,-7165.0,-400000.0625
153.8871784210205,-400000.0625,-7788.7099609375,-4519.7001953125,-400000.0625,-16627.740234375,-400000.0625,-7114.31982421875,-400000.0625
153.89992904663086,-400000.0625,-7800.77001953125,-4529.759765625,-400000.0625,-16635.08984375,-400000.0625,-7125.08984375,-400000.0625
153.91189122200012,-400000.0625,-7862.89990234375,-4588.080078125,-400000.0625,-16686.16015625,-400000.0625,-7180.830078125,-400000.0625
153.93320727348328,-400000.0625,-7885.89013671875,-4608.81982421875,-400000.0625,-16705.609375,-400000.0625,-7204.33984375,-400000.0625
153.9401364326477,-400000.0625,-7843.5400390625,-4568.580078125,-400000.0625,-16669.609375,-400000.0625,-7163.0,-400000.0625
153.9478325843811,-400000.0625,-7793.0498046875,-4523.60986328125,-400000.0625,-16628.83984375,-400000.0625,-7112.4599609375,-400000.0625
153.95651125907898,-400000.0625,-7803.77001953125,-4535.8701171875,-400000.0625,-16640.470703125,-400000.0625,-7124.47021484375,-400000.0625
153.96364068984985,-400000.0625,-7865.0498046875,-4591.990234375,-400000.0625,-16691.16015625,-400000.0625,-7183.080078125,-400000.0625
153.9703085422516,-400000.0625,-7887.31982421875,-4611.77978515625,-400000.0625,-16713.9609375,-400000.0625,-7205.06005859375,-400000.0625
153.97686767578125,-400000.0625,-7843.06982421875,-4570.33984375,-400000.0625,-16674.140625,-400000.0625,-7159.56982421875,-400000.0625
153.98663640022278,-400000.0625,-7795.669921875,-4526.66015625,-400000.0625,-16631.220703125,-400000.0625,-7111.64990234375,-400000.0625
153.9958894252777,-400000.0625,-7810.16015625,-4541.35009765625,-400000.0625,-16644.240234375,-400000.0625,-7125.9501953125,-400000.0625
154.00319242477417,-400000.0625,-7867.85986328125,-4596.0400390625,-400000.0625,-16694.740234375,-400000.0625,-7180.169921875,-400000.0625
154.009863615036,-400000.0625,-7886.7900390625,-4612.68017578125,-400000.0625,-16704.419921875,-400000.0625,-7200.0498046875,-400000.0625
154.01925992965698,-400000.0625,-7840.009765625,-4567.43017578125,-400000.0625,-16669.279296875,-400000.0625,-7157.60986328125,-400000.0625
154.03415179252625,-400000.0625,-7792.81005859375,-4524.330078125,-400000.0625,-16636.470703125,-400000.0625,-7109.60009765625,-400000.0625
154.04075503349304,-400000.0625,-7806.10986328125,-4535.72021484375,-400000.0625,-16646.8203125,-400000.0625,-7121.47021484375,-400000.0625
154.04926252365112,-400000.0625,-7864.330078125,-4590.93994140625,-400000.0625,-16691.400390625,-400000.0625,-7181.22021484375,-400000.0625
154.0587863922119,-400000.0625,-7885.740234375,-4611.35009765625,-400000.0625,-16708.94921875,-400000.0625,-7203.8701171875,-400000.0625
154.06673121452332,-400000.0625,-7840.009765625,-4570.06005859375,-400000.0625,-16674.0,-400000.0625,-7159.52001953125,-400000.0625
154.07297492027283,-400000.0625,-7790.47021484375,-4522.75,-400000.0625,-16630.7890625,-400000.0625,-7107.68994140625,-400000.0625
154.08166885375977,-400000.0625,-7804.06005859375,-4535.25,-400000.0625,-16637.849609375,-400000.0625,-7119.1298828125,-400000.0625
154.0906581878662,-400000.0625,-7862.6201171875,-4588.41015625,-400000.0625,-16689.16015625,-400000.0625,-7180.02001953125,-400000.0625
154.0978240966797,-400000.0625,-7887.22021484375,-4611.919921875,-400000.0625,-16713.619140625,-400000.0625,-7204.39013671875,-400000.0625
154.104346036911,-400000.0625,-7839.2001953125,-4569.580078125,-400000.0625,-16674.08984375,-400000.0625,-7156.1298828125,-400000.0625
154.1108260154724,-400000.0625,-7787.56005859375,-4522.85009765625,-400000.0625,-16630.3203125,-400000.0625,-7109.1201171875,-400000.0625
154.11883282661438,-400000.0625,-7803.81982421875,-4536.68017578125,-400000.0625,-16645.859375,-400000.0625,-7122.85009765625,-400000.0625
154.1279489994049,-400000.0625,-7859.0400390625,-4589.60986328125,-400000.0625,-16690.01953125,-400000.0625,-7178.35986328125,-400000.0625
154.14093470573425,-400000.0625,-7880.8798828125,-4610.6298828125,-400000.0625,-16706.369140625,-400000.0625,-7203.25,-400000.0625
154.150452375412,-400000.0625,-7840.5400390625,-4571.14990234375,-400000.0625,-16671.609375,-400000.0625,-7159.18994140625,-400000.0625
154.1603229045868,-400000.0625,-7790.18017578125,-4522.89990234375,-400000.0625,-16627.55078125,-400000.0625,-7109.68994140625,-400000.0625
154.16710925102234,-400000.0625,-7803.39013671875,-4536.2998046875,-400000.0625,-16642.4296875,-400000.0625,-7123.18994140625,-400000.0625
154.17319321632385,-400000.0625,-7863.14013671875,-4592.93994140625,-400000.0625,-16692.44921875,-400000.0625,-7186.31982421875,-400000.0625
154.1803252696991,-400000.0625,-7883.1201171875,-4615.02001953125,-400000.0625,-16714.240234375,-400000.0625,-7211.10986328125,-400000.0625
154.18992590904236,-400000.0625,-7837.81982421875,-4569.33984375,-400000.0625,-16672.94921875,-400000.0625,-7166.14990234375,-400000.0625
154.19713139533997,-400000.0625,-7793.08984375,-4527.89990234375,-400000.0625,-16631.80078125,-400000.0625,-7114.83984375,-400000.0625
154.20345878601074,-400000.0625,-7804.06005859375,-4540.77978515625,-400000.0625,-16643.720703125,-400000.0625,-7128.2900390625,-400000.0625
154.20953822135925,-400000.0625,-7853.080078125,-4583.4501953125,-400000.0625,-16682.009765625,-400000.0625,-7184.02978515625,-400000.0625
154.21814942359924,-400000.0625,-7880.06982421875,-4609.5400390625,-400000.0625,-16702.69921875,-400000.0625,-7212.2099609375,-400000.0625
154.22737646102905,-400000.0625,-7839.10986328125,-4570.91015625,-400000.0625,-16677.099609375,-400000.0625,-7166.240234375,-400000.0625
154.23501682281494,-400000.0625,-7789.7099609375,-4524.0400390625,-400000.0625,-16639.810546875,-400000.0625,-7115.97998046875,-400000.0625
154.25110387802124,-400000.0625,-7804.35009765625,-4535.8701171875,-400000.0625,-16646.390625,-400000.0625,-7129.9599609375,-400000.0625
154.26125168800354,-400000.0625,-7860.89990234375,-4590.1298828125,-400000.0625,-16692.58984375,-400000.0625,-7184.5498046875,-400000.0625
154.26937174797058,-400000.0625,-7881.1201171875,-4609.97021484375,-400000.0625,-16706.1796875,-400000.0625,-7206.97021484375,-400000.0625
154.27584624290466,-400000.0625,-7838.2001953125,-4569.77001953125,-400000.0625,-16669.130859375,-400000.0625,-7163.3798828125,-400000.0625
154.29421377182007,-400000.0625,-7789.759765625,-4523.75,-400000.0625,-16632.890625,-400000.0625,-7114.83984375,-400000.0625
154.3032581806183,-400000.0625,-7797.9599609375,-4533.669921875,-400000.0625,-16641.48046875,-400000.0625,-7127.91015625,-400000.0625
154.3099091053009,-400000.0625,-7853.89013671875,-4585.83984375,-400000.0625,-16683.630859375,-400000.0625,-7183.27001953125,-400000.0625
154.3194818496704,-400000.0625,-7882.7900390625,-4612.4501953125,-400000.0625,-16710.619140625,-400000.0625,-7207.72998046875,-400000.0625
154.32941198349,-400000.0625,-7838.43994140625,-4569.72021484375,-400000.0625,-16672.08984375,-400000.0625,-7162.56982421875,-400000.0625
154.33660888671875,-400000.0625,-7789.47021484375,-4523.47021484375,-400000.0625,-16630.169921875,-400000.0625,-7108.58984375,-400000.0625
154.3536458015442,-400000.0625,-7803.25,-4535.39013671875,-400000.0625,-16638.279296875,-400000.0625,-7127.81005859375,-400000.0625
154.36424446105957,-400000.0625,-7859.759765625,-4587.60009765625,-400000.0625,-16686.779296875,-400000.0625,-7188.3701171875,-400000.0625
154.37099862098694,-400000.0625,-7879.1201171875,-4609.77978515625,-400000.0625,-16706.470703125,-400000.0625,-7206.68017578125,-400000.0625
154.37854671478271,-400000.0625,-7835.43994140625,-4569.6298828125,-400000.0625,-16669.369140625,-400000.0625,-7162.2900390625,-400000.0625
154.39224886894226,-400000.0625,-7786.93994140625,-4522.75,-400000.0625,-16628.69921875,-400000.0625,-7113.169921875,-400000.0625
154.40129733085632,-400000.0625,-7801.14990234375,-4536.68017578125,-400000.0625,-16641.619140625,-400000.0625,-7126.6201171875,-400000.0625
154.40821051597595,-400000.0625,-7860.52001953125,-4591.0400390625,-400000.0625,-16685.869140625,-400000.0625,-7179.06982421875,-400000.0625
154.41882228851318,-400000.0625,-7886.31982421875,-4615.8798828125,-400000.0625,-16707.279296875,-400000.0625,-7201.85986328125,-400000.0625
154.4274196624756,-400000.0625,-7841.8701171875,-4574.5400390625,-400000.0625,-16674.759765625,-400000.0625,-7163.91015625,-400000.0625
154.4378216266632,-400000.0625,-7794.2900390625,-4528.56982421875,-400000.0625,-16635.609375,-400000.0625,-7114.169921875,-400000.0625
154.45605444908142,-400000.0625,-7804.5400390625,-4542.5400390625,-400000.0625,-16645.33984375,-400000.0625,-7124.419921875,-400000.0625
154.46544742584229,-400000.0625,-7858.7099609375,-4594.18017578125,-400000.0625,-16690.109375,-400000.0625,-7181.93017578125,-400000.0625
154.4742271900177,-400000.0625,-7881.35986328125,-4613.64013671875,-400000.0625,-16702.990234375,-400000.0625,-7206.6298828125,-400000.0625
154.48346424102783,-400000.0625,-7842.8798828125,-4574.58984375,-400000.0625,-16668.939453125,-400000.0625,-7164.77001953125,-400000.0625
154.49114060401917,-400000.0625,-7795.47998046875,-4531.43017578125,-400000.0625,-16630.3203125,-400000.0625,-7120.47021484375,-400000.0625
154.50216150283813,-400000.0625,-7808.97021484375,-4545.02001953125,-400000.0625,-16642.240234375,-400000.0625,-7133.39013671875,-400000.0625
154.51214361190796,-400000.0625,-7869.81982421875,-4601.6201171875,-400000.0625,-16692.640625,-400000.0625,-7193.0400390625,-400000.0625
154.52027249336243,-400000.0625,-7890.89013671875,-4621.1201171875,-400000.0625,-16708.7109375,-400000.0625,-7216.4501953125,-400000.0625
154.5288052558899,-400000.0625,-7845.97021484375,-4577.259765625,-400000.0625,-16672.330078125,-400000.0625,-7167.10009765625,-400000.0625
154.54728364944458,-400000.0625,-7800.25,-4535.33984375,-400000.0625,-16635.51953125,-400000.0625,-7117.18017578125,-400000.0625
154.56671690940857,-400000.0625,-7813.4501953125,-4545.31005859375,-400000.0625,-16643.619140625,-400000.0625,-7132.9599609375,-400000.0625
154.57608914375305,-400000.0625,-7869.10009765625,-4598.669921875,-400000.0625,-16686.390625,-400000.0625,-7190.990234375,-400000.0625
154.58569073677063,-400000.0625,-7892.93994140625,-4623.27001953125,-400000.0625,-16712.810546875,-400000.0625,-7212.5,-400000.0625
154.5927698612213,-400000.0625,-7850.41015625,-4582.2099609375,-400000.0625,-16679.810546875,-400000.0625,-7172.009765625,-400000.0625
154.60369277000427,-400000.0625,-7800.9599609375,-4533.9599609375,-400000.0625,-16634.80078125,-400000.0625,-7120.31982421875,-400000.0625
154.61377382278442,-400000.0625,-7818.4599609375,-4551.02978515625,-400000.0625,-16647.9609375,-400000.0625,-7136.5400390625,-400000.0625
154.62098264694214,-400000.0625,-7878.16015625,-4605.39013671875,-400000.0625,-16696.650390625,-400000.0625,-7193.66015625,-400000.0625
154.6291000843048,-400000.0625,-7898.3798828125,-4623.83984375,-400000.0625,-16709.0390625,-400000.0625,-7213.31005859375,-400000.0625
154.63915348052979,-400000.0625,-7855.27001953125,-4582.740234375,-400000.0625,-16673.189453125,-400000.0625,-7168.14990234375,-400000.0625
154.64997935295105,-400000.0625,-7805.5400390625,-4537.2998046875,-400000.0625,-16634.509765625,-400000.0625,-7121.419921875,-400000.0625
154.66682124137878,-400000.0625,-7815.7900390625,-4548.1201171875,-400000.0625,-16641.859375,-400000.0625,-7133.81982421875,-400000.0625
154.67609119415283,-400000.0625,-7874.35009765625,-4603.10009765625,-400000.0625,-16697.4609375,-400000.0625,-7192.7998046875,-400000.0625
154.68532156944275,-400000.0625,-7896.6201171875,-4624.3701171875,-400000.0625,-16715.150390625,-400000.0625,-7211.830078125,-400000.0625
154.6926486492157,-400000.0625,-7848.83984375,-4581.8798828125,-400000.0625,-16675.08984375,-400000.0625,-7165.0,-400000.0625
154.70200729370117,-400000.0625,-7800.2900390625,-4536.009765625,-400000.0625,-16635.560546875,-400000.0625,-7118.18017578125,-400000.0625
154.71492958068848,-400000.0625,-7813.83984375,-4547.02001953125,-400000.0625,-16648.390625,-400000.0625,-7132.77001953125,-400000.0625
154.72221899032593,-400000.0625,-7872.68017578125,-4602.47998046875,-400000.0625,-16695.44921875,-400000.0625,-7190.509765625,-400000.0625
154.7348792552948,-400000.0625,-7891.1298828125,-4620.64990234375,-400000.0625,-16711.189453125,-400000.0625,-7208.5400390625,-400000.0625
154.74476552009583,-400000.0625,-7845.02001953125,-4580.06982421875,-400000.0625,-16673.330078125,-400000.0625,-7166.47998046875,-400000.0625
154.7535388469696,-400000.0625,-7800.68017578125,-4537.2001953125,-400000.0625,-16636.94921875,-400000.0625,-7118.22998046875,-400000.0625
154.77298760414124,-400000.0625,-7818.89013671875,-4550.35986328125,-400000.0625,-16651.439453125,-400000.0625,-7134.52978515625,-400000.0625
154.78345441818237,-400000.0625,-7872.009765625,-4601.43017578125,-400000.0625,-16695.0703125,-400000.0625,-7191.1298828125,-400000.0625
154.7907371520996,-400000.0625,-7894.27978515625,-4623.27001953125,-400000.0625,-16712.05078125,-400000.0625,-7212.740234375,-400000.0625
154.80171251296997,-400000.0625,-7849.27001953125,-4581.5498046875,-400000.0625,-16675.279296875,-400000.0625,-7167.81982421875,-400000.0625
154.8130066394806,-400000.0625,-7804.490234375,-4540.72998046875,-400000.0625,-16640.759765625,-400000.0625,-7118.75,-400000.0625
154.82076001167297,-400000.0625,-7817.080078125,-4550.080078125,-400000.0625,-16649.439453125,-400000.0625,-7135.25,-400000.0625
154.82891154289246,-400000.0625,-7872.490234375,-4602.240234375,-400000.0625,-16690.44921875,-400000.0625,-7194.56982421875,-400000.0625
154.84025478363037,-400000.0625,-7894.3701171875,-4622.97998046875,-400000.0625,-16703.80078125,-400000.0625,-7213.1201171875,-400000.0625
154.85050439834595,-400000.0625,-7846.2099609375,-4581.4501953125,-400000.0625,-16672.849609375,-400000.0625,-7167.77001953125,-400000.0625
154.85815906524658,-400000.0625,-7798.009765625,-4536.580078125,-400000.0625,-16638.849609375,-400000.0625,-7119.1298828125,-400000.0625
154.88451170921326,-400000.0625,-7813.06982421875,-4548.64990234375,-400000.0625,-16646.669921875,-400000.0625,-7132.9599609375,-400000.0625
154.89197945594788,-400000.0625,-7869.77001953125,-4602.72021484375,-400000.0625,-16690.44921875,-400000.0625,-7187.93994140625,-400000.0625
154.90243911743164,-400000.0625,-7890.7001953125,-4622.97998046875,-400000.0625,-16711.669921875,-400000.0625,-7211.72998046875,-400000.0625
154.913019657135,-400000.0625,-7844.259765625,-4579.16015625,-400000.0625,-16670.23046875,-400000.0625,-7167.52978515625,-400000.0625
154.9211573600769,-400000.0625,-7801.81982421875,-4539.2998046875,-400000.0625,-16632.1796875,-400000.0625,-7118.080078125,-400000.0625
154.93545007705688,-400000.0625,-7818.080078125,-4551.7001953125,-400000.0625,-16644.720703125,-400000.0625,-7136.2001953125,-400000.0625
154.94794750213623,-400000.0625,-7876.64013671875,-4605.009765625,-400000.0625,-16693.689453125,-400000.0625,-7198.3798828125,-400000.0625
154.95608830451965,-400000.0625,-7896.7099609375,-4623.4599609375,-400000.0625,-16712.4296875,-400000.0625,-7214.830078125,-400000.0625
154.96693468093872,-400000.0625,-7849.02978515625,-4578.830078125,-400000.0625,-16675.380859375,-400000.0625,-7166.39013671875,-400000.0625
154.98530840873718,-400000.0625,-7799.009765625,-4533.33984375,-400000.0625,-16632.509765625,-400000.0625,-7119.60986328125,-400000.0625
154.99297332763672,-400000.0625,-7813.7900390625,-4548.169921875,-400000.0625,-16642.51953125,-400000.0625,-7135.009765625,-400000.0625
155.01030349731445,-400000.0625,-7872.72998046875,-4599.669921875,-400000.0625,-16692.2109375,-400000.0625,-7190.18017578125,-400000.0625
155.019029378891,-400000.0625,-7892.22998046875,-4616.58984375,-400000.0625,-16707.279296875,-400000.0625,-7208.39990234375,-400000.0625
155.02617502212524,-400000.0625,-7846.64013671875,-4576.72998046875,-400000.0625,-16670.939453125,-400000.0625,-7165.14990234375,-400000.0625
155.03671503067017,-400000.0625,-7798.33984375,-4533.52978515625,-400000.0625,-16635.369140625,-400000.0625,-7117.22021484375,-400000.0625
155.04700207710266,-400000.0625,-7813.169921875,-4547.31005859375,-400000.0625,-16651.970703125,-400000.0625,-7132.43994140625,-400000.0625
155.05534100532532,-400000.0625,-7867.14990234375,-4598.330078125,-400000.0625,-16693.9296875,-400000.0625,-7191.52001953125,-400000.0625
155.06399011611938,-400000.0625,-7885.97998046875,-4615.35986328125,-400000.0625,-16706.470703125,-400000.0625,-7206.2001953125,-400000.0625
155.07577395439148,-400000.0625,-7844.1201171875,-4573.8701171875,-400000.0625,-16671.419921875,-400000.0625,-7163.759765625,-400000.0625
155.0910747051239,-400000.0625,-7798.43017578125,-4529.2900390625,-400000.0625,-16635.23046875,-400000.0625,-7116.7998046875,-400000.0625
155.1007697582245,-400000.0625,-7813.35986328125,-4542.259765625,-400000.0625,-16648.580078125,-400000.0625,-7133.33984375,-400000.0625
155.11194515228271,-400000.0625,-7871.33984375,-4599.18994140625,-400000.0625,-16694.119140625,-400000.0625,-7189.7001953125,-400000.0625
155.1202781200409,-400000.0625,-7890.93994140625,-4616.7900390625,-400000.0625,-16705.3203125,-400000.0625,-7209.64013671875,-400000.0625
155.12798595428467,-400000.0625,-7841.58984375,-4572.33984375,-400000.0625,-16670.279296875,-400000.0625,-7161.3798828125,-400000.0625
155.14121890068054,-400000.0625,-7793.9501953125,-4531.3798828125,-400000.0625,-16633.369140625,-400000.0625,-7114.35986328125,-400000.0625
155.14915680885315,-400000.0625,-7811.93017578125,-4546.7900390625,-400000.0625,-16645.91015625,-400000.0625,-7130.18994140625,-400000.0625
155.1561131477356,-400000.0625,-7864.669921875,-4598.330078125,-400000.0625,-16695.740234375,-400000.0625,-7187.75,-400000.0625
155.16516780853271,-400000.0625,-7882.5498046875,-4615.68994140625,-400000.0625,-16709.470703125,-400000.0625,-7204.8701171875,-400000.0625
155.1750910282135,-400000.0625,-7838.77001953125,-4571.2001953125,-400000.0625,-16667.650390625,-400000.0625,-7159.330078125,-400000.0625
155.18295049667358,-400000.0625,-7793.08984375,-4528.3798828125,-400000.0625,-16627.98046875,-400000.0625,-7114.89013671875,-400000.0625
155.2051010131836,-400000.0625,-7807.830078125,-4544.68994140625,-400000.0625,-16644.0,-400000.0625,-7131.43017578125,-400000.0625
155.21742939949036,-400000.0625,-7866.56982421875,-4600.2900390625,-400000.0625,-16696.55078125,-400000.0625,-7190.419921875,-400000.0625
155.2248020172119,-400000.0625,-7888.60009765625,-4620.83984375,-400000.0625,-16714.05078125,-400000.0625,-7210.02001953125,-400000.0625
155.23972058296204,-400000.0625,-7841.06005859375,-4578.77978515625,-400000.0625,-16673.849609375,-400000.0625,-7166.669921875,-400000.0625
155.24833226203918,-400000.0625,-7791.81005859375,-4530.759765625,-400000.0625,-16630.130859375,-400000.0625,-7115.169921875,-400000.0625
155.25594663619995,-400000.0625,-7810.02001953125,-4544.16015625,-400000.0625,-16641.900390625,-400000.0625,-7129.18994140625,-400000.0625
155.26394414901733,-400000.0625,-7866.52978515625,-4599.0,-400000.0625,-16690.30078125,-400000.0625,-7186.4599609375,-400000.0625
155.27278637886047,-400000.0625,-7883.60009765625,-4615.97021484375,-400000.0625,-16704.369140625,-400000.0625,-7202.9599609375,-400000.0625
155.28056001663208,-400000.0625,-7839.72998046875,-4572.68017578125,-400000.0625,-16669.80078125,-400000.0625,-7161.14013671875,-400000.0625
155.28752875328064,-400000.0625,-7790.66015625,-4529.52001953125,-400000.0625,-16635.23046875,-400000.0625,-7114.1298828125,-400000.0625
155.30215525627136,-400000.0625,-7805.97021484375,-4545.97998046875,-400000.0625,-16650.9609375,-400000.0625,-7127.2900390625,-400000.0625
155.3122067451477,-400000.0625,-7865.47998046875,-4597.759765625,-400000.0625,-16694.880859375,-400000.0625,-7185.60009765625,-400000.0625
155.3199770450592,-400000.0625,-7884.7900390625,-4617.64013671875,-400000.0625,-16710.0,-400000.0625,-7206.2998046875,-400000.0625
155.32804226875305,-400000.0625,-7839.58984375,-4579.16015625,-400000.0625,-16675.380859375,-400000.0625,-7157.7998046875,-400000.0625
155.3417525291443,-400000.0625,-7788.60986328125,-4531.85986328125,-400000.0625,-16635.3203125,-400000.0625,-7108.39990234375,-400000.0625
155.3495273590088,-400000.0625,-7801.68017578125,-4543.97021484375,-400000.0625,-16643.9609375,-400000.0625,-7120.31982421875,-400000.0625
155.3563802242279,-400000.0625,-7865.2900390625,-4601.81005859375,-400000.0625,-16697.7890625,-400000.0625,-7181.83984375,-400000.0625
155.3650860786438,-400000.0625,-7885.93017578125,-4622.56005859375,-400000.0625,-16712.240234375,-400000.0625,-7205.9599609375,-400000.0625
155.37551879882812,-400000.0625,-7840.72998046875,-4581.169921875,-400000.0625,-16676.859375,-400000.0625,-7157.3701171875,-400000.0625
155.38305139541626,-400000.0625,-7794.0,-4538.39013671875,-400000.0625,-16642.4296875,-400000.0625,-7110.97998046875,-400000.0625
155.3898150920868,-400000.0625,-7806.8701171875,-4549.93017578125,-400000.0625,-16655.01953125,-400000.0625,-7123.7099609375,-400000.0625
155.40652441978455,-400000.0625,-7862.0400390625,-4601.77001953125,-400000.0625,-16696.599609375,-400000.0625,-7181.7900390625,-400000.0625
155.4160852432251,-400000.0625,-7881.169921875,-4622.60009765625,-400000.0625,-16706.330078125,-400000.0625,-7200.669921875,-400000.0625
155.42346024513245,-400000.0625,-7837.25,-4580.4501953125,-400000.0625,-16671.849609375,-400000.0625,-7154.60986328125,-400000.0625
155.43233609199524,-400000.0625,-7788.52001953125,-4530.18994140625,-400000.0625,-16632.890625,-400000.0625,-7107.2099609375,-400000.0625
155.44118523597717,-400000.0625,-7805.43994140625,-4549.41015625,-400000.0625,-16646.099609375,-400000.0625,-7124.85009765625,-400000.0625
155.44858074188232,-400000.0625,-7866.18994140625,-4606.68017578125,-400000.0625,-16699.55078125,-400000.0625,-7186.990234375,-400000.0625
155.45545935630798,-400000.0625,-7883.35986328125,-4621.509765625,-400000.0625,-16712.810546875,-400000.0625,-7205.2998046875,-400000.0625
155.46410608291626,-400000.0625,-7838.97021484375,-4578.06982421875,-400000.0625,-16674.849609375,-400000.0625,-7160.52001953125,-400000.0625
155.47582054138184,-400000.0625,-7790.56982421875,-4533.81982421875,-400000.0625,-16637.900390625,-400000.0625,-7112.5498046875,-400000.0625
155.48594760894775,-400000.0625,-7808.8798828125,-4549.64990234375,-400000.0625,-16650.150390625,-400000.0625,-7129.0,-400000.0625
155.49290227890015,-400000.0625,-7865.6201171875,-4602.2900390625,-400000.0625,-16692.0703125,-400000.0625,-7181.97998046875,-400000.0625
155.51194405555725,-400000.0625,-7882.169921875,-4620.41015625,-400000.0625,-16712.240234375,-400000.0625,-7199.0,-400000.0625
155.51945996284485,-400000.0625,-7843.77978515625,-4582.97998046875,-400000.0625,-16678.189453125,-400000.0625,-7156.27978515625,-400000.0625
155.52655935287476,-400000.0625,-7797.39013671875,-4540.009765625,-400000.0625,-16637.759765625,-400000.0625,-7109.259765625,-400000.0625
155.54439425468445,-400000.0625,-7814.4599609375,-4558.52001953125,-400000.0625,-16657.2109375,-400000.0625,-7127.0498046875,-400000.0625
155.55882668495178,-400000.0625,-7873.97021484375,-4613.10986328125,-400000.0625,-16706.23046875,-400000.0625,-7188.18017578125,-400000.0625
155.56948399543762,-400000.0625,-7889.509765625,-4626.60986328125,-400000.0625,-16715.9609375,-400000.0625,-7203.14990234375,-400000.0625
155.58018040657043,-400000.0625,-7839.25,-4579.35009765625,-400000.0625,-16675.859375,-400000.0625,-7155.419921875,-400000.0625
155.5883822441101,-400000.0625,-7790.66015625,-4531.3798828125,-400000.0625,-16635.470703125,-400000.0625,-7106.5,-400000.0625
155.59707117080688,-400000.0625,-7802.77001953125,-4545.97998046875,-400000.0625,-16643.4296875,-400000.0625,-7123.52001953125,-400000.0625
155.61619782447815,-400000.0625,-7863.669921875,-4604.2900390625,-400000.0625,-16698.98046875,-400000.0625,-7181.740234375,-400000.0625
155.6240119934082,-400000.0625,-7888.3701171875,-4625.60986328125,-400000.0625,-16718.91015625,-400000.0625,-7204.580078125,-400000.0625
155.63825917243958,-400000.0625,-7841.35009765625,-4579.35009765625,-400000.0625,-16680.099609375,-400000.0625,-7158.18017578125,-400000.0625
155.64898252487183,-400000.0625,-7793.14013671875,-4534.2900390625,-400000.0625,-16641.380859375,-400000.0625,-7106.97021484375,-400000.0625
155.6570224761963,-400000.0625,-7808.64013671875,-4550.27001953125,-400000.0625,-16649.19921875,-400000.0625,-7123.52001953125,-400000.0625
155.66647338867188,-400000.0625,-7865.6201171875,-4603.77001953125,-400000.0625,-16694.640625,-400000.0625,-7181.97998046875,-400000.0625
155.6777048110962,-400000.0625,-7885.22021484375,-4621.93994140625,-400000.0625,-16712.4296875,-400000.0625,-7204.580078125,-400000.0625
155.6861550807953,-400000.0625,-7835.81982421875,-4577.02001953125,-400000.0625,-16672.94921875,-400000.0625,-7155.93994140625,-400000.0625
155.69440698623657,-400000.0625,-7787.75,-4532.43017578125,-400000.0625,-16634.419921875,-400000.0625,-7107.77978515625,-400000.0625
155.70563793182373,-400000.0625,-7806.58984375,-4550.97998046875,-400000.0625,-16653.349609375,-400000.0625,-7126.56982421875,-400000.0625
155.72032403945923,-400000.0625,-7861.56982421875,-4601.47998046875,-400000.0625,-16697.98046875,-400000.0625,-7181.93017578125,-400000.0625
155.73045778274536,-400000.0625,-7880.06982421875,-4619.31005859375,-400000.0625,-16714.529296875,-400000.0625,-7202.2900390625,-400000.0625
155.74216747283936,-400000.0625,-7833.10009765625,-4575.35009765625,-400000.0625,-16677.859375,-400000.0625,-7153.990234375,-400000.0625
155.7507483959198,-400000.0625,-7782.080078125,-4527.3798828125,-400000.0625,-16636.279296875,-400000.0625,-7105.39990234375,-400000.0625
155.75846147537231,-400000.0625,-7800.43994140625,-4543.64013671875,-400000.0625,-16651.16015625,-400000.0625,-7121.3701171875,-400000.0625
155.76877355575562,-400000.0625,-7858.47021484375,-4598.6201171875,-400000.0625,-16694.259765625,-400000.0625,-7176.97021484375,-400000.0625
155.77779173851013,-400000.0625,-7875.009765625,-4613.97021484375,-400000.0625,-16709.900390625,-400000.0625,-7196.759765625,-400000.0625
155.78566217422485,-400000.0625,-7827.14013671875,-4570.68017578125,-400000.0625,-16676.51953125,-400000.0625,-7150.1298828125,-400000.0625
155.79284811019897,-400000.0625,-7780.64990234375,-4527.759765625,-400000.0625,-16636.0390625,-400000.0625,-7103.6298828125,-400000.0625
155.806640625,-400000.0625,-7800.06005859375,-4546.1201171875,-400000.0625,-16649.580078125,-400000.0625,-7117.31982421875,-400000.0625
155.8200342655182,-400000.0625,-7855.7001953125,-4597.89990234375,-400000.0625,-16699.26953125,-400000.0625,-7174.919921875,-400000.0625
155.82668018341064,-400000.0625,-7872.8701171875,-4612.490234375,-400000.0625,-16710.7109375,-400000.0625,-7196.52001953125,-400000.0625
155.83832478523254,-400000.0625,-7826.89990234375,-4567.2900390625,-400000.0625,-16667.220703125,-400000.0625,-7149.1201171875,-400000.0625
155.84769010543823,-400000.0625,-7781.4599609375,-4524.330078125,-400000.0625,-16629.599609375,-400000.0625,-7100.68017578125,-400000.0625
155.8550796508789,-400000.0625,-7794.240234375,-4534.85986328125,-400000.0625,-16637.849609375,-400000.0625,-7115.56005859375,-400000.0625
155.86291599273682,-400000.0625,-7851.080078125,-4591.56005859375,-400000.0625,-16691.73046875,-400000.0625,-7171.68017578125,-400000.0625
155.87299704551697,-400000.0625,-7870.47998046875,-4610.35009765625,-400000.0625,-16710.330078125,-400000.0625,-7192.56005859375,-400000.0625
155.8803312778473,-400000.0625,-7826.56982421875,-4568.0498046875,-400000.0625,-16675.08984375,-400000.0625,-7151.22021484375,-400000.0625
155.88707995414734,-400000.0625,-7776.740234375,-4524.0400390625,-400000.0625,-16636.08984375,-400000.0625,-7098.52978515625,-400000.0625
155.8936595916748,-400000.0625,-7795.6201171875,-4541.830078125,-400000.0625,-16650.30078125,-400000.0625,-7109.4501953125,-400000.0625
155.9064040184021,-400000.0625,-7854.56005859375,-4597.52001953125,-400000.0625,-16695.44921875,-400000.0625,-7170.14990234375,-400000.0625
155.91424822807312,-400000.0625,-7872.10986328125,-4614.259765625,-400000.0625,-16707.66015625,-400000.0625,-7192.3701171875,-400000.0625
155.92734956741333,-400000.0625,-7826.0400390625,-4572.72998046875,-400000.0625,-16671.369140625,-400000.0625,-7144.169921875,-400000.0625
155.93928050994873,-400000.0625,-7776.5498046875,-4529.14013671875,-400000.0625,-16630.599609375,-400000.0625,-7097.43994140625,-400000.0625
155.9467511177063,-400000.0625,-7794.52001953125,-4544.31005859375,-400000.0625,-16646.8203125,-400000.0625,-7115.64990234375,-400000.0625
155.95340132713318,-400000.0625,-7856.66015625,-4601.85986328125,-400000.0625,-16701.1796875,-400000.0625,-7176.919921875,-400000.0625
155.95979523658752,-400000.0625,-7877.06005859375,-4620.89013671875,-400000.0625,-16716.009765625,-400000.0625,-7198.14013671875,-400000.0625
155.9683482646942,-400000.0625,-7824.60986328125,-4572.2001953125,-400000.0625,-16675.189453125,-400000.0625,-7147.68994140625,-400000.0625
155.97673106193542,-400000.0625,-7780.35986328125,-4529.91015625,-400000.0625,-16634.849609375,-400000.0625,-7098.8701171875,-400000.0625
155.98380208015442,-400000.0625,-7800.06005859375,-4547.5498046875,-400000.0625,-16647.76953125,-400000.0625,-7120.18017578125,-400000.0625
155.99057149887085,-400000.0625,-7856.1298828125,-4603.14990234375,-400000.0625,-16696.359375,-400000.0625,-7176.97021484375,-400000.0625
156.00024795532227,-400000.0625,-7874.6298828125,-4620.83984375,-400000.0625,-16713.669921875,-400000.0625,-7193.85009765625,-400000.0625
156.0099425315857,-400000.0625,-7826.85009765625,-4577.64013671875,-400000.0625,-16674.849609375,-400000.0625,-7149.5498046875,-400000.0625
156.01815032958984,-400000.0625,-7781.35986328125,-4535.68017578125,-400000.0625,-16636.560546875,-400000.0625,-7101.35009765625,-400000.0625
156.03635668754578,-400000.0625,-7801.25,-4553.18017578125,-400000.0625,-16654.349609375,-400000.0625,-7119.080078125,-400000.0625
156.0445113182068,-400000.0625,-7858.1298828125,-4605.2001953125,-400000.0625,-16698.69921875,-400000.0625,-7176.2099609375,-400000.0625
156.05161237716675,-400000.0625,-7872.39013671875,-4618.740234375,-400000.0625,-16709.759765625,-400000.0625,-7190.7998046875,-400000.0625
156.05812907218933,-400000.0625,-7824.7099609375,-4575.77978515625,-400000.0625,-16672.51953125,-400000.0625,-7144.740234375,-400000.0625
156.06593561172485,-400000.0625,-7779.06982421875,-4531.9599609375,-400000.0625,-16632.080078125,-400000.0625,-7099.43994140625,-400000.0625
156.07359290122986,-400000.0625,-7799.14990234375,-4549.41015625,-400000.0625,-16651.009765625,-400000.0625,-7112.83984375,-400000.0625
156.0808835029602,-400000.0625,-7856.47021484375,-4602.47998046875,-400000.0625,-16693.640625,-400000.0625,-7172.25,-400000.0625
156.08753418922424,-400000.0625,-7872.919921875,-4618.259765625,-400000.0625,-16710.330078125,-400000.0625,-7193.18017578125,-400000.0625
156.09400749206543,-400000.0625,-7826.27978515625,-4573.06005859375,-400000.0625,-16670.75,-400000.0625,-7144.2099609375,-400000.0625
156.10194611549377,-400000.0625,-7778.35986328125,-4528.9501953125,-400000.0625,-16632.130859375,-400000.0625,-7097.2001953125,-400000.0625
156.11012959480286,-400000.0625,-7790.18017578125,-4543.58984375,-400000.0625,-16648.33984375,-400000.0625,-7118.1298828125,-400000.0625
156.11716723442078,-400000.0625,-7850.7900390625,-4596.0,-400000.0625,-16695.9296875,-400000.0625,-7174.64013671875,-400000.0625
156.12363934516907,-400000.0625,-7869.6298828125,-4615.35986328125,-400000.0625,-16707.900390625,-400000.0625,-7190.89990234375,-400000.0625
156.14068055152893,-400000.0625,-7822.60986328125,-4571.43994140625,-400000.0625,-16671.419921875,-400000.0625,-7143.5498046875,-400000.0625
156.14856505393982,-400000.0625,-7776.7900390625,-4528.85986328125,-400000.0625,-16635.7109375,-400000.0625,-7097.9599609375,-400000.0625
156.15578985214233,-400000.0625,-7794.0,-4547.93017578125,-400000.0625,-16648.150390625,-400000.0625,-7115.169921875,-400000.0625
156.1630232334137,-400000.0625,-7849.93017578125,-4598.669921875,-400000.0625,-16691.779296875,-400000.0625,-7173.25,-400000.0625
156.17301774024963,-400000.0625,-7868.0,-4614.39990234375,-400000.0625,-16707.7109375,-400000.0625,-7187.7998046875,-400000.0625
156.18051385879517,-400000.0625,-7821.66015625,-4569.81982421875,-400000.0625,-16674.08984375,-400000.0625,-7146.41015625,-400000.0625
156.18726921081543,-400000.0625,-7774.5400390625,-4525.22998046875,-400000.0625,-16634.1796875,-400000.0625,-7098.2900390625,-400000.0625
156.19390296936035,-400000.0625,-7795.240234375,-4543.919921875,-400000.0625,-16646.669921875,-400000.0625,-7116.3701171875,-400000.0625
156.20205521583557,-400000.0625,-7850.169921875,-4599.0498046875,-400000.0625,-16689.830078125,-400000.0625,-7178.64013671875,-400000.0625
156.21018385887146,-400000.0625,-7870.06005859375,-4618.83984375,-400000.0625,-16709.5703125,-400000.0625,-7194.89990234375,-400000.0625
156.21717739105225,-400000.0625,-7827.85986328125,-4575.830078125,-400000.0625,-16676.48046875,-400000.0625,-7144.8798828125,-400000.0625
156.2235667705536,-400000.0625,-7780.64990234375,-4532.0498046875,-400000.0625,-16635.130859375,-400000.0625,-7102.81982421875,-400000.0625
156.2301299571991,-400000.0625,-7798.0498046875,-4551.080078125,-400000.0625,-16646.009765625,-400000.0625,-7121.60986328125,-400000.0625
156.24542427062988,-400000.0625,-7859.330078125,-4609.39013671875,-400000.0625,-16701.029296875,-400000.0625,-7180.02001953125,-400000.0625
156.25216150283813,-400000.0625,-7875.77978515625,-4624.56005859375,-400000.0625,-16718.099609375,-400000.0625,-7196.240234375,-400000.0625
156.2583246231079,-400000.0625,-7827.0400390625,-4577.68017578125,-400000.0625,-16677.380859375,-400000.0625,-7147.5,-400000.0625
156.26629114151,-400000.0625,-7779.5498046875,-4533.009765625,-400000.0625,-16635.369140625,-400000.0625,-7101.25,-400000.0625
156.2770779132843,-400000.0625,-7796.56982421875,-4550.27001953125,-400000.0625,-16651.349609375,-400000.0625,-7119.27001953125,-400000.0625
156.28439736366272,-400000.0625,-7857.7998046875,-4605.14990234375,-400000.0625,-16699.26953125,-400000.0625,-7178.16015625,-400000.0625
156.2908844947815,-400000.0625,-7876.490234375,-4623.83984375,-400000.0625,-16713.0,-400000.0625,-7195.330078125,-400000.0625
156.29863357543945,-400000.0625,-7826.3798828125,-4577.830078125,-400000.0625,-16674.23046875,-400000.0625,-7144.4501953125,-400000.0625
156.31067442893982,-400000.0625,-7778.8798828125,-4533.009765625,-400000.0625,-16636.1796875,-400000.0625,-7097.72021484375,-400000.0625
156.31835103034973,-400000.0625,-7801.14990234375,-4553.83984375,-400000.0625,-16655.970703125,-400000.0625,-7119.1298828125,-400000.0625
156.3252775669098,-400000.0625,-7858.89990234375,-4608.43994140625,-400000.0625,-16703.419921875,-400000.0625,-7176.06982421875,-400000.0625
156.33407926559448,-400000.0625,-7870.39013671875,-4620.7001953125,-400000.0625,-16715.2890625,-400000.0625,-7190.85009765625,-400000.0625
156.35043001174927,-400000.0625,-7822.22998046875,-4573.25,-400000.0625,-16673.0390625,-400000.0625,-7143.5,-400000.0625
156.3569052219391,-400000.0625,-7778.1201171875,-4532.0,-400000.0625,-16635.130859375,-400000.0625,-7098.39013671875,-400000.0625
156.3671841621399,-400000.0625,-7798.2900390625,-4549.06982421875,-400000.0625,-16651.25,-400000.0625,-7117.4599609375,-400000.0625
156.37761521339417,-400000.0625,-7855.419921875,-4601.52978515625,-400000.0625,-16695.98046875,-400000.0625,-7179.06982421875,-400000.0625
156.38462471961975,-400000.0625,-7872.580078125,-4619.4599609375,-400000.0625,-16714.189453125,-400000.0625,-7196.240234375,-400000.0625
156.39116215705872,-400000.0625,-7831.669921875,-4580.259765625,-400000.0625,-16682.439453125,-400000.0625,-7146.02978515625,-400000.0625
156.3997061252594,-400000.0625,-7781.31982421875,-4532.85986328125,-400000.0625,-16637.419921875,-400000.0625,-7098.39013671875,-400000.0625
156.40977334976196,-400000.0625,-7794.669921875,-4548.02978515625,-400000.0625,-16650.33984375,-400000.0625,-7118.7001953125,-400000.0625
156.4169898033142,-400000.0625,-7852.93994140625,-4602.580078125,-400000.0625,-16698.080078125,-400000.0625,-7171.580078125,-400000.0625
156.42347645759583,-400000.0625,-7870.6298828125,-4621.740234375,-400000.0625,-16714.859375,-400000.0625,-7190.93994140625,-400000.0625
156.43046355247498,-400000.0625,-7821.27001953125,-4577.64013671875,-400000.0625,-16673.419921875,-400000.0625,-7147.27001953125,-400000.0625
156.44075298309326,-400000.0625,-7776.93017578125,-4533.72021484375,-400000.0625,-16637.849609375,-400000.0625,-7098.6298828125,-400000.0625
156.4552357196808,-400000.0625,-7797.2900390625,-4550.83984375,-400000.0625,-16654.5390625,-400000.0625,-7114.93994140625,-400000.0625
156.46301126480103,-400000.0625,-7855.1298828125,-4603.10009765625,-400000.0625,-16697.029296875,-400000.0625,-7174.5400390625,-400000.0625
156.47699427604675,-400000.0625,-7870.6298828125,-4619.169921875,-400000.0625,-16715.05078125,-400000.0625,-7190.31982421875,-400000.0625
156.48681116104126,-400000.0625,-7820.419921875,-4573.580078125,-400000.0625,-16673.759765625,-400000.0625,-7141.72998046875,-400000.0625
156.49489951133728,-400000.0625,-7771.77978515625,-4528.3798828125,-400000.0625,-16633.890625,-400000.0625,-7094.0,-400000.0625
156.50399565696716,-400000.0625,-7794.10009765625,-4548.169921875,-400000.0625,-16651.8203125,-400000.0625,-7115.22021484375,-400000.0625
156.51148796081543,-400000.0625,-7848.259765625,-4600.6201171875,-400000.0625,-16698.7890625,-400000.0625,-7173.009765625,-400000.0625
156.51837253570557,-400000.0625,-7866.43017578125,-4618.169921875,-400000.0625,-16712.859375,-400000.0625,-7189.7001953125,-400000.0625
156.52497100830078,-400000.0625,-7818.64990234375,-4574.009765625,-400000.0625,-16672.51953125,-400000.0625,-7143.740234375,-400000.0625
156.53608393669128,-400000.0625,-7773.02001953125,-4529.91015625,-400000.0625,-16630.890625,-400000.0625,-7099.25,-400000.0625
156.5511655807495,-400000.0625,-7791.14013671875,-4548.1201171875,-400000.0625,-16648.529296875,-400000.0625,-7116.18017578125,-400000.0625
156.5707540512085,-400000.0625,-7852.02978515625,-4606.8701171875,-400000.0625,-16697.83984375,-400000.0625,-7173.10986328125,-400000.0625
156.57798194885254,-400000.0625,-7869.2900390625,-4623.31982421875,-400000.0625,-16710.189453125,-400000.0625,-7192.22998046875,-400000.0625
156.58482480049133,-400000.0625,-7819.4599609375,-4577.490234375,-400000.0625,-16677.48046875,-400000.0625,-7145.02001953125,-400000.0625
156.59132552146912,-400000.0625,-7773.72998046875,-4533.47998046875,-400000.0625,-16637.759765625,-400000.0625,-7099.490234375,-400000.0625
156.60063219070435,-400000.0625,-7792.27978515625,-4550.27001953125,-400000.0625,-16651.490234375,-400000.0625,-7116.22021484375,-400000.0625
156.6111855506897,-400000.0625,-7851.4599609375,-4603.2001953125,-400000.0625,-16697.029296875,-400000.0625,-7177.39990234375,-400000.0625
156.62027883529663,-400000.0625,-7867.14990234375,-4618.97998046875,-400000.0625,-16710.900390625,-400000.0625,-7194.56982421875,-400000.0625
156.62820482254028,-400000.0625,-7814.31005859375,-4570.77001953125,-400000.0625,-16667.3203125,-400000.0625,-7141.8798828125,-400000.0625
156.63927245140076,-400000.0625,-7768.2998046875,-4528.6201171875,-400000.0625,-16635.23046875,-400000.0625,-7094.240234375,-400000.0625
156.64733052253723,-400000.0625,-7788.419921875,-4547.31005859375,-400000.0625,-16651.6796875,-400000.0625,-7116.4599609375,-400000.0625
156.65437269210815,-400000.0625,-7846.93017578125,-4600.56982421875,-400000.0625,-16697.740234375,-400000.0625,-7178.97998046875,-400000.0625
156.66980910301208,-400000.0625,-7866.72021484375,-4621.169921875,-400000.0625,-16714.05078125,-400000.0625,-7191.75,-400000.0625
156.67806887626648,-400000.0625,-7820.080078125,-4575.77978515625,-400000.0625,-16674.66015625,-400000.0625,-7144.169921875,-400000.0625
156.68571662902832,-400000.0625,-7774.2099609375,-4531.14990234375,-400000.0625,-16635.0390625,-400000.0625,-7098.68017578125,-400000.0625
156.69249033927917,-400000.0625,-7791.330078125,-4550.35986328125,-400000.0625,-16651.30078125,-400000.0625,-7116.75,-400000.0625
156.70284223556519,-400000.0625,-7850.89013671875,-4606.43994140625,-400000.0625,-16699.220703125,-400000.0625,-7174.06005859375,-400000.0625
156.71182537078857,-400000.0625,-7869.009765625,-4621.1201171875,-400000.0625,-16713.2890625,-400000.0625,-7191.7099609375,-400000.0625
156.71919465065002,-400000.0625,-7818.080078125,-4575.830078125,-400000.0625,-16678.5703125,-400000.0625,-7142.68994140625,-400000.0625
156.72631359100342,-400000.0625,-7771.64013671875,-4534.2001953125,-400000.0625,-16639.66015625,-400000.0625,-7095.85986328125,-400000.0625
156.73923301696777,-400000.0625,-7792.66015625,-4551.31982421875,-400000.0625,-16652.6796875,-400000.0625,-7115.89013671875,-400000.0625
156.74764251708984,-400000.0625,-7850.5498046875,-4606.10009765625,-400000.0625,-16702.4609375,-400000.0625,-7180.7900390625,-400000.0625
156.75457000732422,-400000.0625,-7867.33984375,-4621.5498046875,-400000.0625,-16715.240234375,-400000.0625,-7196.240234375,-400000.0625
156.77386283874512,-400000.0625,-7820.22998046875,-4576.10986328125,-400000.0625,-16673.609375,-400000.0625,-7143.06982421875,-400000.0625
156.78150391578674,-400000.0625,-7770.58984375,-4531.669921875,-400000.0625,-16637.609375,-400000.0625,-7095.77001953125,-400000.0625
156.78963470458984,-400000.0625,-7786.93994140625,-4546.830078125,-400000.0625,-16650.109375,-400000.0625,-7116.509765625,-400000.0625
156.79793095588684,-400000.0625,-7846.169921875,-4603.91015625,-400000.0625,-16698.310546875,-400000.0625,-7177.97021484375,-400000.0625
156.80667400360107,-400000.0625,-7865.3798828125,-4622.64990234375,-400000.0625,-16713.240234375,-400000.0625,-7197.669921875,-400000.0625
156.81401252746582,-400000.0625,-7816.02978515625,-4577.02001953125,-400000.0625,-16673.609375,-400000.0625,-7149.64990234375,-400000.0625
156.8206548690796,-400000.0625,-7772.5400390625,-4534.85986328125,-400000.0625,-16640.759765625,-400000.0625,-7104.490234375,-400000.0625
156.82707285881042,-400000.0625,-7794.10009765625,-4554.7001953125,-400000.0625,-16658.01953125,-400000.0625,-7126.3798828125,-400000.0625
156.8367063999176,-400000.0625,-7853.27001953125,-4607.72998046875,-400000.0625,-16704.130859375,-400000.0625,-7182.169921875,-400000.0625
156.84606552124023,-400000.0625,-7865.6201171875,-4621.7900390625,-400000.0625,-16714.91015625,-400000.0625,-7198.3798828125,-400000.0625
156.85340523719788,-400000.0625,-7815.41015625,-4574.8701171875,-400000.0625,-16674.849609375,-400000.0625,-7147.4599609375,-400000.0625
156.86043548583984,-400000.0625,-7767.72998046875,-4526.7099609375,-400000.0625,-16636.609375,-400000.0625,-7099.009765625,-400000.0625
156.87624788284302,-400000.0625,-7787.509765625,-4547.64013671875,-400000.0625,-16649.490234375,-400000.0625,-7121.1298828125,-400000.0625
156.88438940048218,-400000.0625,-7849.4599609375,-4604.81982421875,-400000.0625,-16700.4609375,-400000.0625,-7182.27001953125,-400000.0625
156.89100193977356,-400000.0625,-7866.91015625,-4620.35986328125,-400000.0625,-16714.05078125,-400000.0625,-7194.9501953125,-400000.0625
156.90534853935242,-400000.0625,-7816.1201171875,-4575.25,-400000.0625,-16675.4296875,-400000.0625,-7143.4501953125,-400000.0625
156.91328239440918,-400000.0625,-7770.77978515625,-4532.85986328125,-400000.0625,-16637.419921875,-400000.0625,-7099.490234375,-400000.0625
156.9207422733307,-400000.0625,-7790.7998046875,-4550.41015625,-400000.0625,-16652.490234375,-400000.0625,-7123.18994140625,-400000.0625
156.92853307724,-400000.0625,-7848.169921875,-4605.25,-400000.0625,-16701.939453125,-400000.0625,-7181.22021484375,-400000.0625
156.93781328201294,-400000.0625,-7859.419921875,-4617.169921875,-400000.0625,-16715.0,-400000.0625,-7194.6201171875,-400000.0625
156.94597816467285,-400000.0625,-7808.830078125,-4569.33984375,-400000.0625,-16671.990234375,-400000.0625,-7145.02001953125,-400000.0625
156.95284485816956,-400000.0625,-7767.009765625,-4529.0,-400000.0625,-16636.140625,-400000.0625,-7099.009765625,-400000.0625
156.9594738483429,-400000.0625,-7790.85009765625,-4547.93017578125,-400000.0625,-16656.0703125,-400000.0625,-7123.47021484375,-400000.0625
156.97190165519714,-400000.0625,-7844.740234375,-4601.52978515625,-400000.0625,-16699.41015625,-400000.0625,-7183.02978515625,-400000.0625
156.98690342903137,-400000.0625,-7859.56005859375,-4615.1201171875,-400000.0625,-16712.140625,-400000.0625,-7196.85986328125,-400000.0625
156.99406337738037,-400000.0625,-7810.64013671875,-4569.10009765625,-400000.0625,-16670.130859375,-400000.0625,-7150.509765625,-400000.0625
157.00276064872742,-400000.0625,-7766.490234375,-4529.330078125,-400000.0625,-16631.26953125,-400000.0625,-7101.97021484375,-400000.0625
157.01115226745605,-400000.0625,-7787.990234375,-4549.31005859375,-400000.0625,-16651.16015625,-400000.0625,-7120.31982421875,-400000.0625
157.01815581321716,-400000.0625,-7845.68994140625,-4602.52978515625,-400000.0625,-16698.26953125,-400000.0625,-7177.4501953125,-400000.0625
157.02441668510437,-400000.0625,-7863.52001953125,-4617.64013671875,-400000.0625,-16712.0,-400000.0625,-7198.52978515625,-400000.0625
157.03201627731323,-400000.0625,-7812.4501953125,-4571.68017578125,-400000.0625,-16676.48046875,-400000.0625,-7152.7998046875,-400000.0625
157.0412471294403,-400000.0625,-7766.2998046875,-4529.669921875,-400000.0625,-16638.810546875,-400000.0625,-7103.58984375,-400000.0625
157.0495913028717,-400000.0625,-7784.31982421875,-4547.60009765625,-400000.0625,-16652.779296875,-400000.0625,-7124.56982421875,-400000.0625
157.0573811531067,-400000.0625,-7842.10986328125,-4602.47998046875,-400000.0625,-16698.080078125,-400000.0625,-7183.93017578125,-400000.0625
157.06574892997742,-400000.0625,-7857.31982421875,-4615.39990234375,-400000.0625,-16710.189453125,-400000.0625,-7196.0498046875,-400000.0625
157.07469606399536,-400000.0625,-7805.39990234375,-4567.10009765625,-400000.0625,-16664.939453125,-400000.0625,-7142.58984375,-400000.0625
157.08826208114624,-400000.0625,-7766.77001953125,-4529.2900390625,-400000.0625,-16629.939453125,-400000.0625,-7099.009765625,-400000.0625
157.09545612335205,-400000.0625,-7788.7099609375,-4549.169921875,-400000.0625,-16653.16015625,-400000.0625,-7120.93994140625,-400000.0625
157.10515928268433,-400000.0625,-7841.919921875,-4601.9599609375,-400000.0625,-16698.310546875,-400000.0625,-7177.39990234375,-400000.0625
157.11219596862793,-400000.0625,-7854.31982421875,-4614.93017578125,-400000.0625,-16710.7109375,-400000.0625,-7192.14013671875,-400000.0625
157.11892294883728,-400000.0625,-7806.72998046875,-4569.72021484375,-400000.0625,-16669.80078125,-400000.0625,-7143.68994140625,-400000.0625
157.12516260147095,-400000.0625,-7763.9599609375,-4529.56982421875,-400000.0625,-16638.810546875,-400000.0625,-7098.9599609375,-400000.0625
157.13391828536987,-400000.0625,-7783.31982421875,-4548.64990234375,-400000.0625,-16653.30078125,-400000.0625,-7118.419921875,-400000.0625
157.14201498031616,-400000.0625,-7837.14990234375,-4599.0498046875,-400000.0625,-16696.029296875,-400000.0625,-7176.830078125,-400000.0625
157.14982557296753,-400000.0625,-7853.89013671875,-4612.77978515625,-400000.0625,-16707.23046875,-400000.0625,-7188.93994140625,-400000.0625
157.15670228004456,-400000.0625,-7808.97021484375,-4570.2900390625,-400000.0625,-16668.1796875,-400000.0625,-7141.5400390625,-400000.0625
157.16482281684875,-400000.0625,-7764.33984375,-4530.47998046875,-400000.0625,-16634.0390625,-400000.0625,-7098.72021484375,-400000.0625
157.17410016059875,-400000.0625,-7787.1298828125,-4552.4599609375,-400000.0625,-16655.44921875,-400000.0625,-7120.31982421875,-400000.0625
157.18205189704895,-400000.0625,-7844.4501953125,-4605.6298828125,-400000.0625,-16702.3203125,-400000.0625,-7182.97998046875,-400000.0625
157.19645237922668,-400000.0625,-7857.1298828125,-4616.740234375,-400000.0625,-16714.4296875,-400000.0625,-7192.56005859375,-400000.0625
157.2046160697937,-400000.0625,-7808.5400390625,-4570.009765625,-400000.0625,-16672.23046875,-400000.0625,-7140.97021484375,-400000.0625
157.21280717849731,-400000.0625,-7763.10009765625,-4528.330078125,-400000.0625,-16635.609375,-400000.0625,-7098.9599609375,-400000.0625
157.2194151878357,-400000.0625,-7784.1298828125,-4546.740234375,-400000.0625,-16651.779296875,-400000.0625,-7115.080078125,-400000.0625
157.2258701324463,-400000.0625,-7842.68017578125,-4602.14990234375,-400000.0625,-16695.599609375,-400000.0625,-7172.16015625,-400000.0625
157.23586416244507,-400000.0625,-7857.60986328125,-4616.5,-400000.0625,-16703.890625,-400000.0625,-7190.08984375,-400000.0625
157.245037317276,-400000.0625,-7810.06982421875,-4572.580078125,-400000.0625,-16670.560546875,-400000.0625,-7146.1201171875,-400000.0625
157.25205898284912,-400000.0625,-7765.8701171875,-4532.240234375,-400000.0625,-16639.849609375,-400000.0625,-7104.10986328125,-400000.0625
157.25883722305298,-400000.0625,-7786.1298828125,-4552.60009765625,-400000.0625,-16655.0703125,-400000.0625,-7122.22998046875,-400000.0625
157.2704095840454,-400000.0625,-7842.72998046875,-4603.669921875,-400000.0625,-16700.169921875,-400000.0625,-7176.259765625,-400000.0625
157.27862358093262,-400000.0625,-7859.08984375,-4616.35986328125,-400000.0625,-16710.810546875,-400000.0625,-7191.56005859375,-400000.0625
157.28578352928162,-400000.0625,-7805.830078125,-4566.91015625,-400000.0625,-16669.560546875,-400000.0625,-7139.830078125,-400000.0625
157.30168795585632,-400000.0625,-7757.759765625,-4525.18994140625,-400000.0625,-16629.650390625,-400000.0625,-7094.47998046875,-400000.0625
157.3106334209442,-400000.0625,-7781.60009765625,-4545.1201171875,-400000.0625,-16643.48046875,-400000.0625,-7116.64990234375,-400000.0625
157.3184244632721,-400000.0625,-7841.68017578125,-4600.6201171875,-400000.0625,-16700.939453125,-400000.0625,-7175.64013671875,-400000.0625
157.32544898986816,-400000.0625,-7853.27001953125,-4614.16015625,-400000.0625,-16712.759765625,-400000.0625,-7191.52001953125,-400000.0625
157.33687782287598,-400000.0625,-7803.5400390625,-4566.33984375,-400000.0625,-16669.419921875,-400000.0625,-7140.35009765625,-400000.0625
157.34536242485046,-400000.0625,-7761.52978515625,-4523.7998046875,-400000.0625,-16634.80078125,-400000.0625,-7096.39013671875,-400000.0625
157.3523817062378,-400000.0625,-7784.56005859375,-4545.2099609375,-400000.0625,-16653.16015625,-400000.0625,-7119.3701171875,-400000.0625
157.35923504829407,-400000.0625,-7838.6298828125,-4598.52001953125,-400000.0625,-16698.359375,-400000.0625,-7176.4501953125,-400000.0625
157.36869835853577,-400000.0625,-7849.5,-4609.77978515625,-400000.0625,-16705.80078125,-400000.0625,-7187.75,-400000.0625
157.37628173828125,-400000.0625,-7802.009765625,-4565.52978515625,-400000.0625,-16664.509765625,-400000.0625,-7139.72998046875,-400000.0625
157.38348293304443,-400000.0625,-7759.759765625,-4523.85009765625,-400000.0625,-16629.3203125,-400000.0625,-7098.47998046875,-400000.0625
157.39022946357727,-400000.0625,-7781.7900390625,-4547.5,-400000.0625,-16651.060546875,-400000.0625,-7119.0400390625,-400000.0625
157.40717554092407,-400000.0625,-7839.10986328125,-4597.52001953125,-400000.0625,-16697.7890625,-400000.0625,-7174.5400390625,-400000.0625
157.4153425693512,-400000.0625,-7854.1298828125,-4610.2998046875,-400000.0625,-16706.94921875,-400000.0625,-7187.22021484375,-400000.0625
157.42205500602722,-400000.0625,-7802.77001953125,-4563.669921875,-400000.0625,-16668.939453125,-400000.0625,-7137.97021484375,-400000.0625
157.43051171302795,-400000.0625,-7757.7099609375,-4521.990234375,-400000.0625,-16633.080078125,-400000.0625,-7095.669921875,-400000.0625
157.44238424301147,-400000.0625,-7776.259765625,-4539.6298828125,-400000.0625,-16646.33984375,-400000.0625,-7118.509765625,-400000.0625
157.4496624469757,-400000.0625,-7834.52978515625,-4593.9501953125,-400000.0625,-16694.830078125,-400000.0625,-7172.919921875,-400000.0625
157.4560832977295,-400000.0625,-7851.7900390625,-4609.25,-400000.0625,-16706.75,-400000.0625,-7184.7900390625,-400000.0625
157.46267747879028,-400000.0625,-7802.43994140625,-4564.10009765625,-400000.0625,-16666.220703125,-400000.0625,-7137.16015625,-400000.0625
157.47063541412354,-400000.0625,-7756.3798828125,-4523.08984375,-400000.0625,-16631.69921875,-400000.0625,-7093.18994140625,-400000.0625
157.47882747650146,-400000.0625,-7778.4501953125,-4544.35009765625,-400000.0625,-16650.630859375,-400000.0625,-7115.93994140625,-400000.0625
157.48580479621887,-400000.0625,-7832.91015625,-4592.990234375,-400000.0625,-16691.5,-400000.0625,-7175.64013671875,-400000.0625
157.49208331108093,-400000.0625,-7846.7900390625,-4605.6298828125,-400000.0625,-16700.3203125,-400000.0625,-7188.56005859375,-400000.0625
157.50957560539246,-400000.0625,-7801.009765625,-4564.56982421875,-400000.0625,-16667.4609375,-400000.0625,-7141.2998046875,-400000.0625
157.51663994789124,-400000.0625,-7757.85986328125,-4520.22998046875,-400000.0625,-16632.369140625,-400000.0625,-7098.2001953125,-400000.0625
157.52322030067444,-400000.0625,-7778.259765625,-4542.16015625,-400000.0625,-16649.76953125,-400000.0625,-7119.60986328125,-400000.0625
157.5322721004486,-400000.0625,-7835.009765625,-4598.240234375,-400000.0625,-16694.310546875,-400000.0625,-7177.259765625,-400000.0625
157.5495388507843,-400000.0625,-7853.4599609375,-4613.2099609375,-400000.0625,-16706.419921875,-400000.0625,-7193.08984375,-400000.0625
157.5572793483734,-400000.0625,-7808.919921875,-4567.47998046875,-400000.0625,-16672.369140625,-400000.0625,-7144.5,-400000.0625
157.56652569770813,-400000.0625,-7763.580078125,-4531.0498046875,-400000.0625,-16639.140625,-400000.0625,-7102.2001953125,-400000.0625
157.5748369693756,-400000.0625,-7787.56005859375,-4552.75,-400000.0625,-16655.689453125,-400000.0625,-7128.14013671875,-400000.0625
157.58196711540222,-400000.0625,-7844.259765625,-4603.2001953125,-400000.0625,-16696.9296875,-400000.0625,-7185.080078125,-400000.0625
157.58866810798645,-400000.0625,-7855.990234375,-4616.5,-400000.0625,-16705.3203125,-400000.0625,-7198.2900390625,-400000.0625
157.59637880325317,-400000.0625,-7802.77001953125,-4568.6298828125,-400000.0625,-16663.41015625,-400000.0625,-7147.740234375,-400000.0625
157.61301493644714,-400000.0625,-7761.52978515625,-4528.7099609375,-400000.0625,-16632.509765625,-400000.0625,-7106.58984375,-400000.0625
157.62026500701904,-400000.0625,-7780.509765625,-4548.83984375,-400000.0625,-16651.390625,-400000.0625,-7126.47998046875,-400000.0625
157.6275234222412,-400000.0625,-7838.39013671875,-4603.580078125,-400000.0625,-16695.41015625,-400000.0625,-7185.27001953125,-400000.0625
157.64026594161987,-400000.0625,-7856.509765625,-4618.259765625,-400000.0625,-16711.48046875,-400000.0625,-7198.91015625,-400000.0625
157.64757180213928,-400000.0625,-7807.2998046875,-4572.2001953125,-400000.0625,-16672.759765625,-400000.0625,-7151.1298828125,-400000.0625
157.65421628952026,-400000.0625,-7764.0498046875,-4531.43017578125,-400000.0625,-16633.130859375,-400000.0625,-7105.77978515625,-400000.0625
157.66039633750916,-400000.0625,-7786.22998046875,-4552.41015625,-400000.0625,-16648.33984375,-400000.0625,-7127.3798828125,-400000.0625
157.67010498046875,-400000.0625,-7840.5400390625,-4603.10009765625,-400000.0625,-16691.16015625,-400000.0625,-7184.89013671875,-400000.0625
157.67801094055176,-400000.0625,-7852.02978515625,-4616.1201171875,-400000.0625,-16704.66015625,-400000.0625,-7196.759765625,-400000.0625
157.68584728240967,-400000.0625,-7799.91015625,-4567.9599609375,-400000.0625,-16665.650390625,-400000.0625,-7153.64990234375,-400000.0625
157.69213032722473,-400000.0625,-7759.18994140625,-4529.2900390625,-400000.0625,-16630.509765625,-400000.0625,-7107.68994140625,-400000.0625
157.70108222961426,-400000.0625,-7782.93994140625,-4549.4599609375,-400000.0625,-16650.25,-400000.0625,-7129.0498046875,-400000.0625
157.71573686599731,-400000.0625,-7838.81982421875,-4604.85986328125,-400000.0625,-16702.369140625,-400000.0625,-7185.1298828125,-400000.0625
157.72218585014343,-400000.0625,-7850.7001953125,-4616.5,-400000.0625,-16708.470703125,-400000.0625,-7194.0,-400000.0625
157.72912073135376,-400000.0625,-7801.009765625,-4570.2001953125,-400000.0625,-16667.130859375,-400000.0625,-7142.35009765625,-400000.0625
157.74019122123718,-400000.0625,-7760.14013671875,-4528.81005859375,-400000.0625,-16630.029296875,-400000.0625,-7099.2998046875,-400000.0625
157.74820351600647,-400000.0625,-7781.31982421875,-4546.97998046875,-400000.0625,-16647.150390625,-400000.0625,-7123.0400390625,-400000.0625
157.7549810409546,-400000.0625,-7838.009765625,-4599.91015625,-400000.0625,-16695.55078125,-400000.0625,-7183.5,-400000.0625
157.76228761672974,-400000.0625,-7851.22021484375,-4611.58984375,-400000.0625,-16706.900390625,-400000.0625,-7196.0,-400000.0625
157.77101850509644,-400000.0625,-7798.85986328125,-4563.18994140625,-400000.0625,-16667.609375,-400000.0625,-7144.830078125,-400000.0625
157.77851557731628,-400000.0625,-7755.9501953125,-4521.66015625,-400000.0625,-16631.890625,-400000.0625,-7099.6298828125,-400000.0625
157.78561282157898,-400000.0625,-7781.740234375,-4546.259765625,-400000.0625,-16650.5390625,-400000.0625,-7122.85009765625,-400000.0625
157.79231667518616,-400000.0625,-7837.580078125,-4600.18994140625,-400000.0625,-16695.689453125,-400000.0625,-7180.5,-400000.0625
157.8001708984375,-400000.0625,-7850.93017578125,-4611.72998046875,-400000.0625,-16706.990234375,-400000.0625,-7195.81005859375,-400000.0625
157.8083553314209,-400000.0625,-7802.81982421875,-4563.6201171875,-400000.0625,-16662.650390625,-400000.0625,-7143.06982421875,-400000.0625
157.82170510292053,-400000.0625,-7760.0,-4524.85009765625,-400000.0625,-16630.83984375,-400000.0625,-7099.490234375,-400000.0625
157.82910013198853,-400000.0625,-7785.85009765625,-4548.93017578125,-400000.0625,-16653.58984375,-400000.0625,-7124.330078125,-400000.0625
157.8377947807312,-400000.0625,-7843.830078125,-4604.39013671875,-400000.0625,-16700.4609375,-400000.0625,-7182.5498046875,-400000.0625
157.84505128860474,-400000.0625,-7857.27978515625,-4616.4501953125,-400000.0625,-16711.4296875,-400000.0625,-7194.6201171875,-400000.0625
157.85196328163147,-400000.0625,-7804.5400390625,-4566.0498046875,-400000.0625,-16665.26953125,-400000.0625,-7146.169921875,-400000.0625
157.85850071907043,-400000.0625,-7759.47998046875,-4523.22998046875,-400000.0625,-16630.599609375,-400000.0625,-7103.06005859375,-400000.0625
157.8662679195404,-400000.0625,-7786.31982421875,-4548.740234375,-400000.0625,-16653.970703125,-400000.0625,-7128.0498046875,-400000.0625
157.87409043312073,-400000.0625,-7841.77978515625,-4601.2900390625,-400000.0625,-16697.599609375,-400000.0625,-7186.509765625,-400000.0625
157.88127183914185,-400000.0625,-7854.56005859375,-4612.77978515625,-400000.0625,-16706.1796875,-400000.0625,-7197.14013671875,-400000.0625
157.8882019519806,-400000.0625,-7807.58984375,-4568.14990234375,-400000.0625,-16666.650390625,-400000.0625,-7146.97998046875,-400000.0625
157.89524173736572,-400000.0625,-7765.14990234375,-4527.9501953125,-400000.0625,-16632.69921875,-400000.0625,-7104.02001953125,-400000.0625
157.90631890296936,-400000.0625,-7784.080078125,-4547.7900390625,-400000.0625,-16650.5390625,-400000.0625,-7130.47998046875,-400000.0625
157.9144332408905,-400000.0625,-7840.490234375,-4600.240234375,-400000.0625,-16695.83984375,-400000.0625,-7188.4599609375,-400000.0625
157.93307518959045,-400000.0625,-7851.169921875,-4610.39990234375,-400000.0625,-16707.369140625,-400000.0625,-7199.56982421875,-400000.0625
157.94202637672424,-400000.0625,-7802.919921875,-4564.3798828125,-400000.0625,-16665.83984375,-400000.0625,-7148.60009765625,-400000.0625
157.94990396499634,-400000.0625,-7761.91015625,-4525.52001953125,-400000.0625,-16633.75,-400000.0625,-7103.97021484375,-400000.0625
157.95678448677063,-400000.0625,-7785.3701171875,-4549.93017578125,-400000.0625,-16649.490234375,-400000.0625,-7129.0,-400000.0625
157.9657666683197,-400000.0625,-7848.60009765625,-4610.35009765625,-400000.0625,-16706.990234375,-400000.0625,-7189.85009765625,-400000.0625
157.9769697189331,-400000.0625,-7865.2900390625,-4622.22021484375,-400000.0625,-16717.9609375,-400000.0625,-7201.6201171875,-400000.0625
157.98500275611877,-400000.0625,-7815.5498046875,-4572.919921875,-400000.0625,-16673.849609375,-400000.0625,-7145.740234375,-400000.0625
157.99165654182434,-400000.0625,-7766.25,-4530.52978515625,-400000.0625,-16635.23046875,-400000.0625,-7102.5400390625,-400000.0625
158.0029101371765,-400000.0625,-7787.18017578125,-4549.22021484375,-400000.0625,-16651.5390625,-400000.0625,-7127.0,-400000.0625
158.0102276802063,-400000.0625,-7841.830078125,-4601.47998046875,-400000.0625,-16695.599609375,-400000.0625,-7184.080078125,-400000.0625
158.0176248550415,-400000.0625,-7851.740234375,-4613.830078125,-400000.0625,-16706.470703125,-400000.0625,-7193.85009765625,-400000.0625
158.03033328056335,-400000.0625,-7804.10986328125,-4565.9501953125,-400000.0625,-16662.41015625,-400000.0625,-7145.97998046875,-400000.0625
158.0407910346985,-400000.0625,-7765.6298828125,-4526.9501953125,-400000.0625,-16631.80078125,-400000.0625,-7105.8798828125,-400000.0625
158.04865503311157,-400000.0625,-7789.3701171875,-4551.4599609375,-400000.0625,-16657.58984375,-400000.0625,-7128.669921875,-400000.0625
158.05562663078308,-400000.0625,-7843.2998046875,-4604.2900390625,-400000.0625,-16700.990234375,-400000.0625,-7187.31982421875,-400000.0625
158.06281685829163,-400000.0625,-7854.83984375,-4612.8798828125,-400000.0625,-16710.94921875,-400000.0625,-7195.89990234375,-400000.0625
158.07122802734375,-400000.0625,-7806.72998046875,-4567.72021484375,-400000.0625,-16668.849609375,-400000.0625,-7143.5498046875,-400000.0625
158.07830047607422,-400000.0625,-7760.6201171875,-4524.759765625,-400000.0625,-16629.98046875,-400000.0625,-7102.10986328125,-400000.0625
158.08506059646606,-400000.0625,-7781.22021484375,-4543.4501953125,-400000.0625,-16649.109375,-400000.0625,-7124.7099609375,-400000.0625
158.09143924713135,-400000.0625,-7838.919921875,-4597.9501953125,-400000.0625,-16696.169921875,-400000.0625,-7179.1201171875,-400000.0625
158.1015784740448,-400000.0625,-7849.97998046875,-4609.009765625,-400000.0625,-16704.279296875,-400000.0625,-7189.7001953125,-400000.0625
158.1105260848999,-400000.0625,-7801.10009765625,-4561.89990234375,-400000.0625,-16662.890625,-400000.0625,-7141.64013671875,-400000.0625
158.1173815727234,-400000.0625,-7762.52978515625,-4526.66015625,-400000.0625,-16636.330078125,-400000.0625,-7101.35009765625,-400000.0625
158.12382078170776,-400000.0625,-7789.47021484375,-4552.02978515625,-400000.0625,-16660.01953125,-400000.0625,-7127.43017578125,-400000.0625
158.1407163143158,-400000.0625,-7844.5,-4603.669921875,-400000.0625,-16703.23046875,-400000.0625,-7182.5498046875,-400000.0625
158.14864420890808,-400000.0625,-7851.080078125,-4611.16015625,-400000.0625,-16710.140625,-400000.0625,-7192.9501953125,-400000.0625
158.1557583808899,-400000.0625,-7800.2900390625,-4561.52001953125,-400000.0625,-16665.509765625,-400000.0625,-7139.02001953125,-400000.0625
158.16402864456177,-400000.0625,-7762.0,-4522.22998046875,-400000.0625,-16630.369140625,-400000.0625,-7093.14013671875,-400000.0625
158.17619585990906,-400000.0625,-7784.60986328125,-4544.77978515625,-400000.0625,-16652.16015625,-400000.0625,-7117.080078125,-400000.0625
158.18349075317383,-400000.0625,-7841.06005859375,-4600.240234375,-400000.0625,-16699.75,-400000.0625,-7176.4501953125,-400000.0625
158.1905689239502,-400000.0625,-7853.3701171875,-4612.259765625,-400000.0625,-16708.849609375,-400000.0625,-7191.89990234375,-400000.0625
158.20074105262756,-400000.0625,-7804.68017578125,-4565.240234375,-400000.0625,-16675.189453125,-400000.0625,-7144.259765625,-400000.0625
158.20971274375916,-400000.0625,-7760.56982421875,-4523.22998046875,-400000.0625,-16642.0,-400000.0625,-7100.72998046875,-400000.0625
158.21768712997437,-400000.0625,-7783.7001953125,-4546.93017578125,-400000.0625,-16656.73046875,-400000.0625,-7125.18994140625,-400000.0625
158.22426390647888,-400000.0625,-7845.740234375,-4602.91015625,-400000.0625,-16703.75,-400000.0625,-7182.60009765625,-400000.0625
158.2399399280548,-400000.0625,-7855.89013671875,-4612.8798828125,-400000.0625,-16710.859375,-400000.0625,-7192.60986328125,-400000.0625
158.24692749977112,-400000.0625,-7805.16015625,-4566.240234375,-400000.0625,-16669.69921875,-400000.0625,-7140.97021484375,-400000.0625
158.25369119644165,-400000.0625,-7764.81982421875,-4526.81005859375,-400000.0625,-16637.279296875,-400000.0625,-7097.33984375,-400000.0625
158.2598955631256,-400000.0625,-7792.759765625,-4550.02978515625,-400000.0625,-16660.599609375,-400000.0625,-7124.759765625,-400000.0625
158.26717448234558,-400000.0625,-7848.93017578125,-4605.25,-400000.0625,-16706.990234375,-400000.0625,-7182.93017578125,-400000.0625
158.27431678771973,-400000.0625,-7858.1298828125,-4613.77978515625,-400000.0625,-16711.0,-400000.0625,-7191.47021484375,-400000.0625
158.2813332080841,-400000.0625,-7804.68017578125,-4563.89990234375,-400000.0625,-16669.080078125,-400000.0625,-7142.1201171875,-400000.0625
158.28784608840942,-400000.0625,-7760.56982421875,-4522.60986328125,-400000.0625,-16635.23046875,-400000.0625,-7098.14990234375,-400000.0625
158.29469871520996,-400000.0625,-7785.18017578125,-4544.39990234375,-400000.0625,-16651.349609375,-400000.0625,-7121.22998046875,-400000.0625
158.30271744728088,-400000.0625,-7841.5400390625,-4596.419921875,-400000.0625,-16696.740234375,-400000.0625,-7176.35009765625,-400000.0625
158.31194233894348,-400000.0625,-7851.93994140625,-4607.14990234375,-400000.0625,-16708.94921875,-400000.0625,-7187.75,-400000.0625
158.31889581680298,-400000.0625,-7803.2001953125,-4558.75,-400000.0625,-16668.609375,-400000.0625,-7135.2001953125,-400000.0625
158.32491493225098,-400000.0625,-7762.9599609375,-4523.22998046875,-400000.0625,-16636.470703125,-400000.0625,-7093.85986328125,-400000.0625
158.3438959121704,-400000.0625,-7792.43017578125,-4549.83984375,-400000.0625,-16657.779296875,-400000.0625,-7120.08984375,-400000.0625
158.35086178779602,-400000.0625,-7847.97998046875,-4602.43017578125,-400000.0625,-16703.23046875,-400000.0625,-7173.35009765625,-400000.0625
158.35723900794983,-400000.0625,-7854.75,-4611.830078125,-400000.0625,-16709.380859375,-400000.0625,-7187.1298828125,-400000.0625
158.36628937721252,-400000.0625,-7805.06005859375,-4563.52001953125,-400000.0625,-16667.029296875,-400000.0625,-7136.2001953125,-400000.0625
158.37432718276978,-400000.0625,-7762.85986328125,-4522.7998046875,-400000.0625,-16633.80078125,-400000.0625,-7094.0,-400000.0625
158.38257503509521,-400000.0625,-7787.7099609375,-4545.02001953125,-400000.0625,-16652.060546875,-400000.0625,-7122.08984375,-400000.0625
158.3890519142151,-400000.0625,-7844.35009765625,-4600.330078125,-400000.0625,-16699.890625,-400000.0625,-7180.259765625,-400000.0625
158.39597344398499,-400000.0625,-7853.3701171875,-4608.77001953125,-400000.0625,-16711.810546875,-400000.0625,-7192.0400390625,-400000.0625
158.40461540222168,-400000.0625,-7807.2099609375,-4566.0,-400000.0625,-16673.759765625,-400000.0625,-7141.39990234375,-400000.0625
158.41211032867432,-400000.0625,-7767.6298828125,-4525.7099609375,-400000.0625,-16637.900390625,-400000.0625,-7098.6298828125,-400000.0625
158.41973567008972,-400000.0625,-7788.9501953125,-4549.1201171875,-400000.0625,-16655.01953125,-400000.0625,-7124.7099609375,-400000.0625
158.42655062675476,-400000.0625,-7843.5,-4600.240234375,-400000.0625,-16699.890625,-400000.0625,-7181.06982421875,-400000.0625
158.4405176639557,-400000.0625,-7853.31982421875,-4609.2998046875,-400000.0625,-16708.759765625,-400000.0625,-7191.7099609375,-400000.0625
158.44714641571045,-400000.0625,-7805.77978515625,-4564.14013671875,-400000.0625,-16667.890625,-400000.0625,-7141.35009765625,-400000.0625
158.45361948013306,-400000.0625,-7760.56982421875,-4519.3701171875,-400000.0625,-16631.26953125,-400000.0625,-7101.16015625,-400000.0625
158.45965433120728,-400000.0625,-7788.08984375,-4547.06982421875,-400000.0625,-16655.490234375,-400000.0625,-7128.240234375,-400000.0625
158.46749472618103,-400000.0625,-7847.1201171875,-4600.81005859375,-400000.0625,-16701.939453125,-400000.0625,-7181.259765625,-400000.0625
158.47523760795593,-400000.0625,-7853.3701171875,-4606.919921875,-400000.0625,-16709.140625,-400000.0625,-7192.08984375,-400000.0625
158.48207449913025,-400000.0625,-7804.06005859375,-4560.66015625,-400000.0625,-16666.75,-400000.0625,-7140.4501953125,-400000.0625
158.48872709274292,-400000.0625,-7759.91015625,-4520.18017578125,-400000.0625,-16634.1796875,-400000.0625,-7099.9599609375,-400000.0625
158.49575185775757,-400000.0625,-7780.83984375,-4539.43994140625,-400000.0625,-16650.73046875,-400000.0625,-7124.56982421875,-400000.0625
158.5054874420166,-400000.0625,-7841.8701171875,-4595.47021484375,-400000.0625,-16695.41015625,-400000.0625,-7178.77978515625,-400000.0625
158.51293325424194,-400000.0625,-7854.509765625,-4608.10986328125,-400000.0625,-16707.7109375,-400000.0625,-7190.56005859375,-400000.0625
158.52235865592957,-400000.0625,-7801.77001953125,-4557.419921875,-400000.0625,-16664.7890625,-400000.0625,-7141.919921875,-400000.0625
158.52880263328552,-400000.0625,-7760.240234375,-4518.1298828125,-400000.0625,-16635.75,-400000.0625,-7103.2998046875,-400000.0625
158.55129957199097,-400000.0625,-7786.27001953125,-4541.64013671875,-400000.0625,-16653.400390625,-400000.0625,-7126.759765625,-400000.0625
158.5583324432373,-400000.0625,-7841.02001953125,-4592.3701171875,-400000.0625,-16699.55078125,-400000.0625,-7183.22021484375,-400000.0625
158.56798195838928,-400000.0625,-7852.75,-4601.56982421875,-400000.0625,-16706.80078125,-400000.0625,-7191.08984375,-400000.0625
158.57574462890625,-400000.0625,-7799.43994140625,-4554.56005859375,-400000.0625,-16664.509765625,-400000.0625,-7140.830078125,-400000.0625
158.58584547042847,-400000.0625,-7754.759765625,-4510.5,-400000.0625,-16628.359375,-400000.0625,-7096.85986328125,-400000.0625
158.59221959114075,-400000.0625,-7778.35986328125,-4531.240234375,-400000.0625,-16646.580078125,-400000.0625,-7121.75,-400000.0625
158.6012532711029,-400000.0625,-7841.64013671875,-4588.64990234375,-400000.0625,-16696.310546875,-400000.0625,-7180.97998046875,-400000.0625
158.60848546028137,-400000.0625,-7852.60009765625,-4602.6201171875,-400000.0625,-16704.0390625,-400000.0625,-7190.93994140625,-400000.0625
158.61572766304016,-400000.0625,-7798.6201171875,-4552.89013671875,-400000.0625,-16666.939453125,-400000.0625,-7139.06005859375,-400000.0625
158.6223452091217,-400000.0625,-7755.3798828125,-4512.64013671875,-400000.0625,-16633.1796875,-400000.0625,-7094.47998046875,-400000.0625
158.62925577163696,-400000.0625,-7779.4599609375,-4536.52978515625,-400000.0625,-16650.6796875,-400000.0625,-7118.93994140625,-400000.0625
158.6434862613678,-400000.0625,-7837.81982421875,-4592.1298828125,-400000.0625,-16694.98046875,-400000.0625,-7174.8701171875,-400000.0625
158.65029001235962,-400000.0625,-7849.06982421875,-4599.6201171875,-400000.0625,-16704.130859375,-400000.0625,-7184.93994140625,-400000.0625
158.65684747695923,-400000.0625,-7799.10009765625,-4549.7900390625,-400000.0625,-16662.7890625,-400000.0625,-7132.6298828125,-400000.0625
158.6641607284546,-400000.0625,-7760.2900390625,-4513.60009765625,-400000.0625,-16629.169921875,-400000.0625,-7089.52001953125,-400000.0625
158.67189717292786,-400000.0625,-7784.31982421875,-4535.2900390625,-400000.0625,-16649.25,-400000.0625,-7119.7998046875,-400000.0625
158.67882657051086,-400000.0625,-7841.64013671875,-4592.22998046875,-400000.0625,-16699.41015625,-400000.0625,-7179.06982421875,-400000.0625
158.68559980392456,-400000.0625,-7852.080078125,-4602.47998046875,-400000.0625,-16707.23046875,-400000.0625,-7186.7001953125,-400000.0625
158.69207239151,-400000.0625,-7799.669921875,-4553.64990234375,-400000.0625,-16662.83984375,-400000.0625,-7131.85986328125,-400000.0625
158.6997947692871,-400000.0625,-7756.89990234375,-4512.5,-400000.0625,-16631.130859375,-400000.0625,-7095.43017578125,-400000.0625
158.70958733558655,-400000.0625,-7782.1298828125,-4535.39013671875,-400000.0625,-16650.490234375,-400000.0625,-7119.7998046875,-400000.0625
158.71745109558105,-400000.0625,-7841.39990234375,-4591.7998046875,-400000.0625,-16701.41015625,-400000.0625,-7174.16015625,-400000.0625
158.72553753852844,-400000.0625,-7851.31982421875,-4602.39013671875,-400000.0625,-16708.140625,-400000.0625,-7187.22021484375,-400000.0625
158.73347353935242,-400000.0625,-7801.6298828125,-4553.83984375,-400000.0625,-16664.26953125,-400000.0625,-7135.43994140625,-400000.0625
158.74834275245667,-400000.0625,-7757.0400390625,-4472.35009765625,-400000.0625,-16581.25,-400000.0625,-7065.8701171875,-400000.0625
158.74837279319763,-400000.0625,-7801.14990234375,-4512.60009765625,-400000.0625,-16611.48046875,-400000.0625,-7110.41015625,-400000.0625
158.74838066101074,-400000.0625,-7849.31005859375,-4558.52001953125,-400000.0625,-16662.26953125,-400000.0625,-7161.27978515625,-400000.0625
158.74838852882385,-400000.0625,-7841.39990234375,-4551.27001953125,-400000.0625,-16651.73046875,-400000.0625,-7152.18017578125,-400000.0625
158.74839663505554,-400000.0625,-7787.27978515625,-4497.18994140625,-400000.0625,-16605.859375,-400000.0625,-7095.52978515625,-400000.0625
158.7484049797058,-400000.0625,-7758.330078125,-4470.2998046875,-400000.0625,-16586.779296875,-400000.0625,-7067.77978515625,-400000.0625
158.74841284751892,-400000.0625,-7797.77001953125,-4508.93017578125,-400000.0625,-16618.919921875,-400000.0625,-7110.06982421875,-400000.0625
158.74841952323914,-400000.0625,-7854.080078125,-4558.27978515625,-400000.0625,-16661.119140625,-400000.0625,-7162.2900390625,-400000.0625
158.74842739105225,-400000.0625,-7839.97021484375,-4547.169921875,-400000.0625,-16649.19921875,-400000.0625,-7154.75,-400000.0625
158.74843502044678,-400000.0625,-7781.27001953125,-4493.47998046875,-400000.0625,-16599.470703125,-400000.0625,-7093.56982421875,-400000.0625
158.7484426498413,-400000.0625,-7750.1298828125,-4464.43994140625,-400000.0625,-16575.76953125,-400000.0625,-7064.919921875,-400000.0625
158.748450756073,-400000.0625,-7790.419921875,-4500.10009765625,-400000.0625,-16610.9609375,-400000.0625,-7106.97021484375,-400000.0625
158.74845695495605,-400000.0625,-7845.06982421875,-4550.1201171875,-400000.0625,-16654.30078125,-400000.0625,-7159.759765625,-400000.0625
158.74846291542053,-400000.0625,-7840.97021484375,-4544.35009765625,-400000.0625,-16648.720703125,-400000.0625,-7150.169921875,-400000.0625
158.74846816062927,-400000.0625,-7782.75,-4490.66015625,-400000.0625,-16604.08984375,-400000.0625,-7093.85986328125,-400000.0625
158.748473405838,-400000.0625,-7754.759765625,-4465.06005859375,-400000.0625,-16581.16015625,-400000.0625,-7067.97021484375,-400000.0625
158.7484791278839,-400000.0625,-7797.2900390625,-4505.490234375,-400000.0625,-16612.76953125,-400000.0625,-7107.2099609375,-400000.0625
158.7484850883484,-400000.0625,-7849.5,-4556.31982421875,-400000.0625,-16651.6796875,-400000.0625,-7160.56982421875,-400000.0625
158.74849033355713,-400000.0625,-7842.72998046875,-4548.97998046875,-400000.0625,-16646.720703125,-400000.0625,-7152.83984375,-400000.0625
158.7484953403473,-400000.0625,-7782.27001953125,-4494.43017578125,-400000.0625,-16602.380859375,-400000.0625,-7094.81005859375,-400000.0625
158.74850034713745,-400000.0625,-7757.27978515625,-4469.81982421875,-400000.0625,-16583.01953125,-400000.0625,-7068.25,-400000.0625
158.75210189819336,-400000.0625,-7830.240234375,-4548.68994140625,-400000.0625,-16642.0,-400000.0625,-7152.75,-400000.0625
158.7521255016327,-400000.0625,-7875.16015625,-4592.990234375,-400000.0625,-16681.240234375,-400000.0625,-7201.0,-400000.0625
158.75213837623596,-400000.0625,-7858.47021484375,-4577.68017578125,-400000.0625,-16668.1796875,-400000.0625,-7184.93994140625,-400000.0625
158.75215029716492,-400000.0625,-7802.81982421875,-4524.52001953125,-400000.0625,-16618.73046875,-400000.0625,-7127.47998046875,-400000.0625
158.7521619796753,-400000.0625,-7783.22021484375,-4506.4501953125,-400000.0625,-16601.80078125,-400000.0625,-7108.68994140625,-400000.0625
158.75217390060425,-400000.0625,-7827.81005859375,-4546.830078125,-400000.0625,-16639.51953125,-400000.0625,-7156.0400390625,-400000.0625
158.75218558311462,-400000.0625,-7875.6298828125,-4591.31982421875,-400000.0625,-16675.810546875,-400000.0625,-7201.580078125,-400000.0625
158.75219678878784,-400000.0625,-7864.330078125,-4581.97998046875,-400000.0625,-16667.3203125,-400000.0625,-7189.1298828125,-400000.0625
158.75220847129822,-400000.0625,-7810.8798828125,-4530.18994140625,-400000.0625,-16623.119140625,-400000.0625,-7134.68017578125,-400000.0625
158.75221967697144,-400000.0625,-7791.81005859375,-4510.5,-400000.0625,-16604.849609375,-400000.0625,-7110.68994140625,-400000.0625
158.7522315979004,-400000.0625,-7829.3798828125,-4548.5498046875,-400000.0625,-16635.369140625,-400000.0625,-7157.08984375,-400000.0625
158.75224375724792,-400000.0625,-7876.2099609375,-4590.7001953125,-400000.0625,-16678.48046875,-400000.0625,-7206.009765625,-400000.0625
158.75225639343262,-400000.0625,-7860.3798828125,-4575.68017578125,-400000.0625,-16664.83984375,-400000.0625,-7190.31982421875,-400000.0625
158.75226855278015,-400000.0625,-7799.2001953125,-4518.18017578125,-400000.0625,-16613.2890625,-400000.0625,-7134.43994140625,-400000.0625
158.75228071212769,-400000.0625,-7782.89013671875,-4499.009765625,-400000.0625,-16599.080078125,-400000.0625,-7115.27001953125,-400000.0625
158.75229263305664,-400000.0625,-7828.52001953125,-4545.259765625,-400000.0625,-16639.5703125,-400000.0625,-7159.419921875,-400000.0625
158.75230431556702,-400000.0625,-7872.8701171875,-4589.990234375,-400000.0625,-16676.279296875,-400000.0625,-7204.52978515625,-400000.0625
158.7523159980774,-400000.0625,-7859.9501953125,-4576.77978515625,-400000.0625,-16662.080078125,-400000.0625,-7188.7998046875,-400000.0625
158.75232768058777,-400000.0625,-7798.33984375,-4520.75,-400000.0625,-16618.439453125,-400000.0625,-7128.18994140625,-400000.0625
158.75233912467957,-400000.0625,-7780.31005859375,-4502.580078125,-400000.0625,-16607.4296875,-400000.0625,-7109.8798828125,-400000.0625
158.75235056877136,-400000.0625,-7824.14013671875,-4545.35986328125,-400000.0625,-16638.51953125,-400000.0625,-7152.83984375,-400000.0625
158.75236177444458,-400000.0625,-7868.9599609375,-4587.83984375,-400000.0625,-16674.0390625,-400000.0625,-7199.33984375,-400000.0625
158.75237345695496,-400000.0625,-7854.4599609375,-4574.06005859375,-400000.0625,-16665.26953125,-400000.0625,-7183.41015625,-400000.0625
158.75238490104675,-400000.0625,-7797.39013671875,-4520.22998046875,-400000.0625,-16615.580078125,-400000.0625,-7125.89990234375,-400000.0625
158.75239610671997,-400000.0625,-7775.259765625,-4500.9599609375,-400000.0625,-16597.75,-400000.0625,-7107.58984375,-400000.0625
158.7524070739746,-400000.0625,-7823.52001953125,-4545.64013671875,-400000.0625,-16639.189453125,-400000.0625,-7154.18017578125,-400000.0625
158.752423286438,-400000.0625,-7875.16015625,-4593.60986328125,-400000.0625,-16682.529296875,-400000.0625,-7196.0498046875,-400000.0625
158.75243473052979,-400000.0625,-7856.27001953125,-4577.02001953125,-400000.0625,-16665.75,-400000.0625,-7179.830078125,-400000.0625
158.75244569778442,-400000.0625,-7796.77001953125,-4519.18017578125,-400000.0625,-16611.859375,-400000.0625,-7122.9501953125,-400000.0625
158.75245690345764,-400000.0625,-7782.22021484375,-4504.25,-400000.0625,-16601.849609375,-400000.0625,-7104.4501953125,-400000.0625
158.75246834754944,-400000.0625,-7827.240234375,-4546.64013671875,-400000.0625,-16638.810546875,-400000.0625,-7153.31982421875,-400000.0625
158.7524790763855,-400000.0625,-7870.77001953125,-4589.7998046875,-400000.0625,-16675.810546875,-400000.0625,-7197.759765625,-400000.0625
158.75249028205872,-400000.0625,-7858.22998046875,-4574.8701171875,-400000.0625,-16665.130859375,-400000.0625,-7181.740234375,-400000.0625
158.75250148773193,-400000.0625,-7799.85986328125,-4520.93994140625,-400000.0625,-16618.779296875,-400000.0625,-7126.3798828125,-400000.0625
158.75251245498657,-400000.0625,-7775.259765625,-4503.25,-400000.0625,-16598.470703125,-400000.0625,-7106.72998046875,-400000.0625
158.75252389907837,-400000.0625,-7822.47021484375,-4543.5,-400000.0625,-16634.509765625,-400000.0625,-7147.27001953125,-400000.0625
158.75253534317017,-400000.0625,-7872.14990234375,-4588.3701171875,-400000.0625,-16675.240234375,-400000.0625,-7200.2900390625,-400000.0625
158.7525463104248,-400000.0625,-7858.990234375,-4576.06005859375,-400000.0625,-16661.9296875,-400000.0625,-7186.60009765625,-400000.0625
158.75255751609802,-400000.0625,-7801.14990234375,-4522.66015625,-400000.0625,-16617.630859375,-400000.0625,-7127.0,-400000.0625
158.75256872177124,-400000.0625,-7783.83984375,-4504.72998046875,-400000.0625,-16608.099609375,-400000.0625,-7110.02001953125,-400000.0625
158.75257968902588,-400000.0625,-7825.7099609375,-4546.93017578125,-400000.0625,-16641.330078125,-400000.0625,-7154.47021484375,-400000.0625
158.75259113311768,-400000.0625,-7875.68017578125,-4592.22998046875,-400000.0625,-16678.240234375,-400000.0625,-7201.33984375,-400000.0625
158.7526023387909,-400000.0625,-7858.419921875,-4574.97021484375,-400000.0625,-16659.400390625,-400000.0625,-7183.4599609375,-400000.0625
158.7526137828827,-400000.0625,-7799.14990234375,-4521.89013671875,-400000.0625,-16612.869140625,-400000.0625,-7126.18994140625,-400000.0625
158.75262475013733,-400000.0625,-7784.7998046875,-4507.490234375,-400000.0625,-16603.279296875,-400000.0625,-7110.259765625,-400000.0625
158.75263619422913,-400000.0625,-7830.759765625,-4548.02978515625,-400000.0625,-16640.05078125,-400000.0625,-7154.509765625,-400000.0625
158.75264763832092,-400000.0625,-7875.68017578125,-4592.419921875,-400000.0625,-16675.900390625,-400000.0625,-7200.3798828125,-400000.0625
158.75266075134277,-400000.0625,-7858.93994140625,-4578.830078125,-400000.0625,-16663.029296875,-400000.0625,-7185.7900390625,-400000.0625
158.7526731491089,-400000.0625,-7800.6298828125,-4524.66015625,-400000.0625,-16615.919921875,-400000.0625,-7129.0498046875,-400000.0625
158.75268578529358,-400000.0625,-7782.27001953125,-4505.35009765625,-400000.0625,-16601.23046875,-400000.0625,-7112.1201171875,-400000.0625
158.752699136734,-400000.0625,-7831.72021484375,-4549.1201171875,-400000.0625,-16640.240234375,-400000.0625,-7160.9501953125,-400000.0625
158.75271201133728,-400000.0625,-7878.5,-4593.330078125,-400000.0625,-16680.4296875,-400000.0625,-7205.81982421875,-400000.0625
158.75272488594055,-400000.0625,-7861.27978515625,-4576.97021484375,-400000.0625,-16664.7890625,-400000.0625,-7186.080078125,-400000.0625
158.7527370452881,-400000.0625,-7803.8701171875,-4521.66015625,-400000.0625,-16617.30078125,-400000.0625,-7129.77001953125,-400000.0625
158.75274872779846,-400000.0625,-7784.419921875,-4504.35009765625,-400000.0625,-16602.380859375,-400000.0625,-7115.22021484375,-400000.0625
158.75275993347168,-400000.0625,-7827.7099609375,-4544.259765625,-400000.0625,-16637.0390625,-400000.0625,-7160.6201171875,-400000.0625
158.75277090072632,-400000.0625,-7872.06005859375,-4585.080078125,-400000.0625,-16670.279296875,-400000.0625,-7199.18994140625,-400000.0625
158.75278162956238,-400000.0625,-7853.4599609375,-4568.2001953125,-400000.0625,-16657.0703125,-400000.0625,-7186.56005859375,-400000.0625
158.7527928352356,-400000.0625,-7795.759765625,-4518.080078125,-400000.0625,-16618.01953125,-400000.0625,-7135.68017578125,-400000.0625
158.75280356407166,-400000.0625,-7785.18017578125,-4505.2998046875,-400000.0625,-16605.189453125,-400000.0625,-7115.75,-400000.0625
158.75281429290771,-400000.0625,-7827.27978515625,-4545.97998046875,-400000.0625,-16640.189453125,-400000.0625,-7160.6201171875,-400000.0625
158.7528257369995,-400000.0625,-7872.14990234375,-4590.080078125,-400000.0625,-16674.7109375,-400000.0625,-7206.72998046875,-400000.0625
158.75283646583557,-400000.0625,-7853.56005859375,-4571.2998046875,-400000.0625,-16659.7890625,-400000.0625,-7185.41015625,-400000.0625
158.7528474330902,-400000.0625,-7795.56982421875,-4515.4599609375,-400000.0625,-16614.009765625,-400000.0625,-7127.52001953125,-400000.0625
158.75285840034485,-400000.0625,-7778.83984375,-4502.10986328125,-400000.0625,-16598.26953125,-400000.0625,-7109.4501953125,-400000.0625
158.75286960601807,-400000.0625,-7822.75,-4542.830078125,-400000.0625,-16634.080078125,-400000.0625,-7157.47021484375,-400000.0625
158.75288152694702,-400000.0625,-7871.10009765625,-4587.75,-400000.0625,-16671.0390625,-400000.0625,-7208.43994140625,-400000.0625
158.75289344787598,-400000.0625,-7853.41015625,-4570.77001953125,-400000.0625,-16656.5,-400000.0625,-7184.93994140625,-400000.0625
158.75290489196777,-400000.0625,-7797.0,-4521.419921875,-400000.0625,-16616.869140625,-400000.0625,-7128.85986328125,-400000.0625
158.75292682647705,-400000.0625,-7782.93994140625,-4506.16015625,-400000.0625,-16605.0,-400000.0625,-7112.22021484375,-400000.0625
158.75293922424316,-400000.0625,-7830.3798828125,-4551.02978515625,-400000.0625,-16642.140625,-400000.0625,-7156.9501953125,-400000.0625
158.75295090675354,-400000.0625,-7872.33984375,-4591.990234375,-400000.0625,-16673.51953125,-400000.0625,-7201.72021484375,-400000.0625
158.75296211242676,-400000.0625,-7853.64990234375,-4574.10986328125,-400000.0625,-16657.58984375,-400000.0625,-7188.1298828125,-400000.0625
158.75297355651855,-400000.0625,-7799.2900390625,-4524.08984375,-400000.0625,-16616.19921875,-400000.0625,-7134.9599609375,-400000.0625
158.75298476219177,-400000.0625,-7783.83984375,-4507.830078125,-400000.0625,-16602.51953125,-400000.0625,-7118.080078125,-400000.0625
158.75299620628357,-400000.0625,-7825.7998046875,-4545.39990234375,-400000.0625,-16635.130859375,-400000.0625,-7163.47998046875,-400000.0625
158.75300812721252,-400000.0625,-7873.10986328125,-4589.990234375,-400000.0625,-16674.619140625,-400000.0625,-7210.58984375,-400000.0625
158.75301933288574,-400000.0625,-7863.08984375,-4578.06982421875,-400000.0625,-16667.990234375,-400000.0625,-7192.89990234375,-400000.0625
158.75303053855896,-400000.0625,-7813.02978515625,-4527.6201171875,-400000.0625,-16622.259765625,-400000.0625,-7140.5400390625,-400000.0625
158.7530415058136,-400000.0625,-7804.68017578125,-4513.259765625,-400000.0625,-16607.94921875,-400000.0625,-7126.89990234375,-400000.0625
158.75305271148682,-400000.0625,-7850.97998046875,-4551.169921875,-400000.0625,-16639.66015625,-400000.0625,-7172.43994140625,-400000.0625
158.75306391716003,-400000.0625,-7885.41015625,-4590.64990234375,-400000.0625,-16666.369140625,-400000.0625,-7209.25,-400000.0625
158.753075838089,-400000.0625,-7873.72998046875,-4587.83984375,-400000.0625,-16650.390625,-400000.0625,-7194.330078125,-400000.0625
158.7530870437622,-400000.0625,-7829.240234375,-4539.6298828125,-400000.0625,-16607.810546875,-400000.0625,-7146.93017578125,-400000.0625
158.753098487854,-400000.0625,-7820.02978515625,-4527.0,-400000.0625,-16590.9296875,-400000.0625,-7134.52978515625,-400000.0625
158.7531099319458,-400000.0625,-7867.91015625,-4574.97021484375,-400000.0625,-16626.9296875,-400000.0625,-7187.1298828125,-400000.0625
158.75312161445618,-400000.0625,-7922.41015625,-4624.31982421875,-400000.0625,-16665.41015625,-400000.0625,-7238.72021484375,-400000.0625
158.7531337738037,-400000.0625,-7918.64013671875,-4612.06005859375,-400000.0625,-16644.91015625,-400000.0625,-7221.75,-400000.0625
158.75314497947693,-400000.0625,-7865.18994140625,-4562.66015625,-400000.0625,-16595.650390625,-400000.0625,-7167.81982421875,-400000.0625
158.75315594673157,-400000.0625,-7858.7099609375,-4557.18017578125,-400000.0625,-16587.119140625,-400000.0625,-7159.52001953125,-400000.0625
158.75316715240479,-400000.0625,-7921.080078125,-4609.009765625,-400000.0625,-16627.740234375,-400000.0625,-7209.06005859375,-400000.0625
158.75317811965942,-400000.0625,-7965.759765625,-4649.02001953125,-400000.0625,-16659.44921875,-400000.0625,-7255.97998046875,-400000.0625
158.75318908691406,-400000.0625,-7948.77978515625,-4636.72021484375,-400000.0625,-16644.2890625,-400000.0625,-7245.64013671875,-400000.0625
158.75320053100586,-400000.0625,-7900.52978515625,-4587.7001953125,-400000.0625,-16596.41015625,-400000.0625,-7194.85009765625,-400000.0625
158.75321173667908,-400000.0625,-7898.52001953125,-4579.35009765625,-400000.0625,-16583.2109375,-400000.0625,-7182.7900390625,-400000.0625
158.75322270393372,-400000.0625,-7948.259765625,-4627.7099609375,-400000.0625,-16619.109375,-400000.0625,-7227.47021484375,-400000.0625
158.75323390960693,-400000.0625,-7999.08984375,-4677.009765625,-400000.0625,-16652.349609375,-400000.0625,-7284.39990234375,-400000.0625
158.75324487686157,-400000.0625,-7985.06982421875,-4660.18017578125,-400000.0625,-16639.5703125,-400000.0625,-7267.18994140625,-400000.0625
158.75325632095337,-400000.0625,-7925.31982421875,-4605.25,-400000.0625,-16588.640625,-400000.0625,-7209.02001953125,-400000.0625
158.75326776504517,-400000.0625,-7920.93017578125,-4595.85009765625,-400000.0625,-16579.9609375,-400000.0625,-7200.43017578125,-400000.0625
158.75327920913696,-400000.0625,-7976.72021484375,-4642.25,-400000.0625,-16622.830078125,-400000.0625,-7246.35009765625,-400000.0625
158.75329041481018,-400000.0625,-8015.81982421875,-4683.2998046875,-400000.0625,-16653.490234375,-400000.0625,-7289.740234375,-400000.0625
158.7533016204834,-400000.0625,-8001.56982421875,-4668.81005859375,-400000.0625,-16638.189453125,-400000.0625,-7272.77001953125,-400000.0625
158.75331258773804,-400000.0625,-7945.35009765625,-4615.1201171875,-400000.0625,-16591.169921875,-400000.0625,-7221.1298828125,-400000.0625
158.75332379341125,-400000.0625,-7926.66015625,-4598.18994140625,-400000.0625,-16579.439453125,-400000.0625,-7203.47998046875,-400000.0625
158.75333714485168,-400000.0625,-7971.3798828125,-4639.14990234375,-400000.0625,-16618.5390625,-400000.0625,-7247.39990234375,-400000.0625
158.75335264205933,-400000.0625,-8016.2099609375,-4681.10986328125,-400000.0625,-16656.349609375,-400000.0625,-7290.83984375,-400000.0625
158.76527190208435,-400000.0625,-8200.169921875,-4694.080078125,-400000.0625,-16552.400390625,-400000.0625,-7430.5498046875,-400000.0625
158.78848791122437,-400000.0625,-7915.1201171875,-4609.919921875,-400000.0625,-16631.029296875,-400000.0625,-7290.31982421875,-400000.0625
158.9037675857544,-400000.0625,-7858.18017578125,-4572.68017578125,-400000.0625,-16584.01953125,-400000.0625,-7217.02978515625,-400000.0625
158.97123432159424,-400000.0625,-7832.10009765625,-4549.31005859375,-400000.0625,-16563.609375,-400000.0625,-7182.31005859375,-400000.0625
159.04591059684753,-400000.0625,-7881.35986328125,-4598.89990234375,-400000.0625,-16591.55078125,-400000.0625,-7200.85986328125,-400000.0625
159.09889483451843,-400000.0625,-7930.0400390625,-4663.08984375,-400000.0625,-16632.4609375,-400000.0625,-7247.72998046875,-400000.0625
159.26189017295837,-400000.0625,-8193.919921875,-4721.2099609375,-400000.0625,-16476.490234375,-400000.0625,-7336.240234375,-400000.0625
159.41366171836853,-400000.0625,-7968.6201171875,-4665.66015625,-400000.0625,-16625.220703125,-400000.0625,-7271.669921875,-400000.0625
159.49090433120728,-400000.0625,-7965.08984375,-4669.240234375,-400000.0625,-16629.3203125,-400000.0625,-7266.669921875,-400000.0625
159.54732751846313,-400000.0625,-7903.10009765625,-4619.89013671875,-400000.0625,-16593.4609375,-400000.0625,-7218.35986328125,-400000.0625
159.6711232662201,-400000.0625,-7972.91015625,-4734.3701171875,-400000.0625,-16633.80078125,-400000.0625,-7213.68994140625,-400000.0625
159.7503559589386,-400000.0625,-7973.0498046875,-4730.56005859375,-400000.0625,-16634.0390625,-400000.0625,-7211.8798828125,-400000.0625
159.80501747131348,-400000.0625,-7978.25,-4733.85009765625,-400000.0625,-16636.759765625,-400000.0625,-7220.509765625,-400000.0625
159.88739943504333,-400000.0625,-7932.52001953125,-4697.419921875,-400000.0625,-16598.3203125,-400000.0625,-7152.419921875,-400000.0625
159.96628761291504,-400000.0625,-7889.89013671875,-4667.22998046875,-400000.0625,-16565.369140625,-400000.0625,-7112.5498046875,-400000.0625
159.99888229370117,-400000.0625,-7984.02001953125,-4748.2001953125,-400000.0625,-16641.240234375,-400000.0625,-7202.43994140625,-400000.0625
160.05493783950806,-400000.0625,-7990.080078125,-4754.259765625,-400000.0625,-16639.810546875,-400000.0625,-7209.490234375,-400000.0625
160.12008118629456,-400000.0625,-7918.93017578125,-4644.35009765625,-400000.0625,-16591.599609375,-400000.0625,-7204.43994140625,-400000.0625
160.19543766975403,-400000.0625,-7917.35986328125,-4639.33984375,-400000.0625,-16594.220703125,-400000.0625,-7205.490234375,-400000.0625
160.27404403686523,-400000.0625,-7883.68994140625,-4604.009765625,-400000.0625,-16563.419921875,-400000.0625,-7166.77001953125,-400000.0625
160.33867406845093,-400000.0625,-7915.31005859375,-4636.6201171875,-400000.0625,-16589.2109375,-400000.0625,-7199.56982421875,-400000.0625
160.38057398796082,-400000.0625,-7961.7998046875,-4671.669921875,-400000.0625,-16628.4609375,-400000.0625,-7269.47998046875,-400000.0625
160.43986201286316,-400000.0625,-7912.919921875,-4621.22021484375,-400000.0625,-16585.830078125,-400000.0625,-7217.83984375,-400000.0625
160.53000664710999,-400000.0625,-7905.43994140625,-4622.080078125,-400000.0625,-16585.44921875,-400000.0625,-7222.1298828125,-400000.0625
160.64475464820862,-400000.0625,-7910.919921875,-4621.1201171875,-400000.0625,-16587.689453125,-400000.0625,-7229.27978515625,-400000.0625
160.75841617584229,-400000.0625,-7977.919921875,-4672.240234375,-400000.0625,-16637.849609375,-400000.0625,-7286.60009765625,-400000.0625
160.9525909423828,-400000.0625,-7919.169921875,-4619.41015625,-400000.0625,-16588.119140625,-400000.0625,-7226.66015625,-400000.0625
161.01394605636597,-400000.0625,-7981.490234375,-4676.91015625,-400000.0625,-16636.609375,-400000.0625,-7291.60009765625,-400000.0625
161.0798373222351,-400000.0625,-7924.41015625,-4625.02978515625,-400000.0625,-16589.5,-400000.0625,-7226.52001953125,-400000.0625
161.16839838027954,-400000.0625,-7934.52001953125,-4627.89990234375,-400000.0625,-16592.9296875,-400000.0625,-7240.72998046875,-400000.0625
161.27231740951538,-400000.0625,-7937.2900390625,-4628.990234375,-400000.0625,-16594.3203125,-400000.0625,-7239.43994140625,-400000.0625
161.29289555549622,-400000.0625,-7987.169921875,-4680.6298828125,-400000.0625,-16635.08984375,-400000.0625,-7291.509765625,-400000.0625
161.30194973945618,-400000.0625,-7984.259765625,-4675.33984375,-400000.0625,-16629.75,-400000.0625,-7286.68994140625,-400000.0625
161.31243586540222,-400000.0625,-7927.1298828125,-4622.41015625,-400000.0625,-16587.310546875,-400000.0625,-7228.7998046875,-400000.0625
161.32569479942322,-400000.0625,-7896.56982421875,-4593.22998046875,-400000.0625,-16564.560546875,-400000.0625,-7198.6201171875,-400000.0625
161.33388376235962,-400000.0625,-7933.9501953125,-4626.60986328125,-400000.0625,-16587.119140625,-400000.0625,-7236.33984375,-400000.0625
161.340829372406,-400000.0625,-7991.02978515625,-4680.009765625,-400000.0625,-16635.0390625,-400000.0625,-7293.56005859375,-400000.0625
161.35020446777344,-400000.0625,-7988.02001953125,-4676.91015625,-400000.0625,-16631.41015625,-400000.0625,-7287.93017578125,-400000.0625
161.3595073223114,-400000.0625,-7931.14013671875,-4626.22998046875,-400000.0625,-16587.970703125,-400000.0625,-7232.14013671875,-400000.0625
161.36706805229187,-400000.0625,-7896.759765625,-4591.18017578125,-400000.0625,-16563.66015625,-400000.0625,-7199.0498046875,-400000.0625
161.37341618537903,-400000.0625,-7935.14013671875,-4629.47021484375,-400000.0625,-16597.849609375,-400000.0625,-7236.39013671875,-400000.0625
161.39458394050598,-400000.0625,-7994.83984375,-4686.68994140625,-400000.0625,-16644.669921875,-400000.0625,-7292.509765625,-400000.0625
161.40419006347656,-400000.0625,-7992.080078125,-4680.77978515625,-400000.0625,-16634.130859375,-400000.0625,-7290.5498046875,-400000.0625
161.41142320632935,-400000.0625,-7934.669921875,-4627.18017578125,-400000.0625,-16588.0703125,-400000.0625,-7233.669921875,-400000.0625
161.42099475860596,-400000.0625,-7902.72021484375,-4600.85986328125,-400000.0625,-16567.94921875,-400000.0625,-7200.0,-400000.0625
161.42967247962952,-400000.0625,-7937.240234375,-4632.7099609375,-400000.0625,-16596.83984375,-400000.0625,-7236.81982421875,-400000.0625
161.43870162963867,-400000.0625,-7987.8798828125,-4681.5400390625,-400000.0625,-16635.609375,-400000.0625,-7288.5498046875,-400000.0625
161.44764375686646,-400000.0625,-7983.8798828125,-4680.81982421875,-400000.0625,-16631.1796875,-400000.0625,-7281.72998046875,-400000.0625
161.46098279953003,-400000.0625,-7927.93994140625,-4624.990234375,-400000.0625,-16586.349609375,-400000.0625,-7226.47021484375,-400000.0625
161.46850442886353,-400000.0625,-7901.3798828125,-4598.52001953125,-400000.0625,-16567.23046875,-400000.0625,-7196.56982421875,-400000.0625
161.47533321380615,-400000.0625,-7939.52978515625,-4635.47998046875,-400000.0625,-16598.419921875,-400000.0625,-7238.25,-400000.0625
161.4982054233551,-400000.0625,-7995.31982421875,-4686.93017578125,-400000.0625,-16640.0,-400000.0625,-7293.02978515625,-400000.0625
161.5051188468933,-400000.0625,-7991.080078125,-4683.2998046875,-400000.0625,-16634.080078125,-400000.0625,-7288.64990234375,-400000.0625
161.51569437980652,-400000.0625,-7932.85009765625,-4629.08984375,-400000.0625,-16592.740234375,-400000.0625,-7235.9599609375,-400000.0625
161.52785873413086,-400000.0625,-7903.72021484375,-4601.3798828125,-400000.0625,-16568.330078125,-400000.0625,-7203.14990234375,-400000.0625
161.53885173797607,-400000.0625,-7941.009765625,-4634.91015625,-400000.0625,-16596.3203125,-400000.0625,-7242.25,-400000.0625
161.55318069458008,-400000.0625,-7994.3701171875,-4686.31005859375,-400000.0625,-16637.51953125,-400000.0625,-7294.4599609375,-400000.0625
161.56710028648376,-400000.0625,-7988.06982421875,-4680.06005859375,-400000.0625,-16634.66015625,-400000.0625,-7288.02978515625,-400000.0625
161.57444977760315,-400000.0625,-7931.759765625,-4627.60986328125,-400000.0625,-16591.259765625,-400000.0625,-7232.0498046875,-400000.0625
161.58842182159424,-400000.0625,-7903.52978515625,-4600.759765625,-400000.0625,-16566.140625,-400000.0625,-7201.77001953125,-400000.0625
161.60451126098633,-400000.0625,-7943.009765625,-4636.81005859375,-400000.0625,-16598.0390625,-400000.0625,-7239.52978515625,-400000.0625
161.6115345954895,-400000.0625,-7999.60986328125,-4686.7900390625,-400000.0625,-16641.859375,-400000.0625,-7291.4599609375,-400000.0625
161.6209237575531,-400000.0625,-7997.47021484375,-4685.830078125,-400000.0625,-16640.279296875,-400000.0625,-7286.97998046875,-400000.0625
161.6294298171997,-400000.0625,-7938.240234375,-4633.47021484375,-400000.0625,-16592.41015625,-400000.0625,-7232.85986328125,-400000.0625
161.63720679283142,-400000.0625,-7905.06005859375,-4603.9599609375,-400000.0625,-16566.900390625,-400000.0625,-7203.72021484375,-400000.0625
161.64785408973694,-400000.0625,-7945.58984375,-4639.6298828125,-400000.0625,-16596.130859375,-400000.0625,-7238.81982421875,-400000.0625
161.65845823287964,-400000.0625,-8000.9501953125,-4689.97998046875,-400000.0625,-16639.380859375,-400000.0625,-7292.83984375,-400000.0625
161.66760110855103,-400000.0625,-7990.68994140625,-4686.5498046875,-400000.0625,-16637.7109375,-400000.0625,-7289.31982421875,-400000.0625
161.67495703697205,-400000.0625,-7935.81005859375,-4634.43017578125,-400000.0625,-16591.740234375,-400000.0625,-7233.81005859375,-400000.0625
161.68673872947693,-400000.0625,-7909.8701171875,-4601.91015625,-400000.0625,-16565.369140625,-400000.0625,-7203.2001953125,-400000.0625
161.69599318504333,-400000.0625,-7943.6298828125,-4638.2900390625,-400000.0625,-16596.609375,-400000.0625,-7242.35009765625,-400000.0625
161.71081066131592,-400000.0625,-7995.89013671875,-4689.02978515625,-400000.0625,-16638.5703125,-400000.0625,-7294.22998046875,-400000.0625
161.71963214874268,-400000.0625,-7993.56005859375,-4684.259765625,-400000.0625,-16630.41015625,-400000.0625,-7290.31982421875,-400000.0625
161.72792983055115,-400000.0625,-7936.43017578125,-4631.14013671875,-400000.0625,-16586.259765625,-400000.0625,-7237.52978515625,-400000.0625
161.73811888694763,-400000.0625,-7909.6298828125,-4606.490234375,-400000.0625,-16567.51953125,-400000.0625,-7203.6298828125,-400000.0625
161.8289704322815,-400000.0625,-7962.27978515625,-4644.6298828125,-400000.0625,-16584.490234375,-400000.0625,-7245.68017578125,-400000.0625
161.84613513946533,-400000.0625,-7920.080078125,-4613.77978515625,-400000.0625,-16557.890625,-400000.0625,-7211.68994140625,-400000.0625
161.91289591789246,-400000.0625,-7960.27001953125,-4654.68994140625,-400000.0625,-16589.689453125,-400000.0625,-7245.10986328125,-400000.0625
161.97343921661377,-400000.0625,-8012.580078125,-4702.47021484375,-400000.0625,-16638.7109375,-400000.0625,-7297.56005859375,-400000.0625
162.10703587532043,-400000.0625,-7942.06005859375,-4638.72021484375,-400000.0625,-16586.970703125,-400000.0625,-7235.91015625,-400000.0625
162.17346477508545,-400000.0625,-7917.259765625,-4619.7900390625,-400000.0625,-16567.380859375,-400000.0625,-7212.39990234375,-400000.0625
162.2447144985199,-400000.0625,-7952.4501953125,-4656.7001953125,-400000.0625,-16602.66015625,-400000.0625,-7244.02001953125,-400000.0625
162.3009614944458,-400000.0625,-8008.6201171875,-4708.91015625,-400000.0625,-16643.5703125,-400000.0625,-7306.669921875,-400000.0625
162.45536422729492,-400000.0625,-7943.68017578125,-4638.85986328125,-400000.0625,-16582.970703125,-400000.0625,-7246.259765625,-400000.0625
162.5536072254181,-400000.0625,-7964.89990234375,-4661.7998046875,-400000.0625,-16603.810546875,-400000.0625,-7258.3701171875,-400000.0625
162.61344242095947,-400000.0625,-8009.52978515625,-4695.7001953125,-400000.0625,-16640.619140625,-400000.0625,-7321.93017578125,-400000.0625
162.69403862953186,-400000.0625,-8003.330078125,-4688.259765625,-400000.0625,-16636.419921875,-400000.0625,-7308.91015625,-400000.0625
162.77905106544495,-400000.0625,-7939.85986328125,-4631.3798828125,-400000.0625,-16589.599609375,-400000.0625,-7246.64013671875,-400000.0625
162.81163215637207,-400000.0625,-7948.2099609375,-4650.93017578125,-400000.0625,-16597.69921875,-400000.0625,-7255.7900390625,-400000.0625
162.8975739479065,-400000.0625,-7998.31982421875,-4698.3701171875,-400000.0625,-16638.140625,-400000.0625,-7302.47998046875,-400000.0625
163.00122380256653,-400000.0625,-7990.02978515625,-4690.1201171875,-400000.0625,-16627.029296875,-400000.0625,-7287.83984375,-400000.0625
163.08741331100464,-400000.0625,-7927.1298828125,-4635.669921875,-400000.0625,-16577.529296875,-400000.0625,-7229.3798828125,-400000.0625
163.14604902267456,-400000.0625,-7903.77001953125,-4615.5498046875,-400000.0625,-16562.419921875,-400000.0625,-7200.6201171875,-400000.0625
163.1934540271759,-400000.0625,-7952.1201171875,-4654.169921875,-400000.0625,-16591.220703125,-400000.0625,-7237.2900390625,-400000.0625
163.31992268562317,-400000.0625,-7982.2099609375,-4689.97998046875,-400000.0625,-16620.2109375,-400000.0625,-7283.02001953125,-400000.0625
163.39579844474792,-400000.0625,-7899.3798828125,-4617.64013671875,-400000.0625,-16553.119140625,-400000.0625,-7204.39013671875,-400000.0625
163.44966745376587,-400000.0625,-7894.56005859375,-4608.5400390625,-400000.0625,-16553.44921875,-400000.0625,-7198.81005859375,-400000.0625
163.50969982147217,-400000.0625,-7937.52978515625,-4655.64990234375,-400000.0625,-16590.83984375,-400000.0625,-7249.7900390625,-400000.0625
163.7687382698059,-400000.0625,-7886.02978515625,-4605.72021484375,-400000.0625,-16547.779296875,-400000.0625,-7194.56982421875,-400000.0625
163.78431630134583,-400000.0625,-7932.7099609375,-4647.72998046875,-400000.0625,-16584.73046875,-400000.0625,-7246.77978515625,-400000.0625
163.79354119300842,-400000.0625,-7985.16015625,-4698.0400390625,-400000.0625,-16626.220703125,-400000.0625,-7293.64990234375,-400000.0625
163.80175948143005,-400000.0625,-7970.91015625,-4685.259765625,-400000.0625,-16612.720703125,-400000.0625,-7276.06005859375,-400000.0625
163.80833172798157,-400000.0625,-7910.77978515625,-4629.7099609375,-400000.0625,-16567.279296875,-400000.0625,-7216.41015625,-400000.0625
163.81930017471313,-400000.0625,-7889.990234375,-4610.58984375,-400000.0625,-16547.869140625,-400000.0625,-7197.18994140625,-400000.0625
163.82794070243835,-400000.0625,-7930.89990234375,-4650.830078125,-400000.0625,-16577.439453125,-400000.0625,-7240.009765625,-400000.0625
163.83653211593628,-400000.0625,-7980.35009765625,-4699.08984375,-400000.0625,-16620.400390625,-400000.0625,-7292.93994140625,-400000.0625
163.84292149543762,-400000.0625,-7966.60986328125,-4685.68994140625,-400000.0625,-16614.490234375,-400000.0625,-7281.35009765625,-400000.0625
163.8549234867096,-400000.0625,-7907.490234375,-4629.7998046875,-400000.0625,-16565.609375,-400000.0625,-7223.7998046875,-400000.0625
163.8617217540741,-400000.0625,-7891.18017578125,-4610.830078125,-400000.0625,-16545.6796875,-400000.0625,-7201.2900390625,-400000.0625
163.8685531616211,-400000.0625,-7937.2900390625,-4654.35986328125,-400000.0625,-16586.01953125,-400000.0625,-7248.68994140625,-400000.0625
163.87569975852966,-400000.0625,-7983.68994140625,-4697.31982421875,-400000.0625,-16624.0703125,-400000.0625,-7295.93994140625,-400000.0625
163.89497351646423,-400000.0625,-7971.14013671875,-4683.64013671875,-400000.0625,-16610.859375,-400000.0625,-7274.33984375,-400000.0625
163.90188455581665,-400000.0625,-7912.490234375,-4628.990234375,-400000.0625,-16560.650390625,-400000.0625,-7221.990234375,-400000.0625
163.90777969360352,-400000.0625,-7891.27001953125,-4610.830078125,-400000.0625,-16546.6796875,-400000.0625,-7202.91015625,-400000.0625
163.91521525382996,-400000.0625,-7940.47998046875,-4657.83984375,-400000.0625,-16584.830078125,-400000.0625,-7245.4501953125,-400000.0625
163.9263756275177,-400000.0625,-7986.31005859375,-4703.7099609375,-400000.0625,-16620.880859375,-400000.0625,-7294.509765625,-400000.0625
163.9337193965912,-400000.0625,-7969.669921875,-4686.58984375,-400000.0625,-16605.5703125,-400000.0625,-7279.490234375,-400000.0625
163.93965911865234,-400000.0625,-7913.10986328125,-4632.759765625,-400000.0625,-16557.5,-400000.0625,-7219.02978515625,-400000.0625
163.94843292236328,-400000.0625,-7892.509765625,-4614.31005859375,-400000.0625,-16545.25,-400000.0625,-7203.8701171875,-400000.0625
163.95839595794678,-400000.0625,-7935.47998046875,-4655.7001953125,-400000.0625,-16581.16015625,-400000.0625,-7250.5,-400000.0625
163.9687945842743,-400000.0625,-7986.58984375,-4702.759765625,-400000.0625,-16618.6796875,-400000.0625,-7299.0400390625,-400000.0625
163.9836983680725,-400000.0625,-7975.2001953125,-4690.27001953125,-400000.0625,-16611.33984375,-400000.0625,-7285.5498046875,-400000.0625
163.99933505058289,-400000.0625,-7916.97998046875,-4637.580078125,-400000.0625,-16563.470703125,-400000.0625,-7225.7998046875,-400000.0625
164.0087866783142,-400000.0625,-7896.3798828125,-4616.8798828125,-400000.0625,-16544.109375,-400000.0625,-7205.2001953125,-400000.0625
164.01662254333496,-400000.0625,-7943.81982421875,-4660.1298828125,-400000.0625,-16584.490234375,-400000.0625,-7252.7900390625,-400000.0625
164.02369856834412,-400000.0625,-7990.31005859375,-4706.240234375,-400000.0625,-16625.0703125,-400000.0625,-7300.56982421875,-400000.0625
164.03591132164001,-400000.0625,-7975.2900390625,-4691.31982421875,-400000.0625,-16611.630859375,-400000.0625,-7283.06982421875,-400000.0625
164.04602336883545,-400000.0625,-7915.58984375,-4634.669921875,-400000.0625,-16562.080078125,-400000.0625,-7226.18017578125,-400000.0625
164.05384707450867,-400000.0625,-7895.52001953125,-4613.06982421875,-400000.0625,-16544.869140625,-400000.0625,-7201.91015625,-400000.0625
164.06097078323364,-400000.0625,-7939.52978515625,-4656.169921875,-400000.0625,-16582.25,-400000.0625,-7247.58984375,-400000.0625
164.06963467597961,-400000.0625,-7989.4599609375,-4703.3798828125,-400000.0625,-16627.740234375,-400000.0625,-7296.31982421875,-400000.0625
164.07762026786804,-400000.0625,-7976.33984375,-4688.97998046875,-400000.0625,-16611.19921875,-400000.0625,-7281.39990234375,-400000.0625
164.08467054367065,-400000.0625,-7919.83984375,-4637.6201171875,-400000.0625,-16563.75,-400000.0625,-7223.080078125,-400000.0625
164.10182404518127,-400000.0625,-7897.7099609375,-4618.22021484375,-400000.0625,-16548.30078125,-400000.0625,-7204.81982421875,-400000.0625
164.110933303833,-400000.0625,-7946.35009765625,-4661.89013671875,-400000.0625,-16589.119140625,-400000.0625,-7249.169921875,-400000.0625
164.11827683448792,-400000.0625,-7991.7001953125,-4706.91015625,-400000.0625,-16626.310546875,-400000.0625,-7295.0400390625,-400000.0625
164.12454628944397,-400000.0625,-7971.43017578125,-4689.5,-400000.0625,-16609.380859375,-400000.0625,-7275.33984375,-400000.0625
164.13549280166626,-400000.0625,-7914.35009765625,-4634.47998046875,-400000.0625,-16557.650390625,-400000.0625,-7217.35986328125,-400000.0625
164.14968252182007,-400000.0625,-7890.7998046875,-4611.919921875,-400000.0625,-16539.2890625,-400000.0625,-7198.43017578125,-400000.0625
164.16157698631287,-400000.0625,-7941.580078125,-4657.7900390625,-400000.0625,-16584.44921875,-400000.0625,-7247.64013671875,-400000.0625
164.1741771697998,-400000.0625,-7993.75,-4704.47998046875,-400000.0625,-16628.359375,-400000.0625,-7295.89990234375,-400000.0625
164.18362474441528,-400000.0625,-7975.47998046875,-4688.1201171875,-400000.0625,-16613.390625,-400000.0625,-7279.25,-400000.0625
164.1900932788849,-400000.0625,-7916.169921875,-4633.3798828125,-400000.0625,-16562.419921875,-400000.0625,-7220.27001953125,-400000.0625
164.20746850967407,-400000.0625,-7898.3798828125,-4614.97021484375,-400000.0625,-16544.9609375,-400000.0625,-7200.77001953125,-400000.0625
164.21488094329834,-400000.0625,-7945.25,-4659.22021484375,-400000.0625,-16583.16015625,-400000.0625,-7248.64013671875,-400000.0625
164.22156715393066,-400000.0625,-7990.68994140625,-4704.330078125,-400000.0625,-16620.640625,-400000.0625,-7296.419921875,-400000.0625
164.23052167892456,-400000.0625,-7970.0498046875,-4684.68994140625,-400000.0625,-16602.470703125,-400000.0625,-7274.72021484375,-400000.0625
164.24106073379517,-400000.0625,-7913.97021484375,-4628.27978515625,-400000.0625,-16555.740234375,-400000.0625,-7216.06982421875,-400000.0625
164.24831914901733,-400000.0625,-7897.66015625,-4612.8798828125,-400000.0625,-16547.16015625,-400000.0625,-7197.9501953125,-400000.0625
164.29643034934998,-400000.0625,-7984.830078125,-4693.3701171875,-400000.0625,-16581.009765625,-400000.0625,-7269.6201171875,-400000.0625
164.37920761108398,-400000.0625,-7913.2099609375,-4636.669921875,-400000.0625,-16546.25,-400000.0625,-7212.68994140625,-400000.0625
164.41270327568054,-400000.0625,-7890.56005859375,-4611.2998046875,-400000.0625,-16532.5703125,-400000.0625,-7190.18017578125,-400000.0625
164.4921853542328,-400000.0625,-7932.85009765625,-4654.68994140625,-400000.0625,-16571.91015625,-400000.0625,-7229.759765625,-400000.0625
164.5450417995453,-400000.0625,-7973.39013671875,-4694.4599609375,-400000.0625,-16608.05078125,-400000.0625,-7282.58984375,-400000.0625
164.6654155254364,-400000.0625,-7898.669921875,-4625.64990234375,-400000.0625,-16542.009765625,-400000.0625,-7206.97021484375,-400000.0625
164.76992654800415,-400000.0625,-7879.97021484375,-4608.72998046875,-400000.0625,-16535.4296875,-400000.0625,-7188.89013671875,-400000.0625
164.8534712791443,-400000.0625,-7950.5,-4672.240234375,-400000.0625,-16587.310546875,-400000.0625,-7261.1298828125,-400000.0625
164.91854763031006,-400000.0625,-7953.60009765625,-4676.06005859375,-400000.0625,-16587.310546875,-400000.0625,-7261.7099609375,-400000.0625
165.01290369033813,-400000.0625,-7894.22998046875,-4625.56005859375,-400000.0625,-16533.810546875,-400000.0625,-7204.33984375,-400000.0625
165.047381401062,-400000.0625,-7890.02978515625,-4615.5498046875,-400000.0625,-16525.599609375,-400000.0625,-7196.0,-400000.0625
165.19654726982117,-400000.0625,-7970.0498046875,-4692.60009765625,-400000.0625,-16592.080078125,-400000.0625,-7272.85986328125,-400000.0625
165.30222082138062,-400000.0625,-7893.66015625,-4622.31982421875,-400000.0625,-16532.140625,-400000.0625,-7217.169921875,-400000.0625
165.4797477722168,-400000.0625,-7931.9501953125,-4657.080078125,-400000.0625,-16565.609375,-400000.0625,-7249.39990234375,-400000.0625
165.56242775917053,-400000.0625,-7954.35986328125,-4675.72021484375,-400000.0625,-16573.189453125,-400000.0625,-7266.330078125,-400000.0625
165.6525914669037,-400000.0625,-7895.330078125,-4617.02001953125,-400000.0625,-16529.939453125,-400000.0625,-7203.43994140625,-400000.0625
165.71224808692932,-400000.0625,-7890.27001953125,-4619.60009765625,-400000.0625,-16524.650390625,-400000.0625,-7201.9599609375,-400000.0625
165.84640765190125,-400000.0625,-7980.6298828125,-4704.18994140625,-400000.0625,-16592.740234375,-400000.0625,-7301.27978515625,-400000.0625
165.8800013065338,-400000.0625,-7899.56982421875,-4626.60986328125,-400000.0625,-16526.3203125,-400000.0625,-7220.93994140625,-400000.0625
166.01342487335205,-400000.0625,-7909.72998046875,-4632.56982421875,-400000.0625,-16526.080078125,-400000.0625,-7217.27001953125,-400000.0625
166.07876992225647,-400000.0625,-7958.3701171875,-4684.77978515625,-400000.0625,-16567.94921875,-400000.0625,-7270.43017578125,-400000.0625
166.14485144615173,-400000.0625,-8001.81005859375,-4721.5,-400000.0625,-16594.83984375,-400000.0625,-7307.52978515625,-400000.0625
166.22010397911072,-400000.0625,-7916.8798828125,-4640.68017578125,-400000.0625,-16528.080078125,-400000.0625,-7221.1298828125,-400000.0625
166.2937982082367,-400000.0625,-7908.77001953125,-4636.669921875,-400000.0625,-16523.83984375,-400000.0625,-7220.02978515625,-400000.0625
166.31589126586914,-400000.0625,-7905.33984375,-4632.330078125,-400000.0625,-16521.310546875,-400000.0625,-7214.31005859375,-400000.0625
166.32435536384583,-400000.0625,-7961.31982421875,-4684.58984375,-400000.0625,-16566.23046875,-400000.0625,-7270.18994140625,-400000.0625
166.3326027393341,-400000.0625,-7998.66015625,-4720.830078125,-400000.0625,-16594.3203125,-400000.0625,-7306.669921875,-400000.0625
166.3421392440796,-400000.0625,-7963.1298828125,-4688.97998046875,-400000.0625,-16567.23046875,-400000.0625,-7274.91015625,-400000.0625
166.35185027122498,-400000.0625,-7909.10986328125,-4635.759765625,-400000.0625,-16524.080078125,-400000.0625,-7215.740234375,-400000.0625
166.35914421081543,-400000.0625,-7907.9599609375,-4636.0498046875,-400000.0625,-16524.220703125,-400000.0625,-7213.97021484375,-400000.0625
166.37238121032715,-400000.0625,-7963.3701171875,-4690.22021484375,-400000.0625,-16566.94921875,-400000.0625,-7271.47998046875,-400000.0625
166.38176608085632,-400000.0625,-8001.08984375,-4723.740234375,-400000.0625,-16595.7890625,-400000.0625,-7310.25,-400000.0625
166.38945817947388,-400000.0625,-7971.72021484375,-4694.990234375,-400000.0625,-16570.05078125,-400000.0625,-7280.06005859375,-400000.0625
166.39806699752808,-400000.0625,-7910.8701171875,-4640.8701171875,-400000.0625,-16518.169921875,-400000.0625,-7224.0400390625,-400000.0625
166.4167501926422,-400000.0625,-7904.47998046875,-4635.0498046875,-400000.0625,-16517.740234375,-400000.0625,-7221.31982421875,-400000.0625
166.42590618133545,-400000.0625,-7959.56005859375,-4684.39990234375,-400000.0625,-16562.939453125,-400000.0625,-7269.81005859375,-400000.0625
166.4393825531006,-400000.0625,-7997.47021484375,-4719.77978515625,-400000.0625,-16594.220703125,-400000.0625,-7305.18994140625,-400000.0625
166.44671821594238,-400000.0625,-7963.31982421875,-4687.830078125,-400000.0625,-16566.849609375,-400000.0625,-7273.2001953125,-400000.0625
166.45576882362366,-400000.0625,-7909.919921875,-4638.52978515625,-400000.0625,-16522.5,-400000.0625,-7220.7900390625,-400000.0625
166.46336960792542,-400000.0625,-7910.81982421875,-4637.9599609375,-400000.0625,-16523.3203125,-400000.0625,-7223.080078125,-400000.0625
166.47777318954468,-400000.0625,-7961.85009765625,-4686.5498046875,-400000.0625,-16566.609375,-400000.0625,-7276.5400390625,-400000.0625
166.48492217063904,-400000.0625,-7995.509765625,-4722.740234375,-400000.0625,-16596.080078125,-400000.0625,-7310.10986328125,-400000.0625
166.49216270446777,-400000.0625,-7965.14013671875,-4688.83984375,-400000.0625,-16570.08984375,-400000.0625,-7278.06005859375,-400000.0625
166.50391817092896,-400000.0625,-7908.8701171875,-4637.0498046875,-400000.0625,-16519.41015625,-400000.0625,-7220.60009765625,-400000.0625
166.51953959465027,-400000.0625,-7909.25,-4637.77001953125,-400000.0625,-16518.2109375,-400000.0625,-7220.31982421875,-400000.0625
166.5284013748169,-400000.0625,-7962.75,-4686.2099609375,-400000.0625,-16566.560546875,-400000.0625,-7276.43994140625,-400000.0625
166.5409665107727,-400000.0625,-7996.419921875,-4718.490234375,-400000.0625,-16597.890625,-400000.0625,-7311.8701171875,-400000.0625
166.549968957901,-400000.0625,-7963.990234375,-4688.68994140625,-400000.0625,-16569.5703125,-400000.0625,-7281.35009765625,-400000.0625
166.55638813972473,-400000.0625,-7911.919921875,-4641.10009765625,-400000.0625,-16523.650390625,-400000.0625,-7224.66015625,-400000.0625
166.56277179718018,-400000.0625,-7916.39990234375,-4643.2998046875,-400000.0625,-16524.41015625,-400000.0625,-7222.02978515625,-400000.0625
166.57191038131714,-400000.0625,-7967.759765625,-4692.35986328125,-400000.0625,-16566.900390625,-400000.0625,-7278.39990234375,-400000.0625
166.57993745803833,-400000.0625,-8003.85986328125,-4726.7001953125,-400000.0625,-16596.990234375,-400000.0625,-7310.6298828125,-400000.0625
