time,ch1,ch2,ch3,ch4,ch5
timestamp,ch7,ch2,ch3,ch5,is_pause
timestamp,ch7,ch2,ch3,ch5,is_pause
timestamp,ch7,ch2,ch3,ch5,is_pause
timestamp,ch7,ch2,ch3,ch5,is_pause
timestamp,ch7,ch2,ch3,ch5,is_pause
0.07930397987365723,-400000.0625,-9862.23046875,-4549.5498046875,-400000.0625,-15317.7802734375,-400000.0625,-6126.68994140625,-400000.0625
0.07944226264953613,-400000.0625,-9878.58984375,-4568.77001953125,-400000.0625,-15329.7001953125,-400000.0625,-6144.72021484375,-400000.0625
0.07946181297302246,-400000.0625,-9895.51953125,-4583.06982421875,-400000.0625,-15338.51953125,-400000.0625,-6158.39990234375,-400000.0625
0.07947206497192383,-400000.0625,-9885.5,-4572.8701171875,-400000.0625,-15331.5595703125,-400000.0625,-6150.47998046875,-400000.0625
0.07948040962219238,-400000.0625,-9876.490234375,-4566.47998046875,-400000.0625,-15326.5498046875,-400000.0625,-6144.6201171875,-400000.0625
0.07948780059814453,-400000.0625,-9880.6396484375,-4571.06005859375,-400000.0625,-15333.4599609375,-400000.0625,-6149.2900390625,-400000.0625
0.07949519157409668,-400000.0625,-9891.509765625,-4580.2099609375,-400000.0625,-15337.900390625,-400000.0625,-6158.06982421875,-400000.0625
0.07950234413146973,-400000.0625,-9896.3701171875,-4582.93017578125,-400000.0625,-15341.0498046875,-400000.0625,-6159.77978515625,-400000.0625
0.07950925827026367,-400000.0625,-9879.6396484375,-4567.669921875,-400000.0625,-15331.650390625,-400000.0625,-6145.81005859375,-400000.0625
0.07951593399047852,-400000.0625,-9869.669921875,-4565.47998046875,-400000.0625,-15324.7900390625,-400000.0625,-6142.9501953125,-400000.0625
0.07952284812927246,-400000.0625,-9880.01953125,-4573.2998046875,-400000.0625,-15324.400390625,-400000.0625,-6149.10009765625,-400000.0625
0.07953000068664551,-400000.0625,-9886.4599609375,-4574.43994140625,-400000.0625,-15331.26953125,-400000.0625,-6155.2099609375,-400000.0625
0.07953691482543945,-400000.0625,-9892.7998046875,-4581.259765625,-400000.0625,-15339.5703125,-400000.0625,-6161.259765625,-400000.0625
0.0795440673828125,-400000.0625,-9888.3603515625,-4578.2998046875,-400000.0625,-15335.75,-400000.0625,-6161.7900390625,-400000.0625
0.07955098152160645,-400000.0625,-9869.8603515625,-4560.0400390625,-400000.0625,-15320.1103515625,-400000.0625,-6147.18994140625,-400000.0625
0.07956051826477051,-400000.0625,-9872.8203125,-4562.3798828125,-400000.0625,-15323.830078125,-400000.0625,-6142.43017578125,-400000.0625
timestamp,ch7,ch2,ch3,ch5,is_pause
timestamp,ch7,ch2,ch3,ch5,is_pause
timestamp,ch7,ch2,ch3,ch5,is_pause
0.11856436729431152,-400000.0625,-9880.73046875,-4566.81005859375,-400000.0625,-15337.0400390625,-400000.0625,-6154.8701171875,-400000.0625
0.11873698234558105,-400000.0625,-9892.5595703125,-4577.830078125,-400000.0625,-15342.900390625,-400000.0625,-6165.83984375,-400000.0625
0.11876058578491211,-400000.0625,-9900.48046875,-4583.740234375,-400000.0625,-15337.0400390625,-400000.0625,-6165.7900390625,-400000.0625
0.11877989768981934,-400000.0625,-9887.83984375,-4574.009765625,-400000.0625,-15331.599609375,-400000.0625,-6156.830078125,-400000.0625
0.11879897117614746,-400000.0625,-9882.9296875,-4570.06005859375,-400000.0625,-15329.509765625,-400000.0625,-6155.919921875,-400000.0625
timestamp,ch7,ch2,ch3,ch5,is_pause
0.12711524963378906,-400000.0625,-9888.5498046875,-4574.43994140625,-400000.0625,-15334.080078125,-400000.0625,-6156.5400390625,-400000.0625
0.12731719017028809,-400000.0625,-9885.6904296875,-4574.6298828125,-400000.0625,-15340.2802734375,-400000.0625,-6156.25,-400000.0625
0.1273336410522461,-400000.0625,-9872.76953125,-4561.47021484375,-400000.0625,-15326.83984375,-400000.0625,-6143.27978515625,-400000.0625
0.12734270095825195,-400000.0625,-9876.919921875,-4560.759765625,-400000.0625,-15324.5498046875,-400000.0625,-6141.66015625,-400000.0625
0.1273515224456787,-400000.0625,-9876.58984375,-4564.240234375,-400000.0625,-15327.6904296875,-400000.0625,-6144.2900390625,-400000.0625
0.12735867500305176,-400000.0625,-9882.0703125,-4571.52978515625,-400000.0625,-15325.8798828125,-400000.0625,-6153.39013671875,-400000.0625
0.1273665428161621,-400000.0625,-9893.9404296875,-4579.58984375,-400000.0625,-15335.990234375,-400000.0625,-6166.22021484375,-400000.0625
0.12738299369812012,-400000.0625,-9893.080078125,-4577.8798828125,-400000.0625,-15338.51953125,-400000.0625,-6156.10986328125,-400000.0625
0.12739086151123047,-400000.0625,-9881.259765625,-4570.39013671875,-400000.0625,-15329.5498046875,-400000.0625,-6149.6298828125,-400000.0625
0.12739801406860352,-400000.0625,-9880.6396484375,-4570.81982421875,-400000.0625,-15330.599609375,-400000.0625,-6146.0,-400000.0625
0.12740492820739746,-400000.0625,-9888.0302734375,-4574.919921875,-400000.0625,-15335.4697265625,-400000.0625,-6146.33984375,-400000.0625
timestamp,ch7,ch2,ch3,ch5,is_pause
timestamp,ch7,ch2,ch3,ch5,is_pause
timestamp,ch7,ch2,ch3,ch5,is_pause
timestamp,ch7,ch2,ch3,ch5,is_pause
timestamp,ch7,ch2,ch3,ch5,is_pause
0.19372081756591797,-400000.0625,-9888.26953125,-4575.77978515625,-400000.0625,-15332.2197265625,-400000.0625,-6153.580078125,-400000.0625
0.1938638687133789,-400000.0625,-9887.0302734375,-4571.14990234375,-400000.0625,-15324.2099609375,-400000.0625,-6149.6298828125,-400000.0625
0.19387531280517578,-400000.0625,-9870.0498046875,-4558.66015625,-400000.0625,-15317.2001953125,-400000.0625,-6139.14013671875,-400000.0625
0.19388341903686523,-400000.0625,-9868.4296875,-4559.9501953125,-400000.0625,-15320.16015625,-400000.0625,-6135.18017578125,-400000.0625
0.19389081001281738,-400000.0625,-9886.2197265625,-4573.5400390625,-400000.0625,-15331.080078125,-400000.0625,-6148.52978515625,-400000.0625
0.19389843940734863,-400000.0625,-9898.2802734375,-4584.41015625,-400000.0625,-15340.6201171875,-400000.0625,-6165.080078125,-400000.0625
0.19390535354614258,-400000.0625,-9888.98046875,-4575.58984375,-400000.0625,-15333.990234375,-400000.0625,-6154.81982421875,-400000.0625
0.19391345977783203,-400000.0625,-9876.1103515625,-4562.85986328125,-400000.0625,-15327.0302734375,-400000.0625,-6139.7998046875,-400000.0625
0.19392013549804688,-400000.0625,-9875.16015625,-4561.47021484375,-400000.0625,-15325.169921875,-400000.0625,-6136.7998046875,-400000.0625
0.19392657279968262,-400000.0625,-9885.599609375,-4570.580078125,-400000.0625,-15330.4599609375,-400000.0625,-6145.52978515625,-400000.0625
0.19394421577453613,-400000.0625,-9881.6396484375,-4569.240234375,-400000.0625,-15323.3095703125,-400000.0625,-6142.759765625,-400000.0625
0.19395136833190918,-400000.0625,-9883.830078125,-4573.10986328125,-400000.0625,-15328.3095703125,-400000.0625,-6147.9599609375,-400000.0625
0.19395780563354492,-400000.0625,-9889.080078125,-4574.77978515625,-400000.0625,-15332.5595703125,-400000.0625,-6150.6298828125,-400000.0625
0.19396519660949707,-400000.0625,-9885.98046875,-4573.8701171875,-400000.0625,-15332.3701171875,-400000.0625,-6151.490234375,-400000.0625
0.1939716339111328,-400000.0625,-9896.51953125,-4583.60009765625,-400000.0625,-15339.23046875,-400000.0625,-6162.1201171875,-400000.0625
0.19398140907287598,-400000.0625,-9905.4296875,-4590.89013671875,-400000.0625,-15342.08984375,-400000.0625,-6168.1298828125,-400000.0625
timestamp,ch7,ch2,ch3,ch5,is_pause
timestamp,ch7,ch2,ch3,ch5,is_pause
timestamp,ch7,ch2,ch3,ch5,is_pause
timestamp,ch7,ch2,ch3,ch5,is_pause
0.254486083984375,-400000.0625,-9896.08984375,-4581.68994140625,-400000.0625,-15336.7099609375,-400000.0625,-6160.97998046875,-400000.0625
0.2591671943664551,-400000.0625,-9882.740234375,-4567.0498046875,-400000.0625,-15326.83984375,-400000.0625,-6144.72021484375,-400000.0625
0.2592177391052246,-400000.0625,-9873.919921875,-4558.85009765625,-400000.0625,-15318.25,-400000.0625,-6138.330078125,-400000.0625
0.25923991203308105,-400000.0625,-9877.6796875,-4566.77001953125,-400000.0625,-15327.3095703125,-400000.0625,-6143.330078125,-400000.0625
0.2592592239379883,-400000.0625,-9887.740234375,-4575.16015625,-400000.0625,-15333.3701171875,-400000.0625,-6149.6298828125,-400000.0625
0.2592780590057373,-400000.0625,-9886.2197265625,-4574.25,-400000.0625,-15329.3603515625,-400000.0625,-6152.2001953125,-400000.0625
0.25929808616638184,-400000.0625,-9878.6796875,-4566.81005859375,-400000.0625,-15322.0703125,-400000.0625,-6144.0498046875,-400000.0625
0.2593269348144531,-400000.0625,-9875.8701171875,-4565.2900390625,-400000.0625,-15321.2998046875,-400000.0625,-6149.72021484375,-400000.0625
0.25934815406799316,-400000.0625,-9885.9296875,-4571.580078125,-400000.0625,-15332.990234375,-400000.0625,-6157.2099609375,-400000.0625
0.2593669891357422,-400000.0625,-9895.990234375,-4581.31005859375,-400000.0625,-15335.3203125,-400000.0625,-6162.22021484375,-400000.0625
0.2593843936920166,-400000.0625,-9894.419921875,-4580.4501953125,-400000.0625,-15333.75,-400000.0625,-6161.1201171875,-400000.0625
0.25940895080566406,-400000.0625,-9879.58984375,-4570.52978515625,-400000.0625,-15323.8798828125,-400000.0625,-6147.10009765625,-400000.0625
0.2594265937805176,-400000.0625,-9872.099609375,-4566.72021484375,-400000.0625,-15320.0595703125,-400000.0625,-6139.3701171875,-400000.0625
0.2594435214996338,-400000.0625,-9879.8798828125,-4568.2900390625,-400000.0625,-15326.2197265625,-400000.0625,-6148.47998046875,-400000.0625
0.2594609260559082,-400000.0625,-9889.5595703125,-4574.06005859375,-400000.0625,-15334.1796875,-400000.0625,-6160.35986328125,-400000.0625
0.2594783306121826,-400000.0625,-9886.080078125,-4570.81982421875,-400000.0625,-15332.26953125,-400000.0625,-6153.39013671875,-400000.0625
timestamp,ch7,ch2,ch3,ch5,is_pause
timestamp,ch7,ch2,ch3,ch5,is_pause
timestamp,ch7,ch2,ch3,ch5,is_pause
timestamp,ch7,ch2,ch3,ch5,is_pause
0.31253671646118164,-400000.0625,-9881.9697265625,-4566.18994140625,-400000.0625,-15323.2099609375,-400000.0625,-6144.47998046875,-400000.0625
timestamp,ch7,ch2,ch3,ch5,is_pause
0.3325958251953125,-400000.0625,-9884.6904296875,-4571.06005859375,-400000.0625,-15322.830078125,-400000.0625,-6146.9599609375,-400000.0625
0.34139394760131836,-400000.0625,-9884.4501953125,-4572.25,-400000.0625,-15324.6396484375,-400000.0625,-6151.06005859375,-400000.0625
timestamp,ch7,ch2,ch3,ch5,is_pause
timestamp,ch7,ch2,ch3,ch5,is_pause
0.3665175437927246,-400000.0625,-9891.3701171875,-4575.6298828125,-400000.0625,-15325.169921875,-400000.0625,-6157.4501953125,-400000.0625
timestamp,ch7,ch2,ch3,ch5,is_pause
timestamp,ch7,ch2,ch3,ch5,is_pause
0.396223783493042,-400000.0625,-9895.5595703125,-4582.93017578125,-400000.0625,-15332.1796875,-400000.0625,-6160.31005859375,-400000.0625
timestamp,ch7,ch2,ch3,ch5,is_pause
0.41231870651245117,-400000.0625,-9878.349609375,-4566.6201171875,-400000.0625,-15323.6904296875,-400000.0625,-6148.580078125,-400000.0625
timestamp,ch7,ch2,ch3,ch5,is_pause
0.429851770401001,-400000.0625,-9879.6396484375,-4561.56982421875,-400000.0625,-15318.009765625,-400000.0625,-6142.0,-400000.0625
timestamp,ch7,ch2,ch3,ch5,is_pause
0.447005033493042,-400000.0625,-9893.0400390625,-4576.39990234375,-400000.0625,-15329.5498046875,-400000.0625,-6158.72998046875,-400000.0625
timestamp,ch7,ch2,ch3,ch5,is_pause
0.4576911926269531,-400000.0625,-9905.099609375,-4585.22021484375,-400000.0625,-15338.2802734375,-400000.0625,-6167.7001953125,-400000.0625
timestamp,ch7,ch2,ch3,ch5,is_pause
0.47348523139953613,-400000.0625,-9894.900390625,-4577.72998046875,-400000.0625,-15331.169921875,-400000.0625,-6161.06982421875,-400000.0625
timestamp,ch7,ch2,ch3,ch5,is_pause
timestamp,ch7,ch2,ch3,ch5,is_pause
0.5030684471130371,-400000.0625,-9884.3095703125,-4570.2900390625,-400000.0625,-15328.3603515625,-400000.0625,-6153.10986328125,-400000.0625
timestamp,ch7,ch2,ch3,ch5,is_pause
0.5168757438659668,-400000.0625,-9882.400390625,-4569.39013671875,-400000.0625,-15324.98046875,-400000.0625,-6149.81982421875,-400000.0625
0.5256092548370361,-400000.0625,-9893.990234375,-4575.6298828125,-400000.0625,-15325.5,-400000.0625,-6158.02001953125,-400000.0625
timestamp,ch7,ch2,ch3,ch5,is_pause
0.5406265258789062,-400000.0625,-9902.91015625,-4586.02978515625,-400000.0625,-15336.2802734375,-400000.0625,-6168.93994140625,-400000.0625
timestamp,ch7,ch2,ch3,ch5,is_pause
0.5523345470428467,-400000.0625,-9892.3203125,-4577.58984375,-400000.0625,-15334.3701171875,-400000.0625,-6166.509765625,-400000.0625
timestamp,ch7,ch2,ch3,ch5,is_pause
0.5661928653717041,-400000.0625,-9875.0595703125,-4561.14013671875,-400000.0625,-15318.490234375,-400000.0625,-6148.91015625,-400000.0625
timestamp,ch7,ch2,ch3,ch5,is_pause
0.582223653793335,-400000.0625,-9870.8203125,-4558.52001953125,-400000.0625,-15310.8095703125,-400000.0625,-6144.85986328125,-400000.0625
timestamp,ch7,ch2,ch3,ch5,is_pause
timestamp,ch7,ch2,ch3,ch5,is_pause
0.6095829010009766,-400000.0625,-9890.650390625,-4575.5400390625,-400000.0625,-15319.25,-400000.0625,-6156.72998046875,-400000.0625
timestamp,ch7,ch2,ch3,ch5,is_pause
0.6217310428619385,-400000.0625,-9902.2900390625,-4586.31982421875,-400000.0625,-15332.0302734375,-400000.0625,-6169.75,-400000.0625
timestamp,ch7,ch2,ch3,ch5,is_pause
0.6353757381439209,-400000.0625,-9891.1298828125,-4576.830078125,-400000.0625,-15325.5,-400000.0625,-6159.830078125,-400000.0625
timestamp,ch7,ch2,ch3,ch5,is_pause
0.6480836868286133,-400000.0625,-9881.8798828125,-4565.91015625,-400000.0625,-15318.5400390625,-400000.0625,-6145.56982421875,-400000.0625
0.6565749645233154,-400000.0625,-9888.26953125,-4574.6298828125,-400000.0625,-15324.740234375,-400000.0625,-6151.14990234375,-400000.0625
timestamp,ch7,ch2,ch3,ch5,is_pause
timestamp,ch7,ch2,ch3,ch5,is_pause
0.6792163848876953,-400000.0625,-9888.98046875,-4574.919921875,-400000.0625,-15327.83984375,-400000.0625,-6155.06005859375,-400000.0625
0.6897177696228027,-400000.0625,-9894.7099609375,-4578.77978515625,-400000.0625,-15331.1298828125,-400000.0625,-6159.740234375,-400000.0625
timestamp,ch7,ch2,ch3,ch5,is_pause
timestamp,ch7,ch2,ch3,ch5,is_pause
0.7206292152404785,-400000.0625,-9898.8095703125,-4584.60009765625,-400000.0625,-15335.0400390625,-400000.0625,-6163.5,-400000.0625
timestamp,ch7,ch2,ch3,ch5,is_pause
0.7446548938751221,-400000.0625,-9889.4599609375,-4577.2099609375,-400000.0625,-15327.9296875,-400000.0625,-6162.31005859375,-400000.0625
timestamp,ch7,ch2,ch3,ch5,is_pause
0.7581069469451904,-400000.0625,-9892.419921875,-4578.02001953125,-400000.0625,-15327.169921875,-400000.0625,-6157.77978515625,-400000.0625
timestamp,ch7,ch2,ch3,ch5,is_pause
0.7801671028137207,-400000.0625,-9898.3798828125,-4580.97998046875,-400000.0625,-15327.5,-400000.0625,-6159.02001953125,-400000.0625
timestamp,ch7,ch2,ch3,ch5,is_pause
timestamp,ch7,ch2,ch3,ch5,is_pause
0.8007895946502686,-400000.0625,-9895.2802734375,-4580.77978515625,-400000.0625,-15326.83984375,-400000.0625,-6164.31005859375,-400000.0625
timestamp,ch7,ch2,ch3,ch5,is_pause
timestamp,ch7,ch2,ch3,ch5,is_pause
timestamp,ch7,ch2,ch3,ch5,is_pause
0.849198579788208,-400000.0625,-9877.2998046875,-4567.47998046875,-400000.0625,-15318.349609375,-400000.0625,-6150.8701171875,-400000.0625
timestamp,ch7,ch2,ch3,ch5,is_pause
0.8621602058410645,-400000.0625,-9869.76953125,-4560.330078125,-400000.0625,-15308.8603515625,-400000.0625,-6139.60986328125,-400000.0625
timestamp,ch7,ch2,ch3,ch5,is_pause
0.8858089447021484,-400000.0625,-9875.0595703125,-4564.240234375,-400000.0625,-15310.8095703125,-400000.0625,-6146.85986328125,-400000.0625
timestamp,ch7,ch2,ch3,ch5,is_pause
0.9044299125671387,-400000.0625,-9897.0400390625,-4582.06982421875,-400000.0625,-15330.1298828125,-400000.0625,-6168.64990234375,-400000.0625
timestamp,ch7,ch2,ch3,ch5,is_pause
timestamp,ch7,ch2,ch3,ch5,is_pause
0.9432358741760254,-400000.0625,-9903.6201171875,-4588.7998046875,-400000.0625,-15337.990234375,-400000.0625,-6174.47021484375,-400000.0625
timestamp,ch7,ch2,ch3,ch5,is_pause
0.9564011096954346,-400000.0625,-9888.169921875,-4574.97021484375,-400000.0625,-15322.400390625,-400000.0625,-6162.740234375,-400000.0625
timestamp,ch7,ch2,ch3,ch5,is_pause
0.9748764038085938,-400000.0625,-9874.919921875,-4564.56982421875,-400000.0625,-15313.3896484375,-400000.0625,-6147.33984375,-400000.0625
timestamp,ch7,ch2,ch3,ch5,is_pause
0.9892909526824951,-400000.0625,-9873.919921875,-4567.81005859375,-400000.0625,-15315.5302734375,-400000.0625,-6150.2001953125,-400000.0625
timestamp,ch7,ch2,ch3,ch5,is_pause
1.0049467086791992,-400000.0625,-9896.2802734375,-4582.41015625,-400000.0625,-15332.1796875,-400000.0625,-6164.89013671875,-400000.0625
timestamp,ch7,ch2,ch3,ch5,is_pause
timestamp,ch7,ch2,ch3,ch5,is_pause
timestamp,ch7,ch2,ch3,ch5,is_pause
1.0468060970306396,-400000.0625,-9911.73046875,-4590.509765625,-400000.0625,-15342.1904296875,-400000.0625,-6165.35986328125,-400000.0625
timestamp,ch7,ch2,ch3,ch5,is_pause
1.0594446659088135,-400000.0625,-9899.330078125,-4579.97021484375,-400000.0625,-15333.4599609375,-400000.0625,-6151.2001953125,-400000.0625
timestamp,ch7,ch2,ch3,ch5,is_pause
1.0745809078216553,-400000.0625,-9866.0498046875,-4558.75,-400000.0625,-15310.76953125,-400000.0625,-6150.77001953125,-400000.0625
timestamp,ch7,ch2,ch3,ch5,is_pause
1.0867681503295898,-400000.0625,-9857.0400390625,-4548.169921875,-400000.0625,-15301.900390625,-400000.0625,-6154.10986328125,-400000.0625
timestamp,ch7,ch2,ch3,ch5,is_pause
1.1055142879486084,-400000.0625,-9871.33984375,-4557.27978515625,-400000.0625,-15310.099609375,-400000.0625,-6162.259765625,-400000.0625
timestamp,ch7,ch2,ch3,ch5,is_pause
timestamp,ch7,ch2,ch3,ch5,is_pause
1.1333820819854736,-400000.0625,-9875.919921875,-4565.18994140625,-400000.0625,-15320.01953125,-400000.0625,-6183.2001953125,-400000.0625
timestamp,ch7,ch2,ch3,ch5,is_pause
1.149247407913208,-400000.0625,-9872.009765625,-4558.1298828125,-400000.0625,-15320.16015625,-400000.0625,-6176.759765625,-400000.0625
1.158841848373413,-400000.0625,-9858.900390625,-4544.1201171875,-400000.0625,-15305.51953125,-400000.0625,-6164.27001953125,-400000.0625
timestamp,ch7,ch2,ch3,ch5,is_pause
timestamp,ch7,ch2,ch3,ch5,is_pause
1.1775321960449219,-400000.0625,-9854.990234375,-4539.16015625,-400000.0625,-15306.0,-400000.0625,-6165.740234375,-400000.0625
1.1877830028533936,-400000.0625,-9873.150390625,-4551.31982421875,-400000.0625,-15316.6298828125,-400000.0625,-6177.9501953125,-400000.0625
timestamp,ch7,ch2,ch3,ch5,is_pause
1.2002575397491455,-400000.0625,-9883.01953125,-4559.990234375,-400000.0625,-15321.58984375,-400000.0625,-6190.830078125,-400000.0625
timestamp,ch7,ch2,ch3,ch5,is_pause
1.2142300605773926,-400000.0625,-9871.099609375,-4556.7001953125,-400000.0625,-15319.4404296875,-400000.0625,-6182.77001953125,-400000.0625
timestamp,ch7,ch2,ch3,ch5,is_pause
timestamp,ch7,ch2,ch3,ch5,is_pause
1.2458577156066895,-400000.0625,-9852.0302734375,-4538.81982421875,-400000.0625,-15306.5703125,-400000.0625,-6170.22998046875,-400000.0625
timestamp,ch7,ch2,ch3,ch5,is_pause
1.2572357654571533,-400000.0625,-9846.6396484375,-4531.18994140625,-400000.0625,-15296.2197265625,-400000.0625,-6158.77978515625,-400000.0625
timestamp,ch7,ch2,ch3,ch5,is_pause
1.2756421566009521,-400000.0625,-9855.3203125,-4537.2998046875,-400000.0625,-15300.3701171875,-400000.0625,-6167.27001953125,-400000.0625
timestamp,ch7,ch2,ch3,ch5,is_pause
1.2904980182647705,-400000.0625,-9880.16015625,-4561.66015625,-400000.0625,-15324.6396484375,-400000.0625,-6197.31005859375,-400000.0625
timestamp,ch7,ch2,ch3,ch5,is_pause
1.3043642044067383,-400000.0625,-9883.169921875,-4562.7099609375,-400000.0625,-15328.4599609375,-400000.0625,-6192.97021484375,-400000.0625
timestamp,ch7,ch2,ch3,ch5,is_pause
1.3221263885498047,-400000.0625,-9868.7197265625,-4551.169921875,-400000.0625,-15318.4404296875,-400000.0625,-6181.85986328125,-400000.0625
timestamp,ch7,ch2,ch3,ch5,is_pause
timestamp,ch7,ch2,ch3,ch5,is_pause
1.355499505996704,-400000.0625,-9864.1904296875,-4546.2099609375,-400000.0625,-15315.3896484375,-400000.0625,-6180.43017578125,-400000.0625
timestamp,ch7,ch2,ch3,ch5,is_pause
1.3742907047271729,-400000.0625,-9867.9599609375,-4550.5498046875,-400000.0625,-15316.919921875,-400000.0625,-6183.580078125,-400000.0625
timestamp,ch7,ch2,ch3,ch5,is_pause
timestamp,ch7,ch2,ch3,ch5,is_pause
1.3974473476409912,-400000.0625,-9871.76953125,-4553.990234375,-400000.0625,-15320.830078125,-400000.0625,-6188.2998046875,-400000.0625
1.4094085693359375,-400000.0625,-9865.759765625,-4549.02978515625,-400000.0625,-15315.2001953125,-400000.0625,-6185.14990234375,-400000.0625
timestamp,ch7,ch2,ch3,ch5,is_pause
1.426659345626831,-400000.0625,-9858.900390625,-4543.06982421875,-400000.0625,-15304.2802734375,-400000.0625,-6168.27001953125,-400000.0625
timestamp,ch7,ch2,ch3,ch5,is_pause
timestamp,ch7,ch2,ch3,ch5,is_pause
timestamp,ch7,ch2,ch3,ch5,is_pause
1.460294246673584,-400000.0625,-9853.9404296875,-4537.5400390625,-400000.0625,-15299.419921875,-400000.0625,-6164.31005859375,-400000.0625
1.4720191955566406,-400000.0625,-9871.76953125,-4553.18017578125,-400000.0625,-15312.3896484375,-400000.0625,-6183.2001953125,-400000.0625
timestamp,ch7,ch2,ch3,ch5,is_pause
1.4838242530822754,-400000.0625,-9885.259765625,-4562.81005859375,-400000.0625,-15324.98046875,-400000.0625,-6193.58984375,-400000.0625
timestamp,ch7,ch2,ch3,ch5,is_pause
1.4959993362426758,-400000.0625,-9868.33984375,-4549.1201171875,-400000.0625,-15319.400390625,-400000.0625,-6181.2900390625,-400000.0625
timestamp,ch7,ch2,ch3,ch5,is_pause
1.5092601776123047,-400000.0625,-9851.3603515625,-4534.85986328125,-400000.0625,-15305.330078125,-400000.0625,-6164.4599609375,-400000.0625
timestamp,ch7,ch2,ch3,ch5,is_pause
1.5206758975982666,-400000.0625,-9856.509765625,-4539.81982421875,-400000.0625,-15309.1904296875,-400000.0625,-6168.60009765625,-400000.0625
timestamp,ch7,ch2,ch3,ch5,is_pause
1.5364477634429932,-400000.0625,-9871.0498046875,-4556.1298828125,-400000.0625,-15320.6396484375,-400000.0625,-6185.91015625,-400000.0625
timestamp,ch7,ch2,ch3,ch5,is_pause
1.5610013008117676,-400000.0625,-9880.400390625,-4562.08984375,-400000.0625,-15324.01953125,-400000.0625,-6191.77978515625,-400000.0625
timestamp,ch7,ch2,ch3,ch5,is_pause
1.573646068572998,-400000.0625,-9866.099609375,-4549.22021484375,-400000.0625,-15311.91015625,-400000.0625,-6177.0400390625,-400000.0625
timestamp,ch7,ch2,ch3,ch5,is_pause
1.5925614833831787,-400000.0625,-9854.26953125,-4539.10986328125,-400000.0625,-15307.1396484375,-400000.0625,-6166.64990234375,-400000.0625
timestamp,ch7,ch2,ch3,ch5,is_pause
1.604306936264038,-400000.0625,-9856.8896484375,-4543.58984375,-400000.0625,-15308.0,-400000.0625,-6168.27001953125,-400000.0625
timestamp,ch7,ch2,ch3,ch5,is_pause
1.620532751083374,-400000.0625,-9866.48046875,-4552.89013671875,-400000.0625,-15314.6796875,-400000.0625,-6176.08984375,-400000.0625
timestamp,ch7,ch2,ch3,ch5,is_pause
1.6360125541687012,-400000.0625,-9872.099609375,-4557.66015625,-400000.0625,-15319.0595703125,-400000.0625,-6184.580078125,-400000.0625
timestamp,ch7,ch2,ch3,ch5,is_pause
1.65116548538208,-400000.0625,-9864.3798828125,-4548.64990234375,-400000.0625,-15318.4404296875,-400000.0625,-6178.43017578125,-400000.0625
timestamp,ch7,ch2,ch3,ch5,is_pause
timestamp,ch7,ch2,ch3,ch5,is_pause
1.6856324672698975,-400000.0625,-9860.849609375,-4544.68994140625,-400000.0625,-15317.490234375,-400000.0625,-6172.85009765625,-400000.0625
timestamp,ch7,ch2,ch3,ch5,is_pause
1.7006208896636963,-400000.0625,-9861.900390625,-4544.39990234375,-400000.0625,-15316.349609375,-400000.0625,-6175.89990234375,-400000.0625
1.712622880935669,-400000.0625,-9867.5302734375,-4555.66015625,-400000.0625,-15322.400390625,-400000.0625,-6186.2998046875,-400000.0625
timestamp,ch7,ch2,ch3,ch5,is_pause
1.7248692512512207,-400000.0625,-9873.76953125,-4558.7998046875,-400000.0625,-15322.259765625,-400000.0625,-6190.2998046875,-400000.0625
timestamp,ch7,ch2,ch3,ch5,is_pause
1.743138074874878,-400000.0625,-9862.1904296875,-4546.97998046875,-400000.0625,-15311.099609375,-400000.0625,-6179.18994140625,-400000.0625
timestamp,ch7,ch2,ch3,ch5,is_pause
1.756258487701416,-400000.0625,-9856.7001953125,-4541.4501953125,-400000.0625,-15307.3798828125,-400000.0625,-6171.18017578125,-400000.0625
timestamp,ch7,ch2,ch3,ch5,is_pause
timestamp,ch7,ch2,ch3,ch5,is_pause
1.7884602546691895,-400000.0625,-9858.23046875,-4542.64013671875,-400000.0625,-15306.8603515625,-400000.0625,-6170.4599609375,-400000.0625
timestamp,ch7,ch2,ch3,ch5,is_pause
1.8051230907440186,-400000.0625,-9867.4296875,-4552.64990234375,-400000.0625,-15312.6298828125,-400000.0625,-6182.43017578125,-400000.0625
timestamp,ch7,ch2,ch3,ch5,is_pause
1.8222579956054688,-400000.0625,-9875.8203125,-4559.08984375,-400000.0625,-15320.6796875,-400000.0625,-6189.68017578125,-400000.0625
timestamp,ch7,ch2,ch3,ch5,is_pause
1.8376121520996094,-400000.0625,-9873.8701171875,-4557.27978515625,-400000.0625,-15322.01953125,-400000.0625,-6183.10009765625,-400000.0625
timestamp,ch7,ch2,ch3,ch5,is_pause
timestamp,ch7,ch2,ch3,ch5,is_pause
1.8673756122589111,-400000.0625,-9864.1396484375,-4547.5498046875,-400000.0625,-15312.580078125,-400000.0625,-6176.52001953125,-400000.0625
timestamp,ch7,ch2,ch3,ch5,is_pause
timestamp,ch7,ch2,ch3,ch5,is_pause
1.9068713188171387,-400000.0625,-9856.1796875,-4541.490234375,-400000.0625,-15308.8603515625,-400000.0625,-6171.89013671875,-400000.0625
timestamp,ch7,ch2,ch3,ch5,is_pause
1.922494649887085,-400000.0625,-9857.6103515625,-4543.35009765625,-400000.0625,-15311.7197265625,-400000.0625,-6171.89013671875,-400000.0625
timestamp,ch7,ch2,ch3,ch5,is_pause
1.9385662078857422,-400000.0625,-9864.51953125,-4548.8798828125,-400000.0625,-15315.490234375,-400000.0625,-6177.330078125,-400000.0625
timestamp,ch7,ch2,ch3,ch5,is_pause
1.9553380012512207,-400000.0625,-9870.8203125,-4553.02978515625,-400000.0625,-15316.8203125,-400000.0625,-6178.18994140625,-400000.0625
timestamp,ch7,ch2,ch3,ch5,is_pause
1.970391035079956,-400000.0625,-9867.1396484375,-4548.02978515625,-400000.0625,-15313.25,-400000.0625,-6181.669921875,-400000.0625
timestamp,ch7,ch2,ch3,ch5,is_pause
timestamp,ch7,ch2,ch3,ch5,is_pause
2.0095818042755127,-400000.0625,-9866.0498046875,-4548.31005859375,-400000.0625,-15312.240234375,-400000.0625,-6179.18994140625,-400000.0625
timestamp,ch7,ch2,ch3,ch5,is_pause
2.0250065326690674,-400000.0625,-9875.4404296875,-4555.31982421875,-400000.0625,-15318.9697265625,-400000.0625,-6189.2998046875,-400000.0625
timestamp,ch7,ch2,ch3,ch5,is_pause
2.0450375080108643,-400000.0625,-9878.2998046875,-4559.14013671875,-400000.0625,-15322.2099609375,-400000.0625,-6194.93017578125,-400000.0625
timestamp,ch7,ch2,ch3,ch5,is_pause
2.0640366077423096,-400000.0625,-9877.5400390625,-4556.27001953125,-400000.0625,-15321.2099609375,-400000.0625,-6192.8798828125,-400000.0625
timestamp,ch7,ch2,ch3,ch5,is_pause
2.0810494422912598,-400000.0625,-9862.2802734375,-4545.02001953125,-400000.0625,-15308.099609375,-400000.0625,-6179.0,-400000.0625
timestamp,ch7,ch2,ch3,ch5,is_pause
timestamp,ch7,ch2,ch3,ch5,is_pause
timestamp,ch7,ch2,ch3,ch5,is_pause
2.1216955184936523,-400000.0625,-9855.1298828125,-4545.259765625,-400000.0625,-15304.419921875,-400000.0625,-6171.89013671875,-400000.0625
timestamp,ch7,ch2,ch3,ch5,is_pause
2.140925884246826,-400000.0625,-9871.48046875,-4559.22998046875,-400000.0625,-15316.919921875,-400000.0625,-6186.33984375,-400000.0625
timestamp,ch7,ch2,ch3,ch5,is_pause
2.155848741531372,-400000.0625,-9882.5498046875,-4565.56982421875,-400000.0625,-15322.9296875,-400000.0625,-6194.5,-400000.0625
timestamp,ch7,ch2,ch3,ch5,is_pause
timestamp,ch7,ch2,ch3,ch5,is_pause
2.1830666065216064,-400000.0625,-9872.5302734375,-4553.509765625,-400000.0625,-15310.9599609375,-400000.0625,-6181.33984375,-400000.0625
timestamp,ch7,ch2,ch3,ch5,is_pause
timestamp,ch7,ch2,ch3,ch5,is_pause
2.2215700149536133,-400000.0625,-9857.6103515625,-4541.68017578125,-400000.0625,-15299.8896484375,-400000.0625,-6167.41015625,-400000.0625
timestamp,ch7,ch2,ch3,ch5,is_pause
2.2429165840148926,-400000.0625,-9868.9599609375,-4553.75,-400000.0625,-15315.5302734375,-400000.0625,-6179.47998046875,-400000.0625
timestamp,ch7,ch2,ch3,ch5,is_pause
timestamp,ch7,ch2,ch3,ch5,is_pause
2.26839017868042,-400000.0625,-9888.1298828125,-4570.06005859375,-400000.0625,-15327.5498046875,-400000.0625,-6197.02001953125,-400000.0625
timestamp,ch7,ch2,ch3,ch5,is_pause
2.2855312824249268,-400000.0625,-9892.1796875,-4572.43994140625,-400000.0625,-15332.2197265625,-400000.0625,-6205.3701171875,-400000.0625
timestamp,ch7,ch2,ch3,ch5,is_pause
timestamp,ch7,ch2,ch3,ch5,is_pause
2.328676462173462,-400000.0625,-9881.4501953125,-4563.759765625,-400000.0625,-15323.4501953125,-400000.0625,-6192.4501953125,-400000.0625
timestamp,ch7,ch2,ch3,ch5,is_pause
2.3454227447509766,-400000.0625,-9862.419921875,-4551.02978515625,-400000.0625,-15311.76953125,-400000.0625,-6179.18994140625,-400000.0625
timestamp,ch7,ch2,ch3,ch5,is_pause
2.358668565750122,-400000.0625,-9864.4296875,-4550.89013671875,-400000.0625,-15311.669921875,-400000.0625,-6180.47998046875,-400000.0625
timestamp,ch7,ch2,ch3,ch5,is_pause
timestamp,ch7,ch2,ch3,ch5,is_pause
2.382772445678711,-400000.0625,-9883.599609375,-4567.0498046875,-400000.0625,-15322.2099609375,-400000.0625,-6194.58984375,-400000.0625
timestamp,ch7,ch2,ch3,ch5,is_pause
timestamp,ch7,ch2,ch3,ch5,is_pause
2.419025182723999,-400000.0625,-9893.23046875,-4574.16015625,-400000.0625,-15328.5,-400000.0625,-6198.4501953125,-400000.0625
timestamp,ch7,ch2,ch3,ch5,is_pause
timestamp,ch7,ch2,ch3,ch5,is_pause
timestamp,ch7,ch2,ch3,ch5,is_pause
2.4826231002807617,-400000.0625,-9875.009765625,-4558.56005859375,-400000.0625,-15317.1103515625,-400000.0625,-6186.10009765625,-400000.0625
timestamp,ch7,ch2,ch3,ch5,is_pause
timestamp,ch7,ch2,ch3,ch5,is_pause
2.5141713619232178,-400000.0625,-9862.330078125,-4548.97998046875,-400000.0625,-15304.6103515625,-400000.0625,-6178.7099609375,-400000.0625
timestamp,ch7,ch2,ch3,ch5,is_pause
timestamp,ch7,ch2,ch3,ch5,is_pause
2.545469284057617,-400000.0625,-9865.7099609375,-4554.7001953125,-400000.0625,-15305.7099609375,-400000.0625,-6181.85986328125,-400000.0625
timestamp,ch7,ch2,ch3,ch5,is_pause
timestamp,ch7,ch2,ch3,ch5,is_pause
timestamp,ch7,ch2,ch3,ch5,is_pause
2.5846965312957764,-400000.0625,-9871.33984375,-4559.9501953125,-400000.0625,-15311.4296875,-400000.0625,-6192.68017578125,-400000.0625
timestamp,ch7,ch2,ch3,ch5,is_pause
2.6031110286712646,-400000.0625,-9883.259765625,-4567.85986328125,-400000.0625,-15324.169921875,-400000.0625,-6201.740234375,-400000.0625
timestamp,ch7,ch2,ch3,ch5,is_pause
2.6181488037109375,-400000.0625,-9883.6904296875,-4565.10009765625,-400000.0625,-15322.3095703125,-400000.0625,-6198.1201171875,-400000.0625
timestamp,ch7,ch2,ch3,ch5,is_pause
2.632420539855957,-400000.0625,-9867.4296875,-4549.1201171875,-400000.0625,-15304.849609375,-400000.0625,-6181.52978515625,-400000.0625
timestamp,ch7,ch2,ch3,ch5,is_pause
timestamp,ch7,ch2,ch3,ch5,is_pause
2.6539523601531982,-400000.0625,-9865.1396484375,-4549.22021484375,-400000.0625,-15303.2802734375,-400000.0625,-6178.669921875,-400000.0625
timestamp,ch7,ch2,ch3,ch5,is_pause
timestamp,ch7,ch2,ch3,ch5,is_pause
2.685715675354004,-400000.0625,-9886.1201171875,-4568.85986328125,-400000.0625,-15320.2998046875,-400000.0625,-6198.22021484375,-400000.0625
timestamp,ch7,ch2,ch3,ch5,is_pause
2.702136754989624,-400000.0625,-9888.599609375,-4572.72998046875,-400000.0625,-15324.3603515625,-400000.0625,-6206.080078125,-400000.0625
timestamp,ch7,ch2,ch3,ch5,is_pause
2.717243194580078,-400000.0625,-9877.8701171875,-4563.3798828125,-400000.0625,-15315.8701171875,-400000.0625,-6199.89013671875,-400000.0625
timestamp,ch7,ch2,ch3,ch5,is_pause
2.7302818298339844,-400000.0625,-9873.580078125,-4556.66015625,-400000.0625,-15308.669921875,-400000.0625,-6187.5400390625,-400000.0625
timestamp,ch7,ch2,ch3,ch5,is_pause
2.7486844062805176,-400000.0625,-9870.76953125,-4556.27001953125,-400000.0625,-15312.48046875,-400000.0625,-6185.81982421875,-400000.0625
timestamp,ch7,ch2,ch3,ch5,is_pause
2.763672113418579,-400000.0625,-9879.400390625,-4565.43017578125,-400000.0625,-15321.2998046875,-400000.0625,-6195.31005859375,-400000.0625
timestamp,ch7,ch2,ch3,ch5,is_pause
2.7878074645996094,-400000.0625,-9884.7900390625,-4566.240234375,-400000.0625,-15323.2099609375,-400000.0625,-6198.68994140625,-400000.0625
timestamp,ch7,ch2,ch3,ch5,is_pause
2.800926446914673,-400000.0625,-9876.919921875,-4561.22998046875,-400000.0625,-15316.580078125,-400000.0625,-6191.77978515625,-400000.0625
timestamp,ch7,ch2,ch3,ch5,is_pause
timestamp,ch7,ch2,ch3,ch5,is_pause
2.820030689239502,-400000.0625,-9862.759765625,-4550.31005859375,-400000.0625,-15310.8095703125,-400000.0625,-6177.9501953125,-400000.0625
timestamp,ch7,ch2,ch3,ch5,is_pause
2.8428211212158203,-400000.0625,-9862.0400390625,-4552.22021484375,-400000.0625,-15316.3896484375,-400000.0625,-6178.7099609375,-400000.0625
timestamp,ch7,ch2,ch3,ch5,is_pause
2.8583672046661377,-400000.0625,-9873.73046875,-4557.89990234375,-400000.0625,-15317.349609375,-400000.0625,-6185.8701171875,-400000.0625
timestamp,ch7,ch2,ch3,ch5,is_pause
2.8837227821350098,-400000.0625,-9877.1103515625,-4562.43017578125,-400000.0625,-15319.6396484375,-400000.0625,-6192.97021484375,-400000.0625
timestamp,ch7,ch2,ch3,ch5,is_pause
timestamp,ch7,ch2,ch3,ch5,is_pause
timestamp,ch7,ch2,ch3,ch5,is_pause
2.924029588699341,-400000.0625,-9870.6298828125,-4558.52001953125,-400000.0625,-15315.76953125,-400000.0625,-6187.580078125,-400000.0625
timestamp,ch7,ch2,ch3,ch5,is_pause
2.9400975704193115,-400000.0625,-9858.23046875,-4546.2099609375,-400000.0625,-15305.900390625,-400000.0625,-6174.47021484375,-400000.0625
timestamp,ch7,ch2,ch3,ch5,is_pause
2.9545834064483643,-400000.0625,-9853.650390625,-4540.2998046875,-400000.0625,-15297.8896484375,-400000.0625,-6162.259765625,-400000.0625
timestamp,ch7,ch2,ch3,ch5,is_pause
2.9664928913116455,-400000.0625,-9874.3896484375,-4557.31982421875,-400000.0625,-15313.48046875,-400000.0625,-6176.419921875,-400000.0625
timestamp,ch7,ch2,ch3,ch5,is_pause
2.9810218811035156,-400000.0625,-9879.2099609375,-4564.81005859375,-400000.0625,-15323.830078125,-400000.0625,-6191.830078125,-400000.0625
timestamp,ch7,ch2,ch3,ch5,is_pause
2.9969654083251953,-400000.0625,-9860.7099609375,-4550.22021484375,-400000.0625,-15306.5703125,-400000.0625,-6203.83984375,-400000.0625
timestamp,ch7,ch2,ch3,ch5,is_pause
timestamp,ch7,ch2,ch3,ch5,is_pause
3.0228466987609863,-400000.0625,-9861.900390625,-4544.2099609375,-400000.0625,-15303.900390625,-400000.0625,-6196.06982421875,-400000.0625
timestamp,ch7,ch2,ch3,ch5,is_pause
3.034456968307495,-400000.0625,-9852.98046875,-4535.580078125,-400000.0625,-15300.0400390625,-400000.0625,-6189.2998046875,-400000.0625
3.0459444522857666,-400000.0625,-9841.4404296875,-4529.81005859375,-400000.0625,-15296.5595703125,-400000.0625,-6198.4501953125,-400000.0625
timestamp,ch7,ch2,ch3,ch5,is_pause
3.0599021911621094,-400000.0625,-9848.9296875,-4537.77001953125,-400000.0625,-15306.330078125,-400000.0625,-6212.9501953125,-400000.0625
timestamp,ch7,ch2,ch3,ch5,is_pause
3.071899175643921,-400000.0625,-9843.16015625,-4531.43017578125,-400000.0625,-15301.2802734375,-400000.0625,-6212.240234375,-400000.0625
timestamp,ch7,ch2,ch3,ch5,is_pause
3.0852208137512207,-400000.0625,-9845.349609375,-4527.330078125,-400000.0625,-15297.41015625,-400000.0625,-6206.22998046875,-400000.0625
timestamp,ch7,ch2,ch3,ch5,is_pause
3.0989060401916504,-400000.0625,-9842.25,-4528.08984375,-400000.0625,-15297.3701171875,-400000.0625,-6207.990234375,-400000.0625
timestamp,ch7,ch2,ch3,ch5,is_pause
3.1237289905548096,-400000.0625,-9847.1201171875,-4533.10009765625,-400000.0625,-15300.9404296875,-400000.0625,-6212.89990234375,-400000.0625
timestamp,ch7,ch2,ch3,ch5,is_pause
timestamp,ch7,ch2,ch3,ch5,is_pause
3.1407992839813232,-400000.0625,-9849.5,-4533.6298828125,-400000.0625,-15300.6103515625,-400000.0625,-6214.56982421875,-400000.0625
timestamp,ch7,ch2,ch3,ch5,is_pause
3.17471981048584,-400000.0625,-9841.0595703125,-4525.56982421875,-400000.0625,-15295.5595703125,-400000.0625,-6208.1298828125,-400000.0625
timestamp,ch7,ch2,ch3,ch5,is_pause
timestamp,ch7,ch2,ch3,ch5,is_pause
3.2013638019561768,-400000.0625,-9845.01953125,-4529.240234375,-400000.0625,-15298.419921875,-400000.0625,-6207.75,-400000.0625
timestamp,ch7,ch2,ch3,ch5,is_pause
timestamp,ch7,ch2,ch3,ch5,is_pause
3.237143039703369,-400000.0625,-9847.0703125,-4535.06005859375,-400000.0625,-15299.75,-400000.0625,-6211.9501953125,-400000.0625
timestamp,ch7,ch2,ch3,ch5,is_pause
3.256662607192993,-400000.0625,-9857.849609375,-4540.68017578125,-400000.0625,-15307.0498046875,-400000.0625,-6217.2900390625,-400000.0625
timestamp,ch7,ch2,ch3,ch5,is_pause
3.2684402465820312,-400000.0625,-9861.7099609375,-4542.2099609375,-400000.0625,-15315.490234375,-400000.0625,-6219.39013671875,-400000.0625
3.277000665664673,-400000.0625,-9850.169921875,-4534.2900390625,-400000.0625,-15306.6201171875,-400000.0625,-6213.27978515625,-400000.0625
timestamp,ch7,ch2,ch3,ch5,is_pause
3.292245388031006,-400000.0625,-9845.2099609375,-4530.72021484375,-400000.0625,-15300.849609375,-400000.0625,-6208.419921875,-400000.0625
timestamp,ch7,ch2,ch3,ch5,is_pause
3.3075618743896484,-400000.0625,-9844.58984375,-4529.14013671875,-400000.0625,-15301.75,-400000.0625,-6207.27978515625,-400000.0625
timestamp,ch7,ch2,ch3,ch5,is_pause
timestamp,ch7,ch2,ch3,ch5,is_pause
3.3385818004608154,-400000.0625,-9852.599609375,-4536.33984375,-400000.0625,-15304.6103515625,-400000.0625,-6219.0498046875,-400000.0625
timestamp,ch7,ch2,ch3,ch5,is_pause
3.3494269847869873,-400000.0625,-9857.1298828125,-4539.10986328125,-400000.0625,-15306.1904296875,-400000.0625,-6222.68017578125,-400000.0625
timestamp,ch7,ch2,ch3,ch5,is_pause
3.361576795578003,-400000.0625,-9851.1201171875,-4532.77001953125,-400000.0625,-15300.7998046875,-400000.0625,-6214.91015625,-400000.0625
timestamp,ch7,ch2,ch3,ch5,is_pause
3.3755435943603516,-400000.0625,-9846.16015625,-4529.2900390625,-400000.0625,-15298.419921875,-400000.0625,-6208.9501953125,-400000.0625
timestamp,ch7,ch2,ch3,ch5,is_pause
3.3881258964538574,-400000.0625,-9849.6396484375,-4535.06005859375,-400000.0625,-15305.1904296875,-400000.0625,-6217.18994140625,-400000.0625
timestamp,ch7,ch2,ch3,ch5,is_pause
3.404136896133423,-400000.0625,-9861.419921875,-4541.64013671875,-400000.0625,-15309.240234375,-400000.0625,-6229.1201171875,-400000.0625
timestamp,ch7,ch2,ch3,ch5,is_pause
3.417055368423462,-400000.0625,-9860.330078125,-4542.72998046875,-400000.0625,-15309.9599609375,-400000.0625,-6229.259765625,-400000.0625
timestamp,ch7,ch2,ch3,ch5,is_pause
3.4402010440826416,-400000.0625,-9858.1298828125,-4540.6298828125,-400000.0625,-15311.4296875,-400000.0625,-6226.10986328125,-400000.0625
timestamp,ch7,ch2,ch3,ch5,is_pause
3.4543569087982178,-400000.0625,-9851.0302734375,-4532.77001953125,-400000.0625,-15300.66015625,-400000.0625,-6215.91015625,-400000.0625
timestamp,ch7,ch2,ch3,ch5,is_pause
3.465873956680298,-400000.0625,-9853.080078125,-4533.6298828125,-400000.0625,-15300.66015625,-400000.0625,-6212.759765625,-400000.0625
timestamp,ch7,ch2,ch3,ch5,is_pause
3.4841034412384033,-400000.0625,-9856.080078125,-4535.47998046875,-400000.0625,-15303.849609375,-400000.0625,-6217.91015625,-400000.0625
timestamp,ch7,ch2,ch3,ch5,is_pause
3.495556592941284,-400000.0625,-9852.4599609375,-4530.56982421875,-400000.0625,-15303.3798828125,-400000.0625,-6216.72021484375,-400000.0625
timestamp,ch7,ch2,ch3,ch5,is_pause
3.5112464427948,-400000.0625,-9849.7900390625,-4528.81005859375,-400000.0625,-15298.650390625,-400000.0625,-6210.52001953125,-400000.0625
timestamp,ch7,ch2,ch3,ch5,is_pause
3.5244312286376953,-400000.0625,-9843.9697265625,-4523.7998046875,-400000.0625,-15294.169921875,-400000.0625,-6211.0,-400000.0625
timestamp,ch7,ch2,ch3,ch5,is_pause
timestamp,ch7,ch2,ch3,ch5,is_pause
3.552830696105957,-400000.0625,-9851.5,-4531.91015625,-400000.0625,-15301.900390625,-400000.0625,-6213.52001953125,-400000.0625
timestamp,ch7,ch2,ch3,ch5,is_pause
3.5664029121398926,-400000.0625,-9864.3798828125,-4540.490234375,-400000.0625,-15310.7197265625,-400000.0625,-6223.43994140625,-400000.0625
timestamp,ch7,ch2,ch3,ch5,is_pause
3.5797407627105713,-400000.0625,-9869.4296875,-4546.93017578125,-400000.0625,-15317.0595703125,-400000.0625,-6234.4599609375,-400000.0625
3.5913641452789307,-400000.0625,-9862.6103515625,-4542.72998046875,-400000.0625,-15313.7197265625,-400000.0625,-6228.64013671875,-400000.0625
timestamp,ch7,ch2,ch3,ch5,is_pause
3.609163761138916,-400000.0625,-9858.2802734375,-4536.72021484375,-400000.0625,-15305.0,-400000.0625,-6220.6298828125,-400000.0625
timestamp,ch7,ch2,ch3,ch5,is_pause
3.621668815612793,-400000.0625,-9855.75,-4531.91015625,-400000.0625,-15297.3701171875,-400000.0625,-6216.91015625,-400000.0625
timestamp,ch7,ch2,ch3,ch5,is_pause
3.635401725769043,-400000.0625,-9852.83984375,-4530.240234375,-400000.0625,-15296.509765625,-400000.0625,-6221.9599609375,-400000.0625
timestamp,ch7,ch2,ch3,ch5,is_pause
3.658897876739502,-400000.0625,-9858.66015625,-4534.91015625,-400000.0625,-15298.0302734375,-400000.0625,-6227.4501953125,-400000.0625
timestamp,ch7,ch2,ch3,ch5,is_pause
timestamp,ch7,ch2,ch3,ch5,is_pause
3.6785459518432617,-400000.0625,-9858.419921875,-4535.06005859375,-400000.0625,-15304.3798828125,-400000.0625,-6222.6298828125,-400000.0625
3.686781644821167,-400000.0625,-9849.98046875,-4528.08984375,-400000.0625,-15303.5703125,-400000.0625,-6213.6201171875,-400000.0625
timestamp,ch7,ch2,ch3,ch5,is_pause
3.696512222290039,-400000.0625,-9844.9697265625,-4520.990234375,-400000.0625,-15296.7900390625,-400000.0625,-6210.419921875,-400000.0625
timestamp,ch7,ch2,ch3,ch5,is_pause
3.709393262863159,-400000.0625,-9854.080078125,-4531.240234375,-400000.0625,-15300.66015625,-400000.0625,-6224.490234375,-400000.0625
timestamp,ch7,ch2,ch3,ch5,is_pause
3.7202022075653076,-400000.0625,-9868.8095703125,-4547.830078125,-400000.0625,-15316.1103515625,-400000.0625,-6239.02978515625,-400000.0625
timestamp,ch7,ch2,ch3,ch5,is_pause
3.733049154281616,-400000.0625,-9868.7197265625,-4546.06982421875,-400000.0625,-15317.9697265625,-400000.0625,-6236.1201171875,-400000.0625
3.7420766353607178,-400000.0625,-9853.3203125,-4529.91015625,-400000.0625,-15298.26953125,-400000.0625,-6220.14990234375,-400000.0625
timestamp,ch7,ch2,ch3,ch5,is_pause
timestamp,ch7,ch2,ch3,ch5,is_pause
3.769040822982788,-400000.0625,-9851.740234375,-4527.9501953125,-400000.0625,-15295.3603515625,-400000.0625,-6218.91015625,-400000.0625
timestamp,ch7,ch2,ch3,ch5,is_pause
3.780258893966675,-400000.0625,-9867.5302734375,-4542.5400390625,-400000.0625,-15312.9599609375,-400000.0625,-6234.89013671875,-400000.0625
3.788865089416504,-400000.0625,-9873.2998046875,-4545.02001953125,-400000.0625,-15313.8203125,-400000.0625,-6238.83984375,-400000.0625
timestamp,ch7,ch2,ch3,ch5,is_pause
3.8016257286071777,-400000.0625,-9875.919921875,-4545.02001953125,-400000.0625,-15313.91015625,-400000.0625,-6235.5,-400000.0625
timestamp,ch7,ch2,ch3,ch5,is_pause
3.813720464706421,-400000.0625,-9860.2802734375,-4531.56982421875,-400000.0625,-15305.3798828125,-400000.0625,-6222.2001953125,-400000.0625
3.821603298187256,-400000.0625,-9856.26953125,-4530.6201171875,-400000.0625,-15304.66015625,-400000.0625,-6220.2001953125,-400000.0625
timestamp,ch7,ch2,ch3,ch5,is_pause
3.8345510959625244,-400000.0625,-9865.9501953125,-4541.919921875,-400000.0625,-15311.3896484375,-400000.0625,-6231.93017578125,-400000.0625
timestamp,ch7,ch2,ch3,ch5,is_pause
3.8467516899108887,-400000.0625,-9869.2001953125,-4546.5,-400000.0625,-15311.76953125,-400000.0625,-6234.02978515625,-400000.0625
timestamp,ch7,ch2,ch3,ch5,is_pause
timestamp,ch7,ch2,ch3,ch5,is_pause
3.876398801803589,-400000.0625,-9860.23046875,-4537.06005859375,-400000.0625,-15306.2802734375,-400000.0625,-6223.14990234375,-400000.0625
timestamp,ch7,ch2,ch3,ch5,is_pause
3.8916051387786865,-400000.0625,-9849.169921875,-4524.52001953125,-400000.0625,-15295.080078125,-400000.0625,-6211.0,-400000.0625
timestamp,ch7,ch2,ch3,ch5,is_pause
3.90773868560791,-400000.0625,-9853.1298828125,-4526.18994140625,-400000.0625,-15299.419921875,-400000.0625,-6213.669921875,-400000.0625
timestamp,ch7,ch2,ch3,ch5,is_pause
3.9186458587646484,-400000.0625,-9866.099609375,-4538.35009765625,-400000.0625,-15308.8095703125,-400000.0625,-6222.10986328125,-400000.0625
timestamp,ch7,ch2,ch3,ch5,is_pause
3.9278340339660645,-400000.0625,-9864.4697265625,-4537.68017578125,-400000.0625,-15304.900390625,-400000.0625,-6220.06005859375,-400000.0625
3.9354088306427,-400000.0625,-9851.080078125,-4527.18994140625,-400000.0625,-15297.650390625,-400000.0625,-6212.759765625,-400000.0625
timestamp,ch7,ch2,ch3,ch5,is_pause
3.946009635925293,-400000.0625,-9849.0703125,-4523.7099609375,-400000.0625,-15301.7998046875,-400000.0625,-6210.18017578125,-400000.0625
timestamp,ch7,ch2,ch3,ch5,is_pause
3.958453893661499,-400000.0625,-9849.6396484375,-4524.330078125,-400000.0625,-15301.6103515625,-400000.0625,-6206.85009765625,-400000.0625
timestamp,ch7,ch2,ch3,ch5,is_pause
3.9794118404388428,-400000.0625,-9864.330078125,-4540.06005859375,-400000.0625,-15312.150390625,-400000.0625,-6217.47998046875,-400000.0625
timestamp,ch7,ch2,ch3,ch5,is_pause
3.9919321537017822,-400000.0625,-9868.3798828125,-4543.8798828125,-400000.0625,-15315.009765625,-400000.0625,-6223.009765625,-400000.0625
timestamp,ch7,ch2,ch3,ch5,is_pause
4.005502939224243,-400000.0625,-9859.849609375,-4540.830078125,-400000.0625,-15302.849609375,-400000.0625,-6220.77001953125,-400000.0625
timestamp,ch7,ch2,ch3,ch5,is_pause
4.0185041427612305,-400000.0625,-9858.1796875,-4538.10986328125,-400000.0625,-15306.6201171875,-400000.0625,-6215.6201171875,-400000.0625
timestamp,ch7,ch2,ch3,ch5,is_pause
4.03366231918335,-400000.0625,-9862.900390625,-4542.2998046875,-400000.0625,-15313.669921875,-400000.0625,-6216.91015625,-400000.0625
timestamp,ch7,ch2,ch3,ch5,is_pause
4.046305418014526,-400000.0625,-9857.849609375,-4540.39990234375,-400000.0625,-15311.91015625,-400000.0625,-6213.0,-400000.0625
timestamp,ch7,ch2,ch3,ch5,is_pause
4.058674573898315,-400000.0625,-9858.5595703125,-4535.06005859375,-400000.0625,-15309.0498046875,-400000.0625,-6210.52001953125,-400000.0625
timestamp,ch7,ch2,ch3,ch5,is_pause
timestamp,ch7,ch2,ch3,ch5,is_pause
4.088703155517578,-400000.0625,-9851.3095703125,-4527.759765625,-400000.0625,-15303.4697265625,-400000.0625,-6205.27001953125,-400000.0625
timestamp,ch7,ch2,ch3,ch5,is_pause
4.099946975708008,-400000.0625,-9845.1103515625,-4525.7099609375,-400000.0625,-15296.650390625,-400000.0625,-6201.31982421875,-400000.0625
timestamp,ch7,ch2,ch3,ch5,is_pause
4.112308979034424,-400000.0625,-9848.1201171875,-4529.0498046875,-400000.0625,-15294.5498046875,-400000.0625,-6202.89013671875,-400000.0625
timestamp,ch7,ch2,ch3,ch5,is_pause
4.125009536743164,-400000.0625,-9859.0400390625,-4535.25,-400000.0625,-15305.4697265625,-400000.0625,-6212.7099609375,-400000.0625
timestamp,ch7,ch2,ch3,ch5,is_pause
4.135760307312012,-400000.0625,-9859.23046875,-4535.77001953125,-400000.0625,-15316.2998046875,-400000.0625,-6218.9599609375,-400000.0625
4.144926071166992,-400000.0625,-9861.6103515625,-4537.2001953125,-400000.0625,-15316.1103515625,-400000.0625,-6216.91015625,-400000.0625
timestamp,ch7,ch2,ch3,ch5,is_pause
4.158615827560425,-400000.0625,-9857.75,-4532.580078125,-400000.0625,-15313.150390625,-400000.0625,-6216.81005859375,-400000.0625
timestamp,ch7,ch2,ch3,ch5,is_pause
4.170149326324463,-400000.0625,-9851.26953125,-4529.240234375,-400000.0625,-15307.48046875,-400000.0625,-6218.47998046875,-400000.0625
timestamp,ch7,ch2,ch3,ch5,is_pause
timestamp,ch7,ch2,ch3,ch5,is_pause
4.1967151165008545,-400000.0625,-9845.73046875,-4525.14013671875,-400000.0625,-15303.2802734375,-400000.0625,-6222.2998046875,-400000.0625
4.205981731414795,-400000.0625,-9844.73046875,-4523.419921875,-400000.0625,-15302.849609375,-400000.0625,-6228.64013671875,-400000.0625
timestamp,ch7,ch2,ch3,ch5,is_pause
4.220718145370483,-400000.0625,-9840.2001953125,-4515.5498046875,-400000.0625,-15298.0302734375,-400000.0625,-6218.77001953125,-400000.0625
timestamp,ch7,ch2,ch3,ch5,is_pause
4.232719421386719,-400000.0625,-9839.76953125,-4511.2099609375,-400000.0625,-15296.4599609375,-400000.0625,-6218.580078125,-400000.0625
timestamp,ch7,ch2,ch3,ch5,is_pause
4.242200613021851,-400000.0625,-9837.33984375,-4513.22021484375,-400000.0625,-15295.599609375,-400000.0625,-6224.10986328125,-400000.0625
4.24999737739563,-400000.0625,-9843.9697265625,-4519.509765625,-400000.0625,-15297.83984375,-400000.0625,-6233.1201171875,-400000.0625
timestamp,ch7,ch2,ch3,ch5,is_pause
4.258241176605225,-400000.0625,-9847.2099609375,-4524.7998046875,-400000.0625,-15303.7099609375,-400000.0625,-6229.77978515625,-400000.0625
timestamp,ch7,ch2,ch3,ch5,is_pause
4.269500732421875,-400000.0625,-9841.73046875,-4517.31982421875,-400000.0625,-15298.6103515625,-400000.0625,-6228.5,-400000.0625
4.281466722488403,-400000.0625,-9848.3095703125,-4523.1298828125,-400000.0625,-15307.51953125,-400000.0625,-6228.830078125,-400000.0625
timestamp,ch7,ch2,ch3,ch5,is_pause
timestamp,ch7,ch2,ch3,ch5,is_pause
4.309032440185547,-400000.0625,-9849.1201171875,-4523.330078125,-400000.0625,-15306.5703125,-400000.0625,-6229.58984375,-400000.0625
timestamp,ch7,ch2,ch3,ch5,is_pause
4.319688320159912,-400000.0625,-9848.5,-4524.990234375,-400000.0625,-15305.2802734375,-400000.0625,-6233.31005859375,-400000.0625
timestamp,ch7,ch2,ch3,ch5,is_pause
4.329233407974243,-400000.0625,-9849.9296875,-4526.27978515625,-400000.0625,-15307.0498046875,-400000.0625,-6237.93994140625,-400000.0625
4.3406267166137695,-400000.0625,-9851.080078125,-4520.1298828125,-400000.0625,-15305.0,-400000.0625,-6229.830078125,-400000.0625
timestamp,ch7,ch2,ch3,ch5,is_pause
4.352946996688843,-400000.0625,-9841.400390625,-4516.41015625,-400000.0625,-15303.900390625,-400000.0625,-6227.490234375,-400000.0625
timestamp,ch7,ch2,ch3,ch5,is_pause
4.363347291946411,-400000.0625,-9845.0703125,-4520.080078125,-400000.0625,-15302.3701171875,-400000.0625,-6227.830078125,-400000.0625
timestamp,ch7,ch2,ch3,ch5,is_pause
4.377089023590088,-400000.0625,-9856.650390625,-4530.14013671875,-400000.0625,-15306.4296875,-400000.0625,-6239.83984375,-400000.0625
timestamp,ch7,ch2,ch3,ch5,is_pause
4.386808156967163,-400000.0625,-9858.75,-4529.6201171875,-400000.0625,-15308.8603515625,-400000.0625,-6240.89013671875,-400000.0625
timestamp,ch7,ch2,ch3,ch5,is_pause
4.409899711608887,-400000.0625,-9851.7001953125,-4521.89013671875,-400000.0625,-15306.08984375,-400000.0625,-6234.02978515625,-400000.0625
timestamp,ch7,ch2,ch3,ch5,is_pause
4.421412706375122,-400000.0625,-9849.3603515625,-4519.080078125,-400000.0625,-15305.0,-400000.0625,-6232.93017578125,-400000.0625
timestamp,ch7,ch2,ch3,ch5,is_pause
4.431767225265503,-400000.0625,-9851.2197265625,-4519.31982421875,-400000.0625,-15300.75,-400000.0625,-6233.8798828125,-400000.0625
timestamp,ch7,ch2,ch3,ch5,is_pause
4.440893173217773,-400000.0625,-9859.849609375,-4526.47021484375,-400000.0625,-15302.1796875,-400000.0625,-6237.64990234375,-400000.0625
timestamp,ch7,ch2,ch3,ch5,is_pause
4.456206560134888,-400000.0625,-9870.099609375,-4536.919921875,-400000.0625,-15313.33984375,-400000.0625,-6247.3798828125,-400000.0625
timestamp,ch7,ch2,ch3,ch5,is_pause
4.467746734619141,-400000.0625,-9863.0,-4528.3798828125,-400000.0625,-15310.3798828125,-400000.0625,-6243.08984375,-400000.0625
4.477018356323242,-400000.0625,-9849.41015625,-4518.75,-400000.0625,-15304.0400390625,-400000.0625,-6234.5,-400000.0625
timestamp,ch7,ch2,ch3,ch5,is_pause
4.489128589630127,-400000.0625,-9847.3095703125,-4518.509765625,-400000.0625,-15298.23046875,-400000.0625,-6227.35009765625,-400000.0625
timestamp,ch7,ch2,ch3,ch5,is_pause
4.506879806518555,-400000.0625,-9845.830078125,-4516.5498046875,-400000.0625,-15294.169921875,-400000.0625,-6225.06005859375,-400000.0625
timestamp,ch7,ch2,ch3,ch5,is_pause
4.51960563659668,-400000.0625,-9851.3095703125,-4520.7001953125,-400000.0625,-15303.419921875,-400000.0625,-6233.83984375,-400000.0625
timestamp,ch7,ch2,ch3,ch5,is_pause
4.53219199180603,-400000.0625,-9854.75,-4520.27001953125,-400000.0625,-15306.759765625,-400000.0625,-6234.68994140625,-400000.0625
timestamp,ch7,ch2,ch3,ch5,is_pause
4.5438759326934814,-400000.0625,-9853.0302734375,-4522.31982421875,-400000.0625,-15305.7099609375,-400000.0625,-6234.740234375,-400000.0625
timestamp,ch7,ch2,ch3,ch5,is_pause
4.556709051132202,-400000.0625,-9857.23046875,-4529.759765625,-400000.0625,-15310.099609375,-400000.0625,-6238.7001953125,-400000.0625
timestamp,ch7,ch2,ch3,ch5,is_pause
4.566170692443848,-400000.0625,-9866.099609375,-4532.0498046875,-400000.0625,-15313.48046875,-400000.0625,-6244.89990234375,-400000.0625
4.575575351715088,-400000.0625,-9862.759765625,-4531.56982421875,-400000.0625,-15313.25,-400000.0625,-6243.52001953125,-400000.0625
timestamp,ch7,ch2,ch3,ch5,is_pause
4.590057849884033,-400000.0625,-9858.3203125,-4525.60986328125,-400000.0625,-15302.4697265625,-400000.0625,-6238.31982421875,-400000.0625
timestamp,ch7,ch2,ch3,ch5,is_pause
timestamp,ch7,ch2,ch3,ch5,is_pause
4.6179280281066895,-400000.0625,-9844.5,-4514.27001953125,-400000.0625,-15295.169921875,-400000.0625,-6230.77978515625,-400000.0625
timestamp,ch7,ch2,ch3,ch5,is_pause
4.631166219711304,-400000.0625,-9839.009765625,-4508.31005859375,-400000.0625,-15293.169921875,-400000.0625,-6223.009765625,-400000.0625
4.644171714782715,-400000.0625,-9846.58984375,-4516.4599609375,-400000.0625,-15304.330078125,-400000.0625,-6233.740234375,-400000.0625
timestamp,ch7,ch2,ch3,ch5,is_pause
timestamp,ch7,ch2,ch3,ch5,is_pause
4.663520574569702,-400000.0625,-9860.51953125,-4529.18994140625,-400000.0625,-15310.6201171875,-400000.0625,-6242.7099609375,-400000.0625
4.673422336578369,-400000.0625,-9856.26953125,-4525.759765625,-400000.0625,-15301.990234375,-400000.0625,-6235.7900390625,-400000.0625
timestamp,ch7,ch2,ch3,ch5,is_pause
4.69268798828125,-400000.0625,-9840.580078125,-4512.64013671875,-400000.0625,-15292.41015625,-400000.0625,-6226.97021484375,-400000.0625
timestamp,ch7,ch2,ch3,ch5,is_pause
timestamp,ch7,ch2,ch3,ch5,is_pause
4.718729496002197,-400000.0625,-9850.2197265625,-4521.7001953125,-400000.0625,-15296.9404296875,-400000.0625,-6232.31005859375,-400000.0625
timestamp,ch7,ch2,ch3,ch5,is_pause
4.7340734004974365,-400000.0625,-9868.33984375,-4533.9599609375,-400000.0625,-15306.2802734375,-400000.0625,-6244.47021484375,-400000.0625
timestamp,ch7,ch2,ch3,ch5,is_pause
4.745541334152222,-400000.0625,-9869.669921875,-4533.85986328125,-400000.0625,-15313.2001953125,-400000.0625,-6246.14013671875,-400000.0625
timestamp,ch7,ch2,ch3,ch5,is_pause
4.760926008224487,-400000.0625,-9859.849609375,-4525.3798828125,-400000.0625,-15306.5703125,-400000.0625,-6237.7001953125,-400000.0625
timestamp,ch7,ch2,ch3,ch5,is_pause
4.772837162017822,-400000.0625,-9847.400390625,-4516.080078125,-400000.0625,-15297.9404296875,-400000.0625,-6226.830078125,-400000.0625
timestamp,ch7,ch2,ch3,ch5,is_pause
4.785942316055298,-400000.0625,-9850.3603515625,-4516.169921875,-400000.0625,-15297.080078125,-400000.0625,-6218.85986328125,-400000.0625
timestamp,ch7,ch2,ch3,ch5,is_pause
4.80069375038147,-400000.0625,-9861.849609375,-4526.85009765625,-400000.0625,-15304.6103515625,-400000.0625,-6232.41015625,-400000.0625
timestamp,ch7,ch2,ch3,ch5,is_pause
4.823550224304199,-400000.0625,-9860.7099609375,-4528.85986328125,-400000.0625,-15305.8095703125,-400000.0625,-6237.169921875,-400000.0625
timestamp,ch7,ch2,ch3,ch5,is_pause
4.835797309875488,-400000.0625,-9858.7998046875,-4527.89990234375,-400000.0625,-15304.759765625,-400000.0625,-6235.169921875,-400000.0625
timestamp,ch7,ch2,ch3,ch5,is_pause
4.850133895874023,-400000.0625,-9851.0302734375,-4521.89013671875,-400000.0625,-15303.7099609375,-400000.0625,-6225.5400390625,-400000.0625
timestamp,ch7,ch2,ch3,ch5,is_pause
4.870432376861572,-400000.0625,-9845.0703125,-4515.080078125,-400000.0625,-15294.98046875,-400000.0625,-6219.77001953125,-400000.0625
timestamp,ch7,ch2,ch3,ch5,is_pause
timestamp,ch7,ch2,ch3,ch5,is_pause
4.89679741859436,-400000.0625,-9849.5498046875,-4518.7998046875,-400000.0625,-15298.1796875,-400000.0625,-6224.009765625,-400000.0625
4.906867742538452,-400000.0625,-9864.900390625,-4531.85986328125,-400000.0625,-15309.3798828125,-400000.0625,-6239.83984375,-400000.0625
timestamp,ch7,ch2,ch3,ch5,is_pause
timestamp,ch7,ch2,ch3,ch5,is_pause
4.941750764846802,-400000.0625,-9862.23046875,-4527.81005859375,-400000.0625,-15304.2802734375,-400000.0625,-6233.5498046875,-400000.0625
timestamp,ch7,ch2,ch3,ch5,is_pause
timestamp,ch7,ch2,ch3,ch5,is_pause
4.95943284034729,-400000.0625,-9858.3701171875,-4526.0,-400000.0625,-15302.3701171875,-400000.0625,-6231.259765625,-400000.0625
4.969958543777466,-400000.0625,-9860.7998046875,-4527.66015625,-400000.0625,-15311.150390625,-400000.0625,-6235.4599609375,-400000.0625
timestamp,ch7,ch2,ch3,ch5,is_pause
4.984288454055786,-400000.0625,-9868.48046875,-4531.72021484375,-400000.0625,-15318.1103515625,-400000.0625,-6237.35986328125,-400000.0625
timestamp,ch7,ch2,ch3,ch5,is_pause
4.997621297836304,-400000.0625,-9868.9599609375,-4528.330078125,-400000.0625,-15313.099609375,-400000.0625,-6239.22021484375,-400000.0625
timestamp,ch7,ch2,ch3,ch5,is_pause
5.008262395858765,-400000.0625,-9849.2197265625,-4518.080078125,-400000.0625,-15300.7998046875,-400000.0625,-6240.080078125,-400000.0625
timestamp,ch7,ch2,ch3,ch5,is_pause
timestamp,ch7,ch2,ch3,ch5,is_pause
5.037508726119995,-400000.0625,-9838.919921875,-4509.8798828125,-400000.0625,-15289.400390625,-400000.0625,-6237.75,-400000.0625
timestamp,ch7,ch2,ch3,ch5,is_pause
5.058571100234985,-400000.0625,-9842.8701171875,-4509.4501953125,-400000.0625,-15294.740234375,-400000.0625,-6238.18017578125,-400000.0625
timestamp,ch7,ch2,ch3,ch5,is_pause
5.072760820388794,-400000.0625,-9853.7001953125,-4516.02978515625,-400000.0625,-15304.900390625,-400000.0625,-6250.18994140625,-400000.0625
timestamp,ch7,ch2,ch3,ch5,is_pause
5.087124586105347,-400000.0625,-9853.0302734375,-4516.22021484375,-400000.0625,-15306.1904296875,-400000.0625,-6252.14990234375,-400000.0625
timestamp,ch7,ch2,ch3,ch5,is_pause
5.100670099258423,-400000.0625,-9845.2099609375,-4509.5,-400000.0625,-15296.509765625,-400000.0625,-6250.240234375,-400000.0625
timestamp,ch7,ch2,ch3,ch5,is_pause
5.115832805633545,-400000.0625,-9836.4404296875,-4504.2001953125,-400000.0625,-15290.41015625,-400000.0625,-6243.990234375,-400000.0625
timestamp,ch7,ch2,ch3,ch5,is_pause
timestamp,ch7,ch2,ch3,ch5,is_pause
5.144364833831787,-400000.0625,-9838.3896484375,-4506.06005859375,-400000.0625,-15295.3203125,-400000.0625,-6248.7099609375,-400000.0625
timestamp,ch7,ch2,ch3,ch5,is_pause
5.1590611934661865,-400000.0625,-9846.7802734375,-4512.5498046875,-400000.0625,-15302.759765625,-400000.0625,-6258.68017578125,-400000.0625
timestamp,ch7,ch2,ch3,ch5,is_pause
5.1706531047821045,-400000.0625,-9846.9697265625,-4512.83984375,-400000.0625,-15303.330078125,-400000.0625,-6257.06005859375,-400000.0625
timestamp,ch7,ch2,ch3,ch5,is_pause
5.183170318603516,-400000.0625,-9838.0595703125,-4505.43994140625,-400000.0625,-15298.6103515625,-400000.0625,-6254.39013671875,-400000.0625
timestamp,ch7,ch2,ch3,ch5,is_pause
5.197914123535156,-400000.0625,-9839.150390625,-4504.6298828125,-400000.0625,-15293.2197265625,-400000.0625,-6247.240234375,-400000.0625
timestamp,ch7,ch2,ch3,ch5,is_pause
5.211590528488159,-400000.0625,-9841.7802734375,-4505.58984375,-400000.0625,-15293.41015625,-400000.0625,-6241.990234375,-400000.0625
timestamp,ch7,ch2,ch3,ch5,is_pause
5.225805282592773,-400000.0625,-9838.8701171875,-4508.39990234375,-400000.0625,-15299.26953125,-400000.0625,-6250.0498046875,-400000.0625
timestamp,ch7,ch2,ch3,ch5,is_pause
timestamp,ch7,ch2,ch3,ch5,is_pause
5.251366138458252,-400000.0625,-9852.9404296875,-4515.60009765625,-400000.0625,-15309.3798828125,-400000.0625,-6254.9599609375,-400000.0625
5.261801242828369,-400000.0625,-9848.5,-4509.5,-400000.0625,-15306.9501953125,-400000.0625,-6250.669921875,-400000.0625
timestamp,ch7,ch2,ch3,ch5,is_pause
5.273886680603027,-400000.0625,-9838.8701171875,-4502.72998046875,-400000.0625,-15298.75,-400000.0625,-6241.1298828125,-400000.0625
timestamp,ch7,ch2,ch3,ch5,is_pause
5.288119792938232,-400000.0625,-9831.5703125,-4498.9599609375,-400000.0625,-15288.8798828125,-400000.0625,-6240.89013671875,-400000.0625
timestamp,ch7,ch2,ch3,ch5,is_pause
5.298772811889648,-400000.0625,-9841.349609375,-4508.39990234375,-400000.0625,-15300.1796875,-400000.0625,-6251.0498046875,-400000.0625
5.306826591491699,-400000.0625,-9849.3095703125,-4513.68994140625,-400000.0625,-15309.1904296875,-400000.0625,-6258.009765625,-400000.0625
timestamp,ch7,ch2,ch3,ch5,is_pause
5.321565628051758,-400000.0625,-9843.1103515625,-4510.259765625,-400000.0625,-15299.990234375,-400000.0625,-6255.33984375,-400000.0625
timestamp,ch7,ch2,ch3,ch5,is_pause
5.334155559539795,-400000.0625,-9837.91015625,-4503.490234375,-400000.0625,-15290.7900390625,-400000.0625,-6242.93994140625,-400000.0625
timestamp,ch7,ch2,ch3,ch5,is_pause
timestamp,ch7,ch2,ch3,ch5,is_pause
5.362804412841797,-400000.0625,-9833.9599609375,-4499.6298828125,-400000.0625,-15296.169921875,-400000.0625,-6240.990234375,-400000.0625
timestamp,ch7,ch2,ch3,ch5,is_pause
5.374737977981567,-400000.0625,-9846.6904296875,-4508.68994140625,-400000.0625,-15309.7197265625,-400000.0625,-6251.33984375,-400000.0625
timestamp,ch7,ch2,ch3,ch5,is_pause
5.389138221740723,-400000.0625,-9852.4599609375,-4512.5,-400000.0625,-15309.4296875,-400000.0625,-6254.9599609375,-400000.0625
timestamp,ch7,ch2,ch3,ch5,is_pause
5.401966571807861,-400000.0625,-9845.5,-4505.919921875,-400000.0625,-15302.2802734375,-400000.0625,-6249.81005859375,-400000.0625
timestamp,ch7,ch2,ch3,ch5,is_pause
5.413470983505249,-400000.0625,-9838.919921875,-4504.25,-400000.0625,-15298.3203125,-400000.0625,-6244.56005859375,-400000.0625
timestamp,ch7,ch2,ch3,ch5,is_pause
5.428094863891602,-400000.0625,-9834.91015625,-4502.009765625,-400000.0625,-15293.3095703125,-400000.0625,-6246.330078125,-400000.0625
5.438241243362427,-400000.0625,-9845.8798828125,-4506.64013671875,-400000.0625,-15298.5595703125,-400000.0625,-6250.43017578125,-400000.0625
timestamp,ch7,ch2,ch3,ch5,is_pause
timestamp,ch7,ch2,ch3,ch5,is_pause
5.46509051322937,-400000.0625,-9852.509765625,-4511.93017578125,-400000.0625,-15305.66015625,-400000.0625,-6256.39013671875,-400000.0625
timestamp,ch7,ch2,ch3,ch5,is_pause
5.476947069168091,-400000.0625,-9849.8798828125,-4512.06982421875,-400000.0625,-15311.91015625,-400000.0625,-6258.68017578125,-400000.0625
timestamp,ch7,ch2,ch3,ch5,is_pause
5.4921181201934814,-400000.0625,-9841.16015625,-4506.4501953125,-400000.0625,-15308.669921875,-400000.0625,-6253.52978515625,-400000.0625
timestamp,ch7,ch2,ch3,ch5,is_pause
5.503191947937012,-400000.0625,-9830.6201171875,-4500.2001953125,-400000.0625,-15298.3203125,-400000.0625,-6240.02978515625,-400000.0625
timestamp,ch7,ch2,ch3,ch5,is_pause
5.516685247421265,-400000.0625,-9840.16015625,-4511.31005859375,-400000.0625,-15308.099609375,-400000.0625,-6254.0498046875,-400000.0625
timestamp,ch7,ch2,ch3,ch5,is_pause
5.531538486480713,-400000.0625,-9850.3095703125,-4515.22021484375,-400000.0625,-15310.33984375,-400000.0625,-6259.2998046875,-400000.0625
timestamp,ch7,ch2,ch3,ch5,is_pause
5.542058944702148,-400000.0625,-9849.83984375,-4513.22021484375,-400000.0625,-15310.8095703125,-400000.0625,-6258.43994140625,-400000.0625
timestamp,ch7,ch2,ch3,ch5,is_pause
5.568523645401001,-400000.0625,-9843.2998046875,-4508.259765625,-400000.0625,-15302.990234375,-400000.0625,-6251.91015625,-400000.0625
timestamp,ch7,ch2,ch3,ch5,is_pause
5.579968690872192,-400000.0625,-9839.1103515625,-4505.72998046875,-400000.0625,-15294.7900390625,-400000.0625,-6249.7099609375,-400000.0625
timestamp,ch7,ch2,ch3,ch5,is_pause
5.591960191726685,-400000.0625,-9842.830078125,-4510.02001953125,-400000.0625,-15304.900390625,-400000.0625,-6255.9599609375,-400000.0625
timestamp,ch7,ch2,ch3,ch5,is_pause
5.604202508926392,-400000.0625,-9858.23046875,-4523.89990234375,-400000.0625,-15321.2099609375,-400000.0625,-6268.41015625,-400000.0625
timestamp,ch7,ch2,ch3,ch5,is_pause
5.617889642715454,-400000.0625,-9856.3203125,-4521.27978515625,-400000.0625,-15315.9599609375,-400000.0625,-6267.740234375,-400000.0625
timestamp,ch7,ch2,ch3,ch5,is_pause
5.6325788497924805,-400000.0625,-9838.919921875,-4506.35009765625,-400000.0625,-15300.2802734375,-400000.0625,-6251.77001953125,-400000.0625
5.640815496444702,-400000.0625,-9837.6298828125,-4502.009765625,-400000.0625,-15295.599609375,-400000.0625,-6246.759765625,-400000.0625
timestamp,ch7,ch2,ch3,ch5,is_pause
5.6547627449035645,-400000.0625,-9843.4501953125,-4507.8798828125,-400000.0625,-15301.0400390625,-400000.0625,-6256.52978515625,-400000.0625
timestamp,ch7,ch2,ch3,ch5,is_pause
timestamp,ch7,ch2,ch3,ch5,is_pause
5.681765556335449,-400000.0625,-9852.169921875,-4515.509765625,-400000.0625,-15311.91015625,-400000.0625,-6266.7900390625,-400000.0625
timestamp,ch7,ch2,ch3,ch5,is_pause
5.695908546447754,-400000.0625,-9855.5595703125,-4517.60009765625,-400000.0625,-15310.6201171875,-400000.0625,-6263.97021484375,-400000.0625
timestamp,ch7,ch2,ch3,ch5,is_pause
5.7066216468811035,-400000.0625,-9842.349609375,-4506.8701171875,-400000.0625,-15300.419921875,-400000.0625,-6247.7099609375,-400000.0625
timestamp,ch7,ch2,ch3,ch5,is_pause
5.721865177154541,-400000.0625,-9827.4697265625,-4493.89990234375,-400000.0625,-15292.0703125,-400000.0625,-6230.2099609375,-400000.0625
timestamp,ch7,ch2,ch3,ch5,is_pause
5.734925270080566,-400000.0625,-9841.2998046875,-4508.2099609375,-400000.0625,-15306.5703125,-400000.0625,-6246.85009765625,-400000.0625
timestamp,ch7,ch2,ch3,ch5,is_pause
5.747502088546753,-400000.0625,-9862.4697265625,-4526.08984375,-400000.0625,-15324.830078125,-400000.0625,-6269.740234375,-400000.0625
5.756381273269653,-400000.0625,-9858.66015625,-4521.31982421875,-400000.0625,-15321.830078125,-400000.0625,-6264.77978515625,-400000.0625
timestamp,ch7,ch2,ch3,ch5,is_pause
timestamp,ch7,ch2,ch3,ch5,is_pause
5.784209728240967,-400000.0625,-9836.25,-4502.33984375,-400000.0625,-15295.8896484375,-400000.0625,-6241.1298828125,-400000.0625
timestamp,ch7,ch2,ch3,ch5,is_pause
5.79633092880249,-400000.0625,-9823.2802734375,-4490.7099609375,-400000.0625,-15291.7900390625,-400000.0625,-6233.06982421875,-400000.0625
timestamp,ch7,ch2,ch3,ch5,is_pause
5.8099493980407715,-400000.0625,-9845.9296875,-4509.16015625,-400000.0625,-15315.25,-400000.0625,-6252.0,-400000.0625
5.81937837600708,-400000.0625,-9862.23046875,-4521.66015625,-400000.0625,-15322.73046875,-400000.0625,-6269.02978515625,-400000.0625
timestamp,ch7,ch2,ch3,ch5,is_pause
5.830573320388794,-400000.0625,-9857.080078125,-4518.1298828125,-400000.0625,-15313.7197265625,-400000.0625,-6268.35986328125,-400000.0625
timestamp,ch7,ch2,ch3,ch5,is_pause
5.845006227493286,-400000.0625,-9835.5302734375,-4499.6298828125,-400000.0625,-15303.51953125,-400000.0625,-6251.6201171875,-400000.0625
5.855555295944214,-400000.0625,-9816.98046875,-4482.3701171875,-400000.0625,-15288.8798828125,-400000.0625,-6234.35986328125,-400000.0625
timestamp,ch7,ch2,ch3,ch5,is_pause
5.8730340003967285,-400000.0625,-9829.08984375,-4491.6201171875,-400000.0625,-15296.26953125,-400000.0625,-6241.60986328125,-400000.0625
timestamp,ch7,ch2,ch3,ch5,is_pause
timestamp,ch7,ch2,ch3,ch5,is_pause
timestamp,ch7,ch2,ch3,ch5,is_pause
5.907515287399292,-400000.0625,-9858.990234375,-4518.93994140625,-400000.0625,-15315.1103515625,-400000.0625,-6270.5498046875,-400000.0625
timestamp,ch7,ch2,ch3,ch5,is_pause
5.916929006576538,-400000.0625,-9860.1396484375,-4520.3701171875,-400000.0625,-15317.3896484375,-400000.0625,-6270.31005859375,-400000.0625
5.926279306411743,-400000.0625,-9836.9599609375,-4497.18994140625,-400000.0625,-15304.2802734375,-400000.0625,-6245.89990234375,-400000.0625
timestamp,ch7,ch2,ch3,ch5,is_pause
5.939910650253296,-400000.0625,-9826.6103515625,-4490.759765625,-400000.0625,-15298.080078125,-400000.0625,-6242.18017578125,-400000.0625
timestamp,ch7,ch2,ch3,ch5,is_pause
5.9534032344818115,-400000.0625,-9842.400390625,-4503.2998046875,-400000.0625,-15309.8603515625,-400000.0625,-6255.2001953125,-400000.0625
timestamp,ch7,ch2,ch3,ch5,is_pause
5.967316627502441,-400000.0625,-9859.2802734375,-4516.7900390625,-400000.0625,-15323.830078125,-400000.0625,-6269.64990234375,-400000.0625
timestamp,ch7,ch2,ch3,ch5,is_pause
5.981114625930786,-400000.0625,-9861.1796875,-4516.7900390625,-400000.0625,-15323.9697265625,-400000.0625,-6266.97998046875,-400000.0625
timestamp,ch7,ch2,ch3,ch5,is_pause
6.001309633255005,-400000.0625,-9851.1201171875,-4502.39013671875,-400000.0625,-15310.33984375,-400000.0625,-6243.27978515625,-400000.0625
timestamp,ch7,ch2,ch3,ch5,is_pause
6.013704776763916,-400000.0625,-9822.8896484375,-4479.60009765625,-400000.0625,-15286.9697265625,-400000.0625,-6222.25,-400000.0625
timestamp,ch7,ch2,ch3,ch5,is_pause
6.0246992111206055,-400000.0625,-9815.4599609375,-4484.4599609375,-400000.0625,-15286.9697265625,-400000.0625,-6243.75,-400000.0625
timestamp,ch7,ch2,ch3,ch5,is_pause
6.040287971496582,-400000.0625,-9848.169921875,-4509.8798828125,-400000.0625,-15314.7197265625,-400000.0625,-6270.1201171875,-400000.0625
timestamp,ch7,ch2,ch3,ch5,is_pause
6.053613185882568,-400000.0625,-9857.26953125,-4514.4599609375,-400000.0625,-15324.3095703125,-400000.0625,-6283.9501953125,-400000.0625
timestamp,ch7,ch2,ch3,ch5,is_pause
6.0674729347229,-400000.0625,-9826.7099609375,-4490.330078125,-400000.0625,-15304.8095703125,-400000.0625,-6267.31005859375,-400000.0625
timestamp,ch7,ch2,ch3,ch5,is_pause
6.08330774307251,-400000.0625,-9820.2197265625,-4479.740234375,-400000.0625,-15299.5595703125,-400000.0625,-6247.9501953125,-400000.0625
timestamp,ch7,ch2,ch3,ch5,is_pause
timestamp,ch7,ch2,ch3,ch5,is_pause
6.110381126403809,-400000.0625,-9828.4296875,-4485.89013671875,-400000.0625,-15303.7099609375,-400000.0625,-6263.830078125,-400000.0625
timestamp,ch7,ch2,ch3,ch5,is_pause
6.12218451499939,-400000.0625,-9844.01953125,-4499.6298828125,-400000.0625,-15317.490234375,-400000.0625,-6282.3798828125,-400000.0625
6.132486343383789,-400000.0625,-9841.8701171875,-4496.77001953125,-400000.0625,-15317.2998046875,-400000.0625,-6275.85009765625,-400000.0625
timestamp,ch7,ch2,ch3,ch5,is_pause
6.146791696548462,-400000.0625,-9824.66015625,-4484.22021484375,-400000.0625,-15301.7099609375,-400000.0625,-6258.2998046875,-400000.0625
timestamp,ch7,ch2,ch3,ch5,is_pause
6.157768487930298,-400000.0625,-9817.8896484375,-4477.41015625,-400000.0625,-15296.509765625,-400000.0625,-6249.2900390625,-400000.0625
timestamp,ch7,ch2,ch3,ch5,is_pause
6.174109935760498,-400000.0625,-9830.08984375,-4489.52001953125,-400000.0625,-15310.0,-400000.0625,-6263.68994140625,-400000.0625
timestamp,ch7,ch2,ch3,ch5,is_pause
6.187568187713623,-400000.0625,-9851.740234375,-4509.02001953125,-400000.0625,-15325.6904296875,-400000.0625,-6286.91015625,-400000.0625
timestamp,ch7,ch2,ch3,ch5,is_pause
timestamp,ch7,ch2,ch3,ch5,is_pause
6.214611768722534,-400000.0625,-9849.599609375,-4501.919921875,-400000.0625,-15320.58984375,-400000.0625,-6279.56005859375,-400000.0625
timestamp,ch7,ch2,ch3,ch5,is_pause
6.225966691970825,-400000.0625,-9823.849609375,-4480.27001953125,-400000.0625,-15300.7001953125,-400000.0625,-6255.2900390625,-400000.0625
timestamp,ch7,ch2,ch3,ch5,is_pause
6.240152835845947,-400000.0625,-9814.98046875,-4474.2099609375,-400000.0625,-15292.41015625,-400000.0625,-6245.08984375,-400000.0625
timestamp,ch7,ch2,ch3,ch5,is_pause
6.249648332595825,-400000.0625,-9829.51953125,-4487.60986328125,-400000.0625,-15305.0,-400000.0625,-6258.10986328125,-400000.0625
6.257913827896118,-400000.0625,-9841.9697265625,-4499.52978515625,-400000.0625,-15317.490234375,-400000.0625,-6273.75,-400000.0625
timestamp,ch7,ch2,ch3,ch5,is_pause
6.271456718444824,-400000.0625,-9841.2998046875,-4499.81982421875,-400000.0625,-15320.9697265625,-400000.0625,-6277.08984375,-400000.0625
timestamp,ch7,ch2,ch3,ch5,is_pause
6.283517837524414,-400000.0625,-9827.08984375,-4486.75,-400000.0625,-15311.76953125,-400000.0625,-6259.25,-400000.0625
timestamp,ch7,ch2,ch3,ch5,is_pause
6.295821905136108,-400000.0625,-9823.66015625,-4480.169921875,-400000.0625,-15307.48046875,-400000.0625,-6252.85986328125,-400000.0625
timestamp,ch7,ch2,ch3,ch5,is_pause
timestamp,ch7,ch2,ch3,ch5,is_pause
6.322430849075317,-400000.0625,-9830.48046875,-4486.419921875,-400000.0625,-15311.580078125,-400000.0625,-6264.740234375,-400000.0625
timestamp,ch7,ch2,ch3,ch5,is_pause
6.337392091751099,-400000.0625,-9839.25,-4494.47998046875,-400000.0625,-15316.2001953125,-400000.0625,-6273.4599609375,-400000.0625
timestamp,ch7,ch2,ch3,ch5,is_pause
6.348325729370117,-400000.0625,-9833.9599609375,-4487.7998046875,-400000.0625,-15311.33984375,-400000.0625,-6270.1201171875,-400000.0625
6.356790781021118,-400000.0625,-9827.1396484375,-4480.93017578125,-400000.0625,-15309.669921875,-400000.0625,-6260.97021484375,-400000.0625
timestamp,ch7,ch2,ch3,ch5,is_pause
6.372425079345703,-400000.0625,-9818.98046875,-4476.35986328125,-400000.0625,-15300.509765625,-400000.0625,-6249.9501953125,-400000.0625
timestamp,ch7,ch2,ch3,ch5,is_pause
6.386476039886475,-400000.0625,-9824.849609375,-4481.35986328125,-400000.0625,-15303.23046875,-400000.0625,-6264.5400390625,-400000.0625
timestamp,ch7,ch2,ch3,ch5,is_pause
6.399365425109863,-400000.0625,-9847.5498046875,-4501.009765625,-400000.0625,-15321.830078125,-400000.0625,-6288.85986328125,-400000.0625
timestamp,ch7,ch2,ch3,ch5,is_pause
timestamp,ch7,ch2,ch3,ch5,is_pause
6.42319130897522,-400000.0625,-9846.7802734375,-4499.43994140625,-400000.0625,-15320.490234375,-400000.0625,-6282.7099609375,-400000.0625
timestamp,ch7,ch2,ch3,ch5,is_pause
6.4397687911987305,-400000.0625,-9828.330078125,-4481.7001953125,-400000.0625,-15303.1796875,-400000.0625,-6264.97021484375,-400000.0625
timestamp,ch7,ch2,ch3,ch5,is_pause
6.451939344406128,-400000.0625,-9819.3701171875,-4474.02001953125,-400000.0625,-15300.509765625,-400000.0625,-6255.43994140625,-400000.0625
timestamp,ch7,ch2,ch3,ch5,is_pause
6.462118864059448,-400000.0625,-9828.1904296875,-4483.990234375,-400000.0625,-15312.240234375,-400000.0625,-6267.5,-400000.0625
6.474255084991455,-400000.0625,-9842.349609375,-4496.56982421875,-400000.0625,-15317.25,-400000.0625,-6280.759765625,-400000.0625
timestamp,ch7,ch2,ch3,ch5,is_pause
6.4851233959198,-400000.0625,-9835.76953125,-4488.60986328125,-400000.0625,-15311.2900390625,-400000.0625,-6273.3701171875,-400000.0625
timestamp,ch7,ch2,ch3,ch5,is_pause
6.497304201126099,-400000.0625,-9822.7001953125,-4477.97998046875,-400000.0625,-15303.330078125,-400000.0625,-6260.72998046875,-400000.0625
timestamp,ch7,ch2,ch3,ch5,is_pause
6.509883642196655,-400000.0625,-9820.26953125,-4475.1201171875,-400000.0625,-15297.75,-400000.0625,-6257.009765625,-400000.0625
timestamp,ch7,ch2,ch3,ch5,is_pause
timestamp,ch7,ch2,ch3,ch5,is_pause
6.534550666809082,-400000.0625,-9831.5302734375,-4482.7001953125,-400000.0625,-15307.3798828125,-400000.0625,-6271.31982421875,-400000.0625
6.545979022979736,-400000.0625,-9843.2099609375,-4494.240234375,-400000.0625,-15319.7802734375,-400000.0625,-6285.759765625,-400000.0625
timestamp,ch7,ch2,ch3,ch5,is_pause
6.557242155075073,-400000.0625,-9842.490234375,-4494.240234375,-400000.0625,-15316.580078125,-400000.0625,-6278.18017578125,-400000.0625
timestamp,ch7,ch2,ch3,ch5,is_pause
6.573164939880371,-400000.0625,-9828.0400390625,-4479.4599609375,-400000.0625,-15303.1396484375,-400000.0625,-6263.35009765625,-400000.0625
timestamp,ch7,ch2,ch3,ch5,is_pause
6.584741115570068,-400000.0625,-9819.2197265625,-4471.4501953125,-400000.0625,-15298.9404296875,-400000.0625,-6256.10009765625,-400000.0625
timestamp,ch7,ch2,ch3,ch5,is_pause
6.59740138053894,-400000.0625,-9828.330078125,-4477.60009765625,-400000.0625,-15304.1396484375,-400000.0625,-6266.31005859375,-400000.0625
timestamp,ch7,ch2,ch3,ch5,is_pause
6.610194683074951,-400000.0625,-9844.919921875,-4492.6201171875,-400000.0625,-15317.2001953125,-400000.0625,-6285.91015625,-400000.0625
timestamp,ch7,ch2,ch3,ch5,is_pause
timestamp,ch7,ch2,ch3,ch5,is_pause
6.635938882827759,-400000.0625,-9840.7802734375,-4487.22998046875,-400000.0625,-15313.5302734375,-400000.0625,-6278.27978515625,-400000.0625
6.647852897644043,-400000.0625,-9824.7998046875,-4474.830078125,-400000.0625,-15302.1396484375,-400000.0625,-6266.31005859375,-400000.0625
timestamp,ch7,ch2,ch3,ch5,is_pause
6.658673286437988,-400000.0625,-9825.900390625,-4476.35986328125,-400000.0625,-15305.5703125,-400000.0625,-6268.68994140625,-400000.0625
timestamp,ch7,ch2,ch3,ch5,is_pause
6.673397779464722,-400000.0625,-9838.1103515625,-4486.18017578125,-400000.0625,-15313.4404296875,-400000.0625,-6283.81005859375,-400000.0625
timestamp,ch7,ch2,ch3,ch5,is_pause
6.68470573425293,-400000.0625,-9847.3603515625,-4488.990234375,-400000.0625,-15312.9599609375,-400000.0625,-6285.81005859375,-400000.0625
6.692866325378418,-400000.0625,-9852.8896484375,-4491.6201171875,-400000.0625,-15318.58984375,-400000.0625,-6268.06982421875,-400000.0625
timestamp,ch7,ch2,ch3,ch5,is_pause
6.707144498825073,-400000.0625,-9841.400390625,-4493.759765625,-400000.0625,-15313.33984375,-400000.0625,-6251.72021484375,-400000.0625
timestamp,ch7,ch2,ch3,ch5,is_pause
6.7197585105896,-400000.0625,-9832.759765625,-4489.990234375,-400000.0625,-15308.0,-400000.0625,-6238.41015625,-400000.0625
timestamp,ch7,ch2,ch3,ch5,is_pause
timestamp,ch7,ch2,ch3,ch5,is_pause
6.747581481933594,-400000.0625,-9848.5498046875,-4501.2001953125,-400000.0625,-15313.91015625,-400000.0625,-6239.18017578125,-400000.0625
timestamp,ch7,ch2,ch3,ch5,is_pause
6.758356332778931,-400000.0625,-9852.4599609375,-4512.35986328125,-400000.0625,-15318.2001953125,-400000.0625,-6239.02978515625,-400000.0625
timestamp,ch7,ch2,ch3,ch5,is_pause
6.773031234741211,-400000.0625,-9849.7900390625,-4516.5498046875,-400000.0625,-15313.009765625,-400000.0625,-6225.16015625,-400000.0625
timestamp,ch7,ch2,ch3,ch5,is_pause
6.784400701522827,-400000.0625,-9841.2998046875,-4512.60009765625,-400000.0625,-15305.0,-400000.0625,-6210.18017578125,-400000.0625
timestamp,ch7,ch2,ch3,ch5,is_pause
6.796187877655029,-400000.0625,-9842.9697265625,-4516.22021484375,-400000.0625,-15309.91015625,-400000.0625,-6200.64990234375,-400000.0625
timestamp,ch7,ch2,ch3,ch5,is_pause
6.814208269119263,-400000.0625,-9852.1201171875,-4530.43017578125,-400000.0625,-15316.73046875,-400000.0625,-6216.33984375,-400000.0625
6.82394814491272,-400000.0625,-9858.7998046875,-4537.43994140625,-400000.0625,-15325.0703125,-400000.0625,-6227.2998046875,-400000.0625
timestamp,ch7,ch2,ch3,ch5,is_pause
timestamp,ch7,ch2,ch3,ch5,is_pause
6.855135679244995,-400000.0625,-9847.5,-4525.0400390625,-400000.0625,-15317.4404296875,-400000.0625,-6214.9501953125,-400000.0625
timestamp,ch7,ch2,ch3,ch5,is_pause
6.87440824508667,-400000.0625,-9832.7197265625,-4512.83984375,-400000.0625,-15305.4697265625,-400000.0625,-6201.5498046875,-400000.0625
timestamp,ch7,ch2,ch3,ch5,is_pause
timestamp,ch7,ch2,ch3,ch5,is_pause
6.901478290557861,-400000.0625,-9827.849609375,-4506.10986328125,-400000.0625,-15297.509765625,-400000.0625,-6198.5,-400000.0625
timestamp,ch7,ch2,ch3,ch5,is_pause
6.915168523788452,-400000.0625,-9839.490234375,-4517.27001953125,-400000.0625,-15306.7099609375,-400000.0625,-6210.14013671875,-400000.0625
timestamp,ch7,ch2,ch3,ch5,is_pause
6.928426504135132,-400000.0625,-9849.6396484375,-4529.6201171875,-400000.0625,-15316.490234375,-400000.0625,-6221.43994140625,-400000.0625
timestamp,ch7,ch2,ch3,ch5,is_pause
timestamp,ch7,ch2,ch3,ch5,is_pause
6.958016633987427,-400000.0625,-9841.73046875,-4518.41015625,-400000.0625,-15313.8203125,-400000.0625,-6208.7998046875,-400000.0625
timestamp,ch7,ch2,ch3,ch5,is_pause
6.977308034896851,-400000.0625,-9823.23046875,-4502.6298828125,-400000.0625,-15298.23046875,-400000.0625,-6189.39013671875,-400000.0625
timestamp,ch7,ch2,ch3,ch5,is_pause
6.990103006362915,-400000.0625,-9830.3798828125,-4509.8798828125,-400000.0625,-15307.48046875,-400000.0625,-6198.1201171875,-400000.0625
timestamp,ch7,ch2,ch3,ch5,is_pause
7.0061211585998535,-400000.0625,-9844.9697265625,-4522.22998046875,-400000.0625,-15321.349609375,-400000.0625,-6211.9501953125,-400000.0625
timestamp,ch7,ch2,ch3,ch5,is_pause
7.021205186843872,-400000.0625,-9853.7900390625,-4527.3798828125,-400000.0625,-15325.6396484375,-400000.0625,-6224.919921875,-400000.0625
timestamp,ch7,ch2,ch3,ch5,is_pause
7.036613464355469,-400000.0625,-9851.169921875,-4524.56982421875,-400000.0625,-15319.0595703125,-400000.0625,-6218.9599609375,-400000.0625
timestamp,ch7,ch2,ch3,ch5,is_pause
timestamp,ch7,ch2,ch3,ch5,is_pause
7.065496444702148,-400000.0625,-9836.76953125,-4513.31005859375,-400000.0625,-15309.5302734375,-400000.0625,-6207.419921875,-400000.0625
timestamp,ch7,ch2,ch3,ch5,is_pause
7.081352233886719,-400000.0625,-9830.240234375,-4504.35009765625,-400000.0625,-15306.900390625,-400000.0625,-6202.02978515625,-400000.0625
timestamp,ch7,ch2,ch3,ch5,is_pause
7.093356609344482,-400000.0625,-9840.2001953125,-4510.830078125,-400000.0625,-15312.5302734375,-400000.0625,-6208.9501953125,-400000.0625
timestamp,ch7,ch2,ch3,ch5,is_pause
7.111196041107178,-400000.0625,-9850.3095703125,-4523.66015625,-400000.0625,-15320.73046875,-400000.0625,-6217.77001953125,-400000.0625
timestamp,ch7,ch2,ch3,ch5,is_pause
timestamp,ch7,ch2,ch3,ch5,is_pause
7.132516145706177,-400000.0625,-9845.0703125,-4519.02978515625,-400000.0625,-15314.4404296875,-400000.0625,-6213.47998046875,-400000.0625
timestamp,ch7,ch2,ch3,ch5,is_pause
7.153162240982056,-400000.0625,-9826.23046875,-4499.2900390625,-400000.0625,-15296.2197265625,-400000.0625,-6190.919921875,-400000.0625
timestamp,ch7,ch2,ch3,ch5,is_pause
timestamp,ch7,ch2,ch3,ch5,is_pause
7.18097996711731,-400000.0625,-9823.23046875,-4498.81982421875,-400000.0625,-15293.4599609375,-400000.0625,-6187.490234375,-400000.0625
timestamp,ch7,ch2,ch3,ch5,is_pause
7.19338583946228,-400000.0625,-9838.0595703125,-4513.5498046875,-400000.0625,-15309.669921875,-400000.0625,-6202.64990234375,-400000.0625
timestamp,ch7,ch2,ch3,ch5,is_pause
7.206937074661255,-400000.0625,-9855.509765625,-4527.08984375,-400000.0625,-15329.650390625,-400000.0625,-6215.669921875,-400000.0625
timestamp,ch7,ch2,ch3,ch5,is_pause
7.217153072357178,-400000.0625,-9853.7001953125,-4525.7099609375,-400000.0625,-15327.98046875,-400000.0625,-6211.7099609375,-400000.0625
7.226300239562988,-400000.0625,-9834.9599609375,-4509.4501953125,-400000.0625,-15314.2001953125,-400000.0625,-6197.41015625,-400000.0625
timestamp,ch7,ch2,ch3,ch5,is_pause
7.239840030670166,-400000.0625,-9830.330078125,-4504.10986328125,-400000.0625,-15306.5703125,-400000.0625,-6192.39990234375,-400000.0625
timestamp,ch7,ch2,ch3,ch5,is_pause
7.257660150527954,-400000.0625,-9835.33984375,-4507.39990234375,-400000.0625,-15310.150390625,-400000.0625,-6195.39990234375,-400000.0625
timestamp,ch7,ch2,ch3,ch5,is_pause
timestamp,ch7,ch2,ch3,ch5,is_pause
7.289463758468628,-400000.0625,-9844.0703125,-4513.5498046875,-400000.0625,-15314.009765625,-400000.0625,-6208.75,-400000.0625
timestamp,ch7,ch2,ch3,ch5,is_pause
7.304717540740967,-400000.0625,-9842.7802734375,-4513.1201171875,-400000.0625,-15316.1103515625,-400000.0625,-6211.66015625,-400000.0625
timestamp,ch7,ch2,ch3,ch5,is_pause
7.314995765686035,-400000.0625,-9831.4296875,-4504.10986328125,-400000.0625,-15305.3798828125,-400000.0625,-6194.39990234375,-400000.0625
7.3238701820373535,-400000.0625,-9827.330078125,-4502.33984375,-400000.0625,-15302.0400390625,-400000.0625,-6191.4501953125,-400000.0625
timestamp,ch7,ch2,ch3,ch5,is_pause
7.336586236953735,-400000.0625,-9850.0703125,-4520.7001953125,-400000.0625,-15320.349609375,-400000.0625,-6206.66015625,-400000.0625
timestamp,ch7,ch2,ch3,ch5,is_pause
7.3481035232543945,-400000.0625,-9862.849609375,-4533.240234375,-400000.0625,-15335.900390625,-400000.0625,-6218.85986328125,-400000.0625
timestamp,ch7,ch2,ch3,ch5,is_pause
7.357815742492676,-400000.0625,-9852.169921875,-4524.27978515625,-400000.0625,-15327.740234375,-400000.0625,-6208.89990234375,-400000.0625
timestamp,ch7,ch2,ch3,ch5,is_pause
7.383331298828125,-400000.0625,-9837.009765625,-4512.02001953125,-400000.0625,-15309.669921875,-400000.0625,-6193.10986328125,-400000.0625
timestamp,ch7,ch2,ch3,ch5,is_pause
7.3945393562316895,-400000.0625,-9833.33984375,-4507.10986328125,-400000.0625,-15305.0,-400000.0625,-6190.10986328125,-400000.0625
timestamp,ch7,ch2,ch3,ch5,is_pause
7.407876491546631,-400000.0625,-9843.830078125,-4513.60009765625,-400000.0625,-15317.16015625,-400000.0625,-6199.5,-400000.0625
timestamp,ch7,ch2,ch3,ch5,is_pause
7.418420791625977,-400000.0625,-9853.26953125,-4522.509765625,-400000.0625,-15327.1201171875,-400000.0625,-6214.330078125,-400000.0625
7.426328420639038,-400000.0625,-9856.3203125,-4523.7998046875,-400000.0625,-15325.5,-400000.0625,-6212.240234375,-400000.0625
timestamp,ch7,ch2,ch3,ch5,is_pause
7.438862562179565,-400000.0625,-9831.0498046875,-4503.009765625,-400000.0625,-15307.6201171875,-400000.0625,-6194.06982421875,-400000.0625
timestamp,ch7,ch2,ch3,ch5,is_pause
7.4503173828125,-400000.0625,-9824.3701171875,-4498.580078125,-400000.0625,-15301.08984375,-400000.0625,-6190.06005859375,-400000.0625
timestamp,ch7,ch2,ch3,ch5,is_pause
7.460440397262573,-400000.0625,-9842.25,-4513.1201171875,-400000.0625,-15318.8203125,-400000.0625,-6209.47021484375,-400000.0625
timestamp,ch7,ch2,ch3,ch5,is_pause
7.480378150939941,-400000.0625,-9860.23046875,-4526.419921875,-400000.0625,-15324.5,-400000.0625,-6224.43994140625,-400000.0625
timestamp,ch7,ch2,ch3,ch5,is_pause
7.493855953216553,-400000.0625,-9855.75,-4518.7001953125,-400000.0625,-15317.9697265625,-400000.0625,-6218.0498046875,-400000.0625
timestamp,ch7,ch2,ch3,ch5,is_pause
7.505479574203491,-400000.0625,-9836.8701171875,-4502.81982421875,-400000.0625,-15303.23046875,-400000.0625,-6198.83984375,-400000.0625
timestamp,ch7,ch2,ch3,ch5,is_pause
7.520172357559204,-400000.0625,-9830.9501953125,-4499.47998046875,-400000.0625,-15297.7001953125,-400000.0625,-6196.1201171875,-400000.0625
timestamp,ch7,ch2,ch3,ch5,is_pause
7.532590866088867,-400000.0625,-9849.169921875,-4518.31982421875,-400000.0625,-15312.8203125,-400000.0625,-6211.14013671875,-400000.0625
timestamp,ch7,ch2,ch3,ch5,is_pause
7.542632818222046,-400000.0625,-9862.900390625,-4529.0498046875,-400000.0625,-15329.3203125,-400000.0625,-6224.77978515625,-400000.0625
timestamp,ch7,ch2,ch3,ch5,is_pause
7.561412811279297,-400000.0625,-9848.5498046875,-4513.4501953125,-400000.0625,-15321.73046875,-400000.0625,-6214.47998046875,-400000.0625
timestamp,ch7,ch2,ch3,ch5,is_pause
timestamp,ch7,ch2,ch3,ch5,is_pause
7.589890241622925,-400000.0625,-9820.4599609375,-4489.18017578125,-400000.0625,-15299.419921875,-400000.0625,-6185.43994140625,-400000.0625
timestamp,ch7,ch2,ch3,ch5,is_pause
7.601362943649292,-400000.0625,-9827.66015625,-4495.9599609375,-400000.0625,-15304.900390625,-400000.0625,-6186.72021484375,-400000.0625
7.609471797943115,-400000.0625,-9849.83984375,-4516.93994140625,-400000.0625,-15323.58984375,-400000.0625,-6212.330078125,-400000.0625
timestamp,ch7,ch2,ch3,ch5,is_pause
timestamp,ch7,ch2,ch3,ch5,is_pause
7.6271071434021,-400000.0625,-9863.8095703125,-4530.0498046875,-400000.0625,-15332.5595703125,-400000.0625,-6228.5,-400000.0625
7.6365110874176025,-400000.0625,-9859.0400390625,-4522.990234375,-400000.0625,-15324.400390625,-400000.0625,-6219.47998046875,-400000.0625
timestamp,ch7,ch2,ch3,ch5,is_pause
7.647403955459595,-400000.0625,-9833.3798828125,-4500.2001953125,-400000.0625,-15304.1904296875,-400000.0625,-6196.64013671875,-400000.0625
timestamp,ch7,ch2,ch3,ch5,is_pause
7.66159462928772,-400000.0625,-9827.1904296875,-4495.91015625,-400000.0625,-15297.990234375,-400000.0625,-6187.9599609375,-400000.0625
timestamp,ch7,ch2,ch3,ch5,is_pause
timestamp,ch7,ch2,ch3,ch5,is_pause
7.686148643493652,-400000.0625,-9848.2099609375,-4512.41015625,-400000.0625,-15314.33984375,-400000.0625,-6211.419921875,-400000.0625
7.695285320281982,-400000.0625,-9866.2900390625,-4525.419921875,-400000.0625,-15330.83984375,-400000.0625,-6230.68994140625,-400000.0625
timestamp,ch7,ch2,ch3,ch5,is_pause
7.706773996353149,-400000.0625,-9860.1796875,-4520.419921875,-400000.0625,-15328.26953125,-400000.0625,-6222.43994140625,-400000.0625
timestamp,ch7,ch2,ch3,ch5,is_pause
timestamp,ch7,ch2,ch3,ch5,is_pause
7.726086139678955,-400000.0625,-9836.580078125,-4501.6298828125,-400000.0625,-15304.759765625,-400000.0625,-6199.35986328125,-400000.0625
timestamp,ch7,ch2,ch3,ch5,is_pause
7.736345052719116,-400000.0625,-9823.990234375,-4491.66015625,-400000.0625,-15295.5595703125,-400000.0625,-6187.9599609375,-400000.0625
7.746883392333984,-400000.0625,-9844.5,-4510.02001953125,-400000.0625,-15314.6298828125,-400000.0625,-6206.7001953125,-400000.0625
timestamp,ch7,ch2,ch3,ch5,is_pause
7.762639045715332,-400000.0625,-9876.0595703125,-4535.68017578125,-400000.0625,-15340.4296875,-400000.0625,-6238.27001953125,-400000.0625
timestamp,ch7,ch2,ch3,ch5,is_pause
timestamp,ch7,ch2,ch3,ch5,is_pause
7.7903056144714355,-400000.0625,-9881.1201171875,-4539.5400390625,-400000.0625,-15343.240234375,-400000.0625,-6234.93017578125,-400000.0625
timestamp,ch7,ch2,ch3,ch5,is_pause
7.802488327026367,-400000.0625,-9844.58984375,-4509.31005859375,-400000.0625,-15317.919921875,-400000.0625,-6204.080078125,-400000.0625
timestamp,ch7,ch2,ch3,ch5,is_pause
7.815261363983154,-400000.0625,-9816.1201171875,-4485.4599609375,-400000.0625,-15291.41015625,-400000.0625,-6193.64013671875,-400000.0625
timestamp,ch7,ch2,ch3,ch5,is_pause
7.828034400939941,-400000.0625,-9834.0,-4500.10009765625,-400000.0625,-15304.1904296875,-400000.0625,-6222.580078125,-400000.0625
timestamp,ch7,ch2,ch3,ch5,is_pause
7.84040904045105,-400000.0625,-9871.0498046875,-4532.2900390625,-400000.0625,-15336.4697265625,-400000.0625,-6253.47998046875,-400000.0625
timestamp,ch7,ch2,ch3,ch5,is_pause
7.85524845123291,-400000.0625,-9860.7998046875,-4521.66015625,-400000.0625,-15331.3203125,-400000.0625,-6249.6201171875,-400000.0625
timestamp,ch7,ch2,ch3,ch5,is_pause
7.874075889587402,-400000.0625,-9823.900390625,-4490.22998046875,-400000.0625,-15304.759765625,-400000.0625,-6214.08984375,-400000.0625
timestamp,ch7,ch2,ch3,ch5,is_pause
timestamp,ch7,ch2,ch3,ch5,is_pause
7.9052088260650635,-400000.0625,-9806.9697265625,-4474.93017578125,-400000.0625,-15288.9697265625,-400000.0625,-6198.93017578125,-400000.0625
timestamp,ch7,ch2,ch3,ch5,is_pause
7.9222776889801025,-400000.0625,-9836.7197265625,-4498.52978515625,-400000.0625,-15312.150390625,-400000.0625,-6222.06005859375,-400000.0625
timestamp,ch7,ch2,ch3,ch5,is_pause
7.93540358543396,-400000.0625,-9867.6201171875,-4527.43017578125,-400000.0625,-15338.759765625,-400000.0625,-6248.14013671875,-400000.0625
timestamp,ch7,ch2,ch3,ch5,is_pause
7.946180582046509,-400000.0625,-9863.4697265625,-4524.14013671875,-400000.0625,-15330.650390625,-400000.0625,-6240.85009765625,-400000.0625
timestamp,ch7,ch2,ch3,ch5,is_pause
7.95662784576416,-400000.0625,-9835.580078125,-4499.10009765625,-400000.0625,-15310.099609375,-400000.0625,-6214.759765625,-400000.0625
timestamp,ch7,ch2,ch3,ch5,is_pause
7.970871448516846,-400000.0625,-9818.169921875,-4483.7998046875,-400000.0625,-15299.0400390625,-400000.0625,-6199.97998046875,-400000.0625
timestamp,ch7,ch2,ch3,ch5,is_pause
7.983615875244141,-400000.0625,-9838.3896484375,-4502.009765625,-400000.0625,-15316.76953125,-400000.0625,-6219.2001953125,-400000.0625
timestamp,ch7,ch2,ch3,ch5,is_pause
8.007043361663818,-400000.0625,-9863.0400390625,-4525.759765625,-400000.0625,-15334.080078125,-400000.0625,-6244.9501953125,-400000.0625
timestamp,ch7,ch2,ch3,ch5,is_pause
8.01871395111084,-400000.0625,-9857.1796875,-4521.509765625,-400000.0625,-15329.3603515625,-400000.0625,-6245.56982421875,-400000.0625
timestamp,ch7,ch2,ch3,ch5,is_pause
8.031053304672241,-400000.0625,-9826.900390625,-4493.759765625,-400000.0625,-15309.91015625,-400000.0625,-6214.85986328125,-400000.0625
timestamp,ch7,ch2,ch3,ch5,is_pause
8.04456615447998,-400000.0625,-9810.9697265625,-4479.5,-400000.0625,-15299.9404296875,-400000.0625,-6200.740234375,-400000.0625
timestamp,ch7,ch2,ch3,ch5,is_pause
8.055351495742798,-400000.0625,-9833.33984375,-4497.43017578125,-400000.0625,-15317.009765625,-400000.0625,-6221.25,-400000.0625
timestamp,ch7,ch2,ch3,ch5,is_pause
8.066945552825928,-400000.0625,-9865.48046875,-4526.47021484375,-400000.0625,-15339.3798828125,-400000.0625,-6250.47998046875,-400000.0625
8.077206134796143,-400000.0625,-9869.150390625,-4529.759765625,-400000.0625,-15341.330078125,-400000.0625,-6249.0,-400000.0625
timestamp,ch7,ch2,ch3,ch5,is_pause
8.087749004364014,-400000.0625,-9835.91015625,-4497.9599609375,-400000.0625,-15316.2998046875,-400000.0625,-6222.43994140625,-400000.0625
timestamp,ch7,ch2,ch3,ch5,is_pause
timestamp,ch7,ch2,ch3,ch5,is_pause
8.112223863601685,-400000.0625,-9815.259765625,-4481.02978515625,-400000.0625,-15298.080078125,-400000.0625,-6205.419921875,-400000.0625
8.123021364212036,-400000.0625,-9831.2900390625,-4497.6201171875,-400000.0625,-15309.91015625,-400000.0625,-6220.06005859375,-400000.0625
timestamp,ch7,ch2,ch3,ch5,is_pause
8.133797645568848,-400000.0625,-9854.169921875,-4517.64990234375,-400000.0625,-15329.2197265625,-400000.0625,-6241.419921875,-400000.0625
timestamp,ch7,ch2,ch3,ch5,is_pause
8.146336555480957,-400000.0625,-9858.7001953125,-4523.1298828125,-400000.0625,-15333.5595703125,-400000.0625,-6242.22998046875,-400000.0625
timestamp,ch7,ch2,ch3,ch5,is_pause
8.15933609008789,-400000.0625,-9835.6298828125,-4502.10986328125,-400000.0625,-15310.7197265625,-400000.0625,-6219.52978515625,-400000.0625
timestamp,ch7,ch2,ch3,ch5,is_pause
8.171149492263794,-400000.0625,-9822.3203125,-4485.990234375,-400000.0625,-15297.1298828125,-400000.0625,-6203.27001953125,-400000.0625
timestamp,ch7,ch2,ch3,ch5,is_pause
8.184454917907715,-400000.0625,-9834.9599609375,-4497.240234375,-400000.0625,-15312.5302734375,-400000.0625,-6218.91015625,-400000.0625
timestamp,ch7,ch2,ch3,ch5,is_pause
8.199826955795288,-400000.0625,-9852.0302734375,-4512.35986328125,-400000.0625,-15330.98046875,-400000.0625,-6239.080078125,-400000.0625
timestamp,ch7,ch2,ch3,ch5,is_pause
8.21763825416565,-400000.0625,-9854.5595703125,-4513.60009765625,-400000.0625,-15333.9404296875,-400000.0625,-6242.85009765625,-400000.0625
timestamp,ch7,ch2,ch3,ch5,is_pause
8.2283194065094,-400000.0625,-9834.240234375,-4499.009765625,-400000.0625,-15318.349609375,-400000.0625,-6221.06005859375,-400000.0625
timestamp,ch7,ch2,ch3,ch5,is_pause
8.239964008331299,-400000.0625,-9820.509765625,-4486.1298828125,-400000.0625,-15302.1396484375,-400000.0625,-6206.66015625,-400000.0625
timestamp,ch7,ch2,ch3,ch5,is_pause
8.25346827507019,-400000.0625,-9839.0595703125,-4503.2998046875,-400000.0625,-15320.2099609375,-400000.0625,-6225.2099609375,-400000.0625
timestamp,ch7,ch2,ch3,ch5,is_pause
8.269887208938599,-400000.0625,-9866.8095703125,-4527.66015625,-400000.0625,-15343.5703125,-400000.0625,-6252.240234375,-400000.0625
timestamp,ch7,ch2,ch3,ch5,is_pause
8.282749891281128,-400000.0625,-9865.8603515625,-4525.56982421875,-400000.0625,-15341.2802734375,-400000.0625,-6243.75,-400000.0625
8.291296005249023,-400000.0625,-9841.9697265625,-4502.2001953125,-400000.0625,-15318.4404296875,-400000.0625,-6220.25,-400000.0625
timestamp,ch7,ch2,ch3,ch5,is_pause
timestamp,ch7,ch2,ch3,ch5,is_pause
8.310028791427612,-400000.0625,-9824.7998046875,-4486.60986328125,-400000.0625,-15305.23046875,-400000.0625,-6207.89990234375,-400000.0625
timestamp,ch7,ch2,ch3,ch5,is_pause
8.331349611282349,-400000.0625,-9846.01953125,-4503.81982421875,-400000.0625,-15317.7802734375,-400000.0625,-6225.68017578125,-400000.0625
timestamp,ch7,ch2,ch3,ch5,is_pause
8.344940185546875,-400000.0625,-9875.490234375,-4528.85986328125,-400000.0625,-15340.0400390625,-400000.0625,-6256.25,-400000.0625
timestamp,ch7,ch2,ch3,ch5,is_pause
8.354863166809082,-400000.0625,-9866.0,-4521.509765625,-400000.0625,-15335.419921875,-400000.0625,-6248.18994140625,-400000.0625
timestamp,ch7,ch2,ch3,ch5,is_pause
8.368182897567749,-400000.0625,-9825.51953125,-4488.1298828125,-400000.0625,-15306.1396484375,-400000.0625,-6212.08984375,-400000.0625
timestamp,ch7,ch2,ch3,ch5,is_pause
8.380531549453735,-400000.0625,-9807.5400390625,-4475.68994140625,-400000.0625,-15289.5498046875,-400000.0625,-6196.06982421875,-400000.0625
timestamp,ch7,ch2,ch3,ch5,is_pause
8.390666961669922,-400000.0625,-9837.8701171875,-4502.81982421875,-400000.0625,-15314.150390625,-400000.0625,-6221.81982421875,-400000.0625
timestamp,ch7,ch2,ch3,ch5,is_pause
8.402958393096924,-400000.0625,-9869.2900390625,-4529.18994140625,-400000.0625,-15345.2900390625,-400000.0625,-6250.10009765625,-400000.0625
8.414413690567017,-400000.0625,-9864.51953125,-4524.419921875,-400000.0625,-15340.6201171875,-400000.0625,-6245.27978515625,-400000.0625
timestamp,ch7,ch2,ch3,ch5,is_pause
timestamp,ch7,ch2,ch3,ch5,is_pause
8.43918251991272,-400000.0625,-9839.3896484375,-4500.10009765625,-400000.0625,-15318.4404296875,-400000.0625,-6221.6298828125,-400000.0625
timestamp,ch7,ch2,ch3,ch5,is_pause
8.449227333068848,-400000.0625,-9825.5595703125,-4486.75,-400000.0625,-15307.3798828125,-400000.0625,-6207.60986328125,-400000.0625
8.458036422729492,-400000.0625,-9852.0302734375,-4505.97021484375,-400000.0625,-15323.9296875,-400000.0625,-6225.919921875,-400000.0625
timestamp,ch7,ch2,ch3,ch5,is_pause
8.47086238861084,-400000.0625,-9885.41015625,-4539.5400390625,-400000.0625,-15345.2900390625,-400000.0625,-6246.27978515625,-400000.0625
timestamp,ch7,ch2,ch3,ch5,is_pause
8.484309434890747,-400000.0625,-9876.2998046875,-4539.43994140625,-400000.0625,-15341.7099609375,-400000.0625,-6233.68994140625,-400000.0625
timestamp,ch7,ch2,ch3,ch5,is_pause
8.496594667434692,-400000.0625,-9844.7802734375,-4514.02978515625,-400000.0625,-15314.2900390625,-400000.0625,-6195.740234375,-400000.0625
timestamp,ch7,ch2,ch3,ch5,is_pause
8.508953332901001,-400000.0625,-9825.419921875,-4497.47998046875,-400000.0625,-15296.080078125,-400000.0625,-6169.1298828125,-400000.0625
timestamp,ch7,ch2,ch3,ch5,is_pause
8.5186288356781,-400000.0625,-9848.41015625,-4523.85009765625,-400000.0625,-15316.009765625,-400000.0625,-6181.3798828125,-400000.0625
timestamp,ch7,ch2,ch3,ch5,is_pause
8.542901039123535,-400000.0625,-9882.2099609375,-4557.27978515625,-400000.0625,-15339.7099609375,-400000.0625,-6204.4599609375,-400000.0625
timestamp,ch7,ch2,ch3,ch5,is_pause
8.553844213485718,-400000.0625,-9891.080078125,-4563.52001953125,-400000.0625,-15345.33984375,-400000.0625,-6203.27001953125,-400000.0625
timestamp,ch7,ch2,ch3,ch5,is_pause
8.565932989120483,-400000.0625,-9867.8603515625,-4547.4501953125,-400000.0625,-15323.16015625,-400000.0625,-6175.52001953125,-400000.0625
timestamp,ch7,ch2,ch3,ch5,is_pause
8.580126285552979,-400000.0625,-9848.98046875,-4538.009765625,-400000.0625,-15312.5302734375,-400000.0625,-6155.009765625,-400000.0625
8.589090347290039,-400000.0625,-9867.7197265625,-4557.75,-400000.0625,-15325.830078125,-400000.0625,-6173.56005859375,-400000.0625
timestamp,ch7,ch2,ch3,ch5,is_pause
8.601550817489624,-400000.0625,-9895.08984375,-4579.97021484375,-400000.0625,-15342.8603515625,-400000.0625,-6202.4599609375,-400000.0625
timestamp,ch7,ch2,ch3,ch5,is_pause
8.61493182182312,-400000.0625,-9880.0703125,-4565.47998046875,-400000.0625,-15331.83984375,-400000.0625,-6195.31005859375,-400000.0625
timestamp,ch7,ch2,ch3,ch5,is_pause
8.625324010848999,-400000.0625,-9842.2099609375,-4530.14013671875,-400000.0625,-15301.990234375,-400000.0625,-6161.02001953125,-400000.0625
timestamp,ch7,ch2,ch3,ch5,is_pause
timestamp,ch7,ch2,ch3,ch5,is_pause
8.651472330093384,-400000.0625,-9830.2900390625,-4521.7998046875,-400000.0625,-15298.3701171875,-400000.0625,-6146.9599609375,-400000.0625
8.661174774169922,-400000.0625,-9861.990234375,-4552.7900390625,-400000.0625,-15324.5498046875,-400000.0625,-6175.08984375,-400000.0625
timestamp,ch7,ch2,ch3,ch5,is_pause
8.67512845993042,-400000.0625,-9890.650390625,-4578.06982421875,-400000.0625,-15345.48046875,-400000.0625,-6204.18017578125,-400000.0625
timestamp,ch7,ch2,ch3,ch5,is_pause
8.6874098777771,-400000.0625,-9881.740234375,-4569.6298828125,-400000.0625,-15337.7998046875,-400000.0625,-6198.02978515625,-400000.0625
timestamp,ch7,ch2,ch3,ch5,is_pause
8.701377153396606,-400000.0625,-9853.2197265625,-4539.919921875,-400000.0625,-15313.580078125,-400000.0625,-6166.169921875,-400000.0625
timestamp,ch7,ch2,ch3,ch5,is_pause
8.715344667434692,-400000.0625,-9835.48046875,-4522.7099609375,-400000.0625,-15299.1298828125,-400000.0625,-6151.14990234375,-400000.0625
8.723731517791748,-400000.0625,-9854.599609375,-4540.06005859375,-400000.0625,-15309.240234375,-400000.0625,-6166.27001953125,-400000.0625
timestamp,ch7,ch2,ch3,ch5,is_pause
8.735945224761963,-400000.0625,-9893.4697265625,-4574.5400390625,-400000.0625,-15341.3798828125,-400000.0625,-6203.4599609375,-400000.0625
timestamp,ch7,ch2,ch3,ch5,is_pause
timestamp,ch7,ch2,ch3,ch5,is_pause
8.76664423942566,-400000.0625,-9880.9697265625,-4564.240234375,-400000.0625,-15336.23046875,-400000.0625,-6197.31005859375,-400000.0625
timestamp,ch7,ch2,ch3,ch5,is_pause
timestamp,ch7,ch2,ch3,ch5,is_pause
8.786776304244995,-400000.0625,-9853.080078125,-4539.43994140625,-400000.0625,-15317.2998046875,-400000.0625,-6165.89013671875,-400000.0625
timestamp,ch7,ch2,ch3,ch5,is_pause
8.803743362426758,-400000.0625,-9842.58984375,-4527.81005859375,-400000.0625,-15307.1904296875,-400000.0625,-6154.25,-400000.0625
timestamp,ch7,ch2,ch3,ch5,is_pause
8.822465658187866,-400000.0625,-9867.8603515625,-4550.509765625,-400000.0625,-15325.5,-400000.0625,-6174.85009765625,-400000.0625
timestamp,ch7,ch2,ch3,ch5,is_pause
8.837846755981445,-400000.0625,-9891.83984375,-4576.25,-400000.0625,-15339.759765625,-400000.0625,-6206.419921875,-400000.0625
timestamp,ch7,ch2,ch3,ch5,is_pause
timestamp,ch7,ch2,ch3,ch5,is_pause
8.868085622787476,-400000.0625,-9885.650390625,-4568.2001953125,-400000.0625,-15334.4599609375,-400000.0625,-6200.89013671875,-400000.0625
timestamp,ch7,ch2,ch3,ch5,is_pause
8.888939142227173,-400000.0625,-9849.8798828125,-4532.85986328125,-400000.0625,-15306.2802734375,-400000.0625,-6164.64990234375,-400000.0625
timestamp,ch7,ch2,ch3,ch5,is_pause
timestamp,ch7,ch2,ch3,ch5,is_pause
8.912065505981445,-400000.0625,-9838.6298828125,-4523.330078125,-400000.0625,-15304.08984375,-400000.0625,-6154.25,-400000.0625
timestamp,ch7,ch2,ch3,ch5,is_pause
8.929734230041504,-400000.0625,-9863.4697265625,-4548.06982421875,-400000.0625,-15328.740234375,-400000.0625,-6176.18994140625,-400000.0625
timestamp,ch7,ch2,ch3,ch5,is_pause
8.94917368888855,-400000.0625,-9887.080078125,-4567.9599609375,-400000.0625,-15343.0498046875,-400000.0625,-6199.02978515625,-400000.0625
timestamp,ch7,ch2,ch3,ch5,is_pause
timestamp,ch7,ch2,ch3,ch5,is_pause
timestamp,ch7,ch2,ch3,ch5,is_pause
8.988954305648804,-400000.0625,-9885.650390625,-4566.2900390625,-400000.0625,-15338.23046875,-400000.0625,-6195.16015625,-400000.0625
timestamp,ch7,ch2,ch3,ch5,is_pause
9.005695343017578,-400000.0625,-9856.7998046875,-4539.43994140625,-400000.0625,-15313.9599609375,-400000.0625,-6166.7001953125,-400000.0625
timestamp,ch7,ch2,ch3,ch5,is_pause
9.024868249893188,-400000.0625,-9850.599609375,-4532.18994140625,-400000.0625,-15306.4697265625,-400000.0625,-6161.97998046875,-400000.0625
timestamp,ch7,ch2,ch3,ch5,is_pause
timestamp,ch7,ch2,ch3,ch5,is_pause
9.04859185218811,-400000.0625,-9871.4404296875,-4552.41015625,-400000.0625,-15325.259765625,-400000.0625,-6185.72021484375,-400000.0625
timestamp,ch7,ch2,ch3,ch5,is_pause
9.063764095306396,-400000.0625,-9895.9501953125,-4573.6298828125,-400000.0625,-15347.0498046875,-400000.0625,-6210.759765625,-400000.0625
timestamp,ch7,ch2,ch3,ch5,is_pause
timestamp,ch7,ch2,ch3,ch5,is_pause
9.09284257888794,-400000.0625,-9889.2197265625,-4567.18994140625,-400000.0625,-15339.330078125,-400000.0625,-6199.1201171875,-400000.0625
timestamp,ch7,ch2,ch3,ch5,is_pause
9.112196922302246,-400000.0625,-9862.23046875,-4540.5400390625,-400000.0625,-15319.73046875,-400000.0625,-6164.31005859375,-400000.0625
timestamp,ch7,ch2,ch3,ch5,is_pause
9.125263690948486,-400000.0625,-9846.9697265625,-4526.47021484375,-400000.0625,-15311.240234375,-400000.0625,-6153.2998046875,-400000.0625
timestamp,ch7,ch2,ch3,ch5,is_pause
timestamp,ch7,ch2,ch3,ch5,is_pause
9.149077892303467,-400000.0625,-9865.0,-4546.64013671875,-400000.0625,-15322.01953125,-400000.0625,-6176.85009765625,-400000.0625
9.157814979553223,-400000.0625,-9896.4697265625,-4570.009765625,-400000.0625,-15339.8095703125,-400000.0625,-6201.4599609375,-400000.0625
timestamp,ch7,ch2,ch3,ch5,is_pause
9.173099994659424,-400000.0625,-9882.01953125,-4559.3701171875,-400000.0625,-15336.23046875,-400000.0625,-6192.64013671875,-400000.0625
timestamp,ch7,ch2,ch3,ch5,is_pause
timestamp,ch7,ch2,ch3,ch5,is_pause
9.198043584823608,-400000.0625,-9857.6103515625,-4540.97021484375,-400000.0625,-15323.01953125,-400000.0625,-6170.18017578125,-400000.0625
timestamp,ch7,ch2,ch3,ch5,is_pause
9.210327386856079,-400000.0625,-9847.259765625,-4529.759765625,-400000.0625,-15313.099609375,-400000.0625,-6155.25,-400000.0625
timestamp,ch7,ch2,ch3,ch5,is_pause
9.224077939987183,-400000.0625,-9867.5703125,-4543.72998046875,-400000.0625,-15326.259765625,-400000.0625,-6170.27001953125,-400000.0625
timestamp,ch7,ch2,ch3,ch5,is_pause
9.234411001205444,-400000.0625,-9894.7998046875,-4570.39013671875,-400000.0625,-15350.6796875,-400000.0625,-6200.1201171875,-400000.0625
timestamp,ch7,ch2,ch3,ch5,is_pause
9.248453617095947,-400000.0625,-9901.7197265625,-4576.35009765625,-400000.0625,-15352.6298828125,-400000.0625,-6200.83984375,-400000.0625
timestamp,ch7,ch2,ch3,ch5,is_pause
9.268380165100098,-400000.0625,-9879.7802734375,-4553.990234375,-400000.0625,-15330.3203125,-400000.0625,-6177.3798828125,-400000.0625
timestamp,ch7,ch2,ch3,ch5,is_pause
9.280981302261353,-400000.0625,-9858.1796875,-4532.52978515625,-400000.0625,-15320.400390625,-400000.0625,-6157.72998046875,-400000.0625
timestamp,ch7,ch2,ch3,ch5,is_pause
9.30452585220337,-400000.0625,-9873.2998046875,-4545.31005859375,-400000.0625,-15324.6396484375,-400000.0625,-6170.7001953125,-400000.0625
timestamp,ch7,ch2,ch3,ch5,is_pause
9.316936016082764,-400000.0625,-9908.9599609375,-4580.68994140625,-400000.0625,-15355.5400390625,-400000.0625,-6207.47021484375,-400000.0625
timestamp,ch7,ch2,ch3,ch5,is_pause
9.330899238586426,-400000.0625,-9905.33984375,-4581.1201171875,-400000.0625,-15358.9697265625,-400000.0625,-6201.509765625,-400000.0625
timestamp,ch7,ch2,ch3,ch5,is_pause
9.345092296600342,-400000.0625,-9869.0498046875,-4545.97998046875,-400000.0625,-15327.83984375,-400000.0625,-6169.1298828125,-400000.0625
timestamp,ch7,ch2,ch3,ch5,is_pause
9.35976505279541,-400000.0625,-9852.41015625,-4530.2900390625,-400000.0625,-15310.91015625,-400000.0625,-6150.81982421875,-400000.0625
timestamp,ch7,ch2,ch3,ch5,is_pause
9.370897769927979,-400000.0625,-9863.0,-4542.77978515625,-400000.0625,-15317.0595703125,-400000.0625,-6167.02978515625,-400000.0625
timestamp,ch7,ch2,ch3,ch5,is_pause
9.384638786315918,-400000.0625,-9894.990234375,-4571.919921875,-400000.0625,-15354.349609375,-400000.0625,-6197.97998046875,-400000.0625
timestamp,ch7,ch2,ch3,ch5,is_pause
9.403536319732666,-400000.0625,-9896.419921875,-4569.81982421875,-400000.0625,-15357.5,-400000.0625,-6193.02001953125,-400000.0625
timestamp,ch7,ch2,ch3,ch5,is_pause
9.416240930557251,-400000.0625,-9870.33984375,-4549.1201171875,-400000.0625,-15331.3701171875,-400000.0625,-6165.080078125,-400000.0625
timestamp,ch7,ch2,ch3,ch5,is_pause
9.429363250732422,-400000.0625,-9860.4697265625,-4537.10986328125,-400000.0625,-15319.73046875,-400000.0625,-6153.06005859375,-400000.0625
9.43888235092163,-400000.0625,-9870.099609375,-4551.60009765625,-400000.0625,-15332.8896484375,-400000.0625,-6176.66015625,-400000.0625
timestamp,ch7,ch2,ch3,ch5,is_pause
9.452417612075806,-400000.0625,-9899.1904296875,-4573.2998046875,-400000.0625,-15352.5400390625,-400000.0625,-6204.56005859375,-400000.0625
timestamp,ch7,ch2,ch3,ch5,is_pause
9.465577840805054,-400000.0625,-9882.9296875,-4552.75,-400000.0625,-15336.51953125,-400000.0625,-6181.43017578125,-400000.0625
timestamp,ch7,ch2,ch3,ch5,is_pause
9.475248098373413,-400000.0625,-9843.919921875,-4519.419921875,-400000.0625,-15302.3701171875,-400000.0625,-6148.2900390625,-400000.0625
9.48342752456665,-400000.0625,-9838.25,-4516.89013671875,-400000.0625,-15302.1396484375,-400000.0625,-6143.89990234375,-400000.0625
timestamp,ch7,ch2,ch3,ch5,is_pause
9.491883754730225,-400000.0625,-9867.3798828125,-4546.68994140625,-400000.0625,-15334.5595703125,-400000.0625,-6170.419921875,-400000.0625
timestamp,ch7,ch2,ch3,ch5,is_pause
9.514034509658813,-400000.0625,-9902.2900390625,-4570.91015625,-400000.0625,-15357.5400390625,-400000.0625,-6199.35986328125,-400000.0625
timestamp,ch7,ch2,ch3,ch5,is_pause
9.524564504623413,-400000.0625,-9882.3603515625,-4558.47021484375,-400000.0625,-15343.0,-400000.0625,-6185.81982421875,-400000.0625
timestamp,ch7,ch2,ch3,ch5,is_pause
9.538001537322998,-400000.0625,-9851.8896484375,-4530.10009765625,-400000.0625,-15314.76953125,-400000.0625,-6158.68994140625,-400000.0625
timestamp,ch7,ch2,ch3,ch5,is_pause
9.549673318862915,-400000.0625,-9838.6796875,-4514.60009765625,-400000.0625,-15302.6103515625,-400000.0625,-6140.52001953125,-400000.0625
9.557640552520752,-400000.0625,-9852.0302734375,-4529.330078125,-400000.0625,-15319.0595703125,-400000.0625,-6158.4501953125,-400000.0625
timestamp,ch7,ch2,ch3,ch5,is_pause
timestamp,ch7,ch2,ch3,ch5,is_pause
9.577297925949097,-400000.0625,-9888.0302734375,-4559.47021484375,-400000.0625,-15346.91015625,-400000.0625,-6195.02001953125,-400000.0625
9.5858895778656,-400000.0625,-9892.7998046875,-4560.52001953125,-400000.0625,-15350.25,-400000.0625,-6198.8798828125,-400000.0625
timestamp,ch7,ch2,ch3,ch5,is_pause
9.59685754776001,-400000.0625,-9862.2802734375,-4531.2900390625,-400000.0625,-15326.83984375,-400000.0625,-6164.35986328125,-400000.0625
timestamp,ch7,ch2,ch3,ch5,is_pause
timestamp,ch7,ch2,ch3,ch5,is_pause
9.623454093933105,-400000.0625,-9847.5,-4521.22998046875,-400000.0625,-15314.6298828125,-400000.0625,-6152.43994140625,-400000.0625
timestamp,ch7,ch2,ch3,ch5,is_pause
9.637304306030273,-400000.0625,-9876.9697265625,-4548.97998046875,-400000.0625,-15331.83984375,-400000.0625,-6180.2900390625,-400000.0625
timestamp,ch7,ch2,ch3,ch5,is_pause
9.64752984046936,-400000.0625,-9903.8095703125,-4570.91015625,-400000.0625,-15354.2099609375,-400000.0625,-6208.27978515625,-400000.0625
timestamp,ch7,ch2,ch3,ch5,is_pause
9.657724142074585,-400000.0625,-9891.3203125,-4559.60986328125,-400000.0625,-15345.4296875,-400000.0625,-6201.5498046875,-400000.0625
9.667868614196777,-400000.0625,-9852.2197265625,-4526.7099609375,-400000.0625,-15315.3896484375,-400000.0625,-6169.080078125,-400000.0625
timestamp,ch7,ch2,ch3,ch5,is_pause
9.679076671600342,-400000.0625,-9838.0595703125,-4509.39990234375,-400000.0625,-15300.1298828125,-400000.0625,-6147.33984375,-400000.0625
timestamp,ch7,ch2,ch3,ch5,is_pause
timestamp,ch7,ch2,ch3,ch5,is_pause
9.69861912727356,-400000.0625,-9853.7001953125,-4523.75,-400000.0625,-15317.2998046875,-400000.0625,-6162.22021484375,-400000.0625
timestamp,ch7,ch2,ch3,ch5,is_pause
9.723609685897827,-400000.0625,-9881.6904296875,-4546.7900390625,-400000.0625,-15341.5703125,-400000.0625,-6189.919921875,-400000.0625
timestamp,ch7,ch2,ch3,ch5,is_pause
9.739441394805908,-400000.0625,-9887.41015625,-4552.02978515625,-400000.0625,-15344.5703125,-400000.0625,-6193.8798828125,-400000.0625
timestamp,ch7,ch2,ch3,ch5,is_pause
9.750879287719727,-400000.0625,-9851.169921875,-4520.85009765625,-400000.0625,-15319.7802734375,-400000.0625,-6159.93017578125,-400000.0625
timestamp,ch7,ch2,ch3,ch5,is_pause
9.762485027313232,-400000.0625,-9822.66015625,-4495.0,-400000.0625,-15297.5595703125,-400000.0625,-6131.31982421875,-400000.0625
timestamp,ch7,ch2,ch3,ch5,is_pause
9.776530981063843,-400000.0625,-9849.83984375,-4519.02978515625,-400000.0625,-15318.7802734375,-400000.0625,-6157.68994140625,-400000.0625
timestamp,ch7,ch2,ch3,ch5,is_pause
9.789222955703735,-400000.0625,-9887.5498046875,-4553.22021484375,-400000.0625,-15347.3896484375,-400000.0625,-6196.4501953125,-400000.0625
timestamp,ch7,ch2,ch3,ch5,is_pause
9.804669618606567,-400000.0625,-9880.400390625,-4546.39990234375,-400000.0625,-15338.419921875,-400000.0625,-6186.9599609375,-400000.0625
timestamp,ch7,ch2,ch3,ch5,is_pause
9.824484586715698,-400000.0625,-9849.41015625,-4520.990234375,-400000.0625,-15315.9599609375,-400000.0625,-6152.919921875,-400000.0625
timestamp,ch7,ch2,ch3,ch5,is_pause
timestamp,ch7,ch2,ch3,ch5,is_pause
9.84112286567688,-400000.0625,-9835.0498046875,-4507.490234375,-400000.0625,-15303.419921875,-400000.0625,-6138.27978515625,-400000.0625
timestamp,ch7,ch2,ch3,ch5,is_pause
9.854078531265259,-400000.0625,-9858.419921875,-4530.72021484375,-400000.0625,-15321.2099609375,-400000.0625,-6161.740234375,-400000.0625
timestamp,ch7,ch2,ch3,ch5,is_pause
9.870327472686768,-400000.0625,-9886.5498046875,-4556.22998046875,-400000.0625,-15349.150390625,-400000.0625,-6194.93017578125,-400000.0625
timestamp,ch7,ch2,ch3,ch5,is_pause
9.885807991027832,-400000.0625,-9880.9697265625,-4551.02978515625,-400000.0625,-15349.009765625,-400000.0625,-6184.10009765625,-400000.0625
timestamp,ch7,ch2,ch3,ch5,is_pause
9.8990159034729,-400000.0625,-9849.01953125,-4519.1298828125,-400000.0625,-15320.6796875,-400000.0625,-6151.43994140625,-400000.0625
timestamp,ch7,ch2,ch3,ch5,is_pause
9.911862850189209,-400000.0625,-9831.3798828125,-4505.72998046875,-400000.0625,-15304.849609375,-400000.0625,-6139.22998046875,-400000.0625
timestamp,ch7,ch2,ch3,ch5,is_pause
timestamp,ch7,ch2,ch3,ch5,is_pause
9.939308166503906,-400000.0625,-9850.6904296875,-4528.89990234375,-400000.0625,-15324.6396484375,-400000.0625,-6159.35009765625,-400000.0625
timestamp,ch7,ch2,ch3,ch5,is_pause
9.954260349273682,-400000.0625,-9885.5,-4559.08984375,-400000.0625,-15353.73046875,-400000.0625,-6187.5400390625,-400000.0625
timestamp,ch7,ch2,ch3,ch5,is_pause
9.976215600967407,-400000.0625,-9890.6103515625,-4559.330078125,-400000.0625,-15353.2998046875,-400000.0625,-6194.16015625,-400000.0625
timestamp,ch7,ch2,ch3,ch5,is_pause
9.98943567276001,-400000.0625,-9861.23046875,-4533.81982421875,-400000.0625,-15330.83984375,-400000.0625,-6164.93017578125,-400000.0625
timestamp,ch7,ch2,ch3,ch5,is_pause
10.005985736846924,-400000.0625,-9845.5400390625,-4520.27001953125,-400000.0625,-15317.2998046875,-400000.0625,-6145.330078125,-400000.0625
timestamp,ch7,ch2,ch3,ch5,is_pause
10.021159410476685,-400000.0625,-9865.7099609375,-4536.77001953125,-400000.0625,-15328.98046875,-400000.0625,-6163.06982421875,-400000.0625
timestamp,ch7,ch2,ch3,ch5,is_pause
timestamp,ch7,ch2,ch3,ch5,is_pause
10.055736064910889,-400000.0625,-9892.7998046875,-4559.66015625,-400000.0625,-15354.830078125,-400000.0625,-6192.16015625,-400000.0625
timestamp,ch7,ch2,ch3,ch5,is_pause
10.068060398101807,-400000.0625,-9880.58984375,-4551.02978515625,-400000.0625,-15348.25,-400000.0625,-6187.06005859375,-400000.0625
timestamp,ch7,ch2,ch3,ch5,is_pause
10.079842805862427,-400000.0625,-9845.1103515625,-4520.22998046875,-400000.0625,-15324.2099609375,-400000.0625,-6152.580078125,-400000.0625
timestamp,ch7,ch2,ch3,ch5,is_pause
timestamp,ch7,ch2,ch3,ch5,is_pause
10.101167678833008,-400000.0625,-9821.1298828125,-4496.52978515625,-400000.0625,-15303.7099609375,-400000.0625,-6125.97998046875,-400000.0625
timestamp,ch7,ch2,ch3,ch5,is_pause
10.113238096237183,-400000.0625,-9839.8701171875,-4512.740234375,-400000.0625,-15317.009765625,-400000.0625,-6145.18994140625,-400000.0625
timestamp,ch7,ch2,ch3,ch5,is_pause
10.12775468826294,-400000.0625,-9882.58984375,-4553.60009765625,-400000.0625,-15348.76953125,-400000.0625,-6185.91015625,-400000.0625
timestamp,ch7,ch2,ch3,ch5,is_pause
10.155861139297485,-400000.0625,-9891.9404296875,-4559.47021484375,-400000.0625,-15347.5302734375,-400000.0625,-6186.9599609375,-400000.0625
timestamp,ch7,ch2,ch3,ch5,is_pause
10.17068338394165,-400000.0625,-9851.650390625,-4523.85009765625,-400000.0625,-15320.830078125,-400000.0625,-6154.16015625,-400000.0625
timestamp,ch7,ch2,ch3,ch5,is_pause
10.185992002487183,-400000.0625,-9844.2099609375,-4513.31005859375,-400000.0625,-15316.919921875,-400000.0625,-6142.43017578125,-400000.0625
timestamp,ch7,ch2,ch3,ch5,is_pause
10.197284936904907,-400000.0625,-9868.91015625,-4539.10986328125,-400000.0625,-15342.3798828125,-400000.0625,-6164.97998046875,-400000.0625
10.207543134689331,-400000.0625,-9897.1396484375,-4562.27978515625,-400000.0625,-15363.7900390625,-400000.0625,-6192.490234375,-400000.0625
timestamp,ch7,ch2,ch3,ch5,is_pause
timestamp,ch7,ch2,ch3,ch5,is_pause
10.229613065719604,-400000.0625,-9892.990234375,-4556.27001953125,-400000.0625,-15357.58984375,-400000.0625,-6181.2900390625,-400000.0625
timestamp,ch7,ch2,ch3,ch5,is_pause
10.253310918807983,-400000.0625,-9855.26953125,-4521.56005859375,-400000.0625,-15327.83984375,-400000.0625,-6144.91015625,-400000.0625
timestamp,ch7,ch2,ch3,ch5,is_pause
10.267651796340942,-400000.0625,-9839.8203125,-4510.31005859375,-400000.0625,-15316.6796875,-400000.0625,-6130.740234375,-400000.0625
timestamp,ch7,ch2,ch3,ch5,is_pause
10.278558015823364,-400000.0625,-9859.6103515625,-4529.2900390625,-400000.0625,-15330.26953125,-400000.0625,-6152.009765625,-400000.0625
timestamp,ch7,ch2,ch3,ch5,is_pause
10.29292607307434,-400000.0625,-9880.349609375,-4542.830078125,-400000.0625,-15346.099609375,-400000.0625,-6175.47021484375,-400000.0625
timestamp,ch7,ch2,ch3,ch5,is_pause
10.305359125137329,-400000.0625,-9874.5400390625,-4539.97021484375,-400000.0625,-15342.900390625,-400000.0625,-6172.0400390625,-400000.0625
timestamp,ch7,ch2,ch3,ch5,is_pause
10.316938638687134,-400000.0625,-9853.8896484375,-4526.6201171875,-400000.0625,-15324.169921875,-400000.0625,-6140.9501953125,-400000.0625
timestamp,ch7,ch2,ch3,ch5,is_pause
10.330199241638184,-400000.0625,-9846.4501953125,-4515.4599609375,-400000.0625,-15317.73046875,-400000.0625,-6127.169921875,-400000.0625
timestamp,ch7,ch2,ch3,ch5,is_pause
timestamp,ch7,ch2,ch3,ch5,is_pause
10.359160661697388,-400000.0625,-9868.5302734375,-4534.0498046875,-400000.0625,-15347.76953125,-400000.0625,-6155.10986328125,-400000.0625
timestamp,ch7,ch2,ch3,ch5,is_pause
10.374248504638672,-400000.0625,-9901.3798828125,-4559.7099609375,-400000.0625,-15368.080078125,-400000.0625,-6179.0498046875,-400000.0625
timestamp,ch7,ch2,ch3,ch5,is_pause
10.387278318405151,-400000.0625,-9886.740234375,-4549.5498046875,-400000.0625,-15352.0595703125,-400000.0625,-6174.0400390625,-400000.0625
timestamp,ch7,ch2,ch3,ch5,is_pause
10.403101444244385,-400000.0625,-9846.1201171875,-4517.83984375,-400000.0625,-15326.4501953125,-400000.0625,-6136.93994140625,-400000.0625
timestamp,ch7,ch2,ch3,ch5,is_pause
10.417303323745728,-400000.0625,-9835.2900390625,-4509.740234375,-400000.0625,-15325.169921875,-400000.0625,-6124.31005859375,-400000.0625
timestamp,ch7,ch2,ch3,ch5,is_pause
10.431102991104126,-400000.0625,-9859.51953125,-4529.10009765625,-400000.0625,-15340.2802734375,-400000.0625,-6147.91015625,-400000.0625
timestamp,ch7,ch2,ch3,ch5,is_pause
timestamp,ch7,ch2,ch3,ch5,is_pause
10.461804151535034,-400000.0625,-9895.849609375,-4555.18017578125,-400000.0625,-15362.83984375,-400000.0625,-6174.14013671875,-400000.0625
timestamp,ch7,ch2,ch3,ch5,is_pause
timestamp,ch7,ch2,ch3,ch5,is_pause
10.47922134399414,-400000.0625,-9878.58984375,-4550.7001953125,-400000.0625,-15354.400390625,-400000.0625,-6166.93994140625,-400000.0625
10.489470720291138,-400000.0625,-9841.009765625,-4517.31982421875,-400000.0625,-15321.5400390625,-400000.0625,-6129.7900390625,-400000.0625
timestamp,ch7,ch2,ch3,ch5,is_pause
timestamp,ch7,ch2,ch3,ch5,is_pause
10.510594367980957,-400000.0625,-9830.759765625,-4510.4501953125,-400000.0625,-15312.669921875,-400000.0625,-6113.240234375,-400000.0625
timestamp,ch7,ch2,ch3,ch5,is_pause
10.522231817245483,-400000.0625,-9856.8896484375,-4530.2900390625,-400000.0625,-15333.23046875,-400000.0625,-6131.35986328125,-400000.0625
timestamp,ch7,ch2,ch3,ch5,is_pause
