time,ch1,ch2,ch3,ch4,ch5,ch6,ch7,ch8
194.49318838119507,-400000.0625,-7972.10009765625,-4904.22021484375,-400000.0625,-16524.69921875,-400000.0625,-6983.7099609375,-400000.0625
194.53293681144714,-400000.0625,-7975.0498046875,-4908.3701171875,-400000.0625,-16528.26953125,-400000.0625,-6986.14013671875,-400000.0625
194.55132913589478,-400000.0625,-7982.490234375,-4911.27978515625,-400000.0625,-16533.5703125,-400000.0625,-6989.52978515625,-400000.0625
194.62301588058472,-400000.0625,-7983.16015625,-4911.52001953125,-400000.0625,-16534.759765625,-400000.0625,-6989.81005859375,-400000.0625
194.6656370162964,-400000.0625,-7978.2001953125,-4904.7998046875,-400000.0625,-16531.08984375,-400000.0625,-6984.0,-400000.0625
194.74821829795837,-400000.0625,-7970.759765625,-4898.02001953125,-400000.0625,-16525.939453125,-400000.0625,-6978.85009765625,-400000.0625
194.7896022796631,-400000.0625,-7971.85986328125,-4900.93017578125,-400000.0625,-16526.890625,-400000.0625,-6980.85009765625,-400000.0625
194.84383177757263,-400000.0625,-7974.33984375,-4902.740234375,-400000.0625,-16529.509765625,-400000.0625,-6987.3798828125,-400000.0625
194.8912320137024,-400000.0625,-7974.240234375,-4902.64990234375,-400000.0625,-16525.369140625,-400000.0625,-6985.27978515625,-400000.0625
194.94681477546692,-400000.0625,-7971.9599609375,-4901.83984375,-400000.0625,-16524.080078125,-400000.0625,-6978.990234375,-400000.0625
194.9780993461609,-400000.0625,-7970.6201171875,-4900.97998046875,-400000.0625,-16524.83984375,-400000.0625,-6981.08984375,-400000.0625
195.01374697685242,-400000.0625,-7978.77001953125,-4908.08984375,-400000.0625,-16531.419921875,-400000.0625,-6981.419921875,-400000.0625
195.1003942489624,-400000.0625,-7980.6298828125,-4908.66015625,-400000.0625,-16532.609375,-400000.0625,-6988.47998046875,-400000.0625
195.15179634094238,-400000.0625,-7980.5400390625,-4905.83984375,-400000.0625,-16527.26953125,-400000.0625,-6990.52978515625,-400000.0625
195.22818636894226,-400000.0625,-7975.43994140625,-4905.75,-400000.0625,-16524.4609375,-400000.0625,-6985.27978515625,-400000.0625
195.2598466873169,-400000.0625,-7974.9599609375,-4904.60009765625,-400000.0625,-16526.41015625,-400000.0625,-6984.47021484375,-400000.0625
195.32800722122192,-400000.0625,-7976.490234375,-4906.27001953125,-400000.0625,-16526.1796875,-400000.0625,-6988.0,-400000.0625
195.3492681980133,-400000.0625,-7984.97021484375,-4911.0400390625,-400000.0625,-16527.609375,-400000.0625,-6993.68017578125,-400000.0625
195.3688440322876,-400000.0625,-7987.2099609375,-4912.330078125,-400000.0625,-16533.08984375,-400000.0625,-6995.06005859375,-400000.0625
195.40956044197083,-400000.0625,-7978.39013671875,-4907.85009765625,-400000.0625,-16530.08984375,-400000.0625,-6993.14990234375,-400000.0625
195.438898563385,-400000.0625,-7981.16015625,-4912.85009765625,-400000.0625,-16533.189453125,-400000.0625,-6991.33984375,-400000.0625
195.4633514881134,-400000.0625,-7982.97021484375,-4914.3798828125,-400000.0625,-16534.470703125,-400000.0625,-6992.2900390625,-400000.0625
195.48574829101562,-400000.0625,-7981.72998046875,-4911.14013671875,-400000.0625,-16531.279296875,-400000.0625,-6989.33984375,-400000.0625
195.5272433757782,-400000.0625,-7980.6298828125,-4909.7998046875,-400000.0625,-16528.80078125,-400000.0625,-6990.81982421875,-400000.0625
195.55358266830444,-400000.0625,-7976.2900390625,-4906.3701171875,-400000.0625,-16527.23046875,-400000.0625,-6992.0498046875,-400000.0625
195.57886385917664,-400000.0625,-7975.47998046875,-4905.93994140625,-400000.0625,-16527.4609375,-400000.0625,-6990.0,-400000.0625
195.59192442893982,-400000.0625,-7980.06005859375,-4907.080078125,-400000.0625,-16528.369140625,-400000.0625,-6993.6298828125,-400000.0625
195.63630628585815,-400000.0625,-7985.5498046875,-4911.3798828125,-400000.0625,-16530.560546875,-400000.0625,-6994.77001953125,-400000.0625
195.66123628616333,-400000.0625,-7983.2998046875,-4909.330078125,-400000.0625,-16528.939453125,-400000.0625,-6992.39013671875,-400000.0625
195.6821253299713,-400000.0625,-7979.81982421875,-4909.08984375,-400000.0625,-16527.23046875,-400000.0625,-6991.39013671875,-400000.0625
195.69915199279785,-400000.0625,-7980.81982421875,-4910.66015625,-400000.0625,-16531.900390625,-400000.0625,-6991.33984375,-400000.0625
195.7431869506836,-400000.0625,-7983.02001953125,-4910.47021484375,-400000.0625,-16536.669921875,-400000.0625,-6992.580078125,-400000.0625
195.77147245407104,-400000.0625,-7983.259765625,-4907.89013671875,-400000.0625,-16532.900390625,-400000.0625,-6992.6298828125,-400000.0625
195.80654549598694,-400000.0625,-7981.64013671875,-4907.22998046875,-400000.0625,-16530.3203125,-400000.0625,-6989.52978515625,-400000.0625
195.84926009178162,-400000.0625,-7978.9599609375,-4906.60986328125,-400000.0625,-16531.80078125,-400000.0625,-6992.91015625,-400000.0625
195.87979197502136,-400000.0625,-7979.68017578125,-4908.85009765625,-400000.0625,-16527.990234375,-400000.0625,-6994.919921875,-400000.0625
195.90076208114624,-400000.0625,-7982.830078125,-4912.66015625,-400000.0625,-16529.900390625,-400000.0625,-6995.14990234375,-400000.0625
195.92811369895935,-400000.0625,-7988.31005859375,-4914.08984375,-400000.0625,-16539.099609375,-400000.0625,-6999.06005859375,-400000.0625
195.9906780719757,-400000.0625,-7992.4599609375,-4916.6201171875,-400000.0625,-16540.48046875,-400000.0625,-7002.16015625,-400000.0625
196.0068552494049,-400000.0625,-7984.02001953125,-4910.419921875,-400000.0625,-16536.240234375,-400000.0625,-7000.259765625,-400000.0625
196.02276849746704,-400000.0625,-7976.9599609375,-4909.52001953125,-400000.0625,-16533.189453125,-400000.0625,-6992.2001953125,-400000.0625
196.04537987709045,-400000.0625,-7975.81982421875,-4911.52001953125,-400000.0625,-16531.759765625,-400000.0625,-6988.3798828125,-400000.0625
196.0786168575287,-400000.0625,-7984.58984375,-4913.89990234375,-400000.0625,-16532.609375,-400000.0625,-6998.490234375,-400000.0625
196.10313510894775,-400000.0625,-7986.58984375,-4911.89990234375,-400000.0625,-16535.470703125,-400000.0625,-6996.919921875,-400000.0625
196.13166999816895,-400000.0625,-7983.16015625,-4906.990234375,-400000.0625,-16534.900390625,-400000.0625,-6997.77978515625,-400000.0625
196.17657256126404,-400000.0625,-7983.64013671875,-4907.1298828125,-400000.0625,-16532.94921875,-400000.0625,-6994.52978515625,-400000.0625
196.24845361709595,-400000.0625,-7980.81982421875,-4905.75,-400000.0625,-16530.369140625,-400000.0625,-6997.6298828125,-400000.0625
196.27551364898682,-400000.0625,-7981.06005859375,-4904.3701171875,-400000.0625,-16530.939453125,-400000.0625,-7001.68994140625,-400000.0625
196.30831599235535,-400000.0625,-7980.39990234375,-4905.509765625,-400000.0625,-16532.470703125,-400000.0625,-6999.64013671875,-400000.0625
196.36300921440125,-400000.0625,-7978.2998046875,-4903.83984375,-400000.0625,-16531.609375,-400000.0625,-6994.52978515625,-400000.0625
196.39540338516235,-400000.0625,-7975.91015625,-4903.64990234375,-400000.0625,-16530.7109375,-400000.0625,-6994.919921875,-400000.0625
196.42486572265625,-400000.0625,-7978.490234375,-4906.4599609375,-400000.0625,-16533.279296875,-400000.0625,-6994.39013671875,-400000.0625
196.46928119659424,-400000.0625,-7977.52978515625,-4906.3701171875,-400000.0625,-16530.609375,-400000.0625,-6995.14990234375,-400000.0625
196.5077784061432,-400000.0625,-7978.72998046875,-4907.47021484375,-400000.0625,-16531.990234375,-400000.0625,-6997.009765625,-400000.0625
196.54501509666443,-400000.0625,-7979.81982421875,-4907.75,-400000.0625,-16534.0,-400000.0625,-6997.009765625,-400000.0625
196.6065616607666,-400000.0625,-7977.009765625,-4906.3701171875,-400000.0625,-16535.619140625,-400000.0625,-6998.16015625,-400000.0625
196.6291425228119,-400000.0625,-7978.009765625,-4906.22998046875,-400000.0625,-16535.240234375,-400000.0625,-6997.77978515625,-400000.0625
196.65383434295654,-400000.0625,-7979.39013671875,-4906.3701171875,-400000.0625,-16533.330078125,-400000.0625,-6993.8701171875,-400000.0625
196.7238850593567,-400000.0625,-7976.68017578125,-4906.0400390625,-400000.0625,-16531.759765625,-400000.0625,-6993.33984375,-400000.0625
196.7621624469757,-400000.0625,-7977.72998046875,-4906.509765625,-400000.0625,-16530.369140625,-400000.0625,-6993.33984375,-400000.0625
196.81777262687683,-400000.0625,-7977.06005859375,-4904.56005859375,-400000.0625,-16535.08984375,-400000.0625,-6994.8701171875,-400000.0625
196.83454203605652,-400000.0625,-7979.06005859375,-4908.7998046875,-400000.0625,-16536.7109375,-400000.0625,-6996.72998046875,-400000.0625
196.86246275901794,-400000.0625,-7979.97021484375,-4908.75,-400000.0625,-16533.94921875,-400000.0625,-6997.490234375,-400000.0625
196.9554798603058,-400000.0625,-7979.97021484375,-4906.990234375,-400000.0625,-16531.990234375,-400000.0625,-6995.72998046875,-400000.0625
196.99199795722961,-400000.0625,-7982.490234375,-4907.56005859375,-400000.0625,-16537.240234375,-400000.0625,-6996.009765625,-400000.0625
197.0505669116974,-400000.0625,-7983.77978515625,-4910.22998046875,-400000.0625,-16538.150390625,-400000.0625,-6997.81982421875,-400000.0625
197.0780692100525,-400000.0625,-7984.77978515625,-4916.330078125,-400000.0625,-16543.009765625,-400000.0625,-7000.35009765625,-400000.0625
197.1124725341797,-400000.0625,-7985.2099609375,-4915.81005859375,-400000.0625,-16539.720703125,-400000.0625,-6999.2998046875,-400000.0625
197.15779638290405,-400000.0625,-7982.5400390625,-4911.0400390625,-400000.0625,-16536.330078125,-400000.0625,-6998.72998046875,-400000.0625
197.18626856803894,-400000.0625,-7983.16015625,-4912.89990234375,-400000.0625,-16538.380859375,-400000.0625,-6998.5400390625,-400000.0625
197.2106533050537,-400000.0625,-7980.97021484375,-4915.18994140625,-400000.0625,-16538.619140625,-400000.0625,-6994.52978515625,-400000.0625
197.2349579334259,-400000.0625,-7986.06982421875,-4916.85986328125,-400000.0625,-16540.240234375,-400000.0625,-6996.16015625,-400000.0625
197.28775691986084,-400000.0625,-7988.1201171875,-4917.2900390625,-400000.0625,-16537.810546875,-400000.0625,-6999.919921875,-400000.0625
197.31237268447876,-400000.0625,-7983.97021484375,-4916.3798828125,-400000.0625,-16537.669921875,-400000.0625,-6997.5400390625,-400000.0625
197.3453893661499,-400000.0625,-7980.8701171875,-4910.27978515625,-400000.0625,-16536.2890625,-400000.0625,-6994.39013671875,-400000.0625
197.37762308120728,-400000.0625,-7984.93017578125,-4913.3798828125,-400000.0625,-16536.189453125,-400000.0625,-6995.2998046875,-400000.0625
197.39817571640015,-400000.0625,-7984.97021484375,-4913.89990234375,-400000.0625,-16534.759765625,-400000.0625,-6996.10986328125,-400000.0625
197.42761278152466,-400000.0625,-7984.58984375,-4914.759765625,-400000.0625,-16536.669921875,-400000.0625,-7000.490234375,-400000.0625
197.44489574432373,-400000.0625,-7986.259765625,-4914.240234375,-400000.0625,-16539.669921875,-400000.0625,-6998.72998046875,-400000.0625
197.46324133872986,-400000.0625,-7989.06982421875,-4917.56982421875,-400000.0625,-16535.900390625,-400000.0625,-6993.490234375,-400000.0625
197.50462818145752,-400000.0625,-7984.64013671875,-4912.18994140625,-400000.0625,-16532.23046875,-400000.0625,-6991.81982421875,-400000.0625
197.52767086029053,-400000.0625,-7978.43994140625,-4909.7998046875,-400000.0625,-16536.91015625,-400000.0625,-6995.72998046875,-400000.0625
197.54041600227356,-400000.0625,-7986.39990234375,-4913.08984375,-400000.0625,-16540.580078125,-400000.0625,-6994.39013671875,-400000.0625
197.5608470439911,-400000.0625,-7986.830078125,-4912.66015625,-400000.0625,-16537.0,-400000.0625,-6996.2001953125,-400000.0625
197.57939171791077,-400000.0625,-7984.58984375,-4913.08984375,-400000.0625,-16539.529296875,-400000.0625,-6994.25,-400000.0625
197.60768866539001,-400000.0625,-7981.58984375,-4912.330078125,-400000.0625,-16536.759765625,-400000.0625,-6993.9599609375,-400000.0625
197.6200807094574,-400000.0625,-7979.35009765625,-4909.08984375,-400000.0625,-16532.609375,-400000.0625,-6995.6298828125,-400000.0625
197.63439297676086,-400000.0625,-7978.5400390625,-4908.89990234375,-400000.0625,-16533.5703125,-400000.0625,-6997.58984375,-400000.0625
197.6463770866394,-400000.0625,-7983.490234375,-4911.14013671875,-400000.0625,-16538.4296875,-400000.0625,-6999.919921875,-400000.0625
197.66350555419922,-400000.0625,-7983.5400390625,-4908.509765625,-400000.0625,-16537.91015625,-400000.0625,-6996.77978515625,-400000.0625
197.67829656600952,-400000.0625,-7980.77978515625,-4910.89990234375,-400000.0625,-16537.5703125,-400000.0625,-6995.06005859375,-400000.0625
197.69367146492004,-400000.0625,-7983.16015625,-4912.0,-400000.0625,-16535.330078125,-400000.0625,-6997.68017578125,-400000.0625
197.72255539894104,-400000.0625,-7981.68017578125,-4909.60986328125,-400000.0625,-16536.08984375,-400000.0625,-7000.490234375,-400000.0625
197.73941016197205,-400000.0625,-7975.6298828125,-4904.31982421875,-400000.0625,-16534.66015625,-400000.0625,-6995.5400390625,-400000.0625
197.7540864944458,-400000.0625,-7974.669921875,-4904.31982421875,-400000.0625,-16532.7109375,-400000.0625,-6992.77001953125,-400000.0625
197.7703001499176,-400000.0625,-7978.25,-4905.56005859375,-400000.0625,-16535.330078125,-400000.0625,-6994.2998046875,-400000.0625
197.78006076812744,-400000.0625,-7981.10986328125,-4909.85009765625,-400000.0625,-16536.0,-400000.0625,-6994.77001953125,-400000.0625
197.79490542411804,-400000.0625,-7985.06982421875,-4909.7099609375,-400000.0625,-16537.189453125,-400000.0625,-6995.5400390625,-400000.0625
197.8289864063263,-400000.0625,-7981.64013671875,-4906.1298828125,-400000.0625,-16534.619140625,-400000.0625,-6995.68017578125,-400000.0625
197.8462553024292,-400000.0625,-7978.06005859375,-4906.18017578125,-400000.0625,-16533.330078125,-400000.0625,-6994.919921875,-400000.0625
197.86178731918335,-400000.0625,-7978.5400390625,-4906.85009765625,-400000.0625,-16537.2890625,-400000.0625,-6997.39990234375,-400000.0625
197.8765892982483,-400000.0625,-7980.16015625,-4911.47021484375,-400000.0625,-16537.330078125,-400000.0625,-7000.8798828125,-400000.0625
197.89620399475098,-400000.0625,-7981.10986328125,-4909.3701171875,-400000.0625,-16533.94921875,-400000.0625,-7005.41015625,-400000.0625
197.9280514717102,-400000.0625,-7976.6298828125,-4901.740234375,-400000.0625,-16532.380859375,-400000.0625,-7001.06982421875,-400000.0625
197.94121408462524,-400000.0625,-7975.25,-4900.89013671875,-400000.0625,-16531.759765625,-400000.0625,-6999.58984375,-400000.0625
197.95949125289917,-400000.0625,-7976.10009765625,-4902.41015625,-400000.0625,-16534.189453125,-400000.0625,-7000.919921875,-400000.0625
197.97116923332214,-400000.0625,-7979.580078125,-4907.47021484375,-400000.0625,-16535.94921875,-400000.0625,-7003.8798828125,-400000.0625
197.9894073009491,-400000.0625,-7980.58984375,-4907.93994140625,-400000.0625,-16533.189453125,-400000.0625,-7003.169921875,-400000.0625
198.00823879241943,-400000.0625,-7974.9599609375,-4901.93017578125,-400000.0625,-16528.23046875,-400000.0625,-6999.68017578125,-400000.0625
198.0435392856598,-400000.0625,-7975.6298828125,-4901.02978515625,-400000.0625,-16528.130859375,-400000.0625,-6997.009765625,-400000.0625
198.06520295143127,-400000.0625,-7976.9599609375,-4901.97998046875,-400000.0625,-16529.419921875,-400000.0625,-7000.2099609375,-400000.0625
198.08305978775024,-400000.0625,-7980.6298828125,-4907.990234375,-400000.0625,-16534.66015625,-400000.0625,-7002.77978515625,-400000.0625
198.1002893447876,-400000.0625,-7975.6298828125,-4905.02978515625,-400000.0625,-16534.5703125,-400000.0625,-7001.4501953125,-400000.0625
198.1235113143921,-400000.0625,-7977.6298828125,-4902.35986328125,-400000.0625,-16531.990234375,-400000.0625,-6999.02001953125,-400000.0625
198.15656876564026,-400000.0625,-7977.33984375,-4901.740234375,-400000.0625,-16530.419921875,-400000.0625,-7001.72998046875,-400000.0625
198.1749620437622,-400000.0625,-7976.6298828125,-4903.7001953125,-400000.0625,-16530.130859375,-400000.0625,-7000.16015625,-400000.0625
198.19945859909058,-400000.0625,-7977.43994140625,-4903.56005859375,-400000.0625,-16530.470703125,-400000.0625,-6999.58984375,-400000.0625
198.2156879901886,-400000.0625,-7979.580078125,-4903.56005859375,-400000.0625,-16531.609375,-400000.0625,-7002.68994140625,-400000.0625
198.2435646057129,-400000.0625,-7979.10986328125,-4905.419921875,-400000.0625,-16530.900390625,-400000.0625,-7004.60009765625,-400000.0625
198.283034324646,-400000.0625,-7978.2001953125,-4903.27001953125,-400000.0625,-16527.560546875,-400000.0625,-7001.830078125,-400000.0625
198.3030219078064,-400000.0625,-7979.39013671875,-4904.60009765625,-400000.0625,-16532.849609375,-400000.0625,-7001.8798828125,-400000.0625
198.32096672058105,-400000.0625,-7983.2099609375,-4908.56005859375,-400000.0625,-16538.4296875,-400000.0625,-7004.2099609375,-400000.0625
198.34380960464478,-400000.0625,-7982.16015625,-4908.27978515625,-400000.0625,-16535.7109375,-400000.0625,-7002.8798828125,-400000.0625
198.37795567512512,-400000.0625,-7982.35009765625,-4905.1298828125,-400000.0625,-16534.4296875,-400000.0625,-7003.740234375,-400000.0625
198.39511227607727,-400000.0625,-7978.580078125,-4902.97998046875,-400000.0625,-16532.279296875,-400000.0625,-7000.35009765625,-400000.0625
198.41607284545898,-400000.0625,-7976.43994140625,-4903.89013671875,-400000.0625,-16528.130859375,-400000.0625,-7000.35009765625,-400000.0625
198.43406796455383,-400000.0625,-7977.490234375,-4905.419921875,-400000.0625,-16531.279296875,-400000.0625,-7001.259765625,-400000.0625
198.45096349716187,-400000.0625,-7978.009765625,-4902.7001953125,-400000.0625,-16530.7109375,-400000.0625,-7003.5,-400000.0625
198.4803183078766,-400000.0625,-7978.8701171875,-4904.93994140625,-400000.0625,-16531.80078125,-400000.0625,-7000.5400390625,-400000.0625
198.495361328125,-400000.0625,-7978.6298828125,-4904.31982421875,-400000.0625,-16528.470703125,-400000.0625,-7002.16015625,-400000.0625
198.50858855247498,-400000.0625,-7980.16015625,-4907.18017578125,-400000.0625,-16527.609375,-400000.0625,-7002.77978515625,-400000.0625
198.52529430389404,-400000.0625,-7980.68017578125,-4906.509765625,-400000.0625,-16531.66015625,-400000.0625,-7000.5400390625,-400000.0625
198.5396101474762,-400000.0625,-7977.919921875,-4906.85009765625,-400000.0625,-16537.5703125,-400000.0625,-7006.93017578125,-400000.0625
198.558678150177,-400000.0625,-7976.580078125,-4904.64990234375,-400000.0625,-16534.619140625,-400000.0625,-7004.830078125,-400000.0625
198.5809645652771,-400000.0625,-7979.5400390625,-4906.85009765625,-400000.0625,-16534.0390625,-400000.0625,-7000.2099609375,-400000.0625
198.5965497493744,-400000.0625,-7973.39013671875,-4902.7001953125,-400000.0625,-16532.7109375,-400000.0625,-7000.2099609375,-400000.0625
198.6101212501526,-400000.0625,-7975.77001953125,-4903.83984375,-400000.0625,-16533.66015625,-400000.0625,-7004.35986328125,-400000.0625
198.62242674827576,-400000.0625,-7980.97021484375,-4908.66015625,-400000.0625,-16539.2890625,-400000.0625,-7006.97998046875,-400000.0625
198.63973927497864,-400000.0625,-7980.490234375,-4907.93994140625,-400000.0625,-16536.5703125,-400000.0625,-7003.5498046875,-400000.0625
198.64962029457092,-400000.0625,-7976.68017578125,-4906.4599609375,-400000.0625,-16536.330078125,-400000.0625,-7001.68994140625,-400000.0625
198.66442894935608,-400000.0625,-7977.14990234375,-4906.75,-400000.0625,-16534.759765625,-400000.0625,-7004.5,-400000.0625
198.69223737716675,-400000.0625,-7981.2998046875,-4911.18017578125,-400000.0625,-16536.2890625,-400000.0625,-7004.4501953125,-400000.0625
198.70920181274414,-400000.0625,-7981.830078125,-4911.89990234375,-400000.0625,-16538.76953125,-400000.0625,-7003.8798828125,-400000.0625
198.71976375579834,-400000.0625,-7982.8701171875,-4910.52001953125,-400000.0625,-16536.51953125,-400000.0625,-7002.31005859375,-400000.0625
198.73932075500488,-400000.0625,-7977.77001953125,-4907.419921875,-400000.0625,-16534.759765625,-400000.0625,-7002.93017578125,-400000.0625
198.7511191368103,-400000.0625,-7980.58984375,-4910.18017578125,-400000.0625,-16534.470703125,-400000.0625,-7005.06982421875,-400000.0625
198.76394081115723,-400000.0625,-7978.919921875,-4911.3798828125,-400000.0625,-16534.51953125,-400000.0625,-7005.259765625,-400000.0625
198.77604389190674,-400000.0625,-7981.2998046875,-4907.89013671875,-400000.0625,-16538.099609375,-400000.0625,-7001.5,-400000.0625
198.80506443977356,-400000.0625,-7982.10986328125,-4912.0400390625,-400000.0625,-16536.91015625,-400000.0625,-7002.97021484375,-400000.0625
198.81978106498718,-400000.0625,-7982.06005859375,-4913.18994140625,-400000.0625,-16542.48046875,-400000.0625,-7005.31005859375,-400000.0625
198.83109307289124,-400000.0625,-7983.490234375,-4916.240234375,-400000.0625,-16544.19921875,-400000.0625,-7009.64990234375,-400000.0625
198.84457659721375,-400000.0625,-7983.4501953125,-4915.81005859375,-400000.0625,-16545.5390625,-400000.0625,-7014.56005859375,-400000.0625
198.86168479919434,-400000.0625,-7985.68994140625,-4913.47021484375,-400000.0625,-16544.580078125,-400000.0625,-7011.27001953125,-400000.0625
198.87576961517334,-400000.0625,-7984.31005859375,-4912.27978515625,-400000.0625,-16542.009765625,-400000.0625,-7002.06982421875,-400000.0625
198.8944375514984,-400000.0625,-7982.10986328125,-4910.08984375,-400000.0625,-16539.189453125,-400000.0625,-7006.02978515625,-400000.0625
198.91960859298706,-400000.0625,-7977.919921875,-4907.0400390625,-400000.0625,-16533.94921875,-400000.0625,-7009.1298828125,-400000.0625
198.93081736564636,-400000.0625,-7982.16015625,-4908.509765625,-400000.0625,-16540.619140625,-400000.0625,-7014.66015625,-400000.0625
198.94472098350525,-400000.0625,-7985.4501953125,-4910.18017578125,-400000.0625,-16544.580078125,-400000.0625,-7016.75,-400000.0625
198.96135759353638,-400000.0625,-7985.5,-4910.66015625,-400000.0625,-16541.05078125,-400000.0625,-7010.89013671875,-400000.0625
198.98071599006653,-400000.0625,-7982.4501953125,-4907.89013671875,-400000.0625,-16538.4296875,-400000.0625,-7004.93017578125,-400000.0625
198.99798679351807,-400000.0625,-7981.490234375,-4908.1298828125,-400000.0625,-16542.439453125,-400000.0625,-7012.509765625,-400000.0625
199.02924466133118,-400000.0625,-7983.72998046875,-4912.6201171875,-400000.0625,-16547.630859375,-400000.0625,-7012.18017578125,-400000.0625
199.0421748161316,-400000.0625,-7981.8701171875,-4910.56982421875,-400000.0625,-16545.109375,-400000.0625,-7011.7998046875,-400000.0625
199.05966877937317,-400000.0625,-7976.25,-4906.60986328125,-400000.0625,-16537.529296875,-400000.0625,-7006.740234375,-400000.0625
199.07300424575806,-400000.0625,-7975.81982421875,-4906.31982421875,-400000.0625,-16538.48046875,-400000.0625,-7010.080078125,-400000.0625
199.09208512306213,-400000.0625,-7979.77978515625,-4908.08984375,-400000.0625,-16544.390625,-400000.0625,-7004.68994140625,-400000.0625
199.1066176891327,-400000.0625,-7985.77978515625,-4912.6201171875,-400000.0625,-16549.349609375,-400000.0625,-7005.64013671875,-400000.0625
199.13367557525635,-400000.0625,-7984.93017578125,-4911.85009765625,-400000.0625,-16547.439453125,-400000.0625,-7006.60009765625,-400000.0625
199.16309690475464,-400000.0625,-7981.2099609375,-4909.47021484375,-400000.0625,-16542.390625,-400000.0625,-7003.97998046875,-400000.0625
199.1821231842041,-400000.0625,-7979.35009765625,-4911.47021484375,-400000.0625,-16546.779296875,-400000.0625,-7002.16015625,-400000.0625
199.20031118392944,-400000.0625,-7979.39013671875,-4908.60986328125,-400000.0625,-16546.349609375,-400000.0625,-7000.8798828125,-400000.0625
199.22405219078064,-400000.0625,-7979.6298828125,-4909.47021484375,-400000.0625,-16545.580078125,-400000.0625,-7002.77978515625,-400000.0625
199.26244115829468,-400000.0625,-7981.64013671875,-4908.18017578125,-400000.0625,-16545.19921875,-400000.0625,-7002.06982421875,-400000.0625
199.27834510803223,-400000.0625,-7979.490234375,-4902.22021484375,-400000.0625,-16541.8203125,-400000.0625,-7000.72998046875,-400000.0625
199.29814958572388,-400000.0625,-7972.77001953125,-4901.7001953125,-400000.0625,-16540.9609375,-400000.0625,-7000.68994140625,-400000.0625
199.3188099861145,-400000.0625,-7976.81982421875,-4905.31982421875,-400000.0625,-16543.009765625,-400000.0625,-7001.2099609375,-400000.0625
199.33695030212402,-400000.0625,-7979.2001953125,-4908.31982421875,-400000.0625,-16545.5390625,-400000.0625,-7005.7900390625,-400000.0625
199.36747884750366,-400000.0625,-7975.52978515625,-4906.509765625,-400000.0625,-16542.439453125,-400000.0625,-7001.58984375,-400000.0625
199.38519072532654,-400000.0625,-7971.56982421875,-4900.83984375,-400000.0625,-16539.189453125,-400000.0625,-6997.8701171875,-400000.0625
199.39733219146729,-400000.0625,-7975.25,-4906.0400390625,-400000.0625,-16542.529296875,-400000.0625,-6999.10986328125,-400000.0625
199.41320037841797,-400000.0625,-7982.68017578125,-4910.330078125,-400000.0625,-16545.630859375,-400000.0625,-7007.02978515625,-400000.0625
199.42598247528076,-400000.0625,-7980.77978515625,-4908.509765625,-400000.0625,-16544.630859375,-400000.0625,-7006.22021484375,-400000.0625
199.4442195892334,-400000.0625,-7977.81982421875,-4907.31982421875,-400000.0625,-16544.529296875,-400000.0625,-7001.93017578125,-400000.0625
199.47475790977478,-400000.0625,-7975.580078125,-4903.97998046875,-400000.0625,-16541.2890625,-400000.0625,-7000.919921875,-400000.0625
199.48859930038452,-400000.0625,-7970.0498046875,-4897.60009765625,-400000.0625,-16537.619140625,-400000.0625,-6999.77978515625,-400000.0625
199.5676531791687,-400000.0625,-7973.52978515625,-4904.56005859375,-400000.0625,-16541.099609375,-400000.0625,-7002.77978515625,-400000.0625
199.61351084709167,-400000.0625,-7979.72998046875,-4909.56005859375,-400000.0625,-16548.30078125,-400000.0625,-7007.02978515625,-400000.0625
199.63772439956665,-400000.0625,-7977.68017578125,-4908.0400390625,-400000.0625,-16544.580078125,-400000.0625,-7003.5498046875,-400000.0625
199.6516625881195,-400000.0625,-7977.52978515625,-4904.3701171875,-400000.0625,-16538.5703125,-400000.0625,-7000.8798828125,-400000.0625
199.6702799797058,-400000.0625,-7979.6298828125,-4908.509765625,-400000.0625,-16544.76953125,-400000.0625,-7003.68994140625,-400000.0625
199.7094111442566,-400000.0625,-7979.2001953125,-4912.6201171875,-400000.0625,-16548.25,-400000.0625,-7001.830078125,-400000.0625
199.73605823516846,-400000.0625,-7974.580078125,-4909.22998046875,-400000.0625,-16546.19921875,-400000.0625,-7003.39990234375,-400000.0625
199.75521421432495,-400000.0625,-7973.9599609375,-4907.18017578125,-400000.0625,-16542.630859375,-400000.0625,-7002.68994140625,-400000.0625
199.77069449424744,-400000.0625,-7965.990234375,-4897.5,-400000.0625,-16536.189453125,-400000.0625,-6996.43994140625,-400000.0625
199.82135367393494,-400000.0625,-7970.14013671875,-4901.7001953125,-400000.0625,-16541.33984375,-400000.0625,-6998.58984375,-400000.0625
199.84222602844238,-400000.0625,-7977.52978515625,-4908.1298828125,-400000.0625,-16546.919921875,-400000.0625,-7006.5498046875,-400000.0625
199.87434649467468,-400000.0625,-7979.81982421875,-4910.419921875,-400000.0625,-16549.400390625,-400000.0625,-7005.97998046875,-400000.0625
199.91883850097656,-400000.0625,-7976.25,-4908.7998046875,-400000.0625,-16544.390625,-400000.0625,-7001.68994140625,-400000.0625
199.94098925590515,-400000.0625,-7970.0498046875,-4899.83984375,-400000.0625,-16542.869140625,-400000.0625,-7000.72998046875,-400000.0625
199.95590782165527,-400000.0625,-7976.25,-4906.080078125,-400000.0625,-16543.490234375,-400000.0625,-7000.490234375,-400000.0625
199.99649262428284,-400000.0625,-7982.2998046875,-4913.08984375,-400000.0625,-16547.73046875,-400000.0625,-7007.7001953125,-400000.0625
200.04210495948792,-400000.0625,-7979.490234375,-4911.22998046875,-400000.0625,-16547.060546875,-400000.0625,-7001.35009765625,-400000.0625
200.06906700134277,-400000.0625,-7969.669921875,-4901.509765625,-400000.0625,-16541.720703125,-400000.0625,-6997.43994140625,-400000.0625
200.09154176712036,-400000.0625,-7969.669921875,-4902.89013671875,-400000.0625,-16545.5390625,-400000.0625,-6995.77001953125,-400000.0625
200.1119201183319,-400000.0625,-7975.580078125,-4905.990234375,-400000.0625,-16549.640625,-400000.0625,-7002.8798828125,-400000.0625
200.16842889785767,-400000.0625,-7980.77978515625,-4910.27978515625,-400000.0625,-16551.16015625,-400000.0625,-7005.97998046875,-400000.0625
200.21701216697693,-400000.0625,-7979.490234375,-4910.60986328125,-400000.0625,-16550.01953125,-400000.0625,-7004.169921875,-400000.0625
200.26118230819702,-400000.0625,-7974.47998046875,-4903.64990234375,-400000.0625,-16542.6796875,-400000.0625,-7004.169921875,-400000.0625
200.2912585735321,-400000.0625,-7971.240234375,-4900.93017578125,-400000.0625,-16539.189453125,-400000.0625,-6999.72998046875,-400000.0625
200.31701231002808,-400000.0625,-7970.56982421875,-4899.7900390625,-400000.0625,-16540.720703125,-400000.0625,-7000.16015625,-400000.0625
200.33548259735107,-400000.0625,-7972.2900390625,-4904.41015625,-400000.0625,-16543.33984375,-400000.0625,-7004.4501953125,-400000.0625
200.3572280406952,-400000.0625,-7973.2900390625,-4905.83984375,-400000.0625,-16546.009765625,-400000.0625,-7004.4501953125,-400000.0625
200.36907863616943,-400000.0625,-7972.47998046875,-4901.4599609375,-400000.0625,-16541.859375,-400000.0625,-6997.72998046875,-400000.0625
200.37819027900696,-400000.0625,-7971.47998046875,-4901.740234375,-400000.0625,-16539.619140625,-400000.0625,-6997.77978515625,-400000.0625
200.38605284690857,-400000.0625,-7978.2998046875,-4905.93994140625,-400000.0625,-16549.109375,-400000.0625,-7001.259765625,-400000.0625
200.39355969429016,-400000.0625,-7982.97021484375,-4911.52001953125,-400000.0625,-16552.2109375,-400000.0625,-7010.169921875,-400000.0625
200.40294480323792,-400000.0625,-7979.97021484375,-4912.08984375,-400000.0625,-16551.880859375,-400000.0625,-7007.31005859375,-400000.0625
200.41249227523804,-400000.0625,-7977.06005859375,-4907.85009765625,-400000.0625,-16548.01953125,-400000.0625,-7004.1201171875,-400000.0625
200.42016530036926,-400000.0625,-7972.240234375,-4901.5498046875,-400000.0625,-16539.9609375,-400000.0625,-7000.39990234375,-400000.0625
200.4274125099182,-400000.0625,-7971.0,-4900.02978515625,-400000.0625,-16542.390625,-400000.0625,-6997.39990234375,-400000.0625
200.43849420547485,-400000.0625,-7971.14013671875,-4902.4599609375,-400000.0625,-16548.109375,-400000.0625,-7000.02001953125,-400000.0625
200.45429635047913,-400000.0625,-7970.0,-4899.4501953125,-400000.0625,-16546.8203125,-400000.0625,-6997.919921875,-400000.0625
200.46518731117249,-400000.0625,-7972.10009765625,-4898.35986328125,-400000.0625,-16543.009765625,-400000.0625,-6994.06005859375,-400000.0625
200.47712063789368,-400000.0625,-7970.43017578125,-4898.31005859375,-400000.0625,-16541.33984375,-400000.0625,-6996.009765625,-400000.0625
200.48603630065918,-400000.0625,-7974.33984375,-4902.5498046875,-400000.0625,-16546.19921875,-400000.0625,-7000.16015625,-400000.0625
200.49563717842102,-400000.0625,-7976.009765625,-4902.89013671875,-400000.0625,-16550.880859375,-400000.0625,-7001.68994140625,-400000.0625
200.50497198104858,-400000.0625,-7977.06005859375,-4901.509765625,-400000.0625,-16549.30078125,-400000.0625,-7002.5498046875,-400000.0625
200.51884078979492,-400000.0625,-7969.7099609375,-4897.8798828125,-400000.0625,-16541.76953125,-400000.0625,-6996.43994140625,-400000.0625
200.52618288993835,-400000.0625,-7968.3798828125,-4894.06982421875,-400000.0625,-16539.150390625,-400000.0625,-6991.009765625,-400000.0625
200.53717160224915,-400000.0625,-7970.240234375,-4896.259765625,-400000.0625,-16544.30078125,-400000.0625,-6992.0498046875,-400000.0625
200.5458528995514,-400000.0625,-7974.0498046875,-4900.68994140625,-400000.0625,-16547.25,-400000.0625,-6997.8701171875,-400000.0625
200.56470894813538,-400000.0625,-7974.0498046875,-4902.740234375,-400000.0625,-16547.630859375,-400000.0625,-6998.5400390625,-400000.0625
200.5752353668213,-400000.0625,-7977.33984375,-4902.64990234375,-400000.0625,-16547.970703125,-400000.0625,-7000.2998046875,-400000.0625
200.58376717567444,-400000.0625,-7976.8701171875,-4901.7001953125,-400000.0625,-16547.970703125,-400000.0625,-7000.2099609375,-400000.0625
200.59108209609985,-400000.0625,-7973.10009765625,-4902.4599609375,-400000.0625,-16548.830078125,-400000.0625,-6999.77978515625,-400000.0625
200.6020703315735,-400000.0625,-7974.2001953125,-4902.31982421875,-400000.0625,-16548.439453125,-400000.0625,-7003.31005859375,-400000.0625
200.61305212974548,-400000.0625,-7974.33984375,-4901.93017578125,-400000.0625,-16547.25,-400000.0625,-7002.5,-400000.0625
200.62091207504272,-400000.0625,-7969.81005859375,-4897.5,-400000.0625,-16542.2890625,-400000.0625,-7002.4501953125,-400000.0625
200.63277125358582,-400000.0625,-7965.419921875,-4894.97021484375,-400000.0625,-16544.19921875,-400000.0625,-6997.35009765625,-400000.0625
200.64190411567688,-400000.0625,-7966.22998046875,-4896.68994140625,-400000.0625,-16546.5390625,-400000.0625,-6997.68017578125,-400000.0625
200.64944338798523,-400000.0625,-7969.669921875,-4900.89013671875,-400000.0625,-16548.490234375,-400000.0625,-7002.740234375,-400000.0625
200.6674726009369,-400000.0625,-7970.6201171875,-4904.56005859375,-400000.0625,-16548.6796875,-400000.0625,-7006.64990234375,-400000.0625
200.67683911323547,-400000.0625,-7970.18994140625,-4900.7900390625,-400000.0625,-16544.919921875,-400000.0625,-7004.35986328125,-400000.0625
200.68474745750427,-400000.0625,-7966.3798828125,-4892.02001953125,-400000.0625,-16542.009765625,-400000.0625,-7004.31005859375,-400000.0625
200.6918067932129,-400000.0625,-7967.22998046875,-4895.16015625,-400000.0625,-16544.76953125,-400000.0625,-7003.8798828125,-400000.0625
200.70120811462402,-400000.0625,-7968.47021484375,-4899.7900390625,-400000.0625,-16546.6796875,-400000.0625,-7005.68994140625,-400000.0625
200.71425676345825,-400000.0625,-7965.990234375,-4896.2099609375,-400000.0625,-16545.060546875,-400000.0625,-7007.31005859375,-400000.0625
200.7223892211914,-400000.0625,-7967.759765625,-4893.10986328125,-400000.0625,-16543.009765625,-400000.0625,-7002.93017578125,-400000.0625
200.7317247390747,-400000.0625,-7962.75,-4888.68017578125,-400000.0625,-16538.240234375,-400000.0625,-6998.64013671875,-400000.0625
200.74277234077454,-400000.0625,-7963.75,-4892.39990234375,-400000.0625,-16538.5703125,-400000.0625,-6999.06005859375,-400000.0625
200.75070452690125,-400000.0625,-7970.43017578125,-4899.64990234375,-400000.0625,-16546.779296875,-400000.0625,-7006.97998046875,-400000.0625
200.7682580947876,-400000.0625,-7975.10009765625,-4902.22021484375,-400000.0625,-16551.349609375,-400000.0625,-7010.080078125,-400000.0625
200.77819633483887,-400000.0625,-7970.43017578125,-4898.8798828125,-400000.0625,-16545.390625,-400000.0625,-7006.22021484375,-400000.0625
200.7864270210266,-400000.0625,-7963.47021484375,-4888.9599609375,-400000.0625,-16537.759765625,-400000.0625,-7004.35986328125,-400000.0625
200.79471945762634,-400000.0625,-7967.56982421875,-4892.16015625,-400000.0625,-16541.529296875,-400000.0625,-7006.35986328125,-400000.0625
200.81102800369263,-400000.0625,-7969.7099609375,-4899.60009765625,-400000.0625,-16546.109375,-400000.0625,-7011.22021484375,-400000.0625
200.820960521698,-400000.0625,-7973.6201171875,-4900.5498046875,-400000.0625,-16545.8203125,-400000.0625,-7008.35986328125,-400000.0625
200.85000562667847,-400000.0625,-7969.47998046875,-4898.41015625,-400000.0625,-16541.48046875,-400000.0625,-7007.5498046875,-400000.0625
200.86293601989746,-400000.0625,-7968.47021484375,-4894.830078125,-400000.0625,-16540.859375,-400000.0625,-7002.97021484375,-400000.0625
200.8999307155609,-400000.0625,-7970.91015625,-4896.740234375,-400000.0625,-16542.8203125,-400000.0625,-7007.5,-400000.0625
200.92047309875488,-400000.0625,-7971.18994140625,-4900.169921875,-400000.0625,-16550.44921875,-400000.0625,-7008.7900390625,-400000.0625
200.95138430595398,-400000.0625,-7977.52978515625,-4906.509765625,-400000.0625,-16553.01953125,-400000.0625,-7011.7001953125,-400000.0625
200.9751214981079,-400000.0625,-7970.759765625,-4897.740234375,-400000.0625,-16548.869140625,-400000.0625,-7006.1201171875,-400000.0625
201.003653049469,-400000.0625,-7964.56005859375,-4888.25,-400000.0625,-16542.720703125,-400000.0625,-7002.8798828125,-400000.0625
201.02731227874756,-400000.0625,-7970.52001953125,-4896.97998046875,-400000.0625,-16541.009765625,-400000.0625,-7010.31982421875,-400000.0625
201.0510265827179,-400000.0625,-7977.490234375,-4906.27001953125,-400000.0625,-16546.490234375,-400000.0625,-7010.31982421875,-400000.0625
201.06824493408203,-400000.0625,-7976.9599609375,-4900.27001953125,-400000.0625,-16547.919921875,-400000.0625,-7012.990234375,-400000.0625
201.08644890785217,-400000.0625,-7971.81005859375,-4893.39990234375,-400000.0625,-16541.669921875,-400000.0625,-7005.41015625,-400000.0625
201.12173175811768,-400000.0625,-7967.759765625,-4890.8701171875,-400000.0625,-16539.150390625,-400000.0625,-7000.72998046875,-400000.0625
201.13705945014954,-400000.0625,-7971.0498046875,-4896.2099609375,-400000.0625,-16542.25,-400000.0625,-7003.5,-400000.0625
201.16429138183594,-400000.0625,-7978.25,-4904.93994140625,-400000.0625,-16550.970703125,-400000.0625,-7010.31982421875,-400000.0625
201.18636965751648,-400000.0625,-7979.919921875,-4904.080078125,-400000.0625,-16554.55078125,-400000.0625,-7012.419921875,-400000.0625
201.19619178771973,-400000.0625,-7977.14990234375,-4900.169921875,-400000.0625,-16550.01953125,-400000.0625,-7002.5498046875,-400000.0625
201.2171733379364,-400000.0625,-7969.52001953125,-4892.77978515625,-400000.0625,-16541.669921875,-400000.0625,-6995.5400390625,-400000.0625
201.22578310966492,-400000.0625,-7970.0498046875,-4895.5400390625,-400000.0625,-16543.91015625,-400000.0625,-6995.14990234375,-400000.0625
201.23663568496704,-400000.0625,-7971.81005859375,-4899.22021484375,-400000.0625,-16545.109375,-400000.0625,-7004.60009765625,-400000.0625
201.2479271888733,-400000.0625,-7977.33984375,-4903.60009765625,-400000.0625,-16551.5,-400000.0625,-7008.83984375,-400000.0625
201.25554752349854,-400000.0625,-7976.52978515625,-4898.2099609375,-400000.0625,-16550.919921875,-400000.0625,-7004.7900390625,-400000.0625
201.26522493362427,-400000.0625,-7970.43017578125,-4894.72998046875,-400000.0625,-16543.529296875,-400000.0625,-6998.64013671875,-400000.0625
201.27653908729553,-400000.0625,-7966.56982421875,-4893.2099609375,-400000.0625,-16543.099609375,-400000.0625,-7004.35986328125,-400000.0625
201.28720712661743,-400000.0625,-7973.72021484375,-4900.7900390625,-400000.0625,-16547.400390625,-400000.0625,-7009.7001953125,-400000.0625
201.2982053756714,-400000.0625,-7980.2001953125,-4902.5498046875,-400000.0625,-16552.55078125,-400000.0625,-7008.080078125,-400000.0625
201.3213357925415,-400000.0625,-7975.669921875,-4898.5,-400000.0625,-16547.779296875,-400000.0625,-7002.5,-400000.0625
201.33050084114075,-400000.0625,-7969.6201171875,-4890.10986328125,-400000.0625,-16541.720703125,-400000.0625,-6992.669921875,-400000.0625
201.34268641471863,-400000.0625,-7966.56982421875,-4890.6298828125,-400000.0625,-16543.2890625,-400000.0625,-6996.580078125,-400000.0625
201.35276985168457,-400000.0625,-7973.2001953125,-4898.1201171875,-400000.0625,-16552.259765625,-400000.0625,-7004.8798828125,-400000.0625
201.36200308799744,-400000.0625,-7976.25,-4901.83984375,-400000.0625,-16554.9296875,-400000.0625,-7006.5,-400000.0625
201.37296223640442,-400000.0625,-7970.43017578125,-4898.259765625,-400000.0625,-16549.2109375,-400000.0625,-7000.5400390625,-400000.0625
201.38196539878845,-400000.0625,-7968.14013671875,-4893.72998046875,-400000.0625,-16544.76953125,-400000.0625,-6995.25,-400000.0625
201.39060831069946,-400000.0625,-7973.2900390625,-4898.7900390625,-400000.0625,-16552.0703125,-400000.0625,-6997.009765625,-400000.0625
201.4013934135437,-400000.0625,-7978.14990234375,-4902.64990234375,-400000.0625,-16553.119140625,-400000.0625,-7004.93017578125,-400000.0625
201.4190011024475,-400000.0625,-7979.25,-4903.169921875,-400000.0625,-16552.740234375,-400000.0625,-7005.02001953125,-400000.0625
201.4266972541809,-400000.0625,-7972.240234375,-4896.4501953125,-400000.0625,-16546.060546875,-400000.0625,-6999.919921875,-400000.0625
201.4362337589264,-400000.0625,-7965.22998046875,-4886.2001953125,-400000.0625,-16537.140625,-400000.0625,-6994.25,-400000.0625
201.44582533836365,-400000.0625,-7969.330078125,-4893.02001953125,-400000.0625,-16542.76953125,-400000.0625,-6997.5400390625,-400000.0625
201.45367622375488,-400000.0625,-7977.14990234375,-4903.75,-400000.0625,-16552.400390625,-400000.0625,-7004.5,-400000.0625
201.46127843856812,-400000.0625,-7976.6298828125,-4899.97998046875,-400000.0625,-16554.640625,-400000.0625,-7007.22021484375,-400000.0625
201.471581697464,-400000.0625,-7967.81005859375,-4891.72998046875,-400000.0625,-16544.390625,-400000.0625,-6996.8701171875,-400000.0625
201.48056149482727,-400000.0625,-7966.60986328125,-4888.009765625,-400000.0625,-16539.380859375,-400000.0625,-6992.009765625,-400000.0625
201.4881489276886,-400000.0625,-7974.43017578125,-4894.830078125,-400000.0625,-16548.640625,-400000.0625,-6997.490234375,-400000.0625
201.49751329421997,-400000.0625,-7978.43994140625,-4902.080078125,-400000.0625,-16550.779296875,-400000.0625,-7002.97021484375,-400000.0625
201.50858759880066,-400000.0625,-7979.919921875,-4902.31982421875,-400000.0625,-16552.830078125,-400000.0625,-7000.58984375,-400000.0625
201.52249836921692,-400000.0625,-7971.2900390625,-4892.919921875,-400000.0625,-16544.30078125,-400000.0625,-6993.39013671875,-400000.0625
201.5304355621338,-400000.0625,-7960.27001953125,-4885.72021484375,-400000.0625,-16535.240234375,-400000.0625,-6984.22998046875,-400000.0625
201.54341077804565,-400000.0625,-7964.56005859375,-4889.97021484375,-400000.0625,-16546.5390625,-400000.0625,-6993.8701171875,-400000.0625
201.55122447013855,-400000.0625,-7978.8701171875,-4900.41015625,-400000.0625,-16554.259765625,-400000.0625,-6998.97021484375,-400000.0625
201.55829167366028,-400000.0625,-7975.6298828125,-4899.93017578125,-400000.0625,-16550.640625,-400000.0625,-6997.16015625,-400000.0625
201.56993913650513,-400000.0625,-7969.47998046875,-4892.5400390625,-400000.0625,-16542.630859375,-400000.0625,-6987.6201171875,-400000.0625
201.57950353622437,-400000.0625,-7959.990234375,-4884.47998046875,-400000.0625,-16538.720703125,-400000.0625,-6985.3798828125,-400000.0625
201.58768916130066,-400000.0625,-7962.3701171875,-4890.72998046875,-400000.0625,-16544.580078125,-400000.0625,-6991.43017578125,-400000.0625
201.59670495986938,-400000.0625,-7973.2001953125,-4900.83984375,-400000.0625,-16548.490234375,-400000.0625,-7003.5498046875,-400000.0625
201.60527920722961,-400000.0625,-7978.5400390625,-4901.509765625,-400000.0625,-16550.44921875,-400000.0625,-7001.10986328125,-400000.0625
201.61288595199585,-400000.0625,-7968.3798828125,-4890.6298828125,-400000.0625,-16545.109375,-400000.0625,-6990.52978515625,-400000.0625
201.6259708404541,-400000.0625,-7962.85009765625,-4886.10009765625,-400000.0625,-16539.580078125,-400000.0625,-6991.52978515625,-400000.0625
201.63427329063416,-400000.0625,-7972.85986328125,-4898.830078125,-400000.0625,-16548.439453125,-400000.0625,-6996.97021484375,-400000.0625
201.6432168483734,-400000.0625,-7979.68017578125,-4907.419921875,-400000.0625,-16554.55078125,-400000.0625,-7003.02001953125,-400000.0625
201.6509609222412,-400000.0625,-7972.47998046875,-4897.169921875,-400000.0625,-16549.779296875,-400000.0625,-7001.4501953125,-400000.0625
201.65789675712585,-400000.0625,-7956.740234375,-4888.14990234375,-400000.0625,-16541.2890625,-400000.0625,-6994.10986328125,-400000.0625
201.66797852516174,-400000.0625,-7950.64013671875,-4884.669921875,-400000.0625,-16539.189453125,-400000.0625,-6989.77001953125,-400000.0625
201.67652583122253,-400000.0625,-7965.89990234375,-4898.4501953125,-400000.0625,-16547.919921875,-400000.0625,-6999.919921875,-400000.0625
201.6840991973877,-400000.0625,-7972.2900390625,-4902.169921875,-400000.0625,-16553.740234375,-400000.0625,-7010.7900390625,-400000.0625
201.6909430027008,-400000.0625,-7983.8798828125,-4909.75,-400000.0625,-16555.5,-400000.0625,-7000.2998046875,-400000.0625
201.70342779159546,-400000.0625,-7975.669921875,-4897.4501953125,-400000.0625,-16545.25,-400000.0625,-6990.39013671875,-400000.0625
201.72415113449097,-400000.0625,-7960.18017578125,-4885.0498046875,-400000.0625,-16537.529296875,-400000.0625,-6995.490234375,-400000.0625
201.74739003181458,-400000.0625,-7970.0,-4897.5498046875,-400000.0625,-16548.5390625,-400000.0625,-7007.5498046875,-400000.0625
201.75838613510132,-400000.0625,-7975.43994140625,-4904.990234375,-400000.0625,-16555.5,-400000.0625,-7007.22021484375,-400000.0625
201.77577233314514,-400000.0625,-7970.2900390625,-4901.93017578125,-400000.0625,-16555.029296875,-400000.0625,-6997.16015625,-400000.0625
201.78810954093933,-400000.0625,-7959.64990234375,-4891.68017578125,-400000.0625,-16546.439453125,-400000.0625,-6982.0400390625,-400000.0625
201.80690145492554,-400000.0625,-7954.22021484375,-4883.580078125,-400000.0625,-16539.150390625,-400000.0625,-6988.85986328125,-400000.0625
201.81668400764465,-400000.0625,-7961.990234375,-4892.2099609375,-400000.0625,-16543.8203125,-400000.0625,-6995.10986328125,-400000.0625
201.83428478240967,-400000.0625,-7968.81005859375,-4900.68994140625,-400000.0625,-16551.9296875,-400000.0625,-7001.5,-400000.0625
201.86042714118958,-400000.0625,-7969.52001953125,-4899.31005859375,-400000.0625,-16552.0703125,-400000.0625,-7002.93017578125,-400000.0625
201.869380235672,-400000.0625,-7963.60986328125,-4893.64013671875,-400000.0625,-16544.33984375,-400000.0625,-6991.009765625,-400000.0625
201.8783826828003,-400000.0625,-7954.68994140625,-4885.0498046875,-400000.0625,-16539.380859375,-400000.0625,-6989.0,-400000.0625
201.89596128463745,-400000.0625,-7958.1298828125,-4886.72021484375,-400000.0625,-16541.439453125,-400000.0625,-7001.4501953125,-400000.0625
201.90940809249878,-400000.0625,-7964.08984375,-4899.02978515625,-400000.0625,-16548.25,-400000.0625,-7002.740234375,-400000.0625
201.92703318595886,-400000.0625,-7964.18017578125,-4896.35986328125,-400000.0625,-16543.439453125,-400000.0625,-7000.97021484375,-400000.0625
201.94117259979248,-400000.0625,-7957.64990234375,-4892.77978515625,-400000.0625,-16539.91015625,-400000.0625,-6988.72021484375,-400000.0625
201.9676022529602,-400000.0625,-7949.2099609375,-4881.0498046875,-400000.0625,-16537.48046875,-400000.0625,-6991.580078125,-400000.0625
201.9816861152649,-400000.0625,-7954.8798828125,-4890.72998046875,-400000.0625,-16543.580078125,-400000.0625,-6994.2998046875,-400000.0625
202.0005238056183,-400000.0625,-7961.22998046875,-4898.5,-400000.0625,-16546.58984375,-400000.0625,-7006.35986328125,-400000.0625
202.01309967041016,-400000.0625,-7956.7900390625,-4896.02001953125,-400000.0625,-16549.6796875,-400000.0625,-7005.97998046875,-400000.0625
202.02630043029785,-400000.0625,-7955.35986328125,-4891.77978515625,-400000.0625,-16547.009765625,-400000.0625,-6983.3798828125,-400000.0625
202.04364275932312,-400000.0625,-7964.18017578125,-4894.72998046875,-400000.0625,-16546.58984375,-400000.0625,-6970.4501953125,-400000.0625
202.07298827171326,-400000.0625,-7970.10009765625,-4908.89990234375,-400000.0625,-16553.7890625,-400000.0625,-6959.919921875,-400000.0625
202.08625149726868,-400000.0625,-7965.14013671875,-4920.009765625,-400000.0625,-16557.890625,-400000.0625,-6958.8701171875,-400000.0625
202.1050145626068,-400000.0625,-7968.47021484375,-4934.35986328125,-400000.0625,-16558.4609375,-400000.0625,-6947.7099609375,-400000.0625
202.11717867851257,-400000.0625,-7965.27978515625,-4931.5498046875,-400000.0625,-16549.640625,-400000.0625,-6924.68017578125,-400000.0625
202.13046216964722,-400000.0625,-7961.0400390625,-4941.75,-400000.0625,-16547.009765625,-400000.0625,-6903.93994140625,-400000.0625
202.14633131027222,-400000.0625,-7969.47998046875,-4959.06005859375,-400000.0625,-16555.7890625,-400000.0625,-6894.77978515625,-400000.0625
202.18094420433044,-400000.0625,-7975.91015625,-4977.990234375,-400000.0625,-16561.4609375,-400000.0625,-6884.77001953125,-400000.0625
202.20134568214417,-400000.0625,-7969.89990234375,-4987.9599609375,-400000.0625,-16559.220703125,-400000.0625,-6879.0400390625,-400000.0625
202.22314739227295,-400000.0625,-7964.85009765625,-4990.39013671875,-400000.0625,-16551.01953125,-400000.0625,-6845.81005859375,-400000.0625
202.23493552207947,-400000.0625,-7961.419921875,-4990.9599609375,-400000.0625,-16547.109375,-400000.0625,-6826.8798828125,-400000.0625
202.24461007118225,-400000.0625,-7969.7099609375,-5009.60009765625,-400000.0625,-16559.650390625,-400000.0625,-6826.2099609375,-400000.0625
202.2635314464569,-400000.0625,-7988.06982421875,-5039.06982421875,-400000.0625,-16570.810546875,-400000.0625,-6823.02001953125,-400000.0625
202.28844904899597,-400000.0625,-7984.77978515625,-5040.4599609375,-400000.0625,-16569.619140625,-400000.0625,-6810.56982421875,-400000.0625
202.3079056739807,-400000.0625,-7974.43017578125,-5041.5,-400000.0625,-16563.470703125,-400000.0625,-6784.25,-400000.0625
202.322683095932,-400000.0625,-7976.9599609375,-5042.509765625,-400000.0625,-16559.029296875,-400000.0625,-6765.41015625,-400000.0625
202.33992195129395,-400000.0625,-7972.240234375,-5043.64990234375,-400000.0625,-16559.69921875,-400000.0625,-6760.22021484375,-400000.0625
202.35594868659973,-400000.0625,-7978.9599609375,-5056.6201171875,-400000.0625,-16567.380859375,-400000.0625,-6764.64990234375,-400000.0625
202.37498593330383,-400000.0625,-7987.93017578125,-5069.58984375,-400000.0625,-16572.05078125,-400000.0625,-6756.259765625,-400000.0625
202.41221284866333,-400000.0625,-7979.39013671875,-5066.43994140625,-400000.0625,-16567.419921875,-400000.0625,-6746.14990234375,-400000.0625
202.4339394569397,-400000.0625,-7973.0498046875,-5064.580078125,-400000.0625,-16566.330078125,-400000.0625,-6727.02978515625,-400000.0625
202.4489061832428,-400000.0625,-7977.580078125,-5067.5400390625,-400000.0625,-16567.66015625,-400000.0625,-6728.5498046875,-400000.0625
202.47043681144714,-400000.0625,-7980.6298828125,-5072.5498046875,-400000.0625,-16572.669921875,-400000.0625,-6730.41015625,-400000.0625
202.48304843902588,-400000.0625,-7986.259765625,-5070.77978515625,-400000.0625,-16574.720703125,-400000.0625,-6732.7998046875,-400000.0625
202.52089381217957,-400000.0625,-7970.2900390625,-5058.14990234375,-400000.0625,-16566.560546875,-400000.0625,-6728.4599609375,-400000.0625
202.53288412094116,-400000.0625,-7963.7099609375,-5048.7998046875,-400000.0625,-16559.080078125,-400000.0625,-6719.919921875,-400000.0625
202.54940462112427,-400000.0625,-7973.0498046875,-5058.10009765625,-400000.0625,-16565.23046875,-400000.0625,-6721.02001953125,-400000.0625
202.56806421279907,-400000.0625,-7986.5498046875,-5070.2099609375,-400000.0625,-16573.759765625,-400000.0625,-6729.93994140625,-400000.0625
202.58280301094055,-400000.0625,-7981.8701171875,-5064.14990234375,-400000.0625,-16572.5703125,-400000.0625,-6736.47021484375,-400000.0625
202.5980248451233,-400000.0625,-7967.66015625,-5057.669921875,-400000.0625,-16568.849609375,-400000.0625,-6721.35009765625,-400000.0625
202.6242537498474,-400000.0625,-7962.27978515625,-5047.60986328125,-400000.0625,-16559.890625,-400000.0625,-6715.919921875,-400000.0625
202.64201831817627,-400000.0625,-7974.10009765625,-5054.9501953125,-400000.0625,-16565.900390625,-400000.0625,-6726.83984375,-400000.0625
202.65635061264038,-400000.0625,-7979.25,-5064.06005859375,-400000.0625,-16576.580078125,-400000.0625,-6732.990234375,-400000.0625
202.67161679267883,-400000.0625,-7974.240234375,-5060.52978515625,-400000.0625,-16576.009765625,-400000.0625,-6732.60986328125,-400000.0625
202.68952417373657,-400000.0625,-7975.10009765625,-5056.18994140625,-400000.0625,-16568.0390625,-400000.0625,-6725.169921875,-400000.0625
202.71033573150635,-400000.0625,-7968.18994140625,-5051.990234375,-400000.0625,-16563.26953125,-400000.0625,-6716.81982421875,-400000.0625
202.73704957962036,-400000.0625,-7962.75,-5047.7001953125,-400000.0625,-16559.220703125,-400000.0625,-6724.5,-400000.0625
202.74800562858582,-400000.0625,-7975.91015625,-5062.14990234375,-400000.0625,-16571.240234375,-400000.0625,-6737.08984375,-400000.0625
202.75997161865234,-400000.0625,-7981.2998046875,-5070.31005859375,-400000.0625,-16579.6796875,-400000.0625,-6734.990234375,-400000.0625
202.7778820991516,-400000.0625,-7973.0,-5061.33984375,-400000.0625,-16570.240234375,-400000.0625,-6722.77978515625,-400000.0625
202.79378485679626,-400000.0625,-7971.10009765625,-5054.81005859375,-400000.0625,-16563.939453125,-400000.0625,-6714.39013671875,-400000.0625
202.81028652191162,-400000.0625,-7977.10986328125,-5059.580078125,-400000.0625,-16566.1796875,-400000.0625,-6725.35986328125,-400000.0625
202.827317237854,-400000.0625,-7982.4501953125,-5064.580078125,-400000.0625,-16572.529296875,-400000.0625,-6733.18017578125,-400000.0625
202.85873818397522,-400000.0625,-7982.58984375,-5068.58984375,-400000.0625,-16575.8203125,-400000.0625,-6728.509765625,-400000.0625
202.8773729801178,-400000.0625,-7979.2001953125,-5063.6298828125,-400000.0625,-16570.759765625,-400000.0625,-6717.25,-400000.0625
202.89245295524597,-400000.0625,-7970.52001953125,-5050.08984375,-400000.0625,-16562.80078125,-400000.0625,-6722.93017578125,-400000.0625
202.91188716888428,-400000.0625,-7972.3798828125,-5055.240234375,-400000.0625,-16564.900390625,-400000.0625,-6727.31005859375,-400000.0625
202.9315526485443,-400000.0625,-7984.93017578125,-5066.5400390625,-400000.0625,-16575.4296875,-400000.0625,-6732.18017578125,-400000.0625
202.96001935005188,-400000.0625,-7986.169921875,-5064.10986328125,-400000.0625,-16574.859375,-400000.0625,-6732.56005859375,-400000.0625
202.9765887260437,-400000.0625,-7978.009765625,-5056.91015625,-400000.0625,-16566.560546875,-400000.0625,-6721.8798828125,-400000.0625
202.98681783676147,-400000.0625,-7969.81005859375,-5050.0400390625,-400000.0625,-16560.890625,-400000.0625,-6715.68017578125,-400000.0625
202.99809551239014,-400000.0625,-7979.97021484375,-5058.9599609375,-400000.0625,-16566.330078125,-400000.0625,-6718.97021484375,-400000.0625
203.0134310722351,-400000.0625,-7981.830078125,-5065.8701171875,-400000.0625,-16572.099609375,-400000.0625,-6729.3701171875,-400000.0625
203.02895617485046,-400000.0625,-7982.35009765625,-5063.580078125,-400000.0625,-16571.0,-400000.0625,-6732.7998046875,-400000.0625
203.04362678527832,-400000.0625,-7980.8701171875,-5060.009765625,-400000.0625,-16569.810546875,-400000.0625,-6731.1298828125,-400000.0625
203.07167172431946,-400000.0625,-7983.97021484375,-5060.2900390625,-400000.0625,-16568.66015625,-400000.0625,-6720.35009765625,-400000.0625
203.08309531211853,-400000.0625,-7988.31005859375,-5062.8701171875,-400000.0625,-16572.330078125,-400000.0625,-6728.35986328125,-400000.0625
203.0946044921875,-400000.0625,-7988.97998046875,-5069.5400390625,-400000.0625,-16578.099609375,-400000.0625,-6735.3701171875,-400000.0625
203.11125588417053,-400000.0625,-7996.0400390625,-5069.06982421875,-400000.0625,-16577.720703125,-400000.0625,-6738.22998046875,-400000.0625
203.12839198112488,-400000.0625,-7993.7900390625,-5058.91015625,-400000.0625,-16570.279296875,-400000.0625,-6731.93994140625,-400000.0625
203.14866948127747,-400000.0625,-7981.43994140625,-5049.08984375,-400000.0625,-16565.849609375,-400000.0625,-6726.68994140625,-400000.0625
203.17592000961304,-400000.0625,-7982.10986328125,-5057.6201171875,-400000.0625,-16571.51953125,-400000.0625,-6724.22021484375,-400000.0625
203.1853199005127,-400000.0625,-7994.31982421875,-5067.5400390625,-400000.0625,-16581.109375,-400000.0625,-6743.0498046875,-400000.0625
203.19790244102478,-400000.0625,-7996.18017578125,-5067.5400390625,-400000.0625,-16581.30078125,-400000.0625,-6743.6201171875,-400000.0625
203.21200513839722,-400000.0625,-7991.02978515625,-5058.33984375,-400000.0625,-16571.189453125,-400000.0625,-6729.83984375,-400000.0625
203.22491121292114,-400000.0625,-7985.2099609375,-5051.9501953125,-400000.0625,-16564.939453125,-400000.0625,-6725.35986328125,-400000.0625
203.24169850349426,-400000.0625,-7986.8798828125,-5061.81982421875,-400000.0625,-16571.669921875,-400000.0625,-6727.60009765625,-400000.0625
203.2530221939087,-400000.0625,-7993.509765625,-5060.39013671875,-400000.0625,-16574.48046875,-400000.0625,-6745.10009765625,-400000.0625
203.2804777622223,-400000.0625,-7990.89013671875,-5059.0498046875,-400000.0625,-16572.91015625,-400000.0625,-6744.669921875,-400000.0625
203.29675436019897,-400000.0625,-7975.47998046875,-5051.330078125,-400000.0625,-16564.939453125,-400000.0625,-6729.93994140625,-400000.0625
203.31234669685364,-400000.0625,-7984.35009765625,-5056.3798828125,-400000.0625,-16565.939453125,-400000.0625,-6721.1201171875,-400000.0625
203.33611154556274,-400000.0625,-8000.08984375,-5065.8701171875,-400000.0625,-16575.619140625,-400000.0625,-6733.22998046875,-400000.0625
203.35708832740784,-400000.0625,-8006.759765625,-5069.4501953125,-400000.0625,-16582.490234375,-400000.0625,-6752.16015625,-400000.0625
203.38628697395325,-400000.0625,-7998.75,-5066.68017578125,-400000.0625,-16580.970703125,-400000.0625,-6746.72021484375,-400000.0625
203.39956283569336,-400000.0625,-7990.68994140625,-5055.2900390625,-400000.0625,-16569.0,-400000.0625,-6736.7099609375,-400000.0625
203.40960550308228,-400000.0625,-7985.5,-5049.66015625,-400000.0625,-16565.66015625,-400000.0625,-6728.509765625,-400000.0625
203.42677783966064,-400000.0625,-7998.31982421875,-5065.009765625,-400000.0625,-16575.669921875,-400000.0625,-6734.990234375,-400000.0625
203.43974804878235,-400000.0625,-8005.759765625,-5075.740234375,-400000.0625,-16585.640625,-400000.0625,-6743.14990234375,-400000.0625
203.46046614646912,-400000.0625,-7994.93994140625,-5064.81982421875,-400000.0625,-16580.30078125,-400000.0625,-6754.4501953125,-400000.0625
203.49214959144592,-400000.0625,-7987.68994140625,-5052.56982421875,-400000.0625,-16569.380859375,-400000.0625,-6734.419921875,-400000.0625
203.50456166267395,-400000.0625,-7988.97998046875,-5053.47021484375,-400000.0625,-16567.66015625,-400000.0625,-6721.93017578125,-400000.0625
203.5212471485138,-400000.0625,-8000.419921875,-5063.81982421875,-400000.0625,-16578.6796875,-400000.0625,-6738.9501953125,-400000.0625
203.52992010116577,-400000.0625,-8006.3798828125,-5074.06982421875,-400000.0625,-16584.5390625,-400000.0625,-6749.6298828125,-400000.0625
203.55017971992493,-400000.0625,-8002.81005859375,-5066.58984375,-400000.0625,-16577.25,-400000.0625,-6750.81982421875,-400000.0625
203.5630054473877,-400000.0625,-7994.7998046875,-5055.3798828125,-400000.0625,-16567.1796875,-400000.0625,-6744.580078125,-400000.0625
203.59346842765808,-400000.0625,-7992.7001953125,-5053.66015625,-400000.0625,-16567.419921875,-400000.0625,-6741.10009765625,-400000.0625
203.606449842453,-400000.0625,-8000.27978515625,-5063.6298828125,-400000.0625,-16575.4296875,-400000.0625,-6746.580078125,-400000.0625
203.62320685386658,-400000.0625,-8009.240234375,-5072.4501953125,-400000.0625,-16582.919921875,-400000.0625,-6751.06005859375,-400000.0625
203.63279628753662,-400000.0625,-8005.330078125,-5063.39013671875,-400000.0625,-16576.720703125,-400000.0625,-6747.9599609375,-400000.0625
203.64651441574097,-400000.0625,-8002.56982421875,-5058.6201171875,-400000.0625,-16571.330078125,-400000.0625,-6741.56982421875,-400000.0625
203.6565146446228,-400000.0625,-7989.4599609375,-5053.330078125,-400000.0625,-16568.279296875,-400000.0625,-6737.47021484375,-400000.0625
203.67273569107056,-400000.0625,-7999.990234375,-5062.06005859375,-400000.0625,-16576.630859375,-400000.0625,-6747.06005859375,-400000.0625
203.70548176765442,-400000.0625,-8014.009765625,-5072.5498046875,-400000.0625,-16583.25,-400000.0625,-6760.8798828125,-400000.0625
203.71687960624695,-400000.0625,-8016.16015625,-5076.5498046875,-400000.0625,-16582.6796875,-400000.0625,-6755.2099609375,-400000.0625
203.73308205604553,-400000.0625,-8002.22998046875,-5062.8701171875,-400000.0625,-16576.720703125,-400000.0625,-6743.240234375,-400000.0625
203.74641180038452,-400000.0625,-7997.080078125,-5053.6201171875,-400000.0625,-16570.0,-400000.0625,-6740.240234375,-400000.0625
203.76301169395447,-400000.0625,-8005.47998046875,-5061.669921875,-400000.0625,-16574.9609375,-400000.0625,-6750.009765625,-400000.0625
203.77942538261414,-400000.0625,-8014.16015625,-5072.5498046875,-400000.0625,-16585.30078125,-400000.0625,-6758.4501953125,-400000.0625
203.81250715255737,-400000.0625,-8017.25,-5065.72998046875,-400000.0625,-16582.349609375,-400000.0625,-6760.60009765625,-400000.0625
203.82705926895142,-400000.0625,-7998.08984375,-5053.330078125,-400000.0625,-16570.669921875,-400000.0625,-6748.009765625,-400000.0625
203.84756422042847,-400000.0625,-7995.22021484375,-5050.18017578125,-400000.0625,-16564.08984375,-400000.0625,-6737.7099609375,-400000.0625
203.8638505935669,-400000.0625,-8009.43017578125,-5061.14990234375,-400000.0625,-16569.330078125,-400000.0625,-6738.3798828125,-400000.0625
203.8791048526764,-400000.0625,-8010.25,-5064.68017578125,-400000.0625,-16580.970703125,-400000.0625,-6760.259765625,-400000.0625
203.89365816116333,-400000.0625,-8006.6201171875,-5064.35009765625,-400000.0625,-16584.349609375,-400000.0625,-6760.06982421875,-400000.0625
203.9233238697052,-400000.0625,-8000.27978515625,-5054.0498046875,-400000.0625,-16572.529296875,-400000.0625,-6751.009765625,-400000.0625
203.94319009780884,-400000.0625,-7997.080078125,-5049.419921875,-400000.0625,-16569.4296875,-400000.0625,-6738.0400390625,-400000.0625
203.95867466926575,-400000.0625,-8002.47021484375,-5060.009765625,-400000.0625,-16575.859375,-400000.0625,-6749.580078125,-400000.0625
203.97615265846252,-400000.0625,-8010.81982421875,-5065.06005859375,-400000.0625,-16581.30078125,-400000.0625,-6760.169921875,-400000.0625
203.98805451393127,-400000.0625,-8004.18994140625,-5059.39013671875,-400000.0625,-16575.720703125,-400000.0625,-6758.5498046875,-400000.0625
204.00400471687317,-400000.0625,-8004.9501953125,-5056.56982421875,-400000.0625,-16567.51953125,-400000.0625,-6745.669921875,-400000.0625
204.02747678756714,-400000.0625,-7999.0400390625,-5049.75,-400000.0625,-16565.51953125,-400000.0625,-6738.85009765625,-400000.0625
204.04533338546753,-400000.0625,-7998.89990234375,-5056.330078125,-400000.0625,-16569.900390625,-400000.0625,-6740.669921875,-400000.0625
204.0573902130127,-400000.0625,-8014.5400390625,-5064.9599609375,-400000.0625,-16579.109375,-400000.0625,-6752.009765625,-400000.0625
204.07283782958984,-400000.0625,-8033.0400390625,-5084.1298828125,-400000.0625,-16596.650390625,-400000.0625,-6755.64013671875,-400000.0625
204.09068822860718,-400000.0625,-8013.25,-5060.39013671875,-400000.0625,-16584.830078125,-400000.0625,-6749.81982421875,-400000.0625
204.10935878753662,-400000.0625,-7973.14990234375,-5025.0498046875,-400000.0625,-16560.3203125,-400000.0625,-6755.5400390625,-400000.0625
204.13593888282776,-400000.0625,-7966.22998046875,-5027.91015625,-400000.0625,-16558.69921875,-400000.0625,-6785.490234375,-400000.0625
204.16324615478516,-400000.0625,-7981.64013671875,-5028.52978515625,-400000.0625,-16570.0,-400000.0625,-6808.08984375,-400000.0625
204.1772952079773,-400000.0625,-7974.52978515625,-5016.60986328125,-400000.0625,-16565.51953125,-400000.0625,-6825.259765625,-400000.0625
204.1894564628601,-400000.0625,-7938.10009765625,-4989.0498046875,-400000.0625,-16550.970703125,-400000.0625,-6841.990234375,-400000.0625
204.207852602005,-400000.0625,-7927.60986328125,-4973.509765625,-400000.0625,-16548.30078125,-400000.0625,-6851.0498046875,-400000.0625
204.22158360481262,-400000.0625,-7928.3701171875,-4964.06982421875,-400000.0625,-16558.740234375,-400000.0625,-6885.240234375,-400000.0625
204.25004601478577,-400000.0625,-7923.7001953125,-4959.2001953125,-400000.0625,-16571.08984375,-400000.0625,-6917.81005859375,-400000.0625
204.26418256759644,-400000.0625,-7909.39013671875,-4941.27001953125,-400000.0625,-16563.75,-400000.0625,-6935.22021484375,-400000.0625
204.27880859375,-400000.0625,-7892.419921875,-4914.330078125,-400000.0625,-16550.109375,-400000.0625,-6943.0400390625,-400000.0625
204.29168152809143,-400000.0625,-7872.10986328125,-4890.6298828125,-400000.0625,-16541.669921875,-400000.0625,-6954.2900390625,-400000.0625
204.30837106704712,-400000.0625,-7868.669921875,-4889.97021484375,-400000.0625,-16543.6796875,-400000.0625,-6969.2099609375,-400000.0625
204.31849765777588,-400000.0625,-7885.60009765625,-4902.89013671875,-400000.0625,-16559.3203125,-400000.0625,-6984.85009765625,-400000.0625
204.33716702461243,-400000.0625,-7890.64990234375,-4901.41015625,-400000.0625,-16559.560546875,-400000.0625,-6988.10009765625,-400000.0625
204.36000680923462,-400000.0625,-7880.830078125,-4889.10986328125,-400000.0625,-16551.5,-400000.0625,-6984.330078125,-400000.0625
204.3715717792511,-400000.0625,-7877.64013671875,-4885.9599609375,-400000.0625,-16550.880859375,-400000.0625,-6975.93994140625,-400000.0625
204.38926148414612,-400000.0625,-7891.0400390625,-4897.64013671875,-400000.0625,-16556.599609375,-400000.0625,-6978.419921875,-400000.0625
204.3988001346588,-400000.0625,-7899.56982421875,-4903.509765625,-400000.0625,-16562.080078125,-400000.0625,-6990.47998046875,-400000.0625
204.41059255599976,-400000.0625,-7898.330078125,-4903.97998046875,-400000.0625,-16562.990234375,-400000.0625,-6991.669921875,-400000.0625
204.42947578430176,-400000.0625,-7893.0400390625,-4894.16015625,-400000.0625,-16556.220703125,-400000.0625,-6982.419921875,-400000.0625
204.44325256347656,-400000.0625,-7889.56005859375,-4886.33984375,-400000.0625,-16549.2109375,-400000.0625,-6978.7001953125,-400000.0625
204.47311186790466,-400000.0625,-7894.7099609375,-4890.10986328125,-400000.0625,-16553.400390625,-400000.0625,-6988.14013671875,-400000.0625
204.4907796382904,-400000.0625,-7908.14990234375,-4900.06982421875,-400000.0625,-16557.5,-400000.0625,-6996.580078125,-400000.0625
204.504234790802,-400000.0625,-7907.33984375,-4898.5,-400000.0625,-16559.3203125,-400000.0625,-6995.25,-400000.0625
204.5189597606659,-400000.0625,-7896.89990234375,-4888.43994140625,-400000.0625,-16557.169921875,-400000.0625,-6982.18017578125,-400000.0625
204.5297555923462,-400000.0625,-7896.22998046875,-4884.85986328125,-400000.0625,-16551.5,-400000.0625,-6978.0400390625,-400000.0625
204.5471076965332,-400000.0625,-7904.9599609375,-4892.8701171875,-400000.0625,-16560.890625,-400000.0625,-6984.89990234375,-400000.0625
204.57700562477112,-400000.0625,-7909.39013671875,-4895.77978515625,-400000.0625,-16567.80078125,-400000.0625,-6990.6201171875,-400000.0625
204.59264254570007,-400000.0625,-7906.72021484375,-4893.830078125,-400000.0625,-16563.75,-400000.0625,-6992.2001953125,-400000.0625
204.60548281669617,-400000.0625,-7903.2001953125,-4887.72021484375,-400000.0625,-16556.310546875,-400000.0625,-6988.759765625,-400000.0625
204.62553215026855,-400000.0625,-7902.3798828125,-4883.81005859375,-400000.0625,-16554.55078125,-400000.0625,-6982.0400390625,-400000.0625
204.64050340652466,-400000.0625,-7903.240234375,-4884.240234375,-400000.0625,-16558.509765625,-400000.0625,-6982.52001953125,-400000.0625
204.6606945991516,-400000.0625,-7908.06005859375,-4886.72021484375,-400000.0625,-16561.560546875,-400000.0625,-6983.18994140625,-400000.0625
204.69008326530457,-400000.0625,-7908.72998046875,-4887.25,-400000.0625,-16563.66015625,-400000.0625,-6983.47021484375,-400000.0625
204.70148491859436,-400000.0625,-7909.81982421875,-4884.2900390625,-400000.0625,-16559.650390625,-400000.0625,-6979.89990234375,-400000.0625
204.71445560455322,-400000.0625,-7903.0498046875,-4878.56982421875,-400000.0625,-16552.880859375,-400000.0625,-6976.89013671875,-400000.0625
204.73066473007202,-400000.0625,-7905.669921875,-4882.56982421875,-400000.0625,-16559.650390625,-400000.0625,-6979.18017578125,-400000.0625
204.74215364456177,-400000.0625,-7911.919921875,-4887.2998046875,-400000.0625,-16564.419921875,-400000.0625,-6980.93994140625,-400000.0625
204.75918078422546,-400000.0625,-7911.77978515625,-4888.009765625,-400000.0625,-16563.939453125,-400000.0625,-6979.66015625,-400000.0625
204.77863430976868,-400000.0625,-7903.39013671875,-4880.759765625,-400000.0625,-16558.119140625,-400000.0625,-6972.35986328125,-400000.0625
204.80847692489624,-400000.0625,-7888.89013671875,-4865.02978515625,-400000.0625,-16545.390625,-400000.0625,-6963.919921875,-400000.0625
204.81828498840332,-400000.0625,-7900.56982421875,-4877.3798828125,-400000.0625,-16560.3203125,-400000.0625,-6978.27001953125,-400000.0625
204.83241939544678,-400000.0625,-7912.97021484375,-4890.490234375,-400000.0625,-16567.140625,-400000.0625,-6982.18017578125,-400000.0625
204.85030889511108,-400000.0625,-7914.35009765625,-4888.14990234375,-400000.0625,-16561.369140625,-400000.0625,-6980.60986328125,-400000.0625
204.86301708221436,-400000.0625,-7906.43994140625,-4882.10009765625,-400000.0625,-16557.310546875,-400000.0625,-6971.4599609375,-400000.0625
204.87446784973145,-400000.0625,-7900.43017578125,-4874.18017578125,-400000.0625,-16555.119140625,-400000.0625,-6969.31005859375,-400000.0625
204.89034795761108,-400000.0625,-7906.39013671875,-4877.7099609375,-400000.0625,-16562.650390625,-400000.0625,-6970.5,-400000.0625
204.91294646263123,-400000.0625,-7915.740234375,-4890.5400390625,-400000.0625,-16569.5703125,-400000.0625,-6976.64990234375,-400000.0625
204.928866147995,-400000.0625,-7914.72998046875,-4889.43994140625,-400000.0625,-16571.189453125,-400000.0625,-6976.18017578125,-400000.0625
204.9455442428589,-400000.0625,-7905.2900390625,-4879.759765625,-400000.0625,-16565.560546875,-400000.0625,-6966.4501953125,-400000.0625
204.96790385246277,-400000.0625,-7881.169921875,-4858.10986328125,-400000.0625,-16542.439453125,-400000.0625,-6972.080078125,-400000.0625
204.9883964061737,-400000.0625,-7886.27001953125,-4861.39990234375,-400000.0625,-16546.25,-400000.0625,-6983.47021484375,-400000.0625
205.00089645385742,-400000.0625,-7898.6201171875,-4869.02978515625,-400000.0625,-16562.26953125,-400000.0625,-6985.3798828125,-400000.0625
205.0276472568512,-400000.0625,-7894.759765625,-4869.89013671875,-400000.0625,-16566.23046875,-400000.0625,-6983.14013671875,-400000.0625
205.04156374931335,-400000.0625,-7889.22021484375,-4863.830078125,-400000.0625,-16562.890625,-400000.0625,-6982.18017578125,-400000.0625
205.06018710136414,-400000.0625,-7873.919921875,-4852.06005859375,-400000.0625,-16552.310546875,-400000.0625,-6972.93017578125,-400000.0625
205.07287788391113,-400000.0625,-7883.41015625,-4862.2099609375,-400000.0625,-16559.41015625,-400000.0625,-6979.1298828125,-400000.0625
205.0951189994812,-400000.0625,-7889.83984375,-4868.64990234375,-400000.0625,-16568.140625,-400000.0625,-6985.0498046875,-400000.0625
205.10885334014893,-400000.0625,-7889.3701171875,-4867.41015625,-400000.0625,-16566.560546875,-400000.0625,-6981.56005859375,-400000.0625
205.14147996902466,-400000.0625,-7884.259765625,-4861.31005859375,-400000.0625,-16561.4609375,-400000.0625,-6975.31982421875,-400000.0625
205.16353011131287,-400000.0625,-7874.97021484375,-4855.39013671875,-400000.0625,-16557.890625,-400000.0625,-6972.5,-400000.0625
205.1855182647705,-400000.0625,-7889.3701171875,-4866.64990234375,-400000.0625,-16563.890625,-400000.0625,-6978.18017578125,-400000.0625
205.1968924999237,-400000.0625,-7899.85986328125,-4875.85009765625,-400000.0625,-16573.529296875,-400000.0625,-6989.33984375,-400000.0625
205.21299076080322,-400000.0625,-7885.89013671875,-4865.4599609375,-400000.0625,-16563.849609375,-400000.0625,-6980.22998046875,-400000.0625
205.24201583862305,-400000.0625,-7882.4501953125,-4858.68994140625,-400000.0625,-16561.029296875,-400000.0625,-6974.5498046875,-400000.0625
205.25887870788574,-400000.0625,-7879.58984375,-4857.830078125,-400000.0625,-16562.80078125,-400000.0625,-6971.169921875,-400000.0625
205.2687542438507,-400000.0625,-7887.22021484375,-4862.64013671875,-400000.0625,-16563.75,-400000.0625,-6982.08984375,-400000.0625
205.27899932861328,-400000.0625,-7894.56005859375,-4866.41015625,-400000.0625,-16566.990234375,-400000.0625,-6991.2900390625,-400000.0625
205.29318714141846,-400000.0625,-7892.60986328125,-4864.259765625,-400000.0625,-16563.75,-400000.0625,-6986.0,-400000.0625
205.30706334114075,-400000.0625,-7885.97998046875,-4857.35009765625,-400000.0625,-16558.029296875,-400000.0625,-6970.41015625,-400000.0625
205.323668718338,-400000.0625,-7878.5400390625,-4852.009765625,-400000.0625,-16554.01953125,-400000.0625,-6973.97998046875,-400000.0625
205.3484320640564,-400000.0625,-7890.31982421875,-4859.39990234375,-400000.0625,-16567.51953125,-400000.0625,-6989.0498046875,-400000.0625
205.3584442138672,-400000.0625,-7901.18994140625,-4869.1298828125,-400000.0625,-16574.580078125,-400000.0625,-6994.06005859375,-400000.0625
205.37565851211548,-400000.0625,-7899.56982421875,-4864.7900390625,-400000.0625,-16569.189453125,-400000.0625,-6991.39013671875,-400000.0625
205.38840246200562,-400000.0625,-7888.3701171875,-4854.16015625,-400000.0625,-16558.69921875,-400000.0625,-6978.56005859375,-400000.0625
205.4071226119995,-400000.0625,-7876.02001953125,-4843.81005859375,-400000.0625,-16552.640625,-400000.0625,-6967.64013671875,-400000.0625
205.41741585731506,-400000.0625,-7886.509765625,-4856.68017578125,-400000.0625,-16560.26953125,-400000.0625,-6981.52001953125,-400000.0625
205.430566072464,-400000.0625,-7898.6201171875,-4870.60986328125,-400000.0625,-16573.859375,-400000.0625,-6989.43017578125,-400000.0625
205.45742201805115,-400000.0625,-7896.47021484375,-4866.41015625,-400000.0625,-16571.859375,-400000.0625,-6986.18994140625,-400000.0625
205.46993589401245,-400000.0625,-7883.64990234375,-4852.14990234375,-400000.0625,-16561.83984375,-400000.0625,-6976.02978515625,-400000.0625
205.48402547836304,-400000.0625,-7876.919921875,-4846.47998046875,-400000.0625,-16552.5,-400000.0625,-6968.31005859375,-400000.0625
205.49566292762756,-400000.0625,-7888.3701171875,-4856.009765625,-400000.0625,-16558.98046875,-400000.0625,-6974.83984375,-400000.0625
205.50803685188293,-400000.0625,-7891.66015625,-4862.02001953125,-400000.0625,-16571.5703125,-400000.0625,-6985.81005859375,-400000.0625
205.52655339241028,-400000.0625,-7888.990234375,-4859.5,-400000.0625,-16568.380859375,-400000.0625,-6983.47021484375,-400000.0625
205.53880786895752,-400000.0625,-7878.58984375,-4849.240234375,-400000.0625,-16558.119140625,-400000.0625,-6970.7900390625,-400000.0625
205.56678700447083,-400000.0625,-7874.06005859375,-4843.56982421875,-400000.0625,-16550.400390625,-400000.0625,-6966.58984375,-400000.0625
205.58043217658997,-400000.0625,-7887.93994140625,-4856.77978515625,-400000.0625,-16561.939453125,-400000.0625,-6973.1201171875,-400000.0625
205.59535813331604,-400000.0625,-7892.66015625,-4862.8798828125,-400000.0625,-16569.51953125,-400000.0625,-6984.52001953125,-400000.0625
205.60710906982422,-400000.0625,-7888.60009765625,-4858.68994140625,-400000.0625,-16567.1796875,-400000.0625,-6983.60986328125,-400000.0625
205.624085187912,-400000.0625,-7881.830078125,-4850.91015625,-400000.0625,-16559.560546875,-400000.0625,-6973.7001953125,-400000.0625
205.6410038471222,-400000.0625,-7875.68017578125,-4843.7099609375,-400000.0625,-16554.5,-400000.0625,-6971.93017578125,-400000.0625
205.66572976112366,-400000.0625,-7883.93017578125,-4853.68017578125,-400000.0625,-16558.69921875,-400000.0625,-6982.52001953125,-400000.0625
205.67810034751892,-400000.0625,-7892.22998046875,-4862.169921875,-400000.0625,-16566.560546875,-400000.0625,-6988.47998046875,-400000.0625
205.6936104297638,-400000.0625,-7891.75,-4860.97021484375,-400000.0625,-16568.849609375,-400000.0625,-6983.330078125,-400000.0625
205.7037878036499,-400000.0625,-7885.97998046875,-4851.9599609375,-400000.0625,-16559.650390625,-400000.0625,-6975.83984375,-400000.0625
205.72139143943787,-400000.0625,-7880.830078125,-4849.009765625,-400000.0625,-16558.83984375,-400000.0625,-6970.97998046875,-400000.0625
205.7350902557373,-400000.0625,-7888.4599609375,-4860.77978515625,-400000.0625,-16566.140625,-400000.0625,-6978.31982421875,-400000.0625
205.74664878845215,-400000.0625,-7898.43017578125,-4870.1298828125,-400000.0625,-16574.099609375,-400000.0625,-6985.27978515625,-400000.0625
205.77624320983887,-400000.0625,-7893.47021484375,-4863.31005859375,-400000.0625,-16566.419921875,-400000.0625,-6985.08984375,-400000.0625
205.79361748695374,-400000.0625,-7879.93017578125,-4852.68017578125,-400000.0625,-16562.80078125,-400000.0625,-6973.97998046875,-400000.0625
205.81291699409485,-400000.0625,-7873.8701171875,-4847.81005859375,-400000.0625,-16558.26953125,-400000.0625,-6969.93017578125,-400000.0625
205.82725882530212,-400000.0625,-7886.5498046875,-4857.02001953125,-400000.0625,-16560.990234375,-400000.0625,-6977.64990234375,-400000.0625
205.84638118743896,-400000.0625,-7896.0,-4870.3701171875,-400000.0625,-16571.140625,-400000.0625,-6988.81005859375,-400000.0625
205.8642475605011,-400000.0625,-7895.0400390625,-4868.080078125,-400000.0625,-16569.4296875,-400000.0625,-6986.0,-400000.0625
205.8938250541687,-400000.0625,-7884.4599609375,-4856.2998046875,-400000.0625,-16563.419921875,-400000.0625,-6977.85009765625,-400000.0625
205.90840530395508,-400000.0625,-7878.5,-4851.06005859375,-400000.0625,-16556.599609375,-400000.0625,-6968.5498046875,-400000.0625
205.92622232437134,-400000.0625,-7891.22998046875,-4861.830078125,-400000.0625,-16566.08984375,-400000.0625,-6983.81005859375,-400000.0625
205.93928265571594,-400000.0625,-7897.9501953125,-4870.22021484375,-400000.0625,-16574.189453125,-400000.0625,-6989.10009765625,-400000.0625
205.96016025543213,-400000.0625,-7894.7099609375,-4864.93017578125,-400000.0625,-16572.099609375,-400000.0625,-6982.14013671875,-400000.0625
205.97361087799072,-400000.0625,-7884.22021484375,-4855.2998046875,-400000.0625,-16561.990234375,-400000.0625,-6973.740234375,-400000.0625
205.99871635437012,-400000.0625,-7878.35009765625,-4847.6201171875,-400000.0625,-16553.740234375,-400000.0625,-6967.02001953125,-400000.0625
206.01809930801392,-400000.0625,-7886.93994140625,-4859.64013671875,-400000.0625,-16559.69921875,-400000.0625,-6975.93994140625,-400000.0625
206.0321021080017,-400000.0625,-7897.330078125,-4869.64990234375,-400000.0625,-16570.189453125,-400000.0625,-6982.3798828125,-400000.0625
206.046452999115,-400000.0625,-7897.6201171875,-4868.169921875,-400000.0625,-16569.94921875,-400000.0625,-6982.27978515625,-400000.0625
206.06077361106873,-400000.0625,-7886.4599609375,-4857.02001953125,-400000.0625,-16560.509765625,-400000.0625,-6972.64990234375,-400000.0625
206.07305932044983,-400000.0625,-7879.31005859375,-4849.72021484375,-400000.0625,-16551.779296875,-400000.0625,-6969.4501953125,-400000.0625
206.09038138389587,-400000.0625,-7884.5498046875,-4856.830078125,-400000.0625,-16561.939453125,-400000.0625,-6977.3701171875,-400000.0625
206.1125271320343,-400000.0625,-7891.22998046875,-4863.740234375,-400000.0625,-16568.23046875,-400000.0625,-6984.27978515625,-400000.0625
206.12710690498352,-400000.0625,-7893.27978515625,-4864.35986328125,-400000.0625,-16568.7109375,-400000.0625,-6985.759765625,-400000.0625
206.14037823677063,-400000.0625,-7887.509765625,-4859.2099609375,-400000.0625,-16561.220703125,-400000.0625,-6978.1298828125,-400000.0625
206.16287875175476,-400000.0625,-7884.7900390625,-4857.25,-400000.0625,-16557.029296875,-400000.0625,-6972.1201171875,-400000.0625
206.1776385307312,-400000.0625,-7887.75,-4862.39990234375,-400000.0625,-16567.419921875,-400000.0625,-6981.7998046875,-400000.0625
206.19535613059998,-400000.0625,-7892.18017578125,-4866.89013671875,-400000.0625,-16572.189453125,-400000.0625,-6988.240234375,-400000.0625
206.2214047908783,-400000.0625,-7896.3798828125,-4868.97998046875,-400000.0625,-16571.619140625,-400000.0625,-6987.0498046875,-400000.0625
206.23345971107483,-400000.0625,-7886.31982421875,-4856.68017578125,-400000.0625,-16564.369140625,-400000.0625,-6975.1298828125,-400000.0625
206.2469141483307,-400000.0625,-7877.02001953125,-4848.6201171875,-400000.0625,-16554.0703125,-400000.0625,-6970.169921875,-400000.0625
206.25693655014038,-400000.0625,-7885.31005859375,-4855.35009765625,-400000.0625,-16559.26953125,-400000.0625,-6981.14013671875,-400000.0625
206.27037620544434,-400000.0625,-7897.18994140625,-4868.1298828125,-400000.0625,-16567.330078125,-400000.0625,-6988.56982421875,-400000.0625
206.2806499004364,-400000.0625,-7895.52001953125,-4865.5,-400000.0625,-16562.609375,-400000.0625,-6988.72021484375,-400000.0625
206.29276728630066,-400000.0625,-7889.41015625,-4854.43994140625,-400000.0625,-16559.220703125,-400000.0625,-6984.7099609375,-400000.0625
206.3088195323944,-400000.0625,-7887.31982421875,-4848.52978515625,-400000.0625,-16559.7890625,-400000.0625,-6970.5,-400000.0625
206.33399963378906,-400000.0625,-7902.33984375,-4868.4599609375,-400000.0625,-16571.4296875,-400000.0625,-6963.8701171875,-400000.0625
206.3465964794159,-400000.0625,-7907.25,-4887.580078125,-400000.0625,-16578.6796875,-400000.0625,-6960.77001953125,-400000.0625
206.37283539772034,-400000.0625,-7909.43994140625,-4894.77978515625,-400000.0625,-16575.9609375,-400000.0625,-6952.85986328125,-400000.0625
206.38865327835083,-400000.0625,-7910.35009765625,-4896.740234375,-400000.0625,-16567.330078125,-400000.0625,-6928.10986328125,-400000.0625
206.40372943878174,-400000.0625,-7904.580078125,-4908.60986328125,-400000.0625,-16562.560546875,-400000.0625,-6910.7998046875,-400000.0625
206.41931867599487,-400000.0625,-7913.68994140625,-4930.830078125,-400000.0625,-16567.51953125,-400000.0625,-6903.93994140625,-400000.0625
206.44842386245728,-400000.0625,-7935.47998046875,-4954.240234375,-400000.0625,-16576.099609375,-400000.0625,-6900.259765625,-400000.0625
206.46533036231995,-400000.0625,-7938.2900390625,-4966.4501953125,-400000.0625,-16576.8203125,-400000.0625,-6883.91015625,-400000.0625
206.4763889312744,-400000.0625,-7922.75,-4970.31005859375,-400000.0625,-16567.330078125,-400000.0625,-6854.25,-400000.0625
206.4882390499115,-400000.0625,-7921.35986328125,-4980.66015625,-400000.0625,-16559.41015625,-400000.0625,-6838.18017578125,-400000.0625
206.50318312644958,-400000.0625,-7948.68994140625,-5002.2099609375,-400000.0625,-16567.23046875,-400000.0625,-6838.47021484375,-400000.0625
206.51419758796692,-400000.0625,-7969.0498046875,-5032.58984375,-400000.0625,-16584.01953125,-400000.0625,-6840.66015625,-400000.0625
206.5290400981903,-400000.0625,-7968.0498046875,-5040.259765625,-400000.0625,-16582.779296875,-400000.0625,-6823.58984375,-400000.0625
206.55372405052185,-400000.0625,-7969.0,-5036.93017578125,-400000.0625,-16574.189453125,-400000.0625,-6799.75,-400000.0625
206.56497931480408,-400000.0625,-7968.52001953125,-5040.02978515625,-400000.0625,-16570.279296875,-400000.0625,-6787.25,-400000.0625
206.58011174201965,-400000.0625,-7974.47998046875,-5055.3798828125,-400000.0625,-16579.19921875,-400000.0625,-6782.47998046875,-400000.0625
206.59317207336426,-400000.0625,-7982.72998046875,-5067.5400390625,-400000.0625,-16585.400390625,-400000.0625,-6779.72021484375,-400000.0625
206.60261178016663,-400000.0625,-7982.77978515625,-5068.2099609375,-400000.0625,-16579.439453125,-400000.0625,-6774.85986328125,-400000.0625
206.61451864242554,-400000.0625,-7969.669921875,-5057.3798828125,-400000.0625,-16565.609375,-400000.0625,-6756.58984375,-400000.0625
206.6299889087677,-400000.0625,-7969.669921875,-5060.72021484375,-400000.0625,-16567.900390625,-400000.0625,-6755.35009765625,-400000.0625
206.66058707237244,-400000.0625,-7977.8701171875,-5069.68994140625,-400000.0625,-16575.33984375,-400000.0625,-6758.64013671875,-400000.0625
206.67337441444397,-400000.0625,-7994.1298828125,-5081.4599609375,-400000.0625,-16586.259765625,-400000.0625,-6769.509765625,-400000.0625
206.68986797332764,-400000.0625,-7993.509765625,-5077.740234375,-400000.0625,-16582.400390625,-400000.0625,-6765.7001953125,-400000.0625
206.6984384059906,-400000.0625,-7974.47998046875,-5061.009765625,-400000.0625,-16570.810546875,-400000.0625,-6755.72998046875,-400000.0625
206.72640943527222,-400000.0625,-7968.52001953125,-5056.6201171875,-400000.0625,-16568.380859375,-400000.0625,-6749.81982421875,-400000.0625
206.78030705451965,-400000.0625,-7977.14990234375,-5066.72998046875,-400000.0625,-16576.9609375,-400000.0625,-6760.02978515625,-400000.0625
206.83881831169128,-400000.0625,-7985.16015625,-5075.06982421875,-400000.0625,-16584.6796875,-400000.0625,-6769.08984375,-400000.0625
206.85769367218018,-400000.0625,-7988.1201171875,-5072.97998046875,-400000.0625,-16585.5,-400000.0625,-6764.509765625,-400000.0625
206.87723469734192,-400000.0625,-7974.72021484375,-5058.85986328125,-400000.0625,-16574.380859375,-400000.0625,-6753.5400390625,-400000.0625
206.90046381950378,-400000.0625,-7968.85986328125,-5053.330078125,-400000.0625,-16570.859375,-400000.0625,-6750.919921875,-400000.0625
206.9538803100586,-400000.0625,-7977.33984375,-5059.2900390625,-400000.0625,-16576.76953125,-400000.0625,-6757.5,-400000.0625
206.97267389297485,-400000.0625,-7980.16015625,-5065.2998046875,-400000.0625,-16580.919921875,-400000.0625,-6765.22021484375,-400000.0625
206.98864793777466,-400000.0625,-7981.830078125,-5064.490234375,-400000.0625,-16580.009765625,-400000.0625,-6763.27001953125,-400000.0625
207.02684664726257,-400000.0625,-7972.2900390625,-5056.3798828125,-400000.0625,-16574.48046875,-400000.0625,-6754.68994140625,-400000.0625
207.05512237548828,-400000.0625,-7969.47998046875,-5052.14013671875,-400000.0625,-16571.08984375,-400000.0625,-6747.580078125,-400000.0625
207.07059812545776,-400000.0625,-7973.2900390625,-5055.3798828125,-400000.0625,-16575.2890625,-400000.0625,-6756.1201171875,-400000.0625
207.10014176368713,-400000.0625,-7979.81982421875,-5063.919921875,-400000.0625,-16581.009765625,-400000.0625,-6758.31005859375,-400000.0625
207.1096818447113,-400000.0625,-7984.16015625,-5067.06005859375,-400000.0625,-16583.25,-400000.0625,-6761.4599609375,-400000.0625
207.141428232193,-400000.0625,-7977.68017578125,-5058.47998046875,-400000.0625,-16577.2890625,-400000.0625,-6759.60009765625,-400000.0625
207.17762541770935,-400000.0625,-7970.240234375,-5050.52001953125,-400000.0625,-16571.05078125,-400000.0625,-6753.490234375,-400000.0625
207.22930526733398,-400000.0625,-7977.2001953125,-5056.9501953125,-400000.0625,-16574.580078125,-400000.0625,-6761.41015625,-400000.0625
207.2594509124756,-400000.0625,-7984.72998046875,-5064.81982421875,-400000.0625,-16581.5390625,-400000.0625,-6766.1298828125,-400000.0625
207.2886905670166,-400000.0625,-7983.02001953125,-5063.6298828125,-400000.0625,-16580.060546875,-400000.0625,-6767.93994140625,-400000.0625
207.30876088142395,-400000.0625,-7973.2900390625,-5051.22998046875,-400000.0625,-16571.759765625,-400000.0625,-6757.830078125,-400000.0625
207.32837319374084,-400000.0625,-7969.330078125,-5047.509765625,-400000.0625,-16566.759765625,-400000.0625,-6747.009765625,-400000.0625
207.34773707389832,-400000.0625,-7975.580078125,-5054.6201171875,-400000.0625,-16572.140625,-400000.0625,-6759.93017578125,-400000.0625
207.37483644485474,-400000.0625,-7989.35986328125,-5067.8701171875,-400000.0625,-16586.44921875,-400000.0625,-6767.93994140625,-400000.0625
207.40860152244568,-400000.0625,-7988.5,-5064.919921875,-400000.0625,-16584.640625,-400000.0625,-6765.56005859375,-400000.0625
207.43146014213562,-400000.0625,-7978.6298828125,-5054.27978515625,-400000.0625,-16574.720703125,-400000.0625,-6756.16015625,-400000.0625
207.4464406967163,-400000.0625,-7972.2900390625,-5048.31982421875,-400000.0625,-16568.7109375,-400000.0625,-6749.2998046875,-400000.0625
207.45800709724426,-400000.0625,-7979.25,-5053.85009765625,-400000.0625,-16573.140625,-400000.0625,-6764.27001953125,-400000.0625
207.47100830078125,-400000.0625,-7989.259765625,-5063.9599609375,-400000.0625,-16585.5390625,-400000.0625,-6774.43017578125,-400000.0625
207.47997570037842,-400000.0625,-7984.10986328125,-5061.43994140625,-400000.0625,-16578.630859375,-400000.0625,-6770.52001953125,-400000.0625
207.49928522109985,-400000.0625,-7975.8701171875,-5053.22998046875,-400000.0625,-16567.80078125,-400000.0625,-6761.83984375,-400000.0625
207.50728583335876,-400000.0625,-7975.33984375,-5051.7998046875,-400000.0625,-16567.0390625,-400000.0625,-6758.5498046875,-400000.0625
207.51596927642822,-400000.0625,-7987.1201171875,-5063.25,-400000.0625,-16580.150390625,-400000.0625,-6765.93994140625,-400000.0625
207.52681708335876,-400000.0625,-7998.27978515625,-5072.58984375,-400000.0625,-16587.779296875,-400000.0625,-6775.85986328125,-400000.0625
207.53579950332642,-400000.0625,-7999.18017578125,-5069.5400390625,-400000.0625,-16583.30078125,-400000.0625,-6773.6201171875,-400000.0625
207.54300498962402,-400000.0625,-7987.60009765625,-5060.2900390625,-400000.0625,-16576.76953125,-400000.0625,-6764.02978515625,-400000.0625
207.55614566802979,-400000.0625,-7979.8701171875,-5054.3798828125,-400000.0625,-16571.140625,-400000.0625,-6764.3701171875,-400000.0625
207.5654456615448,-400000.0625,-7992.35986328125,-5062.39013671875,-400000.0625,-16575.05078125,-400000.0625,-6772.22998046875,-400000.0625
207.57313537597656,-400000.0625,-7991.89013671875,-5062.2900390625,-400000.0625,-16576.630859375,-400000.0625,-6778.85986328125,-400000.0625
207.58318185806274,-400000.0625,-7997.85009765625,-5067.39990234375,-400000.0625,-16580.150390625,-400000.0625,-6781.6298828125,-400000.0625
207.60153365135193,-400000.0625,-7988.740234375,-5057.14013671875,-400000.0625,-16574.2890625,-400000.0625,-6772.52001953125,-400000.0625
207.611394405365,-400000.0625,-7983.2998046875,-5052.0400390625,-400000.0625,-16572.05078125,-400000.0625,-6762.7900390625,-400000.0625
207.62281823158264,-400000.0625,-7990.41015625,-5064.2001953125,-400000.0625,-16580.919921875,-400000.0625,-6773.759765625,-400000.0625
207.63556480407715,-400000.0625,-8003.89990234375,-5075.5,-400000.0625,-16588.0703125,-400000.0625,-6781.72021484375,-400000.0625
207.6431646347046,-400000.0625,-8000.56982421875,-5068.10986328125,-400000.0625,-16586.259765625,-400000.0625,-6780.85986328125,-400000.0625
207.65362668037415,-400000.0625,-7985.93017578125,-5056.18994140625,-400000.0625,-16573.9609375,-400000.0625,-6766.64990234375,-400000.0625
207.6633062362671,-400000.0625,-7983.10986328125,-5052.3798828125,-400000.0625,-16569.08984375,-400000.0625,-6761.22021484375,-400000.0625
207.67144870758057,-400000.0625,-7991.35986328125,-5062.2900390625,-400000.0625,-16579.439453125,-400000.0625,-6769.7099609375,-400000.0625
207.6840271949768,-400000.0625,-7994.27001953125,-5066.77978515625,-400000.0625,-16582.6796875,-400000.0625,-6778.6201171875,-400000.0625
207.7032220363617,-400000.0625,-7993.93994140625,-5064.25,-400000.0625,-16580.060546875,-400000.0625,-6771.89990234375,-400000.0625
207.7108669281006,-400000.0625,-7983.39990234375,-5055.669921875,-400000.0625,-16571.189453125,-400000.0625,-6761.60009765625,-400000.0625
207.72232103347778,-400000.0625,-7981.2998046875,-5052.56982421875,-400000.0625,-16568.140625,-400000.0625,-6763.509765625,-400000.0625
207.73152613639832,-400000.0625,-7986.740234375,-5057.52978515625,-400000.0625,-16573.5703125,-400000.0625,-6768.7001953125,-400000.0625
207.73991656303406,-400000.0625,-7997.0400390625,-5067.10986328125,-400000.0625,-16582.58984375,-400000.0625,-6773.52001953125,-400000.0625
207.74909949302673,-400000.0625,-7996.60986328125,-5070.259765625,-400000.0625,-16584.970703125,-400000.0625,-6776.18994140625,-400000.0625
207.75950956344604,-400000.0625,-7985.1201171875,-5059.33984375,-400000.0625,-16578.33984375,-400000.0625,-6768.509765625,-400000.0625
207.76926064491272,-400000.0625,-7980.2001953125,-5053.52001953125,-400000.0625,-16570.94921875,-400000.0625,-6762.740234375,-400000.0625
207.77821111679077,-400000.0625,-7992.60009765625,-5064.14990234375,-400000.0625,-16578.630859375,-400000.0625,-6771.66015625,-400000.0625
207.78970861434937,-400000.0625,-8000.89990234375,-5069.35009765625,-400000.0625,-16586.830078125,-400000.0625,-6780.52978515625,-400000.0625
207.80459809303284,-400000.0625,-7993.93994140625,-5059.33984375,-400000.0625,-16580.390625,-400000.0625,-6775.89990234375,-400000.0625
207.81191325187683,-400000.0625,-7978.2998046875,-5047.419921875,-400000.0625,-16571.91015625,-400000.0625,-6756.58984375,-400000.0625
207.8235411643982,-400000.0625,-7975.2900390625,-5047.7001953125,-400000.0625,-16567.900390625,-400000.0625,-6745.2001953125,-400000.0625
207.83272862434387,-400000.0625,-7997.27978515625,-5064.919921875,-400000.0625,-16581.490234375,-400000.0625,-6754.06982421875,-400000.0625
207.84154176712036,-400000.0625,-8008.240234375,-5077.64990234375,-400000.0625,-16590.740234375,-400000.0625,-6759.35986328125,-400000.0625
207.85276007652283,-400000.0625,-7998.1298828125,-5076.740234375,-400000.0625,-16585.16015625,-400000.0625,-6747.91015625,-400000.0625
207.8639109134674,-400000.0625,-7986.259765625,-5069.97021484375,-400000.0625,-16573.619140625,-400000.0625,-6733.18017578125,-400000.0625
207.8726499080658,-400000.0625,-7981.02001953125,-5064.10986328125,-400000.0625,-16570.279296875,-400000.0625,-6726.68994140625,-400000.0625
207.8830213546753,-400000.0625,-7987.830078125,-5073.740234375,-400000.0625,-16577.8203125,-400000.0625,-6730.1298828125,-400000.0625
207.89408683776855,-400000.0625,-7992.35986328125,-5079.22021484375,-400000.0625,-16579.25,-400000.0625,-6733.75,-400000.0625
207.91510605812073,-400000.0625,-7995.4599609375,-5079.7900390625,-400000.0625,-16579.009765625,-400000.0625,-6734.22998046875,-400000.0625
207.92489504814148,-400000.0625,-7983.259765625,-5068.10986328125,-400000.0625,-16571.94921875,-400000.0625,-6725.259765625,-400000.0625
207.93370747566223,-400000.0625,-7972.10009765625,-5058.6201171875,-400000.0625,-16565.279296875,-400000.0625,-6720.68994140625,-400000.0625
207.94159650802612,-400000.0625,-7990.169921875,-5074.22021484375,-400000.0625,-16578.390625,-400000.0625,-6737.9501953125,-400000.0625
207.9681363105774,-400000.0625,-8003.7099609375,-5089.89990234375,-400000.0625,-16588.640625,-400000.0625,-6746.72021484375,-400000.0625
207.98816537857056,-400000.0625,-7997.93994140625,-5084.3701171875,-400000.0625,-16583.30078125,-400000.0625,-6741.9501953125,-400000.0625
208.0057234764099,-400000.0625,-7982.2998046875,-5069.06982421875,-400000.0625,-16571.859375,-400000.0625,-6729.31982421875,-400000.0625
208.03783321380615,-400000.0625,-7976.9599609375,-5061.39013671875,-400000.0625,-16567.08984375,-400000.0625,-6724.4501953125,-400000.0625
208.06352972984314,-400000.0625,-7988.5498046875,-5072.31005859375,-400000.0625,-16577.580078125,-400000.0625,-6734.18017578125,-400000.0625
208.09681582450867,-400000.0625,-7996.419921875,-5082.1298828125,-400000.0625,-16582.869140625,-400000.0625,-6744.14990234375,-400000.0625
208.11156821250916,-400000.0625,-7995.89013671875,-5079.64990234375,-400000.0625,-16581.919921875,-400000.0625,-6743.43017578125,-400000.0625
208.13863039016724,-400000.0625,-7983.39990234375,-5068.77978515625,-400000.0625,-16573.48046875,-400000.0625,-6732.509765625,-400000.0625
208.16812300682068,-400000.0625,-7980.43994140625,-5064.6298828125,-400000.0625,-16564.66015625,-400000.0625,-6728.080078125,-400000.0625
208.18996500968933,-400000.0625,-7993.169921875,-5072.02001953125,-400000.0625,-16576.099609375,-400000.0625,-6735.52001953125,-400000.0625
208.20947194099426,-400000.0625,-7995.419921875,-5075.259765625,-400000.0625,-16580.76953125,-400000.0625,-6744.18994140625,-400000.0625
208.23459649085999,-400000.0625,-7996.419921875,-5079.56005859375,-400000.0625,-16584.01953125,-400000.0625,-6751.10986328125,-400000.0625
208.26364707946777,-400000.0625,-7990.41015625,-5071.68994140625,-400000.0625,-16574.91015625,-400000.0625,-6744.18994140625,-400000.0625
208.27645659446716,-400000.0625,-7983.58984375,-5066.58984375,-400000.0625,-16570.51953125,-400000.0625,-6735.89990234375,-400000.0625
208.29578399658203,-400000.0625,-7994.22021484375,-5074.93017578125,-400000.0625,-16578.8203125,-400000.0625,-6744.9599609375,-400000.0625
208.31234169006348,-400000.0625,-8003.0,-5083.66015625,-400000.0625,-16584.640625,-400000.0625,-6754.259765625,-400000.0625
208.3383400440216,-400000.0625,-7996.89013671875,-5081.22998046875,-400000.0625,-16582.6796875,-400000.0625,-6753.490234375,-400000.0625
208.3602020740509,-400000.0625,-7985.93017578125,-5070.39990234375,-400000.0625,-16578.060546875,-400000.0625,-6744.81005859375,-400000.0625
208.36858081817627,-400000.0625,-7985.830078125,-5065.77978515625,-400000.0625,-16574.240234375,-400000.0625,-6738.85009765625,-400000.0625
208.3763530254364,-400000.0625,-7991.60009765625,-5069.77978515625,-400000.0625,-16576.720703125,-400000.0625,-6744.18994140625,-400000.0625
208.38676190376282,-400000.0625,-7992.64990234375,-5072.68994140625,-400000.0625,-16580.970703125,-400000.0625,-6748.9599609375,-400000.0625
208.3978681564331,-400000.0625,-7989.02978515625,-5070.64013671875,-400000.0625,-16581.16015625,-400000.0625,-6747.91015625,-400000.0625
208.40536165237427,-400000.0625,-7981.02001953125,-5061.43994140625,-400000.0625,-16573.529296875,-400000.0625,-6739.43017578125,-400000.0625
208.41338109970093,-400000.0625,-7991.41015625,-5069.02001953125,-400000.0625,-16577.099609375,-400000.0625,-6744.9599609375,-400000.0625
208.4234654903412,-400000.0625,-7991.5498046875,-5073.64013671875,-400000.0625,-16577.390625,-400000.0625,-6748.8701171875,-400000.0625
208.43253231048584,-400000.0625,-7991.22021484375,-5073.830078125,-400000.0625,-16582.30078125,-400000.0625,-6750.5400390625,-400000.0625
208.4406247138977,-400000.0625,-7997.85009765625,-5073.830078125,-400000.0625,-16587.0703125,-400000.0625,-6754.97021484375,-400000.0625
208.46119284629822,-400000.0625,-7996.18017578125,-5071.1201171875,-400000.0625,-16583.16015625,-400000.0625,-6748.43994140625,-400000.0625
208.46889567375183,-400000.0625,-7998.60986328125,-5071.93017578125,-400000.0625,-16585.30078125,-400000.0625,-6744.10009765625,-400000.0625
208.47567534446716,-400000.0625,-7994.3701171875,-5073.259765625,-400000.0625,-16585.0703125,-400000.0625,-6742.18994140625,-400000.0625
208.4845986366272,-400000.0625,-7991.60009765625,-5076.7001953125,-400000.0625,-16585.0703125,-400000.0625,-6740.3798828125,-400000.0625
208.49273705482483,-400000.0625,-8000.0400390625,-5078.97998046875,-400000.0625,-16582.73046875,-400000.0625,-6737.759765625,-400000.0625
208.50204753875732,-400000.0625,-7997.66015625,-5075.35986328125,-400000.0625,-16578.060546875,-400000.0625,-6731.60986328125,-400000.0625
208.50928330421448,-400000.0625,-7996.27001953125,-5073.830078125,-400000.0625,-16571.7109375,-400000.0625,-6723.93017578125,-400000.0625
208.52243900299072,-400000.0625,-7995.080078125,-5072.35986328125,-400000.0625,-16571.7109375,-400000.0625,-6729.080078125,-400000.0625
208.53129863739014,-400000.0625,-8000.47021484375,-5082.080078125,-400000.0625,-16582.8203125,-400000.0625,-6736.330078125,-400000.0625
208.53922772407532,-400000.0625,-8003.08984375,-5082.990234375,-400000.0625,-16582.060546875,-400000.0625,-6740.18994140625,-400000.0625
208.54774808883667,-400000.0625,-7997.18017578125,-5078.7900390625,-400000.0625,-16578.099609375,-400000.0625,-6734.990234375,-400000.0625
208.5665888786316,-400000.0625,-7989.1201171875,-5070.4501953125,-400000.0625,-16573.619140625,-400000.0625,-6731.56005859375,-400000.0625
208.57376980781555,-400000.0625,-7994.1298828125,-5075.35986328125,-400000.0625,-16576.859375,-400000.0625,-6732.080078125,-400000.0625
208.58144903182983,-400000.0625,-8000.419921875,-5084.7998046875,-400000.0625,-16581.869140625,-400000.0625,-6735.990234375,-400000.0625
208.5906116962433,-400000.0625,-8005.10009765625,-5086.60986328125,-400000.0625,-16582.6796875,-400000.0625,-6737.27978515625,-400000.0625
208.59827637672424,-400000.0625,-8001.759765625,-5084.31982421875,-400000.0625,-16583.490234375,-400000.0625,-6742.2900390625,-400000.0625
208.60541129112244,-400000.0625,-7994.990234375,-5075.8798828125,-400000.0625,-16578.9609375,-400000.0625,-6735.85009765625,-400000.0625
208.6123924255371,-400000.0625,-7996.66015625,-5075.5498046875,-400000.0625,-16579.919921875,-400000.0625,-6738.3798828125,-400000.0625
208.6203465461731,-400000.0625,-7995.4599609375,-5077.4599609375,-400000.0625,-16581.8203125,-400000.0625,-6739.759765625,-400000.0625
208.6278464794159,-400000.0625,-7998.990234375,-5077.89013671875,-400000.0625,-16581.490234375,-400000.0625,-6740.759765625,-400000.0625
208.63662219047546,-400000.0625,-8002.08984375,-5078.35986328125,-400000.0625,-16582.19921875,-400000.0625,-6742.18994140625,-400000.0625
208.64350748062134,-400000.0625,-8000.22998046875,-5076.93017578125,-400000.0625,-16579.76953125,-400000.0625,-6737.22998046875,-400000.0625
208.65559577941895,-400000.0625,-7998.7099609375,-5075.7900390625,-400000.0625,-16578.720703125,-400000.0625,-6738.27978515625,-400000.0625
208.6692442893982,-400000.0625,-7992.7900390625,-5075.64990234375,-400000.0625,-16579.529296875,-400000.0625,-6738.9501953125,-400000.0625
208.6758451461792,-400000.0625,-7998.66015625,-5073.5498046875,-400000.0625,-16579.8203125,-400000.0625,-6739.56982421875,-400000.0625
208.68420243263245,-400000.0625,-8006.43017578125,-5077.64990234375,-400000.0625,-16585.44921875,-400000.0625,-6743.77001953125,-400000.0625
208.6925084590912,-400000.0625,-8001.60986328125,-5075.8798828125,-400000.0625,-16585.109375,-400000.0625,-6742.33984375,-400000.0625
208.6998643875122,-400000.0625,-7998.419921875,-5075.259765625,-400000.0625,-16584.5390625,-400000.0625,-6740.56982421875,-400000.0625
208.7067847251892,-400000.0625,-7995.4599609375,-5073.02001953125,-400000.0625,-16580.869140625,-400000.0625,-6743.0498046875,-400000.0625
208.71424198150635,-400000.0625,-7999.7998046875,-5074.83984375,-400000.0625,-16581.8203125,-400000.0625,-6746.580078125,-400000.0625
208.72229099273682,-400000.0625,-8005.9501953125,-5079.27001953125,-400000.0625,-16583.490234375,-400000.0625,-6748.06005859375,-400000.0625
208.7297704219818,-400000.0625,-8002.43017578125,-5072.259765625,-400000.0625,-16580.630859375,-400000.0625,-6742.10009765625,-400000.0625
208.73689246177673,-400000.0625,-8004.89990234375,-5076.27001953125,-400000.0625,-16582.779296875,-400000.0625,-6741.3798828125,-400000.0625
208.7434229850769,-400000.0625,-8002.47021484375,-5076.93017578125,-400000.0625,-16581.16015625,-400000.0625,-6744.0498046875,-400000.0625
208.75172638893127,-400000.0625,-7996.93994140625,-5074.31005859375,-400000.0625,-16578.6796875,-400000.0625,-6740.89990234375,-400000.0625
208.76009273529053,-400000.0625,-8007.10009765625,-5080.89013671875,-400000.0625,-16583.73046875,-400000.0625,-6749.77001953125,-400000.0625
208.7732560634613,-400000.0625,-8006.91015625,-5080.60986328125,-400000.0625,-16580.919921875,-400000.0625,-6751.35009765625,-400000.0625
208.78057479858398,-400000.0625,-8000.08984375,-5072.64013671875,-400000.0625,-16570.859375,-400000.0625,-6744.0,-400000.0625
208.78944516181946,-400000.0625,-7995.83984375,-5072.7900390625,-400000.0625,-16575.91015625,-400000.0625,-6742.81005859375,-400000.0625
208.79697847366333,-400000.0625,-8000.419921875,-5075.64990234375,-400000.0625,-16584.970703125,-400000.0625,-6744.580078125,-400000.0625
208.80394339561462,-400000.0625,-8008.43017578125,-5081.83984375,-400000.0625,-16588.44921875,-400000.0625,-6751.58984375,-400000.0625
208.81047987937927,-400000.0625,-8006.91015625,-5079.509765625,-400000.0625,-16585.970703125,-400000.0625,-6747.43994140625,-400000.0625
208.81893634796143,-400000.0625,-7999.47021484375,-5075.8798828125,-400000.0625,-16579.6796875,-400000.0625,-6739.330078125,-400000.0625
208.8278832435608,-400000.0625,-8001.0400390625,-5078.169921875,-400000.0625,-16578.9609375,-400000.0625,-6741.52001953125,-400000.0625
208.83512377738953,-400000.0625,-8008.0498046875,-5082.990234375,-400000.0625,-16583.400390625,-400000.0625,-6746.14990234375,-400000.0625
208.84824323654175,-400000.0625,-8006.91015625,-5077.169921875,-400000.0625,-16578.529296875,-400000.0625,-6747.490234375,-400000.0625
208.86237001419067,-400000.0625,-7998.27978515625,-5069.2099609375,-400000.0625,-16570.189453125,-400000.0625,-6737.759765625,-400000.0625
208.8845522403717,-400000.0625,-7991.02978515625,-5066.490234375,-400000.0625,-16566.140625,-400000.0625,-6736.22998046875,-400000.0625
208.90601325035095,-400000.0625,-8006.85986328125,-5080.83984375,-400000.0625,-16583.73046875,-400000.0625,-6748.009765625,-400000.0625
208.9160704612732,-400000.0625,-8016.43994140625,-5085.990234375,-400000.0625,-16591.41015625,-400000.0625,-6757.5498046875,-400000.0625
208.92961883544922,-400000.0625,-8019.31005859375,-5089.3798828125,-400000.0625,-16590.880859375,-400000.0625,-6757.58984375,-400000.0625
208.9471836090088,-400000.0625,-8014.16015625,-5086.14013671875,-400000.0625,-16585.640625,-400000.0625,-6756.259765625,-400000.0625
208.95834684371948,-400000.0625,-8010.10009765625,-5081.02978515625,-400000.0625,-16581.060546875,-400000.0625,-6749.72998046875,-400000.0625
208.97382354736328,-400000.0625,-8012.81982421875,-5085.52001953125,-400000.0625,-16583.01953125,-400000.0625,-6748.009765625,-400000.0625
209.00057435035706,-400000.0625,-8015.490234375,-5088.27978515625,-400000.0625,-16587.16015625,-400000.0625,-6753.39990234375,-400000.0625
209.01337957382202,-400000.0625,-8019.97021484375,-5089.6201171875,-400000.0625,-16587.689453125,-400000.0625,-6757.77978515625,-400000.0625
209.02758693695068,-400000.0625,-8008.77001953125,-5078.75,-400000.0625,-16578.390625,-400000.0625,-6754.72998046875,-400000.0625
209.03885698318481,-400000.0625,-8006.18994140625,-5075.64990234375,-400000.0625,-16574.810546875,-400000.0625,-6748.9599609375,-400000.0625
209.057630777359,-400000.0625,-8011.43994140625,-5081.080078125,-400000.0625,-16578.9609375,-400000.0625,-6749.77001953125,-400000.0625
209.06928157806396,-400000.0625,-8014.16015625,-5082.7001953125,-400000.0625,-16579.150390625,-400000.0625,-6752.06005859375,-400000.0625
209.08168053627014,-400000.0625,-8016.490234375,-5082.56005859375,-400000.0625,-16579.109375,-400000.0625,-6753.64013671875,-400000.0625
209.10027837753296,-400000.0625,-8018.06982421875,-5083.75,-400000.0625,-16578.390625,-400000.0625,-6754.72998046875,-400000.0625
209.11838030815125,-400000.0625,-8020.35009765625,-5086.89990234375,-400000.0625,-16582.19921875,-400000.0625,-6753.10986328125,-400000.0625
209.13291573524475,-400000.0625,-8020.5,-5087.56982421875,-400000.0625,-16582.25,-400000.0625,-6752.72998046875,-400000.0625
209.15814757347107,-400000.0625,-8022.64013671875,-5088.89990234375,-400000.0625,-16584.919921875,-400000.0625,-6758.7900390625,-400000.0625
209.1791708469391,-400000.0625,-8020.259765625,-5082.3701171875,-400000.0625,-16579.33984375,-400000.0625,-6759.60009765625,-400000.0625
209.19123220443726,-400000.0625,-8025.83984375,-5085.56005859375,-400000.0625,-16584.73046875,-400000.0625,-6759.7900390625,-400000.0625
209.21678733825684,-400000.0625,-8013.14990234375,-5084.66015625,-400000.0625,-16583.400390625,-400000.0625,-6754.72998046875,-400000.0625
209.22881364822388,-400000.0625,-8009.85986328125,-5086.7099609375,-400000.0625,-16582.439453125,-400000.0625,-6754.919921875,-400000.0625
209.2386829853058,-400000.0625,-8020.16015625,-5086.56982421875,-400000.0625,-16584.01953125,-400000.0625,-6755.16015625,-400000.0625
209.25261116027832,-400000.0625,-8021.77978515625,-5085.66015625,-400000.0625,-16583.01953125,-400000.0625,-6755.8798828125,-400000.0625
209.26326203346252,-400000.0625,-8021.8798828125,-5084.419921875,-400000.0625,-16579.009765625,-400000.0625,-6753.490234375,-400000.0625
209.27800846099854,-400000.0625,-8018.5400390625,-5085.56005859375,-400000.0625,-16583.16015625,-400000.0625,-6752.68017578125,-400000.0625
209.2942123413086,-400000.0625,-8018.35009765625,-5089.3798828125,-400000.0625,-16585.5390625,-400000.0625,-6756.68994140625,-400000.0625
209.320396900177,-400000.0625,-8022.7900390625,-5092.0,-400000.0625,-16585.5,-400000.0625,-6761.83984375,-400000.0625
209.33164882659912,-400000.0625,-8026.02978515625,-5090.89990234375,-400000.0625,-16582.6796875,-400000.0625,-6762.60009765625,-400000.0625
209.34301161766052,-400000.0625,-8021.06982421875,-5083.47021484375,-400000.0625,-16580.19921875,-400000.0625,-6759.64013671875,-400000.0625
209.3609743118286,-400000.0625,-8014.81982421875,-5079.3701171875,-400000.0625,-16575.099609375,-400000.0625,-6751.58984375,-400000.0625
209.37729024887085,-400000.0625,-8011.91015625,-5080.990234375,-400000.0625,-16573.720703125,-400000.0625,-6750.10986328125,-400000.0625
209.39509987831116,-400000.0625,-8022.8798828125,-5086.3701171875,-400000.0625,-16581.8203125,-400000.0625,-6757.2099609375,-400000.0625
209.41731452941895,-400000.0625,-8024.5,-5087.14013671875,-400000.0625,-16584.400390625,-400000.0625,-6761.27001953125,-400000.0625
209.43046641349792,-400000.0625,-8021.5,-5085.27978515625,-400000.0625,-16579.869140625,-400000.0625,-6760.02978515625,-400000.0625
209.44540452957153,-400000.0625,-8020.4501953125,-5083.18017578125,-400000.0625,-16579.25,-400000.0625,-6757.5498046875,-400000.0625
209.45875144004822,-400000.0625,-8017.97021484375,-5082.7001953125,-400000.0625,-16576.009765625,-400000.0625,-6754.2998046875,-400000.0625
209.47595810890198,-400000.0625,-8017.97021484375,-5083.85009765625,-400000.0625,-16575.2890625,-400000.0625,-6762.60009765625,-400000.0625
209.4869532585144,-400000.0625,-8017.8701171875,-5082.93994140625,-400000.0625,-16575.529296875,-400000.0625,-6759.60009765625,-400000.0625
209.49815225601196,-400000.0625,-8019.97021484375,-5083.0400390625,-400000.0625,-16578.869140625,-400000.0625,-6753.25,-400000.0625
209.52200150489807,-400000.0625,-8019.72998046875,-5082.60986328125,-400000.0625,-16580.630859375,-400000.0625,-6754.4501953125,-400000.0625
209.53233432769775,-400000.0625,-8018.35009765625,-5081.1298828125,-400000.0625,-16575.240234375,-400000.0625,-6756.16015625,-400000.0625
209.54475140571594,-400000.0625,-8026.4599609375,-5088.81005859375,-400000.0625,-16580.30078125,-400000.0625,-6763.31982421875,-400000.0625
209.5661699771881,-400000.0625,-8034.419921875,-5093.47998046875,-400000.0625,-16584.830078125,-400000.0625,-6766.60986328125,-400000.0625
209.5800986289978,-400000.0625,-8028.93994140625,-5089.669921875,-400000.0625,-16579.150390625,-400000.0625,-6763.27001953125,-400000.0625
209.59570240974426,-400000.0625,-8022.1201171875,-5087.759765625,-400000.0625,-16579.009765625,-400000.0625,-6759.06982421875,-400000.0625
209.6097400188446,-400000.0625,-8016.39990234375,-5080.83984375,-400000.0625,-16574.810546875,-400000.0625,-6756.64013671875,-400000.0625
209.6365101337433,-400000.0625,-8015.97021484375,-5081.990234375,-400000.0625,-16577.099609375,-400000.0625,-6757.830078125,-400000.0625
209.64892292022705,-400000.0625,-8022.5498046875,-5083.93994140625,-400000.0625,-16579.439453125,-400000.0625,-6758.5498046875,-400000.0625
209.6589276790619,-400000.0625,-8022.169921875,-5081.02978515625,-400000.0625,-16579.6796875,-400000.0625,-6756.4501953125,-400000.0625
209.67470169067383,-400000.0625,-8019.5400390625,-5081.419921875,-400000.0625,-16578.720703125,-400000.0625,-6756.259765625,-400000.0625
209.68819737434387,-400000.0625,-8022.169921875,-5086.08984375,-400000.0625,-16580.009765625,-400000.0625,-6758.830078125,-400000.0625
209.705557346344,-400000.0625,-8023.35986328125,-5085.990234375,-400000.0625,-16580.25,-400000.0625,-6757.68994140625,-400000.0625
209.71583247184753,-400000.0625,-8023.35986328125,-5086.22998046875,-400000.0625,-16583.400390625,-400000.0625,-6756.64013671875,-400000.0625
209.74404549598694,-400000.0625,-8015.009765625,-5077.5498046875,-400000.0625,-16574.529296875,-400000.0625,-6750.6298828125,-400000.0625
209.75656962394714,-400000.0625,-8011.68017578125,-5075.64990234375,-400000.0625,-16571.619140625,-400000.0625,-6751.97021484375,-400000.0625
209.77365589141846,-400000.0625,-8023.7900390625,-5085.66015625,-400000.0625,-16578.91015625,-400000.0625,-6759.1201171875,-400000.0625
209.7891538143158,-400000.0625,-8027.35986328125,-5083.509765625,-400000.0625,-16577.630859375,-400000.0625,-6760.5498046875,-400000.0625
209.80730843544006,-400000.0625,-8019.259765625,-5077.5498046875,-400000.0625,-16571.5703125,-400000.0625,-6755.77978515625,-400000.0625
209.82007145881653,-400000.0625,-8022.35986328125,-5079.1298828125,-400000.0625,-16575.0,-400000.0625,-6752.43994140625,-400000.0625
209.84569478034973,-400000.0625,-8026.31005859375,-5084.47021484375,-400000.0625,-16578.6796875,-400000.0625,-6759.5,-400000.0625
209.85517930984497,-400000.0625,-8023.740234375,-5084.93994140625,-400000.0625,-16581.30078125,-400000.0625,-6758.5498046875,-400000.0625
209.8722047805786,-400000.0625,-8029.7001953125,-5090.47998046875,-400000.0625,-16591.029296875,-400000.0625,-6752.919921875,-400000.0625
209.8843810558319,-400000.0625,-8024.31005859375,-5088.3798828125,-400000.0625,-16588.740234375,-400000.0625,-6759.93017578125,-400000.0625
209.90657305717468,-400000.0625,-8004.52001953125,-5069.16015625,-400000.0625,-16571.05078125,-400000.0625,-6770.330078125,-400000.0625
209.92086958885193,-400000.0625,-8002.47021484375,-5065.39013671875,-400000.0625,-16566.80078125,-400000.0625,-6777.240234375,-400000.0625
209.9524757862091,-400000.0625,-8002.0,-5067.97021484375,-400000.0625,-16570.279296875,-400000.0625,-6782.580078125,-400000.0625
209.97333335876465,-400000.0625,-8005.0498046875,-5068.68017578125,-400000.0625,-16575.05078125,-400000.0625,-6783.580078125,-400000.0625
209.99087691307068,-400000.0625,-8002.08984375,-5069.259765625,-400000.0625,-16576.150390625,-400000.0625,-6788.77978515625,-400000.0625
210.0111002922058,-400000.0625,-8003.330078125,-5069.4501953125,-400000.0625,-16570.5703125,-400000.0625,-6789.58984375,-400000.0625
210.027841091156,-400000.0625,-8001.22998046875,-5068.72998046875,-400000.0625,-16573.33984375,-400000.0625,-6789.35009765625,-400000.0625
210.05820488929749,-400000.0625,-8002.08984375,-5067.919921875,-400000.0625,-16578.2890625,-400000.0625,-6793.4501953125,-400000.0625
210.07682132720947,-400000.0625,-8006.18994140625,-5068.490234375,-400000.0625,-16578.25,-400000.0625,-6793.68994140625,-400000.0625
210.09217715263367,-400000.0625,-8006.669921875,-5068.77978515625,-400000.0625,-16577.25,-400000.0625,-6795.60009765625,-400000.0625
210.1094012260437,-400000.0625,-8009.669921875,-5068.490234375,-400000.0625,-16576.91015625,-400000.0625,-6795.740234375,-400000.0625
210.11965608596802,-400000.0625,-8013.72998046875,-5072.4501953125,-400000.0625,-16580.390625,-400000.0625,-6800.080078125,-400000.0625
210.13171529769897,-400000.0625,-8013.2998046875,-5074.31005859375,-400000.0625,-16577.580078125,-400000.0625,-6801.56005859375,-400000.0625
210.17361569404602,-400000.0625,-8010.81982421875,-5070.64013671875,-400000.0625,-16574.4296875,-400000.0625,-6800.7001953125,-400000.0625
210.18576622009277,-400000.0625,-8010.91015625,-5069.16015625,-400000.0625,-16576.009765625,-400000.0625,-6799.64990234375,-400000.0625
210.2023150920868,-400000.0625,-8011.72021484375,-5064.2998046875,-400000.0625,-16573.140625,-400000.0625,-6796.5,-400000.0625
210.212584733963,-400000.0625,-8006.56982421875,-5061.52978515625,-400000.0625,-16572.91015625,-400000.0625,-6794.31005859375,-400000.0625
210.22569918632507,-400000.0625,-7997.85009765625,-5057.43017578125,-400000.0625,-16564.1796875,-400000.0625,-6789.8798828125,-400000.0625
210.24593663215637,-400000.0625,-8011.490234375,-5069.919921875,-400000.0625,-16575.619140625,-400000.0625,-6796.89013671875,-400000.0625
210.27097344398499,-400000.0625,-8019.77978515625,-5076.93017578125,-400000.0625,-16581.8203125,-400000.0625,-6807.56982421875,-400000.0625
210.28230381011963,-400000.0625,-8016.58984375,-5070.72998046875,-400000.0625,-16574.4296875,-400000.0625,-6805.56005859375,-400000.0625
210.29408764839172,-400000.0625,-8010.580078125,-5066.2001953125,-400000.0625,-16571.4296875,-400000.0625,-6804.419921875,-400000.0625
210.3142228126526,-400000.0625,-8006.18994140625,-5061.25,-400000.0625,-16568.470703125,-400000.0625,-6802.18017578125,-400000.0625
210.3276925086975,-400000.0625,-8010.2900390625,-5064.77001953125,-400000.0625,-16575.619140625,-400000.0625,-6804.66015625,-400000.0625
210.3446443080902,-400000.0625,-8011.14990234375,-5065.8701171875,-400000.0625,-16578.25,-400000.0625,-6806.27978515625,-400000.0625
210.35418510437012,-400000.0625,-8008.43017578125,-5063.2998046875,-400000.0625,-16574.099609375,-400000.0625,-6801.080078125,-400000.0625
210.37750458717346,-400000.0625,-8012.9599609375,-5067.919921875,-400000.0625,-16577.390625,-400000.0625,-6797.740234375,-400000.0625
210.39083337783813,-400000.0625,-8008.6201171875,-5063.81982421875,-400000.0625,-16573.0,-400000.0625,-6798.1298828125,-400000.0625
210.40823101997375,-400000.0625,-8009.14990234375,-5063.2001953125,-400000.0625,-16570.240234375,-400000.0625,-6799.97998046875,-400000.0625
210.41884899139404,-400000.0625,-8009.91015625,-5063.009765625,-400000.0625,-16571.810546875,-400000.0625,-6804.7099609375,-400000.0625
210.4357340335846,-400000.0625,-8008.85986328125,-5061.10009765625,-400000.0625,-16572.380859375,-400000.0625,-6803.509765625,-400000.0625
210.44681596755981,-400000.0625,-8003.56982421875,-5057.6201171875,-400000.0625,-16568.810546875,-400000.0625,-6799.56005859375,-400000.0625
210.4584255218506,-400000.0625,-8002.330078125,-5056.0498046875,-400000.0625,-16570.189453125,-400000.0625,-6796.5498046875,-400000.0625
210.48514699935913,-400000.0625,-8005.56982421875,-5057.33984375,-400000.0625,-16570.900390625,-400000.0625,-6797.1201171875,-400000.0625
210.50011157989502,-400000.0625,-8005.10009765625,-5058.0,-400000.0625,-16568.849609375,-400000.0625,-6798.080078125,-400000.0625
210.51550149917603,-400000.0625,-8011.009765625,-5065.580078125,-400000.0625,-16573.859375,-400000.0625,-6797.02978515625,-400000.0625
210.52949690818787,-400000.0625,-8008.580078125,-5063.81982421875,-400000.0625,-16575.0,-400000.0625,-6795.06982421875,-400000.0625
210.53905129432678,-400000.0625,-8009.240234375,-5064.2998046875,-400000.0625,-16582.19921875,-400000.0625,-6800.22021484375,-400000.0625
210.55535054206848,-400000.0625,-8015.97021484375,-5070.10986328125,-400000.0625,-16584.490234375,-400000.0625,-6803.18017578125,-400000.0625
210.5700180530548,-400000.0625,-8018.02001953125,-5072.39990234375,-400000.0625,-16582.349609375,-400000.0625,-6806.89990234375,-400000.0625
210.5991654396057,-400000.0625,-8012.33984375,-5067.02001953125,-400000.0625,-16577.009765625,-400000.0625,-6806.419921875,-400000.0625
210.61175155639648,-400000.0625,-8005.91015625,-5058.52978515625,-400000.0625,-16573.5703125,-400000.0625,-6797.41015625,-400000.0625
210.62454533576965,-400000.0625,-7996.18017578125,-5052.14013671875,-400000.0625,-16564.75,-400000.0625,-6794.259765625,-400000.0625
210.64173030853271,-400000.0625,-8007.81005859375,-5062.52978515625,-400000.0625,-16572.91015625,-400000.0625,-6798.75,-400000.0625
210.65323281288147,-400000.0625,-8018.830078125,-5069.58984375,-400000.0625,-16577.099609375,-400000.0625,-6806.85009765625,-400000.0625
210.66482162475586,-400000.0625,-8015.06005859375,-5067.64013671875,-400000.0625,-16571.380859375,-400000.0625,-6806.990234375,-400000.0625
210.67378211021423,-400000.0625,-8009.2900390625,-5063.14990234375,-400000.0625,-16569.08984375,-400000.0625,-6796.89013671875,-400000.0625
210.7009949684143,-400000.0625,-8010.52978515625,-5063.81982421875,-400000.0625,-16569.0,-400000.0625,-6792.8798828125,-400000.0625
210.71715879440308,-400000.0625,-8013.77001953125,-5069.919921875,-400000.0625,-16574.810546875,-400000.0625,-6801.64990234375,-400000.0625
210.72834086418152,-400000.0625,-8018.4501953125,-5074.41015625,-400000.0625,-16581.009765625,-400000.0625,-6806.14013671875,-400000.0625
210.74104833602905,-400000.0625,-8008.47998046875,-5063.580078125,-400000.0625,-16568.810546875,-400000.0625,-6797.41015625,-400000.0625
210.7564582824707,-400000.0625,-8002.330078125,-5058.0,-400000.0625,-16563.369140625,-400000.0625,-6793.1201171875,-400000.0625
