time,ch1,ch2,ch3,ch4,ch5,ch6,ch7,ch8
135.7127022743225,-60655.7890625,-47010.94921875,-68146.859375,-400000.0625,-44446.328125,-400000.0625,-400000.0625,-400000.0625
135.73420119285583,-60621.7890625,-46991.44921875,-68102.609375,-400000.0625,-44417.76953125,-400000.0625,-400000.0625,-400000.0625
135.7525975704193,-60588.55859375,-46962.359375,-68065.21875,-400000.0625,-44394.0703125,-400000.0625,-400000.0625,-400000.0625
135.7995309829712,-58257.96875,-44737.44140625,-65810.15625,-400000.0625,-41507.6796875,-400000.0625,-400000.0625,-400000.0625
135.79967856407166,-58450.421875,-44869.94921875,-65960.9921875,-400000.0625,-41686.921875,-400000.0625,-400000.0625,-400000.0625
135.7997179031372,-58489.94921875,-44903.19140625,-66001.7109375,-400000.0625,-41725.73828125,-400000.0625,-400000.0625,-400000.0625
135.79975509643555,-58511.0703125,-44920.5,-66028.4609375,-400000.0625,-41744.76171875,-400000.0625,-400000.0625,-400000.0625
135.7997920513153,-58486.328125,-44901.8984375,-66010.1015625,-400000.0625,-41723.26171875,-400000.0625,-400000.0625,-400000.0625
135.7998285293579,-58457.0,-44885.26171875,-65975.8203125,-400000.0625,-41691.73828125,-400000.0625,-400000.0625,-400000.0625
135.7998652458191,-58461.859375,-44887.44921875,-65978.203125,-400000.0625,-41689.73046875,-400000.0625,-400000.0625,-400000.0625
135.79990100860596,-58498.33984375,-44896.8515625,-66009.53125,-400000.0625,-41723.828125,-400000.0625,-400000.0625,-400000.0625
135.7999370098114,-58511.69140625,-44921.171875,-66022.453125,-400000.0625,-41743.62109375,-400000.0625,-400000.0625,-400000.0625
135.79997301101685,-58487.23046875,-44899.8515625,-66008.53125,-400000.0625,-41727.171875,-400000.0625,-400000.0625,-400000.0625
135.80000925064087,-58459.1484375,-44880.96875,-65975.1015625,-400000.0625,-41695.4609375,-400000.0625,-400000.0625,-400000.0625
135.80004596710205,-58454.46875,-44885.26171875,-65977.8671875,-400000.0625,-41699.21875,-400000.0625,-400000.0625,-400000.0625
135.80008244514465,-58494.19140625,-44908.1484375,-66022.0234375,-400000.0625,-41728.6015625,-400000.0625,-400000.0625,-400000.0625
135.8001194000244,-58518.8515625,-44934.55859375,-66047.2890625,-400000.0625,-41746.91015625,-400000.0625,-400000.0625,-400000.0625
135.80015563964844,-58498.1015625,-44914.921875,-66015.7265625,-400000.0625,-41726.69140625,-400000.0625,-400000.0625,-400000.0625
135.80019164085388,-58453.66015625,-44878.76953125,-65979.578125,-400000.0625,-41695.98046875,-400000.0625,-400000.0625,-400000.0625
135.80022716522217,-58456.28125,-44881.44140625,-65980.4375,-400000.0625,-41704.1796875,-400000.0625,-400000.0625,-400000.0625
135.80026292800903,-58500.33984375,-44906.33984375,-66001.7578125,-400000.0625,-41736.4609375,-400000.0625,-400000.0625,-400000.0625
135.80029845237732,-58520.8515625,-44931.12890625,-66025.546875,-400000.0625,-41751.1484375,-400000.0625,-400000.0625,-400000.0625
135.80033421516418,-58485.7109375,-44933.37109375,-66015.4375,-400000.0625,-41734.21875,-400000.0625,-400000.0625,-400000.0625
135.80036973953247,-58454.5703125,-44884.96875,-65984.2109375,-400000.0625,-41703.421875,-400000.0625,-400000.0625,-400000.0625
135.81367778778076,-58715.5390625,-45097.5,-66187.4375,-400000.0625,-41995.33984375,-400000.0625,-400000.0625,-400000.0625
135.81383538246155,-58744.390625,-45129.3515625,-66230.3984375,-400000.0625,-42027.91015625,-400000.0625,-400000.0625,-400000.0625
135.8138632774353,-58772.7109375,-45144.80078125,-66261.15625,-400000.0625,-42054.75,-400000.0625,-400000.0625,-400000.0625
135.81389117240906,-58758.55078125,-45119.76953125,-66235.6484375,-400000.0625,-42035.578125,-400000.0625,-400000.0625,-400000.0625
135.81391716003418,-58711.109375,-45091.58984375,-66187.6796875,-400000.0625,-42000.78125,-400000.0625,-400000.0625,-400000.0625
135.81394410133362,-58713.16015625,-45093.96875,-66176.953125,-400000.0625,-41992.48046875,-400000.0625,-400000.0625,-400000.0625
135.81397533416748,-58746.30078125,-45124.578125,-66208.9921875,-400000.0625,-42028.91015625,-400000.0625,-400000.0625,-400000.0625
135.81401371955872,-58774.76171875,-45140.69921875,-66242.8515625,-400000.0625,-42055.328125,-400000.0625,-400000.0625,-400000.0625
135.81406617164612,-58759.171875,-45123.62890625,-66234.3125,-400000.0625,-42041.55078125,-400000.0625,-400000.0625,-400000.0625
135.81415915489197,-58717.3984375,-45099.30859375,-66204.84375,-400000.0625,-42012.55078125,-400000.0625,-400000.0625,-400000.0625
135.81426906585693,-58706.1484375,-45095.0703125,-66193.59375,-400000.0625,-42003.2109375,-400000.0625,-400000.0625,-400000.0625
135.81438207626343,-58740.76953125,-45121.6796875,-66221.90625,-400000.0625,-42027.33984375,-400000.0625,-400000.0625,-400000.0625
135.81449961662292,-58767.1796875,-45132.12109375,-66248.3828125,-400000.0625,-42054.609375,-400000.0625,-400000.0625,-400000.0625
135.81460428237915,-58753.73828125,-45116.140625,-66227.15625,-400000.0625,-42037.109375,-400000.0625,-400000.0625,-400000.0625
135.8180787563324,-58716.16015625,-45094.3515625,-66199.0703125,-400000.0625,-42008.69140625,-400000.0625,-400000.0625,-400000.0625
135.81813979148865,-58785.3984375,-45129.16015625,-66233.8828125,-400000.0625,-42120.6015625,-400000.0625,-400000.0625,-400000.0625
135.81817770004272,-58813.62890625,-45139.6015625,-66253.7734375,-400000.0625,-42145.5390625,-400000.0625,-400000.0625,-400000.0625
135.8182075023651,-58851.33984375,-45182.37890625,-66287.1875,-400000.0625,-42173.8203125,-400000.0625,-400000.0625,-400000.0625
135.81822896003723,-58847.62890625,-45171.21875,-66288.7734375,-400000.0625,-42169.9609375,-400000.0625,-400000.0625,-400000.0625
135.81825137138367,-58811.2890625,-45137.7890625,-66255.4296875,-400000.0625,-42135.19921875,-400000.0625,-400000.0625,-400000.0625
135.81827569007874,-58783.30078125,-45135.6015625,-66243.9921875,-400000.0625,-42125.8984375,-400000.0625,-400000.0625,-400000.0625
135.81829929351807,-58815.01171875,-45162.6796875,-66267.78125,-400000.0625,-42155.80078125,-400000.0625,-400000.0625,-400000.0625
135.81832814216614,-58855.96875,-45195.73046875,-66295.921875,-400000.0625,-42187.6484375,-400000.0625,-400000.0625,-400000.0625
135.81835842132568,-58841.19140625,-45189.578125,-66300.921875,-400000.0625,-42184.30859375,-400000.0625,-400000.0625,-400000.0625
135.81838631629944,-58796.94140625,-45150.37890625,-66270.8828125,-400000.0625,-42151.0703125,-400000.0625,-400000.0625,-400000.0625
135.81841826438904,-58773.71875,-45138.55859375,-66239.4609375,-400000.0625,-42132.91015625,-400000.0625,-400000.0625,-400000.0625
135.8184461593628,-58805.5703125,-45156.1015625,-66265.296875,-400000.0625,-42154.98046875,-400000.0625,-400000.0625,-400000.0625
135.81847095489502,-58841.08984375,-45176.12890625,-66304.7890625,-400000.0625,-42182.359375,-400000.0625,-400000.0625,-400000.0625
135.8184974193573,-58845.53125,-45175.3203125,-66298.296875,-400000.0625,-42170.53125,-400000.0625,-400000.0625,-400000.0625
135.8185350894928,-58809.71875,-45150.80859375,-66257.578125,-400000.0625,-42141.3515625,-400000.0625,-400000.0625,-400000.0625
135.81856775283813,-58789.3984375,-45136.73828125,-66245.0390625,-400000.0625,-42128.94921875,-400000.0625,-400000.0625,-400000.0625
135.8185999393463,-58807.140625,-45169.0703125,-66271.5,-400000.0625,-42152.171875,-400000.0625,-400000.0625,-400000.0625
135.81862926483154,-58831.7890625,-45213.98828125,-66294.25,-400000.0625,-42185.6484375,-400000.0625,-400000.0625,-400000.0625
135.8186776638031,-58822.3515625,-45190.48046875,-66284.140625,-400000.0625,-42182.26171875,-400000.0625,-400000.0625,-400000.0625
135.8187346458435,-58792.21875,-45167.44921875,-66259.9609375,-400000.0625,-42148.30859375,-400000.0625,-400000.0625,-400000.0625
135.84856581687927,-57875.2109375,-44306.0,-65530.30859375,-400000.0625,-41637.46875,-400000.0625,-400000.0625,-400000.0625
135.90599274635315,-58137.8984375,-44204.48046875,-65144.87890625,-400000.0625,-41425.66015625,-400000.0625,-400000.0625,-400000.0625
136.0154321193695,-58185.96875,-44304.0390625,-65195.76171875,-400000.0625,-41431.671875,-400000.0625,-400000.0625,-400000.0625
136.0693359375,-58141.05078125,-44338.1796875,-65203.76953125,-400000.0625,-41440.78125,-400000.0625,-400000.0625,-400000.0625
136.2038769721985,-58104.51953125,-44389.5390625,-65243.48828125,-400000.0625,-41473.16015625,-400000.0625,-400000.0625,-400000.0625
136.26212882995605,-58106.2890625,-44387.01171875,-65244.16015625,-400000.0625,-41480.44921875,-400000.0625,-400000.0625,-400000.0625
136.44914627075195,-58076.25,-44421.01171875,-65241.1484375,-400000.0625,-41505.8203125,-400000.0625,-400000.0625,-400000.0625
136.55089831352234,-58104.859375,-44417.859375,-65244.25,-400000.0625,-41526.37109375,-400000.0625,-400000.0625,-400000.0625
136.6423590183258,-58220.87109375,-44724.66015625,-65363.6484375,-400000.0625,-41377.359375,-400000.0625,-400000.0625,-400000.0625
136.70974802970886,-58131.75,-44608.55078125,-65383.78125,-400000.0625,-41483.359375,-400000.0625,-400000.0625,-400000.0625
136.79109930992126,-58056.4609375,-44513.51953125,-65384.87109375,-400000.0625,-41542.8203125,-400000.0625,-400000.0625,-400000.0625
136.85158729553223,-58071.671875,-44510.3203125,-65384.921875,-400000.0625,-41579.30078125,-400000.0625,-400000.0625,-400000.0625
136.9021019935608,-58092.73828125,-44513.55859375,-65393.0703125,-400000.0625,-41585.9296875,-400000.0625,-400000.0625,-400000.0625
136.96267342567444,-58084.109375,-44501.828125,-65382.19921875,-400000.0625,-41599.76171875,-400000.0625,-400000.0625,-400000.0625
137.05010414123535,-58042.25,-44495.44140625,-65399.609375,-400000.0625,-41597.3203125,-400000.0625,-400000.0625,-400000.0625
137.10537433624268,-58089.359375,-44493.109375,-65400.421875,-400000.0625,-41600.5703125,-400000.0625,-400000.0625,-400000.0625
137.18211674690247,-58230.26171875,-44549.51953125,-65403.98828125,-400000.0625,-41616.109375,-400000.0625,-400000.0625,-400000.0625
137.24053859710693,-58330.44921875,-44577.4609375,-65413.48046875,-400000.0625,-41647.30078125,-400000.0625,-400000.0625,-400000.0625
137.29762506484985,-58342.75,-44558.62890625,-65407.80859375,-400000.0625,-41661.3203125,-400000.0625,-400000.0625,-400000.0625
137.35527062416077,-58339.41015625,-44544.26953125,-65396.98046875,-400000.0625,-41652.58984375,-400000.0625,-400000.0625,-400000.0625
137.41171312332153,-58430.8203125,-44551.19140625,-65389.01953125,-400000.0625,-41656.12109375,-400000.0625,-400000.0625,-400000.0625
137.49815559387207,-58445.41015625,-44589.19140625,-65411.9609375,-400000.0625,-41687.921875,-400000.0625,-400000.0625,-400000.0625
137.55412936210632,-58436.26171875,-44598.44140625,-65420.6796875,-400000.0625,-41704.28125,-400000.0625,-400000.0625,-400000.0625
137.60267663002014,-58425.91015625,-44675.16015625,-65435.75,-400000.0625,-41697.55078125,-400000.0625,-400000.0625,-400000.0625
137.66589903831482,-58520.98828125,-44920.26171875,-65545.421875,-400000.0625,-41546.30078125,-400000.0625,-400000.0625,-400000.0625
137.74765872955322,-58470.58984375,-44826.26953125,-65556.1015625,-400000.0625,-41622.359375,-400000.0625,-400000.0625,-400000.0625
137.81938242912292,-58403.44921875,-44723.7109375,-65560.4375,-400000.0625,-41732.3203125,-400000.0625,-400000.0625,-400000.0625
137.86716175079346,-58445.21875,-44713.30859375,-65584.328125,-400000.0625,-41784.1015625,-400000.0625,-400000.0625,-400000.0625
137.92350029945374,-58486.8984375,-44689.8515625,-65567.84375,-400000.0625,-41803.41015625,-400000.0625,-400000.0625,-400000.0625
137.99192309379578,-58509.2109375,-44730.37890625,-65557.0625,-400000.0625,-41755.25,-400000.0625,-400000.0625,-400000.0625
138.0528268814087,-58641.19921875,-45065.9296875,-65717.421875,-400000.0625,-41598.8515625,-400000.0625,-400000.0625,-400000.0625
138.11455130577087,-58639.71875,-44915.48828125,-65671.2578125,-400000.0625,-41688.640625,-400000.0625,-400000.0625,-400000.0625
138.1995062828064,-58645.44921875,-44783.41015625,-65623.6171875,-400000.0625,-41775.51953125,-400000.0625,-400000.0625,-400000.0625
138.30826139450073,-58627.609375,-44716.41015625,-65585.2421875,-400000.0625,-41794.2109375,-400000.0625,-400000.0625,-400000.0625
138.454487323761,-58615.640625,-44692.5703125,-65569.84375,-400000.0625,-41773.8515625,-400000.0625,-400000.0625,-400000.0625
138.51728868484497,-58607.6796875,-44684.98828125,-65559.78125,-400000.0625,-41766.7890625,-400000.0625,-400000.0625,-400000.0625
138.56540703773499,-58616.55078125,-44693.8984375,-65561.640625,-400000.0625,-41772.3203125,-400000.0625,-400000.0625,-400000.0625
138.62509393692017,-58626.37109375,-44694.140625,-65567.453125,-400000.0625,-41774.0390625,-400000.0625,-400000.0625,-400000.0625
138.64788460731506,-58612.30859375,-44684.51171875,-65554.1015625,-400000.0625,-41764.55078125,-400000.0625,-400000.0625,-400000.0625
138.67392826080322,-58579.73828125,-44669.30078125,-65527.921875,-400000.0625,-41740.28125,-400000.0625,-400000.0625,-400000.0625
138.72792220115662,-58562.7109375,-44661.9609375,-65504.609375,-400000.0625,-41720.8203125,-400000.0625,-400000.0625,-400000.0625
138.75920248031616,-58574.5390625,-44666.87109375,-65500.7890625,-400000.0625,-41726.78125,-400000.0625,-400000.0625,-400000.0625
138.783301115036,-58589.1796875,-44674.96875,-65525.3515625,-400000.0625,-41744.0,-400000.0625,-400000.0625,-400000.0625
138.89448976516724,-58873.98828125,-44773.05859375,-65616.421875,-400000.0625,-41949.08984375,-400000.0625,-400000.0625,-400000.0625
139.0117702484131,-58765.078125,-44619.98828125,-65496.44921875,-400000.0625,-41924.33984375,-400000.0625,-400000.0625,-400000.0625
139.10101985931396,-58789.98046875,-44646.359375,-65525.62890625,-400000.0625,-41935.73046875,-400000.0625,-400000.0625,-400000.0625
139.1440303325653,-58987.53125,-44778.5390625,-65445.71875,-400000.0625,-41836.83984375,-400000.0625,-400000.0625,-400000.0625
139.29184651374817,-59269.01171875,-44906.0,-65432.51171875,-400000.0625,-41975.6484375,-400000.0625,-400000.0625,-400000.0625
139.35387563705444,-59161.76953125,-44770.6796875,-65361.98046875,-400000.0625,-41955.48046875,-400000.0625,-400000.0625,-400000.0625
139.41057682037354,-59083.08984375,-44719.03125,-65314.73046875,-400000.0625,-41949.1796875,-400000.0625,-400000.0625,-400000.0625
139.4671187400818,-59043.03125,-44682.890625,-65324.171875,-400000.0625,-41952.0,-400000.0625,-400000.0625,-400000.0625
139.52187252044678,-59094.33984375,-44707.87890625,-65367.8515625,-400000.0625,-42001.05859375,-400000.0625,-400000.0625,-400000.0625
139.6050901412964,-59041.83984375,-44694.859375,-65330.66015625,-400000.0625,-41975.0703125,-400000.0625,-400000.0625,-400000.0625
139.6613712310791,-58959.96875,-44632.76953125,-65315.3515625,-400000.0625,-41960.19921875,-400000.0625,-400000.0625,-400000.0625
139.7305769920349,-58934.03125,-44624.2890625,-65302.0,-400000.0625,-41934.16015625,-400000.0625,-400000.0625,-400000.0625
139.8578794002533,-58992.44140625,-44726.140625,-65377.19921875,-400000.0625,-42000.109375,-400000.0625,-400000.0625,-400000.0625
140.0433065891266,-58738.91015625,-44805.1484375,-65722.8125,-400000.0625,-42098.859375,-400000.0625,-400000.0625,-400000.0625
140.24845266342163,-58800.69921875,-44857.83984375,-65748.1328125,-400000.0625,-42122.609375,-400000.0625,-400000.0625,-400000.0625
140.39099431037903,-58806.94921875,-44913.87109375,-65783.3203125,-400000.0625,-42166.2890625,-400000.0625,-400000.0625,-400000.0625
140.61597800254822,-58903.26953125,-44914.73046875,-65806.5390625,-400000.0625,-42210.87109375,-400000.0625,-400000.0625,-400000.0625
140.6973376274109,-58903.12890625,-44909.23828125,-65810.7421875,-400000.0625,-42217.55078125,-400000.0625,-400000.0625,-400000.0625
140.7604787349701,-58920.9609375,-44928.51171875,-65829.046875,-400000.0625,-42230.94140625,-400000.0625,-400000.0625,-400000.0625
140.84460425376892,-58935.26953125,-44923.12109375,-65828.1875,-400000.0625,-42249.109375,-400000.0625,-400000.0625,-400000.0625
140.88218235969543,-58954.8203125,-44927.75,-65840.921875,-400000.0625,-42248.3984375,-400000.0625,-400000.0625,-400000.0625
140.94897484779358,-58950.62109375,-44933.66015625,-65834.4765625,-400000.0625,-42242.9609375,-400000.0625,-400000.0625,-400000.0625
140.9721827507019,-58939.03125,-44926.359375,-65835.7734375,-400000.0625,-42239.4296875,-400000.0625,-400000.0625,-400000.0625
140.99703979492188,-58939.1796875,-44928.98828125,-65833.2890625,-400000.0625,-42236.328125,-400000.0625,-400000.0625,-400000.0625
141.0500419139862,-58940.46875,-44936.140625,-65831.3828125,-400000.0625,-42231.51953125,-400000.0625,-400000.0625,-400000.0625
141.08321857452393,-58938.98828125,-44932.28125,-65830.2890625,-400000.0625,-42243.44140625,-400000.0625,-400000.0625,-400000.0625
141.10813760757446,-58948.23828125,-44937.23046875,-65841.4921875,-400000.0625,-42252.78125,-400000.0625,-400000.0625,-400000.0625
141.15858793258667,-58960.05859375,-44942.671875,-65841.6328125,-400000.0625,-42247.78125,-400000.0625,-400000.0625,-400000.0625
141.1916582584381,-58944.51953125,-44935.7109375,-65831.859375,-400000.0625,-42248.58984375,-400000.0625,-400000.0625,-400000.0625
141.21898865699768,-58936.55859375,-44927.3203125,-65831.2421875,-400000.0625,-42244.05859375,-400000.0625,-400000.0625,-400000.0625
141.27276730537415,-58949.76171875,-44930.75,-65841.0625,-400000.0625,-42246.390625,-400000.0625,-400000.0625,-400000.0625
141.39765286445618,-58940.1796875,-45053.48828125,-66038.4296875,-400000.0625,-42335.51953125,-400000.0625,-400000.0625,-400000.0625
141.4566011428833,-58943.140625,-45057.48828125,-66041.1015625,-400000.0625,-42341.19140625,-400000.0625,-400000.0625,-400000.0625
141.51560282707214,-58954.8203125,-45054.578125,-66061.84375,-400000.0625,-42357.73828125,-400000.0625,-400000.0625,-400000.0625
141.5709102153778,-58950.76953125,-45052.9609375,-66065.5078125,-400000.0625,-42367.21875,-400000.0625,-400000.0625,-400000.0625
141.65956902503967,-58941.421875,-45051.25,-66079.203125,-400000.0625,-42361.359375,-400000.0625,-400000.0625,-400000.0625
141.76275730133057,-58931.01953125,-45069.6015625,-66098.1328125,-400000.0625,-42385.921875,-400000.0625,-400000.0625,-400000.0625
141.84669375419617,-58931.9296875,-45038.1796875,-66095.6484375,-400000.0625,-42389.6796875,-400000.0625,-400000.0625,-400000.0625
141.9052345752716,-58916.2890625,-45074.28125,-66107.3828125,-400000.0625,-42407.76171875,-400000.0625,-400000.0625,-400000.0625
141.95577549934387,-58923.8203125,-45075.421875,-66104.9375,-400000.0625,-42418.33984375,-400000.0625,-400000.0625,-400000.0625
142.02086091041565,-58910.8984375,-45070.83984375,-66098.2734375,-400000.0625,-42406.28125,-400000.0625,-400000.0625,-400000.0625
142.15201616287231,-58918.8203125,-45078.51953125,-66119.921875,-400000.0625,-42437.69921875,-400000.0625,-400000.0625,-400000.0625
142.21410870552063,-58901.51171875,-45067.890625,-66116.203125,-400000.0625,-42436.12890625,-400000.0625,-400000.0625,-400000.0625
142.29675436019897,-58905.98828125,-45102.41015625,-66138.1796875,-400000.0625,-42444.19140625,-400000.0625,-400000.0625,-400000.0625
142.36411094665527,-58922.1484375,-45124.390625,-66159.453125,-400000.0625,-42456.44140625,-400000.0625,-400000.0625,-400000.0625
142.42056035995483,-58928.30859375,-45144.80078125,-66184.34375,-400000.0625,-42486.76953125,-400000.0625,-400000.0625,-400000.0625
142.46622395515442,-58930.2109375,-45132.30859375,-66178.46875,-400000.0625,-42468.41015625,-400000.0625,-400000.0625,-400000.0625
142.54922366142273,-58912.23828125,-45124.578125,-66167.703125,-400000.0625,-42450.19140625,-400000.0625,-400000.0625,-400000.0625
142.61133694648743,-58923.78125,-45131.26171875,-66186.34375,-400000.0625,-42465.87890625,-400000.0625,-400000.0625,-400000.0625
142.66034698486328,-58936.7890625,-45149.140625,-66190.578125,-400000.0625,-42468.03125,-400000.0625,-400000.0625,-400000.0625
142.74191975593567,-58957.44140625,-45172.94140625,-66208.421875,-400000.0625,-42494.25,-400000.0625,-400000.0625,-400000.0625
142.8015260696411,-58937.41015625,-45160.3515625,-66198.359375,-400000.0625,-42483.48046875,-400000.0625,-400000.0625,-400000.0625
142.85028624534607,-58927.44921875,-45158.48828125,-66193.78125,-400000.0625,-42478.80078125,-400000.0625,-400000.0625,-400000.0625
142.95299673080444,-58925.01953125,-45153.19140625,-66186.90625,-400000.0625,-42477.1796875,-400000.0625,-400000.0625,-400000.0625
143.10817217826843,-58948.140625,-45158.05859375,-66217.3828125,-400000.0625,-42510.7109375,-400000.0625,-400000.0625,-400000.0625
143.17193961143494,-58910.62109375,-45129.3515625,-66216.1875,-400000.0625,-42501.359375,-400000.0625,-400000.0625,-400000.0625
143.24669647216797,-58921.05859375,-45138.3203125,-66214.46875,-400000.0625,-42496.5390625,-400000.0625,-400000.0625,-400000.0625
143.30575442314148,-58923.8203125,-45147.62109375,-66220.2421875,-400000.0625,-42515.51953125,-400000.0625,-400000.0625,-400000.0625
143.32820200920105,-58932.83984375,-45163.16015625,-66236.3125,-400000.0625,-42520.23828125,-400000.0625,-400000.0625,-400000.0625
143.34771966934204,-58920.91015625,-45154.578125,-66230.0234375,-400000.0625,-42503.03125,-400000.0625,-400000.0625,-400000.0625
143.38680052757263,-58908.80078125,-45142.69921875,-66218.1875,-400000.0625,-42487.1015625,-400000.0625,-400000.0625,-400000.0625
143.4037504196167,-58909.7109375,-45150.94921875,-66216.2890625,-400000.0625,-42497.26171875,-400000.0625,-400000.0625,-400000.0625
143.42021989822388,-58923.5390625,-45154.671875,-66231.5,-400000.0625,-42514.37890625,-400000.0625,-400000.0625,-400000.0625
143.43541812896729,-58930.01953125,-45164.73046875,-66237.703125,-400000.0625,-42512.55859375,-400000.0625,-400000.0625,-400000.0625
143.45466566085815,-58927.01953125,-45150.37890625,-66234.40625,-400000.0625,-42507.51171875,-400000.0625,-400000.0625,-400000.0625
143.48754692077637,-58916.76953125,-45139.4609375,-66219.390625,-400000.0625,-42493.921875,-400000.0625,-400000.0625,-400000.0625
143.5067958831787,-58915.5703125,-45145.8984375,-66216.671875,-400000.0625,-42490.48828125,-400000.0625,-400000.0625,-400000.0625
143.52359199523926,-58929.01953125,-45155.76953125,-66227.4921875,-400000.0625,-42502.5,-400000.0625,-400000.0625,-400000.0625
143.54035758972168,-58937.37109375,-45158.6796875,-66232.0234375,-400000.0625,-42513.421875,-400000.0625,-400000.0625,-400000.0625
143.55510330200195,-58926.05859375,-45153.71875,-66228.4921875,-400000.0625,-42506.078125,-400000.0625,-400000.0625,-400000.0625
143.59648084640503,-58910.23046875,-45151.80859375,-66222.8203125,-400000.0625,-42492.01171875,-400000.0625,-400000.0625,-400000.0625
143.6137933731079,-58919.48046875,-45152.1484375,-66222.390625,-400000.0625,-42495.5390625,-400000.0625,-400000.0625,-400000.0625
143.62865662574768,-58929.2109375,-45165.44921875,-66236.359375,-400000.0625,-42507.4609375,-400000.0625,-400000.0625,-400000.0625
143.64849758148193,-58932.41015625,-45173.6015625,-66239.6484375,-400000.0625,-42508.078125,-400000.0625,-400000.0625,-400000.0625
143.66106534004211,-58929.828125,-45170.0703125,-66233.359375,-400000.0625,-42505.26953125,-400000.0625,-400000.0625,-400000.0625
143.6902527809143,-58914.71875,-45151.91015625,-66215.0,-400000.0625,-42498.9296875,-400000.0625,-400000.0625,-400000.0625
143.71298217773438,-58907.8515625,-45144.23046875,-66201.171875,-400000.0625,-42496.5,-400000.0625,-400000.0625,-400000.0625
143.73195123672485,-58923.8203125,-45159.921875,-66219.1875,-400000.0625,-42511.51953125,-400000.0625,-400000.0625,-400000.0625
143.75133752822876,-58937.41015625,-45188.0,-66243.5078125,-400000.0625,-42517.328125,-400000.0625,-400000.0625,-400000.0625
143.7681062221527,-58925.48828125,-45159.76953125,-66243.0390625,-400000.0625,-42506.078125,-400000.0625,-400000.0625,-400000.0625
143.81224870681763,-58902.6015625,-45812.328125,-66540.578125,-400000.0625,-41827.5390625,-400000.0625,-400000.0625,-400000.0625
143.8943648338318,-58852.921875,-45550.78125,-66469.1484375,-400000.0625,-41959.71875,-400000.0625,-400000.0625,-400000.0625
143.95306611061096,-58984.80859375,-45413.73828125,-66415.1328125,-400000.0625,-42018.46875,-400000.0625,-400000.0625,-400000.0625
144.00131273269653,-58974.26953125,-45223.4296875,-66310.6015625,-400000.0625,-42134.390625,-400000.0625,-400000.0625,-400000.0625
144.07009434700012,-58942.7109375,-45172.171875,-66280.75,-400000.0625,-42163.328125,-400000.0625,-400000.0625,-400000.0625
144.14019870758057,-58915.53125,-45157.76953125,-66254.8125,-400000.0625,-42207.91015625,-400000.0625,-400000.0625,-400000.0625
144.22346544265747,-58919.2890625,-45136.078125,-66249.328125,-400000.0625,-42325.83984375,-400000.0625,-400000.0625,-400000.0625
144.2623953819275,-58930.58984375,-45154.390625,-66275.2734375,-400000.0625,-42386.01171875,-400000.0625,-400000.0625,-400000.0625
144.34547472000122,-58954.390625,-45152.62109375,-66286.4296875,-400000.0625,-42409.4296875,-400000.0625,-400000.0625,-400000.0625
144.40065002441406,-58955.9609375,-45166.69140625,-66277.609375,-400000.0625,-42403.98828125,-400000.0625,-400000.0625,-400000.0625
144.4502866268158,-58947.37890625,-45165.96875,-66268.6875,-400000.0625,-42400.4609375,-400000.0625,-400000.0625,-400000.0625
144.51563787460327,-58945.0390625,-45159.87109375,-66270.03125,-400000.0625,-42404.3203125,-400000.0625,-400000.0625,-400000.0625
144.594092130661,-58960.30078125,-45182.421875,-66280.9921875,-400000.0625,-42418.1484375,-400000.0625,-400000.0625,-400000.0625
144.6536681652069,-58995.921875,-45200.5390625,-66321.4765625,-400000.0625,-42442.94921875,-400000.0625,-400000.0625,-400000.0625
144.7131805419922,-58988.76953125,-45207.94140625,-66318.5703125,-400000.0625,-42456.48828125,-400000.0625,-400000.0625,-400000.0625
144.7720274925232,-58950.05078125,-45198.96875,-66292.8203125,-400000.0625,-42427.44921875,-400000.0625,-400000.0625,-400000.0625
144.90111875534058,-58936.21875,-45176.609375,-66285.7109375,-400000.0625,-42412.80859375,-400000.0625,-400000.0625,-400000.0625
144.9717574119568,-58937.37109375,-45172.078125,-66291.2890625,-400000.0625,-42404.46875,-400000.0625,-400000.0625,-400000.0625
145.03506684303284,-58903.078125,-45159.3515625,-66260.5390625,-400000.0625,-42379.33984375,-400000.0625,-400000.0625,-400000.0625
145.0962347984314,-58868.6484375,-45091.78125,-66218.1484375,-400000.0625,-42316.73046875,-400000.0625,-400000.0625,-400000.0625
145.1636552810669,-58820.6796875,-45075.140625,-66197.2109375,-400000.0625,-42300.46875,-400000.0625,-400000.0625,-400000.0625
145.22198605537415,-58793.6484375,-45023.3984375,-66170.9921875,-400000.0625,-42258.73828125,-400000.0625,-400000.0625,-400000.0625
145.29050755500793,-58758.7890625,-44996.55078125,-66144.4296875,-400000.0625,-42237.1015625,-400000.0625,-400000.0625,-400000.0625
145.35151386260986,-58717.0703125,-44937.0,-66125.6875,-400000.0625,-42206.48046875,-400000.0625,-400000.0625,-400000.0625
145.4132945537567,-58645.828125,-44879.87109375,-66078.6171875,-400000.0625,-42165.140625,-400000.0625,-400000.0625,-400000.0625
145.4999804496765,-58591.46875,-44843.1484375,-66033.8515625,-400000.0625,-42105.05859375,-400000.0625,-400000.0625,-400000.0625
145.5482304096222,-58571.578125,-44800.140625,-66033.3671875,-400000.0625,-42092.51953125,-400000.0625,-400000.0625,-400000.0625
145.61663150787354,-58544.7890625,-44787.98046875,-66028.5625,-400000.0625,-42089.55859375,-400000.0625,-400000.0625,-400000.0625
145.66567969322205,-58498.91015625,-44745.5,-65981.25,-400000.0625,-42042.359375,-400000.0625,-400000.0625,-400000.0625
145.7499213218689,-58436.5,-44686.37109375,-65938.390625,-400000.0625,-41990.140625,-400000.0625,-400000.0625,-400000.0625
145.808908700943,-58390.23828125,-44645.98046875,-65899.28125,-400000.0625,-41958.91015625,-400000.0625,-400000.0625,-400000.0625
145.84230995178223,-58404.5,-44641.69140625,-65906.71875,-400000.0625,-41964.05859375,-400000.0625,-400000.0625,-400000.0625
145.86192512512207,-58434.25,-44676.9296875,-65926.890625,-400000.0625,-41980.98828125,-400000.0625,-400000.0625,-400000.0625
145.87533450126648,-58426.23828125,-44691.23046875,-65931.421875,-400000.0625,-41985.7109375,-400000.0625,-400000.0625,-400000.0625
145.8928439617157,-58403.30859375,-44647.03125,-65908.0078125,-400000.0625,-41957.91015625,-400000.0625,-400000.0625,-400000.0625
145.91058611869812,-58385.0,-44619.5703125,-65891.3203125,-400000.0625,-41947.1796875,-400000.0625,-400000.0625,-400000.0625
145.9426040649414,-58392.33984375,-44620.46875,-65902.53125,-400000.0625,-41958.37890625,-400000.0625,-400000.0625,-400000.0625
145.9558243751526,-58406.41015625,-44641.12109375,-65912.78125,-400000.0625,-41971.9296875,-400000.0625,-400000.0625,-400000.0625
145.97636675834656,-58402.44921875,-44641.0703125,-65908.0078125,-400000.0625,-41969.87890625,-400000.0625,-400000.0625,-400000.0625
145.9942181110382,-58384.37890625,-44627.53125,-65889.5625,-400000.0625,-41954.76171875,-400000.0625,-400000.0625,-400000.0625
146.00993180274963,-58370.6015625,-44613.03125,-65882.3125,-400000.0625,-41937.58984375,-400000.0625,-400000.0625,-400000.0625
146.02474665641785,-58377.078125,-44627.4296875,-65895.0390625,-400000.0625,-41950.55859375,-400000.0625,-400000.0625,-400000.0625
146.06098914146423,-58394.76953125,-44652.66015625,-65919.453125,-400000.0625,-41963.6796875,-400000.0625,-400000.0625,-400000.0625
146.08146691322327,-58391.1484375,-44648.3203125,-65909.25,-400000.0625,-41959.8203125,-400000.0625,-400000.0625,-400000.0625
146.09922218322754,-58369.359375,-44623.8984375,-65877.4921875,-400000.0625,-41933.30078125,-400000.0625,-400000.0625,-400000.0625
146.11416745185852,-58359.25,-44608.41015625,-65870.4765625,-400000.0625,-41934.58984375,-400000.0625,-400000.0625,-400000.0625
146.1306507587433,-58370.0703125,-44618.140625,-65879.96875,-400000.0625,-41950.08984375,-400000.0625,-400000.0625,-400000.0625
146.16433691978455,-58389.23828125,-44638.78125,-65897.0390625,-400000.0625,-41956.671875,-400000.0625,-400000.0625,-400000.0625
146.18822312355042,-58390.859375,-44640.5,-65898.859375,-400000.0625,-41959.19921875,-400000.0625,-400000.0625,-400000.0625
146.20699167251587,-58367.87890625,-44604.828125,-65883.359375,-400000.0625,-41946.98828125,-400000.0625,-400000.0625,-400000.0625
146.22617602348328,-58343.12890625,-44592.4296875,-65868.7734375,-400000.0625,-41925.8203125,-400000.0625,-400000.0625,-400000.0625
146.24754166603088,-58357.33984375,-44603.16015625,-65869.71875,-400000.0625,-41928.109375,-400000.0625,-400000.0625,-400000.0625
146.27870678901672,-58377.890625,-44616.8984375,-65884.5,-400000.0625,-41946.12890625,-400000.0625,-400000.0625,-400000.0625
146.3107612133026,-58010.5390625,-45058.921875,-60553.3203125,-400000.0625,-39021.69140625,-400000.0625,-400000.0625,-400000.0625
146.3870747089386,-57790.859375,-45021.58984375,-60153.2109375,-400000.0625,-37852.76953125,-400000.0625,-400000.0625,-400000.0625
146.45025372505188,-57750.66015625,-44983.19921875,-61500.41015625,-400000.0625,-38043.55078125,-400000.0625,-400000.0625,-400000.0625
146.49899339675903,-57750.8984375,-44758.55859375,-62696.609375,-400000.0625,-38909.62890625,-400000.0625,-400000.0625,-400000.0625
146.5665204524994,-57908.109375,-44590.62109375,-63522.8203125,-400000.0625,-39915.23046875,-400000.0625,-400000.0625,-400000.0625
146.6450936794281,-57890.37109375,-44315.30078125,-63800.1484375,-400000.0625,-40368.28125,-400000.0625,-400000.0625,-400000.0625
146.70517015457153,-57884.94140625,-44291.41015625,-63962.8515625,-400000.0625,-40499.44921875,-400000.0625,-400000.0625,-400000.0625
146.80328178405762,-57882.41015625,-44265.46875,-64063.75,-400000.0625,-40598.25,-400000.0625,-400000.0625,-400000.0625
146.88826155662537,-57960.23046875,-44295.12890625,-64288.4296875,-400000.0625,-40806.01171875,-400000.0625,-400000.0625,-400000.0625
146.95038628578186,-57975.62890625,-44328.6484375,-64374.171875,-400000.0625,-40892.1796875,-400000.0625,-400000.0625,-400000.0625
147.01802134513855,-57993.98828125,-44345.80859375,-64407.9296875,-400000.0625,-40918.3984375,-400000.0625,-400000.0625,-400000.0625
147.09888076782227,-57994.23046875,-44344.62109375,-64443.12109375,-400000.0625,-40946.19921875,-400000.0625,-400000.0625,-400000.0625
147.15257716178894,-58017.44921875,-44375.51953125,-64494.19140625,-400000.0625,-40994.359375,-400000.0625,-400000.0625,-400000.0625
147.2058539390564,-58043.44140625,-44419.05859375,-64550.7890625,-400000.0625,-41044.53125,-400000.0625,-400000.0625,-400000.0625
147.3479073047638,-58050.78125,-44428.0703125,-64630.12890625,-400000.0625,-41109.8984375,-400000.0625,-400000.0625,-400000.0625
147.42535305023193,-58068.0,-44430.01953125,-64631.609375,-400000.0625,-41124.109375,-400000.0625,-400000.0625,-400000.0625
147.46740651130676,-58088.5,-44449.19140625,-64686.828125,-400000.0625,-41141.609375,-400000.0625,-400000.0625,-400000.0625
147.53795528411865,-58130.6484375,-44500.0703125,-64726.87890625,-400000.0625,-41192.87109375,-400000.0625,-400000.0625,-400000.0625
147.59983444213867,-58150.109375,-44514.28125,-64754.05859375,-400000.0625,-41209.3203125,-400000.0625,-400000.0625,-400000.0625
147.64893293380737,-58138.37890625,-44525.1015625,-64750.390625,-400000.0625,-41203.83984375,-400000.0625,-400000.0625,-400000.0625
147.71632313728333,-58144.62109375,-44520.19140625,-64767.609375,-400000.0625,-41214.328125,-400000.0625,-400000.0625,-400000.0625
147.8033561706543,-58169.1796875,-44543.26953125,-64807.0390625,-400000.0625,-41234.98046875,-400000.0625,-400000.0625,-400000.0625
147.86827063560486,-58179.9609375,-44557.1484375,-64822.3984375,-400000.0625,-41258.390625,-400000.0625,-400000.0625,-400000.0625
147.90669965744019,-58186.390625,-44571.6015625,-64832.41015625,-400000.0625,-41264.96875,-400000.0625,-400000.0625,-400000.0625
147.97225880622864,-58176.48046875,-44570.01953125,-64808.8984375,-400000.0625,-41249.328125,-400000.0625,-400000.0625,-400000.0625
148.08539628982544,-58178.53125,-44570.828125,-64826.44921875,-400000.0625,-41262.01171875,-400000.0625,-400000.0625,-400000.0625
148.16399478912354,-58231.7890625,-44614.12890625,-64891.62890625,-400000.0625,-41311.4609375,-400000.0625,-400000.0625,-400000.0625
148.24418544769287,-58247.2890625,-44645.69921875,-64903.83984375,-400000.0625,-41335.16015625,-400000.0625,-400000.0625,-400000.0625
148.30359768867493,-58258.48828125,-44648.21875,-64919.5703125,-400000.0625,-41335.87109375,-400000.0625,-400000.0625,-400000.0625
148.31776356697083,-58248.80859375,-44630.01171875,-64896.69140625,-400000.0625,-41313.03125,-400000.0625,-400000.0625,-400000.0625
148.33736038208008,-58250.1484375,-44628.2890625,-64906.1796875,-400000.0625,-41317.66015625,-400000.0625,-400000.0625,-400000.0625
148.3562684059143,-58269.55859375,-44652.8984375,-64927.44140625,-400000.0625,-41335.3984375,-400000.0625,-400000.0625,-400000.0625
148.38478136062622,-58285.05078125,-44654.7109375,-64938.6484375,-400000.0625,-41342.6015625,-400000.0625,-400000.0625,-400000.0625
148.40256333351135,-58277.80078125,-44624.140625,-64920.1015625,-400000.0625,-41337.2109375,-400000.0625,-400000.0625,-400000.0625
148.41918802261353,-58253.01171875,-44611.51171875,-64893.3984375,-400000.0625,-41320.66015625,-400000.0625,-400000.0625,-400000.0625
148.43272018432617,-58244.328125,-44628.4296875,-64910.0390625,-400000.0625,-41318.66015625,-400000.0625,-400000.0625,-400000.0625
148.45064520835876,-58264.55078125,-44638.01953125,-64924.05859375,-400000.0625,-41337.69140625,-400000.0625,-400000.0625,-400000.0625
148.46635580062866,-58280.80859375,-44640.12109375,-64929.3515625,-400000.0625,-41349.12890625,-400000.0625,-400000.0625,-400000.0625
148.50473737716675,-58265.41015625,-44627.9609375,-64914.8984375,-400000.0625,-41328.71875,-400000.0625,-400000.0625,-400000.0625
148.53207635879517,-58248.5703125,-44622.37890625,-64899.640625,-400000.0625,-41311.078125,-400000.0625,-400000.0625,-400000.0625
148.5587477684021,-58254.8203125,-44637.3515625,-64904.26953125,-400000.0625,-41317.51953125,-400000.0625,-400000.0625,-400000.0625
148.5815737247467,-58276.23046875,-44660.05078125,-64930.87890625,-400000.0625,-41335.5390625,-400000.0625,-400000.0625,-400000.0625
148.62531113624573,-58290.30078125,-44660.4296875,-64950.51953125,-400000.0625,-41352.46875,-400000.0625,-400000.0625,-400000.0625
148.6434235572815,-58270.3203125,-44648.03125,-64938.69921875,-400000.0625,-41344.73828125,-400000.0625,-400000.0625,-400000.0625
148.6641070842743,-58239.66015625,-44627.19140625,-64911.1796875,-400000.0625,-41319.609375,-400000.0625,-400000.0625,-400000.0625
148.68085885047913,-58239.28125,-44618.75,-64909.8984375,-400000.0625,-41313.078125,-400000.0625,-400000.0625,-400000.0625
148.6935703754425,-58266.9296875,-44644.21875,-64941.26953125,-400000.0625,-41325.671875,-400000.0625,-400000.0625,-400000.0625
148.72978353500366,-58276.609375,-44657.28125,-64957.8203125,-400000.0625,-41337.2109375,-400000.0625,-400000.0625,-400000.0625
148.74775457382202,-58266.6015625,-44649.078125,-64941.078125,-400000.0625,-41349.69921875,-400000.0625,-400000.0625,-400000.0625
148.76639652252197,-58251.71875,-44635.3984375,-64920.23828125,-400000.0625,-41326.9609375,-400000.0625,-400000.0625,-400000.0625
148.78395867347717,-58249.19140625,-44642.0703125,-64917.1015625,-400000.0625,-41321.8515625,-400000.0625,-400000.0625,-400000.0625
148.8028211593628,-58338.98046875,-44773.76953125,-65030.1484375,-400000.0625,-41382.37109375,-400000.0625,-400000.0625,-400000.0625
148.86511993408203,-58348.0390625,-44780.2109375,-65044.7890625,-400000.0625,-41418.12890625,-400000.0625,-400000.0625,-400000.0625
148.95063018798828,-58362.8203125,-44748.83984375,-65064.76953125,-400000.0625,-41430.19140625,-400000.0625,-400000.0625,-400000.0625
149.00255608558655,-58332.16015625,-44723.55859375,-65024.48046875,-400000.0625,-41416.21875,-400000.0625,-400000.0625,-400000.0625
149.0606553554535,-58332.640625,-44735.9609375,-65040.0703125,-400000.0625,-41430.23828125,-400000.0625,-400000.0625,-400000.0625
149.14261198043823,-58353.37890625,-44753.51171875,-65088.08984375,-400000.0625,-41464.4296875,-400000.0625,-400000.0625,-400000.0625
149.20512175559998,-58373.51171875,-44779.01953125,-65105.48828125,-400000.0625,-41469.71875,-400000.0625,-400000.0625,-400000.0625
149.25449657440186,-58371.55078125,-44751.51171875,-65104.3984375,-400000.0625,-41479.16015625,-400000.0625,-400000.0625,-400000.0625
149.35266828536987,-58374.98046875,-44766.62109375,-65097.05078125,-400000.0625,-41461.7109375,-400000.0625,-400000.0625,-400000.0625
149.39398384094238,-58394.01171875,-44762.19140625,-65105.87890625,-400000.0625,-41490.1796875,-400000.0625,-400000.0625,-400000.0625
149.45941162109375,-58401.640625,-44784.83984375,-65125.7109375,-400000.0625,-41508.25,-400000.0625,-400000.0625,-400000.0625
149.5122582912445,-58417.28125,-44791.3203125,-65147.6484375,-400000.0625,-41525.55859375,-400000.0625,-400000.0625,-400000.0625
149.59708547592163,-58410.51171875,-44794.76171875,-65158.08984375,-400000.0625,-41533.05078125,-400000.0625,-400000.0625,-400000.0625
149.63785481452942,-58378.890625,-44771.390625,-65138.87109375,-400000.0625,-41517.30859375,-400000.0625,-400000.0625,-400000.0625
149.70278191566467,-58392.8203125,-44777.96875,-65156.98828125,-400000.0625,-41516.30859375,-400000.0625,-400000.0625,-400000.0625
149.76421737670898,-58431.578125,-44806.05859375,-65181.69140625,-400000.0625,-41546.30078125,-400000.0625,-400000.0625,-400000.0625
149.84268260002136,-58424.62109375,-44780.0703125,-65180.73828125,-400000.0625,-41538.19921875,-400000.0625,-400000.0625,-400000.0625
149.90258240699768,-58449.75,-44821.03125,-65223.94140625,-400000.0625,-41557.51171875,-400000.0625,-400000.0625,-400000.0625
149.9788556098938,-58445.890625,-44832.80859375,-65236.2890625,-400000.0625,-41557.359375,-400000.0625,-400000.0625,-400000.0625
150.03904485702515,-58460.1484375,-44828.23046875,-65228.08984375,-400000.0625,-41560.6484375,-400000.0625,-400000.0625,-400000.0625
150.089013338089,-58463.87109375,-44834.859375,-65238.91015625,-400000.0625,-41588.171875,-400000.0625,-400000.0625,-400000.0625
150.16711688041687,-58487.66015625,-44852.41015625,-65271.91015625,-400000.0625,-41614.78125,-400000.0625,-400000.0625,-400000.0625
150.3017077445984,-58474.5,-44831.66015625,-65258.609375,-400000.0625,-41597.55859375,-400000.0625,-400000.0625,-400000.0625
150.35471963882446,-58473.44921875,-44828.7109375,-65264.5703125,-400000.0625,-41611.390625,-400000.0625,-400000.0625,-400000.0625
150.40352272987366,-58504.30078125,-44852.828125,-65287.87890625,-400000.0625,-41631.0390625,-400000.0625,-400000.0625,-400000.0625
150.47495079040527,-58529.37890625,-44888.26171875,-65310.33984375,-400000.0625,-41651.109375,-400000.0625,-400000.0625,-400000.0625
150.54356932640076,-58507.87890625,-44844.58984375,-65291.03125,-400000.0625,-41630.55859375,-400000.0625,-400000.0625,-400000.0625
150.6227946281433,-58514.12890625,-44854.0703125,-65308.76953125,-400000.0625,-41639.671875,-400000.0625,-400000.0625,-400000.0625
150.65945601463318,-58522.328125,-44873.23828125,-65310.19921875,-400000.0625,-41650.8203125,-400000.0625,-400000.0625,-400000.0625
150.75182247161865,-58555.55859375,-44892.75,-65358.171875,-400000.0625,-41697.171875,-400000.0625,-400000.0625,-400000.0625
150.80321645736694,-58560.8984375,-44912.73046875,-65369.46875,-400000.0625,-41719.390625,-400000.0625,-400000.0625,-400000.0625
150.84470582008362,-58561.05078125,-44903.51953125,-65368.98828125,-400000.0625,-41704.7109375,-400000.0625,-400000.0625,-400000.0625
150.8579137325287,-58537.73046875,-44888.87890625,-65339.5703125,-400000.0625,-41686.640625,-400000.0625,-400000.0625,-400000.0625
150.87899088859558,-58525.66015625,-44887.359375,-65331.1796875,-400000.0625,-41683.6796875,-400000.0625,-400000.0625,-400000.0625
150.8978500366211,-58541.96875,-44897.1796875,-65352.640625,-400000.0625,-41690.55078125,-400000.0625,-400000.0625,-400000.0625
150.91658663749695,-58563.76171875,-44895.37109375,-65370.5703125,-400000.0625,-41711.37890625,-400000.0625,-400000.0625,-400000.0625
150.9703676700592,-58559.5703125,-44894.41015625,-65363.94140625,-400000.0625,-41714.71875,-400000.0625,-400000.0625,-400000.0625
151.00353813171387,-58538.25,-44882.3984375,-65338.19140625,-400000.0625,-41692.2109375,-400000.0625,-400000.0625,-400000.0625
151.0221779346466,-58527.76171875,-44865.421875,-65331.23046875,-400000.0625,-41681.8203125,-400000.0625,-400000.0625,-400000.0625
151.0881106853485,-58543.640625,-44883.01953125,-65348.01171875,-400000.0625,-41688.87890625,-400000.0625,-400000.0625,-400000.0625
151.10293102264404,-58565.2890625,-44897.28125,-65363.98828125,-400000.0625,-41698.41015625,-400000.0625,-400000.0625,-400000.0625
151.12077283859253,-58564.33984375,-44893.37109375,-65360.359375,-400000.0625,-41724.0703125,-400000.0625,-400000.0625,-400000.0625
151.13287949562073,-58549.21875,-44882.3515625,-65340.4296875,-400000.0625,-41695.55078125,-400000.0625,-400000.0625,-400000.0625
151.1613609790802,-58536.96875,-44883.26171875,-65339.53125,-400000.0625,-41699.1796875,-400000.0625,-400000.0625,-400000.0625
151.17743468284607,-58550.6484375,-44894.03125,-65358.98046875,-400000.0625,-41705.328125,-400000.0625,-400000.0625,-400000.0625
151.19694232940674,-58563.91015625,-44887.6015625,-65370.51953125,-400000.0625,-41705.8515625,-400000.0625,-400000.0625,-400000.0625
151.215181350708,-58551.83984375,-44881.87109375,-65351.3984375,-400000.0625,-41706.51953125,-400000.0625,-400000.0625,-400000.0625
151.23237466812134,-58538.828125,-44878.76953125,-65330.55859375,-400000.0625,-41695.171875,-400000.0625,-400000.0625,-400000.0625
151.24836444854736,-58535.5390625,-44873.4296875,-65326.41015625,-400000.0625,-41688.3984375,-400000.0625,-400000.0625,-400000.0625
151.28217220306396,-58552.12890625,-44877.73046875,-65344.91015625,-400000.0625,-41694.98046875,-400000.0625,-400000.0625,-400000.0625
151.37676286697388,-58583.078125,-44895.421875,-65397.3203125,-400000.0625,-41737.94140625,-400000.0625,-400000.0625,-400000.0625
151.44440293312073,-58605.01171875,-44903.80859375,-65427.6015625,-400000.0625,-41765.171875,-400000.0625,-400000.0625,-400000.0625
151.50133299827576,-58612.44921875,-44919.01953125,-65441.94921875,-400000.0625,-41772.94140625,-400000.0625,-400000.0625,-400000.0625
151.56133031845093,-58602.01171875,-44871.859375,-65431.4609375,-400000.0625,-41772.8515625,-400000.0625,-400000.0625,-400000.0625
151.64018559455872,-58582.6484375,-44860.4609375,-65414.48046875,-400000.0625,-41763.83984375,-400000.0625,-400000.0625,-400000.0625
151.7022569179535,-58599.5703125,-44868.859375,-65446.9609375,-400000.0625,-41787.71875,-400000.0625,-400000.0625,-400000.0625
151.74506187438965,-58637.44140625,-44891.26953125,-65488.19921875,-400000.0625,-41793.30078125,-400000.0625,-400000.0625,-400000.0625
151.81439900398254,-58624.078125,-44876.19921875,-65478.859375,-400000.0625,-41791.25,-400000.0625,-400000.0625,-400000.0625
151.901447057724,-58605.73046875,-44847.78125,-65460.9296875,-400000.0625,-41786.25,-400000.0625,-400000.0625,-400000.0625
151.9577784538269,-58588.8515625,-44825.12890625,-65446.76953125,-400000.0625,-41782.71875,-400000.0625,-400000.0625,-400000.0625
152.00289678573608,-58599.53125,-44844.390625,-65479.859375,-400000.0625,-41785.19921875,-400000.0625,-400000.0625,-400000.0625
152.06570482254028,-58612.30859375,-44851.69140625,-65496.9296875,-400000.0625,-41802.26953125,-400000.0625,-400000.0625,-400000.0625
152.1468677520752,-58615.7890625,-44866.08984375,-65507.8984375,-400000.0625,-41809.7109375,-400000.0625,-400000.0625,-400000.0625
152.21305131912231,-58598.94921875,-44858.51171875,-65487.01171875,-400000.0625,-41796.73828125,-400000.0625,-400000.0625,-400000.0625
152.26371145248413,-58592.80078125,-44834.62109375,-65475.328125,-400000.0625,-41796.12109375,-400000.0625,-400000.0625,-400000.0625
152.32429194450378,-58602.76953125,-44835.53125,-65505.37109375,-400000.0625,-41821.87109375,-400000.0625,-400000.0625,-400000.0625
152.38900923728943,-58632.80859375,-44874.859375,-65536.078125,-400000.0625,-41836.83984375,-400000.0625,-400000.0625,-400000.0625
152.45496654510498,-58646.96875,-44869.08984375,-65542.65625,-400000.0625,-41835.5,-400000.0625,-400000.0625,-400000.0625
152.53498244285583,-58607.6796875,-44808.05859375,-65509.66015625,-400000.0625,-41799.9296875,-400000.0625,-400000.0625,-400000.0625
152.65968370437622,-58634.80859375,-44841.19921875,-65535.41015625,-400000.0625,-41840.21875,-400000.0625,-400000.0625,-400000.0625
152.70668578147888,-58629.7109375,-44845.921875,-65530.87890625,-400000.0625,-41841.078125,-400000.0625,-400000.0625,-400000.0625
152.84019088745117,-58641.76953125,-44864.23046875,-65558.25,-400000.0625,-41869.69140625,-400000.0625,-400000.0625,-400000.0625
152.9057080745697,-58623.890625,-44842.05859375,-65541.8984375,-400000.0625,-41871.078125,-400000.0625,-400000.0625,-400000.0625
152.96176171302795,-58633.19140625,-44854.12109375,-65551.0,-400000.0625,-41888.80859375,-400000.0625,-400000.0625,-400000.0625
153.0427074432373,-58662.76171875,-44882.73046875,-65586.53125,-400000.0625,-41923.37890625,-400000.0625,-400000.0625,-400000.0625
153.10390281677246,-58651.41015625,-44871.23828125,-65577.2265625,-400000.0625,-41905.69140625,-400000.0625,-400000.0625,-400000.0625
153.18642568588257,-58640.578125,-44872.80859375,-65567.453125,-400000.0625,-41911.69921875,-400000.0625,-400000.0625,-400000.0625
153.2197666168213,-58638.48046875,-44861.94140625,-65569.6015625,-400000.0625,-41920.5703125,-400000.0625,-400000.0625,-400000.0625
153.2904772758484,-58640.19921875,-44890.359375,-65585.2890625,-400000.0625,-41939.83984375,-400000.0625,-400000.0625,-400000.0625
153.351984500885,-58654.171875,-44885.55078125,-65594.7265625,-400000.0625,-41944.3203125,-400000.0625,-400000.0625,-400000.0625
153.3949944972992,-58668.37890625,-44915.01171875,-65609.796875,-400000.0625,-41971.01953125,-400000.0625,-400000.0625,-400000.0625
153.41535830497742,-58656.75,-44913.48828125,-65594.78125,-400000.0625,-41941.30859375,-400000.0625,-400000.0625,-400000.0625
153.4379427433014,-58633.2890625,-44870.1015625,-65578.0390625,-400000.0625,-41923.19140625,-400000.0625,-400000.0625,-400000.0625
153.46021032333374,-58649.359375,-44876.76953125,-65585.90625,-400000.0625,-41952.328125,-400000.0625,-400000.0625,-400000.0625
153.50134921073914,-58671.33984375,-44897.66015625,-65601.171875,-400000.0625,-41970.3984375,-400000.0625,-400000.0625,-400000.0625
153.52078342437744,-58673.48046875,-44906.859375,-65604.890625,-400000.0625,-41971.78125,-400000.0625,-400000.0625,-400000.0625
153.53827166557312,-58659.37109375,-44899.8984375,-65596.109375,-400000.0625,-41954.08984375,-400000.0625,-400000.0625,-400000.0625
153.55999851226807,-58638.05859375,-44886.30859375,-65573.21875,-400000.0625,-41932.5390625,-400000.0625,-400000.0625,-400000.0625
153.57613945007324,-58647.30859375,-44887.640625,-65578.28125,-400000.0625,-41933.5390625,-400000.0625,-400000.0625,-400000.0625
153.61988973617554,-58678.73046875,-44907.05078125,-65610.078125,-400000.0625,-41964.25,-400000.0625,-400000.0625,-400000.0625
153.64157104492188,-58685.87890625,-44919.78125,-65614.7578125,-400000.0625,-41976.55078125,-400000.0625,-400000.0625,-400000.0625
153.6596279144287,-58659.8515625,-44901.328125,-65606.9765625,-400000.0625,-41958.4296875,-400000.0625,-400000.0625,-400000.0625
153.6785056591034,-58640.53125,-44881.640625,-65582.7578125,-400000.0625,-41940.41015625,-400000.0625,-400000.0625,-400000.0625
153.71789813041687,-58649.828125,-44896.23046875,-65585.8125,-400000.0625,-41946.421875,-400000.0625,-400000.0625,-400000.0625
153.73662400245667,-58670.48046875,-44911.9609375,-65609.21875,-400000.0625,-41964.390625,-400000.0625,-400000.0625,-400000.0625
153.7551679611206,-58676.109375,-44912.62890625,-65613.28125,-400000.0625,-41963.8203125,-400000.0625,-400000.0625,-400000.0625
153.77340745925903,-58662.80078125,-44901.421875,-65589.9609375,-400000.0625,-41966.96875,-400000.0625,-400000.0625,-400000.0625
153.78954553604126,-58647.30859375,-44888.26171875,-65573.75,-400000.0625,-41947.890625,-400000.0625,-400000.0625,-400000.0625
153.86234712600708,-58697.94921875,-45059.30078125,-65671.3125,-400000.0625,-41935.26171875,-400000.0625,-400000.0625,-400000.0625
153.9363021850586,-58656.55859375,-44971.80859375,-65619.7578125,-400000.0625,-41996.2890625,-400000.0625,-400000.0625,-400000.0625
153.99547505378723,-58687.30859375,-44971.328125,-65645.5078125,-400000.0625,-42023.8515625,-400000.0625,-400000.0625,-400000.0625
154.05788469314575,-58694.8515625,-44975.23828125,-65654.2421875,-400000.0625,-42066.2890625,-400000.0625,-400000.0625,-400000.0625
154.11298966407776,-58666.859375,-44953.30078125,-65627.8671875,-400000.0625,-42031.71875,-400000.0625,-400000.0625,-400000.0625
154.19048190116882,-58658.37109375,-44959.30859375,-65636.2109375,-400000.0625,-42038.01953125,-400000.0625,-400000.0625,-400000.0625
154.25297665596008,-58659.37109375,-44951.2109375,-65628.1484375,-400000.0625,-42052.12890625,-400000.0625,-400000.0625,-400000.0625
154.31032156944275,-58673.48046875,-44974.140625,-65644.6484375,-400000.0625,-42071.6796875,-400000.0625,-400000.0625,-400000.0625
154.39259600639343,-58680.58984375,-44995.6015625,-65674.8828125,-400000.0625,-42080.4609375,-400000.0625,-400000.0625,-400000.0625
154.45521903038025,-58679.05859375,-44984.62890625,-65669.9296875,-400000.0625,-42076.87890625,-400000.0625,-400000.0625,-400000.0625
154.4980161190033,-58665.94921875,-44972.7109375,-65675.078125,-400000.0625,-42094.859375,-400000.0625,-400000.0625,-400000.0625
154.5654332637787,-58655.7890625,-44964.6484375,-65656.53125,-400000.0625,-42083.55078125,-400000.0625,-400000.0625,-400000.0625
154.64740347862244,-58660.3203125,-44979.62890625,-65676.40625,-400000.0625,-42070.578125,-400000.0625,-400000.0625,-400000.0625
154.70806407928467,-58676.44140625,-45005.08984375,-65669.2109375,-400000.0625,-42111.5,-400000.0625,-400000.0625,-400000.0625
154.75374293327332,-58663.51953125,-45010.23828125,-65673.5,-400000.0625,-42100.390625,-400000.0625,-400000.0625,-400000.0625
154.83987498283386,-58666.19140625,-45006.7109375,-65652.953125,-400000.0625,-42096.76171875,-400000.0625,-400000.0625,-400000.0625
154.94778633117676,-58674.2890625,-44999.51171875,-65662.0078125,-400000.0625,-42121.12890625,-400000.0625,-400000.0625,-400000.0625
155.01025295257568,-58699.94921875,-45016.2890625,-65683.8984375,-400000.0625,-42136.9609375,-400000.0625,-400000.0625,-400000.0625
155.1070110797882,-58687.21875,-45011.94921875,-65692.859375,-400000.0625,-42130.8984375,-400000.0625,-400000.0625,-400000.0625
155.2126019001007,-58684.0703125,-44995.98046875,-65669.96875,-400000.0625,-42115.7890625,-400000.0625,-400000.0625,-400000.0625
155.270245552063,-58714.109375,-45010.671875,-65703.8828125,-400000.0625,-42133.859375,-400000.0625,-400000.0625,-400000.0625
155.34396362304688,-58725.51171875,-45037.80078125,-65704.59375,-400000.0625,-42140.3515625,-400000.0625,-400000.0625,-400000.0625
155.4071068763733,-58730.75,-45036.421875,-65708.6015625,-400000.0625,-42151.6015625,-400000.0625,-400000.0625,-400000.0625
155.45943331718445,-58696.55859375,-45021.3515625,-65703.5,-400000.0625,-42129.28125,-400000.0625,-400000.0625,-400000.0625
155.53891277313232,-58702.05078125,-45039.51953125,-65707.6875,-400000.0625,-42118.171875,-400000.0625,-400000.0625,-400000.0625
155.58815169334412,-58726.03125,-45038.609375,-65728.4765625,-400000.0625,-42148.30859375,-400000.0625,-400000.0625,-400000.0625
155.6528148651123,-58753.44921875,-45044.37890625,-65743.359375,-400000.0625,-42163.328125,-400000.0625,-400000.0625,-400000.0625
155.74406385421753,-58748.6796875,-45037.94140625,-65728.2421875,-400000.0625,-42165.28125,-400000.0625,-400000.0625,-400000.0625
155.84285187721252,-58729.75,-45020.05859375,-65698.96875,-400000.0625,-42131.140625,-400000.0625,-400000.0625,-400000.0625
155.8614535331726,-58752.3984375,-45039.51953125,-65725.6171875,-400000.0625,-42185.12109375,-400000.0625,-400000.0625,-400000.0625
155.89191722869873,-58769.51953125,-45056.96875,-65741.0234375,-400000.0625,-42189.12890625,-400000.0625,-400000.0625,-400000.0625
155.90923404693604,-58753.30859375,-45066.4609375,-65738.3984375,-400000.0625,-42179.87890625,-400000.0625,-400000.0625,-400000.0625
155.92871403694153,-58735.0,-45040.08984375,-65718.28125,-400000.0625,-42156.12890625,-400000.0625,-400000.0625,-400000.0625
155.94791173934937,-58726.83984375,-45014.578125,-65713.3671875,-400000.0625,-42137.19921875,-400000.0625,-400000.0625,-400000.0625
155.9716637134552,-58737.94921875,-45028.01953125,-65726.3828125,-400000.0625,-42166.2890625,-400000.0625,-400000.0625,-400000.0625
156.00837993621826,-58755.44921875,-45044.48046875,-65738.7265625,-400000.0625,-42185.5,-400000.0625,-400000.0625,-400000.0625
156.02481651306152,-58750.2109375,-45052.921875,-65718.8515625,-400000.0625,-42168.1015625,-400000.0625,-400000.0625,-400000.0625
156.04683113098145,-58730.8984375,-45027.01953125,-65702.0234375,-400000.0625,-42150.6484375,-400000.0625,-400000.0625,-400000.0625
156.0625467300415,-58734.421875,-45024.828125,-65703.109375,-400000.0625,-42144.828125,-400000.0625,-400000.0625,-400000.0625
156.08171367645264,-58751.5390625,-45039.1796875,-65722.328125,-400000.0625,-42153.98046875,-400000.0625,-400000.0625,-400000.0625
156.11378860473633,-58771.140625,-45052.25,-65738.8828125,-400000.0625,-42177.62890625,-400000.0625,-400000.0625,-400000.0625
156.1309084892273,-58758.26953125,-45054.87109375,-65728.2421875,-400000.0625,-42176.921875,-400000.0625,-400000.0625,-400000.0625
156.14897298812866,-58737.4296875,-45059.44921875,-65704.5390625,-400000.0625,-42153.94140625,-400000.0625,-400000.0625,-400000.0625
156.16737604141235,-58727.4609375,-45018.25,-65702.296875,-400000.0625,-42145.640625,-400000.0625,-400000.0625,-400000.0625
156.18394589424133,-58740.671875,-45007.19140625,-65714.21875,-400000.0625,-42154.890625,-400000.0625,-400000.0625,-400000.0625
156.22062397003174,-58758.078125,-45043.23828125,-65734.78125,-400000.0625,-42169.33984375,-400000.0625,-400000.0625,-400000.0625
156.23510694503784,-58750.25,-45052.1015625,-65727.8125,-400000.0625,-42170.01171875,-400000.0625,-400000.0625,-400000.0625
156.25541877746582,-58733.421875,-45034.4609375,-65708.84375,-400000.0625,-42150.44921875,-400000.0625,-400000.0625,-400000.0625
156.27033591270447,-58724.55078125,-45023.640625,-65704.0234375,-400000.0625,-42151.171875,-400000.0625,-400000.0625,-400000.0625
156.28703141212463,-58744.2890625,-45053.05859375,-65733.7265625,-400000.0625,-42172.76953125,-400000.0625,-400000.0625,-400000.0625
156.3872001171112,-58775.9609375,-45103.4609375,-65748.890625,-400000.0625,-42175.73046875,-400000.0625,-400000.0625,-400000.0625
156.50144052505493,-58756.21875,-45071.98828125,-65730.671875,-400000.0625,-42179.921875,-400000.0625,-400000.0625,-400000.0625
156.54542469978333,-58780.05859375,-45101.890625,-65758.8984375,-400000.0625,-42194.1796875,-400000.0625,-400000.0625,-400000.0625
156.6169204711914,-58761.03125,-45054.5390625,-65743.7890625,-400000.0625,-42184.30859375,-400000.0625,-400000.0625,-400000.0625
156.6947958469391,-58789.359375,-45088.921875,-65770.6328125,-400000.0625,-42236.4296875,-400000.0625,-400000.0625,-400000.0625
156.75264954566956,-58775.76953125,-45083.23828125,-65767.8671875,-400000.0625,-42219.5,-400000.0625,-400000.0625,-400000.0625
156.80384063720703,-58823.69140625,-45220.08984375,-65809.0703125,-400000.0625,-42136.1484375,-400000.0625,-400000.0625,-400000.0625
156.89587330818176,-58910.5703125,-45388.890625,-65893.1328125,-400000.0625,-42089.66015625,-400000.0625,-400000.0625,-400000.0625
156.9500560760498,-58873.51953125,-45228.48828125,-65855.4609375,-400000.0625,-42200.62109375,-400000.0625,-400000.0625,-400000.0625
157.02513790130615,-58841.5703125,-45169.171875,-65805.96875,-400000.0625,-42219.98046875,-400000.0625,-400000.0625,-400000.0625
157.0635974407196,-58814.390625,-45118.53125,-65800.2890625,-400000.0625,-42216.828125,-400000.0625,-400000.0625,-400000.0625
157.13191175460815,-58797.03125,-45113.19140625,-65782.3203125,-400000.0625,-42225.41015625,-400000.0625,-400000.0625,-400000.0625
157.19963717460632,-58819.25,-45110.421875,-65789.28125,-400000.0625,-42242.62890625,-400000.0625,-400000.0625,-400000.0625
157.2530426979065,-58834.890625,-45112.7109375,-65793.859375,-400000.0625,-42246.87109375,-400000.0625,-400000.0625,-400000.0625
157.3141896724701,-58826.44921875,-45116.53125,-65785.8515625,-400000.0625,-42252.16015625,-400000.0625,-400000.0625,-400000.0625
157.3953127861023,-58818.44140625,-45126.48828125,-65774.3515625,-400000.0625,-42242.25,-400000.0625,-400000.0625,-400000.0625
157.4576027393341,-58809.4296875,-45100.30859375,-65778.9296875,-400000.0625,-42240.33984375,-400000.0625,-400000.0625,-400000.0625
157.51169061660767,-58838.23046875,-45095.78125,-65782.75,-400000.0625,-42260.6484375,-400000.0625,-400000.0625,-400000.0625
157.58936095237732,-58862.55078125,-45137.69921875,-65841.3984375,-400000.0625,-42292.55078125,-400000.0625,-400000.0625,-400000.0625
157.66815614700317,-58829.26953125,-45096.73828125,-65788.8515625,-400000.0625,-42254.2109375,-400000.0625,-400000.0625,-400000.0625
157.7751190662384,-58843.71875,-45125.921875,-65813.84375,-400000.0625,-42285.58984375,-400000.0625,-400000.0625,-400000.0625
157.838721036911,-58820.25,-45102.73828125,-65800.6328125,-400000.0625,-42268.8515625,-400000.0625,-400000.0625,-400000.0625
157.89880514144897,-58848.48046875,-45113.46875,-65819.609375,-400000.0625,-42282.30078125,-400000.0625,-400000.0625,-400000.0625
157.9527235031128,-58852.19921875,-45109.421875,-65848.5,-400000.0625,-42286.73046875,-400000.0625,-400000.0625,-400000.0625
158.01987385749817,-58828.890625,-45103.03125,-65829.0,-400000.0625,-42279.1484375,-400000.0625,-400000.0625,-400000.0625
158.08895111083984,-58815.76953125,-45090.73046875,-65810.8828125,-400000.0625,-42285.73046875,-400000.0625,-400000.0625,-400000.0625
158.1557092666626,-58819.3984375,-45099.359375,-65816.9765625,-400000.0625,-42286.01953125,-400000.0625,-400000.0625,-400000.0625
158.21399450302124,-58830.12890625,-45138.55859375,-65843.96875,-400000.0625,-42305.23828125,-400000.0625,-400000.0625,-400000.0625
158.35196805000305,-58818.48828125,-45109.46875,-65829.5234375,-400000.0625,-42289.87890625,-400000.0625,-400000.0625,-400000.0625
158.38680911064148,-58803.94921875,-45091.96875,-65819.03125,-400000.0625,-42285.16015625,-400000.0625,-400000.0625,-400000.0625
158.40200424194336,-58815.44140625,-45097.7890625,-65834.9609375,-400000.0625,-42310.1484375,-400000.0625,-400000.0625,-400000.0625
158.42339158058167,-58831.12890625,-45119.1015625,-65853.171875,-400000.0625,-42322.01953125,-400000.0625,-400000.0625,-400000.0625
158.43930172920227,-58839.0390625,-45125.8203125,-65847.6875,-400000.0625,-42313.91015625,-400000.0625,-400000.0625,-400000.0625
158.45578718185425,-58822.828125,-45111.7109375,-65833.046875,-400000.0625,-42302.94921875,-400000.0625,-400000.0625,-400000.0625
158.49071669578552,-58807.48046875,-45105.3203125,-65817.84375,-400000.0625,-42292.83984375,-400000.0625,-400000.0625,-400000.0625
158.5071086883545,-58813.76953125,-45115.5703125,-65824.09375,-400000.0625,-42301.98828125,-400000.0625,-400000.0625,-400000.0625
158.5258183479309,-58836.28125,-45133.9296875,-65841.15625,-400000.0625,-42324.69140625,-400000.0625,-400000.0625,-400000.0625
158.54758882522583,-58838.46875,-45123.109375,-65846.3984375,-400000.0625,-42312.578125,-400000.0625,-400000.0625,-400000.0625
158.56938219070435,-58814.76953125,-45099.9296875,-65827.953125,-400000.0625,-42276.23828125,-400000.0625,-400000.0625,-400000.0625
158.60869979858398,-58803.8515625,-45086.25,-65809.3515625,-400000.0625,-42288.12109375,-400000.0625,-400000.0625,-400000.0625
158.6342875957489,-58814.87109375,-45100.21875,-65833.2890625,-400000.0625,-42314.25,-400000.0625,-400000.0625,-400000.0625
158.6581768989563,-58840.328125,-45136.6015625,-65856.2734375,-400000.0625,-42323.5,-400000.0625,-400000.0625,-400000.0625
158.6864264011383,-58851.76953125,-45158.19921875,-65857.703125,-400000.0625,-42326.171875,-400000.0625,-400000.0625,-400000.0625
158.73508429527283,-58823.30859375,-45113.23828125,-65847.546875,-400000.0625,-42318.6796875,-400000.0625,-400000.0625,-400000.0625
158.75582933425903,-58803.80078125,-45104.21875,-65824.28125,-400000.0625,-42294.21875,-400000.0625,-400000.0625,-400000.0625
158.77385187149048,-58817.109375,-45114.328125,-65839.0078125,-400000.0625,-42302.7109375,-400000.0625,-400000.0625,-400000.0625
158.78647184371948,-58835.55859375,-45121.76953125,-65856.2265625,-400000.0625,-42326.359375,-400000.0625,-400000.0625,-400000.0625
158.85390257835388,-58985.80859375,-45435.19921875,-66003.328125,-400000.0625,-42194.3203125,-400000.0625,-400000.0625,-400000.0625
158.95491409301758,-58969.6015625,-45444.3515625,-65996.4609375,-400000.0625,-42203.9609375,-400000.0625,-400000.0625,-400000.0625
159.0564250946045,-58824.12109375,-45167.30859375,-65840.0625,-400000.0625,-42298.421875,-400000.0625,-400000.0625,-400000.0625
159.11229634284973,-58840.08984375,-45172.6484375,-65850.9296875,-400000.0625,-42339.4296875,-400000.0625,-400000.0625,-400000.0625
159.1958405971527,-58846.859375,-45178.8515625,-65877.7265625,-400000.0625,-42364.41015625,-400000.0625,-400000.0625,-400000.0625
159.2528920173645,-58857.96875,-45180.609375,-65873.390625,-400000.0625,-42377.76171875,-400000.0625,-400000.0625,-400000.0625
159.3614935874939,-58815.76953125,-45149.37890625,-65838.1484375,-400000.0625,-42365.37109375,-400000.0625,-400000.0625,-400000.0625
159.44658541679382,-58812.71875,-45128.3984375,-65837.6796875,-400000.0625,-42364.41015625,-400000.0625,-400000.0625,-400000.0625
159.50512838363647,-58835.80078125,-45141.609375,-65869.1015625,-400000.0625,-42366.1796875,-400000.0625,-400000.0625,-400000.0625
159.577702999115,-58848.578125,-45155.19921875,-65858.3203125,-400000.0625,-42383.71875,-400000.0625,-400000.0625,-400000.0625
159.6263086795807,-58829.41015625,-45115.08984375,-65830.8125,-400000.0625,-42349.76953125,-400000.0625,-400000.0625,-400000.0625
159.69132232666016,-58811.48046875,-45115.2890625,-65826.140625,-400000.0625,-42363.078125,-400000.0625,-400000.0625,-400000.0625
159.74759459495544,-58829.078125,-45123.48828125,-65833.1875,-400000.0625,-42386.48828125,-400000.0625,-400000.0625,-400000.0625
159.81407499313354,-58835.8515625,-45147.28125,-65857.9921875,-400000.0625,-42385.30078125,-400000.0625,-400000.0625,-400000.0625
159.87576842308044,-58858.3515625,-45139.41015625,-65855.609375,-400000.0625,-42396.5,-400000.0625,-400000.0625,-400000.0625
159.9434413909912,-58844.53125,-45113.46875,-65835.25,-400000.0625,-42391.9296875,-400000.0625,-400000.0625,-400000.0625
160.00577545166016,-58813.48046875,-45098.01953125,-65812.359375,-400000.0625,-42354.48828125,-400000.0625,-400000.0625,-400000.0625
160.0648970603943,-58814.76953125,-45106.26953125,-65816.1171875,-400000.0625,-42366.55859375,-400000.0625,-400000.0625,-400000.0625
160.13132166862488,-58838.46875,-45121.2890625,-65830.328125,-400000.0625,-42381.390625,-400000.0625,-400000.0625,-400000.0625
160.2348828315735,-58868.51171875,-45153.80859375,-65865.328125,-400000.0625,-42381.71875,-400000.0625,-400000.0625,-400000.0625
160.33796572685242,-58815.8203125,-45114.23828125,-65831.7578125,-400000.0625,-42360.6015625,-400000.0625,-400000.0625,-400000.0625
160.3977129459381,-58821.96875,-45130.828125,-65822.796875,-400000.0625,-42377.671875,-400000.0625,-400000.0625,-400000.0625
160.4604308605194,-58843.71875,-45138.3203125,-65873.8203125,-400000.0625,-42400.4609375,-400000.0625,-400000.0625,-400000.0625
160.51675629615784,-58850.25,-45139.7890625,-65864.953125,-400000.0625,-42406.8984375,-400000.0625,-400000.0625,-400000.0625
160.5888922214508,-58841.28125,-45128.87890625,-65840.8671875,-400000.0625,-42400.69921875,-400000.0625,-400000.0625,-400000.0625
160.66509556770325,-58819.828125,-45095.96875,-65811.59375,-400000.0625,-42383.76953125,-400000.0625,-400000.0625,-400000.0625
160.7146074771881,-58810.1015625,-45117.5703125,-65819.40625,-400000.0625,-42384.578125,-400000.0625,-400000.0625,-400000.0625
160.77656602859497,-58854.78125,-45135.69140625,-65851.03125,-400000.0625,-42417.76953125,-400000.0625,-400000.0625,-400000.0625
160.86566591262817,-58841.08984375,-45120.71875,-65863.1875,-400000.0625,-42429.01953125,-400000.0625,-400000.0625,-400000.0625
160.9009473323822,-58826.5,-45114.80859375,-65845.9296875,-400000.0625,-42409.8984375,-400000.0625,-400000.0625,-400000.0625
160.91697883605957,-58810.05078125,-45096.0703125,-65819.078125,-400000.0625,-42387.3984375,-400000.0625,-400000.0625,-400000.0625
160.93355774879456,-58814.9609375,-45109.66015625,-65832.1484375,-400000.0625,-42399.83984375,-400000.0625,-400000.0625,-400000.0625
160.95018339157104,-58834.75,-45130.828125,-65865.1015625,-400000.0625,-42412.80859375,-400000.0625,-400000.0625,-400000.0625
160.97010922431946,-58847.01171875,-45143.7109375,-65876.296875,-400000.0625,-42431.7890625,-400000.0625,-400000.0625,-400000.0625
161.0038468837738,-58829.03125,-45123.30078125,-65858.3203125,-400000.0625,-42414.48046875,-400000.0625,-400000.0625,-400000.0625
161.02264070510864,-58809.71875,-45107.98828125,-65828.65625,-400000.0625,-42375.8984375,-400000.0625,-400000.0625,-400000.0625
161.03941869735718,-58811.80859375,-45107.890625,-65826.7578125,-400000.0625,-42395.12109375,-400000.0625,-400000.0625,-400000.0625
161.0556457042694,-58842.140625,-45122.1015625,-65849.7421875,-400000.0625,-42424.640625,-400000.0625,-400000.0625,-400000.0625
161.0729365348816,-58850.71875,-45140.1796875,-65868.390625,-400000.0625,-42427.96875,-400000.0625,-400000.0625,-400000.0625
161.10951232910156,-58833.890625,-45143.46875,-65861.140625,-400000.0625,-42407.5703125,-400000.0625,-400000.0625,-400000.0625
161.13352823257446,-58812.48046875,-45111.8515625,-65835.203125,-400000.0625,-42391.78125,-400000.0625,-400000.0625,-400000.0625
161.14878225326538,-58813.87109375,-45094.69140625,-65830.2890625,-400000.0625,-42394.5,-400000.0625,-400000.0625,-400000.0625
161.16623520851135,-58837.66015625,-45117.71875,-65852.21875,-400000.0625,-42422.3515625,-400000.0625,-400000.0625,-400000.0625
161.18308782577515,-58851.33984375,-45122.1484375,-65865.4765625,-400000.0625,-42421.30078125,-400000.0625,-400000.0625,-400000.0625
161.21843838691711,-58829.73828125,-45106.98828125,-65848.3125,-400000.0625,-42402.21875,-400000.0625,-400000.0625,-400000.0625
161.23810744285583,-58815.6796875,-45095.26171875,-65826.609375,-400000.0625,-42393.87890625,-400000.0625,-400000.0625,-400000.0625
161.25367283821106,-58821.3984375,-45107.078125,-65836.8203125,-400000.0625,-42393.73828125,-400000.0625,-400000.0625,-400000.0625
161.26999354362488,-58841.80859375,-45121.33984375,-65864.5703125,-400000.0625,-42406.94921875,-400000.0625,-400000.0625,-400000.0625
161.2865161895752,-58852.8203125,-45137.359375,-65871.203125,-400000.0625,-42401.83984375,-400000.0625,-400000.0625,-400000.0625
161.35319900512695,-58840.0390625,-45168.359375,-65836.7734375,-400000.0625,-42353.2109375,-400000.0625,-400000.0625,-400000.0625
161.3810911178589,-58863.69140625,-45173.98046875,-65867.2890625,-400000.0625,-42387.5390625,-400000.0625,-400000.0625,-400000.0625
161.43599796295166,-58878.05078125,-45189.4296875,-65870.671875,-400000.0625,-42396.55078125,-400000.0625,-400000.0625,-400000.0625
161.54530239105225,-58863.9296875,-45196.25,-65846.640625,-400000.0625,-42368.4609375,-400000.0625,-400000.0625,-400000.0625
161.64654517173767,-58843.94921875,-45148.46875,-65833.390625,-400000.0625,-42349.33984375,-400000.0625,-400000.0625,-400000.0625
161.8151412010193,-58837.23046875,-45141.12890625,-65839.390625,-400000.0625,-42366.12890625,-400000.0625,-400000.0625,-400000.0625
161.87087726593018,-58857.26171875,-45163.58984375,-65854.5078125,-400000.0625,-42388.16015625,-400000.0625,-400000.0625,-400000.0625
161.90106058120728,-58874.46875,-45184.28125,-65867.9609375,-400000.0625,-42399.12890625,-400000.0625,-400000.0625,-400000.0625
161.92105221748352,-58860.01953125,-45178.28125,-65861.1875,-400000.0625,-42397.6015625,-400000.0625,-400000.0625,-400000.0625
161.96824669837952,-58837.08984375,-45151.48046875,-65844.0234375,-400000.0625,-42383.9609375,-400000.0625,-400000.0625,-400000.0625
161.99161195755005,-58839.66015625,-45145.46875,-65839.4375,-400000.0625,-42370.12890625,-400000.0625,-400000.0625,-400000.0625
162.04897570610046,-58856.109375,-45158.44140625,-65860.140625,-400000.0625,-42381.390625,-400000.0625,-400000.0625,-400000.0625
162.12861227989197,-58862.0703125,-45165.640625,-65869.578125,-400000.0625,-42401.37109375,-400000.0625,-400000.0625,-400000.0625
162.15908336639404,-58850.1484375,-45146.5703125,-65849.03125,-400000.0625,-42393.12109375,-400000.0625,-400000.0625,-400000.0625
162.2088222503662,-58829.03125,-45140.98828125,-65824.796875,-400000.0625,-42363.359375,-400000.0625,-400000.0625,-400000.0625
162.2377917766571,-58834.609375,-45146.51953125,-65824.09375,-400000.0625,-42359.26171875,-400000.0625,-400000.0625,-400000.0625
162.26860213279724,-58855.640625,-45149.7109375,-65852.2734375,-400000.0625,-42392.3515625,-400000.0625,-400000.0625,-400000.0625
162.31469202041626,-58859.78125,-45148.8984375,-65864.8125,-400000.0625,-42404.98828125,-400000.0625,-400000.0625,-400000.0625
162.3407759666443,-58847.53125,-45158.44140625,-65845.9296875,-400000.0625,-42390.2109375,-400000.0625,-400000.0625,-400000.0625
162.3643946647644,-58829.9296875,-45137.12109375,-65824.46875,-400000.0625,-42365.83984375,-400000.0625,-400000.0625,-400000.0625
162.38583135604858,-58828.30859375,-45129.828125,-65820.5078125,-400000.0625,-42369.51171875,-400000.0625,-400000.0625,-400000.0625
162.43117308616638,-58840.19140625,-45118.9609375,-65847.2109375,-400000.0625,-42393.78125,-400000.0625,-400000.0625,-400000.0625
162.45813179016113,-58859.44921875,-45135.21875,-65864.1875,-400000.0625,-42394.5,-400000.0625,-400000.0625,-400000.0625
162.48923349380493,-58848.25,-45140.98828125,-65847.453125,-400000.0625,-42380.1015625,-400000.0625,-400000.0625,-400000.0625
162.55338788032532,-58822.0703125,-45124.578125,-65820.796875,-400000.0625,-42389.109375,-400000.0625,-400000.0625,-400000.0625
162.6083643436432,-58811.80859375,-45115.37890625,-65817.6484375,-400000.0625,-42386.01171875,-400000.0625,-400000.0625,-400000.0625
162.66121554374695,-58837.51953125,-45137.3203125,-65837.53125,-400000.0625,-42396.41015625,-400000.0625,-400000.0625,-400000.0625
162.72895860671997,-58857.0703125,-45157.62890625,-65855.5625,-400000.0625,-42405.12890625,-400000.0625,-400000.0625,-400000.0625
162.8069109916687,-58843.80859375,-45161.87109375,-65844.78125,-400000.0625,-42394.7890625,-400000.0625,-400000.0625,-400000.0625
162.83962035179138,-58823.828125,-45122.19921875,-65823.5234375,-400000.0625,-42377.91015625,-400000.0625,-400000.0625,-400000.0625
162.89127039909363,-58819.16015625,-45106.3203125,-65825.65625,-400000.0625,-42375.19140625,-400000.0625,-400000.0625,-400000.0625
162.91494131088257,-58835.3203125,-45124.19921875,-65849.1171875,-400000.0625,-42400.41015625,-400000.0625,-400000.0625,-400000.0625
162.99882125854492,-58850.921875,-45127.30078125,-65848.7890625,-400000.0625,-42404.8515625,-400000.0625,-400000.0625,-400000.0625
163.08562874794006,-58833.98828125,-45127.3984375,-65834.203125,-400000.0625,-42383.62890625,-400000.0625,-400000.0625,-400000.0625
163.12110257148743,-58810.33984375,-45116.0,-65815.359375,-400000.0625,-42361.21875,-400000.0625,-400000.0625,-400000.0625
163.1911334991455,-58808.2890625,-45099.44921875,-65818.2734375,-400000.0625,-42381.1015625,-400000.0625,-400000.0625,-400000.0625
163.22744846343994,-58830.890625,-45122.05859375,-65841.0625,-400000.0625,-42383.62890625,-400000.0625,-400000.0625,-400000.0625
163.31440949440002,-58846.671875,-45133.7890625,-65852.03125,-400000.0625,-42395.69140625,-400000.0625,-400000.0625,-400000.0625
163.35557866096497,-58839.609375,-45114.23828125,-65846.546875,-400000.0625,-42398.03125,-400000.0625,-400000.0625,-400000.0625
163.40504217147827,-58824.3984375,-45106.37109375,-65827.5234375,-400000.0625,-42383.1484375,-400000.0625,-400000.0625,-400000.0625
163.43113255500793,-58824.359375,-45095.9296875,-65811.0234375,-400000.0625,-42380.4296875,-400000.0625,-400000.0625,-400000.0625
163.46128296852112,-58844.328125,-45115.37890625,-65827.46875,-400000.0625,-42389.16015625,-400000.0625,-400000.0625,-400000.0625
163.5095100402832,-58855.01953125,-45135.359375,-65861.8125,-400000.0625,-42405.66015625,-400000.0625,-400000.0625,-400000.0625
163.5416398048401,-58844.91015625,-45144.46875,-65853.171875,-400000.0625,-42399.94140625,-400000.0625,-400000.0625,-400000.0625
163.57217645645142,-58824.9296875,-45110.51953125,-65822.5625,-400000.0625,-42381.62890625,-400000.0625,-400000.0625,-400000.0625
163.6208095550537,-58810.33984375,-45100.5,-65813.3125,-400000.0625,-42375.05078125,-400000.0625,-400000.0625,-400000.0625
163.6512062549591,-58833.1796875,-45124.25,-65840.59375,-400000.0625,-42393.78125,-400000.0625,-400000.0625,-400000.0625
163.67690920829773,-58855.58984375,-45126.48828125,-65866.9609375,-400000.0625,-42409.7109375,-400000.0625,-400000.0625,-400000.0625
163.71784734725952,-58847.91015625,-45114.94921875,-65856.1796875,-400000.0625,-42393.16015625,-400000.0625,-400000.0625,-400000.0625
163.74160766601562,-58827.98046875,-45095.5390625,-65823.609375,-400000.0625,-42357.828125,-400000.0625,-400000.0625,-400000.0625
163.77134680747986,-58828.41015625,-45109.421875,-65821.4609375,-400000.0625,-42388.5390625,-400000.0625,-400000.0625,-400000.0625
163.79686331748962,-58849.8203125,-45117.1484375,-65839.109375,-400000.0625,-42409.62109375,-400000.0625,-400000.0625,-400000.0625
163.84566497802734,-58866.83984375,-45127.25,-65851.7421875,-400000.0625,-42410.80859375,-400000.0625,-400000.0625,-400000.0625
163.87309908866882,-58854.78125,-45124.01171875,-65845.78125,-400000.0625,-42396.83984375,-400000.0625,-400000.0625,-400000.0625
163.89657616615295,-58829.73828125,-45108.94140625,-65824.2265625,-400000.0625,-42376.140625,-400000.0625,-400000.0625,-400000.0625
163.9209794998169,-58822.01953125,-45091.44140625,-65809.59375,-400000.0625,-42385.30078125,-400000.0625,-400000.0625,-400000.0625
163.96884155273438,-58842.94921875,-45116.140625,-65835.71875,-400000.0625,-42402.1796875,-400000.0625,-400000.0625,-400000.0625
163.99435758590698,-58853.25,-45122.19921875,-65848.2578125,-400000.0625,-42405.46875,-400000.0625,-400000.0625,-400000.0625
164.02078986167908,-58845.33984375,-45099.12109375,-65838.0625,-400000.0625,-42391.3984375,-400000.0625,-400000.0625,-400000.0625
164.05029129981995,-58831.6015625,-45080.2890625,-65815.890625,-400000.0625,-42369.80078125,-400000.0625,-400000.0625,-400000.0625
164.10486912727356,-58823.12109375,-45084.2890625,-65814.6015625,-400000.0625,-42356.44921875,-400000.0625,-400000.0625,-400000.0625
164.12926745414734,-58846.33984375,-45106.8515625,-65839.8203125,-400000.0625,-42401.94140625,-400000.0625,-400000.0625,-400000.0625
164.15876007080078,-58866.6015625,-45130.828125,-65857.46875,-400000.0625,-42419.05859375,-400000.0625,-400000.0625,-400000.0625
164.21537518501282,-58853.8203125,-45109.1796875,-65842.921875,-400000.0625,-42397.98046875,-400000.0625,-400000.0625,-400000.0625
164.23480796813965,-58829.9296875,-45077.66015625,-65819.21875,-400000.0625,-42375.37890625,-400000.0625,-400000.0625,-400000.0625
164.25623989105225,-58825.6015625,-45075.46875,-65817.890625,-400000.0625,-42379.19140625,-400000.0625,-400000.0625,-400000.0625
164.2753746509552,-58849.76953125,-45104.55859375,-65835.671875,-400000.0625,-42394.2109375,-400000.0625,-400000.0625,-400000.0625
164.32083559036255,-58862.83984375,-45140.078125,-65849.03125,-400000.0625,-42406.37109375,-400000.0625,-400000.0625,-400000.0625
164.34093642234802,-58850.76953125,-45121.25,-65838.25,-400000.0625,-42403.75,-400000.0625,-400000.0625,-400000.0625
164.3664047718048,-58827.21875,-45077.7109375,-65817.078125,-400000.0625,-42375.37890625,-400000.0625,-400000.0625,-400000.0625
164.38738870620728,-58826.640625,-45073.75,-65818.6015625,-400000.0625,-42376.08984375,-400000.0625,-400000.0625,-400000.0625
164.42383813858032,-58848.48046875,-45105.41015625,-65842.15625,-400000.0625,-42405.609375,-400000.0625,-400000.0625,-400000.0625
164.44258308410645,-58862.26171875,-45130.58984375,-65855.609375,-400000.0625,-42400.37109375,-400000.0625,-400000.0625,-400000.0625
164.4646065235138,-58856.69140625,-45112.5703125,-65844.109375,-400000.0625,-42394.12109375,-400000.0625,-400000.0625,-400000.0625
164.48583245277405,-58832.21875,-45085.1484375,-65824.5234375,-400000.0625,-42399.03125,-400000.0625,-400000.0625,-400000.0625
164.50569558143616,-58829.73828125,-45090.19921875,-65816.5078125,-400000.0625,-42376.19140625,-400000.0625,-400000.0625,-400000.0625
164.5484299659729,-58848.33984375,-45119.33984375,-65841.0625,-400000.0625,-42395.30859375,-400000.0625,-400000.0625,-400000.0625
164.56991171836853,-58865.03125,-45118.1015625,-65862.140625,-400000.0625,-42413.23828125,-400000.0625,-400000.0625,-400000.0625
164.5876247882843,-58850.578125,-45126.16015625,-65848.3125,-400000.0625,-42401.55859375,-400000.0625,-400000.0625,-400000.0625
164.60853815078735,-58821.73046875,-45120.9609375,-65824.5234375,-400000.0625,-42380.859375,-400000.0625,-400000.0625,-400000.0625
164.65106105804443,-58818.6796875,-45100.5,-65823.46875,-400000.0625,-42383.44140625,-400000.0625,-400000.0625,-400000.0625
164.67470955848694,-58836.55859375,-45103.98046875,-65845.3515625,-400000.0625,-42402.421875,-400000.0625,-400000.0625,-400000.0625
164.69627451896667,-58854.87109375,-45126.96875,-65857.421875,-400000.0625,-42412.140625,-400000.0625,-400000.0625,-400000.0625
164.7153742313385,-58847.9609375,-45115.328125,-65842.96875,-400000.0625,-42398.6015625,-400000.0625,-400000.0625,-400000.0625
164.7601079940796,-58821.26171875,-45083.9609375,-65820.078125,-400000.0625,-42379.2890625,-400000.0625,-400000.0625,-400000.0625
164.78685426712036,-58816.01171875,-45081.94921875,-65819.5078125,-400000.0625,-42366.078125,-400000.0625,-400000.0625,-400000.0625
164.81339979171753,-58839.28125,-45108.46875,-65843.0703125,-400000.0625,-42402.078125,-400000.0625,-400000.0625,-400000.0625
164.83922815322876,-58853.58984375,-45125.109375,-65865.953125,-400000.0625,-42413.1015625,-400000.0625,-400000.0625,-400000.0625
164.8858518600464,-58846.80859375,-45124.48828125,-65850.6875,-400000.0625,-42402.75,-400000.0625,-400000.0625,-400000.0625
164.91217017173767,-58830.12890625,-45107.3203125,-65812.546875,-400000.0625,-42381.53125,-400000.0625,-400000.0625,-400000.0625
164.95672607421875,-58824.30859375,-45095.5,-65814.359375,-400000.0625,-42382.2890625,-400000.0625,-400000.0625,-400000.0625
165.0267231464386,-58843.48046875,-45117.1484375,-65841.5390625,-400000.0625,-42395.69140625,-400000.0625,-400000.0625,-400000.0625
165.05170154571533,-58859.9296875,-45149.7109375,-65854.5625,-400000.0625,-42401.69921875,-400000.0625,-400000.0625,-400000.0625
165.07970929145813,-58852.76953125,-45112.5703125,-65853.40625,-400000.0625,-42405.75,-400000.0625,-400000.0625,-400000.0625
165.123384475708,-58823.78125,-45078.37890625,-65836.25,-400000.0625,-42385.30078125,-400000.0625,-400000.0625,-400000.0625
165.16359972953796,-58814.578125,-45082.671875,-65826.953125,-400000.0625,-42374.0,-400000.0625,-400000.0625,-400000.0625
165.21568417549133,-58833.421875,-45108.37109375,-65838.7734375,-400000.0625,-42389.48828125,-400000.0625,-400000.0625,-400000.0625
165.27573251724243,-58852.05859375,-45118.71875,-65854.40625,-400000.0625,-42398.6015625,-400000.0625,-400000.0625,-400000.0625
165.30206108093262,-58846.80859375,-45106.23046875,-65848.40625,-400000.0625,-42406.8515625,-400000.0625,-400000.0625,-400000.0625
165.3463840484619,-58829.03125,-45097.12109375,-65831.1015625,-400000.0625,-42396.21875,-400000.0625,-400000.0625,-400000.0625
165.4060435295105,-58821.78125,-45105.03125,-65819.5625,-400000.0625,-42380.859375,-400000.0625,-400000.0625,-400000.0625
165.45678734779358,-58840.46875,-45120.578125,-65831.9609375,-400000.0625,-42386.390625,-400000.0625,-400000.0625,-400000.0625
165.51713752746582,-58856.69140625,-45116.37890625,-65850.5,-400000.0625,-42406.8515625,-400000.0625,-400000.0625,-400000.0625
165.552649974823,-58842.48046875,-45121.9609375,-65851.4609375,-400000.0625,-42416.05078125,-400000.0625,-400000.0625,-400000.0625
165.5817105770111,-58816.5390625,-45096.0703125,-65833.4765625,-400000.0625,-42384.8203125,-400000.0625,-400000.0625,-400000.0625
165.6304132938385,-58813.91015625,-45086.53125,-65831.2421875,-400000.0625,-42373.328125,-400000.0625,-400000.0625,-400000.0625
165.6607780456543,-58838.1796875,-45117.23828125,-65850.7890625,-400000.0625,-42389.828125,-400000.0625,-400000.0625,-400000.0625
165.68860340118408,-58850.578125,-45140.21875,-65855.3203125,-400000.0625,-42406.0390625,-400000.0625,-400000.0625,-400000.0625
165.7386794090271,-58853.48828125,-45123.01171875,-65856.421875,-400000.0625,-42401.51171875,-400000.0625,-400000.0625,-400000.0625
165.76481437683105,-58835.69921875,-45124.01171875,-65835.671875,-400000.0625,-42376.859375,-400000.0625,-400000.0625,-400000.0625
165.78817987442017,-58824.359375,-45125.05859375,-65842.3984375,-400000.0625,-42367.4609375,-400000.0625,-400000.0625,-400000.0625
165.8108675479889,-58845.859375,-45143.98828125,-65859.2265625,-400000.0625,-42381.19921875,-400000.0625,-400000.0625,-400000.0625
165.86261701583862,-58870.37109375,-45170.171875,-65878.4921875,-400000.0625,-42387.58984375,-400000.0625,-400000.0625,-400000.0625
165.88547468185425,-58865.6015625,-45181.46875,-65873.7265625,-400000.0625,-42374.28125,-400000.0625,-400000.0625,-400000.0625
165.9075608253479,-58832.69921875,-45184.80859375,-65851.40625,-400000.0625,-42341.140625,-400000.0625,-400000.0625,-400000.0625
165.93271684646606,-58837.37109375,-45197.921875,-65865.4765625,-400000.0625,-42334.3203125,-400000.0625,-400000.0625,-400000.0625
165.97503852844238,-58881.578125,-45235.30859375,-65895.5703125,-400000.0625,-42355.78125,-400000.0625,-400000.0625,-400000.0625
166.0009515285492,-58914.140625,-45244.55859375,-65914.6875,-400000.0625,-42356.30859375,-400000.0625,-400000.0625,-400000.0625
166.0312361717224,-58906.66015625,-45259.0,-65908.0625,-400000.0625,-42326.0703125,-400000.0625,-400000.0625,-400000.0625
166.05388283729553,-58887.87109375,-45278.41015625,-65899.0,-400000.0625,-42289.12109375,-400000.0625,-400000.0625,-400000.0625
166.09797167778015,-58903.55859375,-45306.96875,-65913.4921875,-400000.0625,-42275.05078125,-400000.0625,-400000.0625,-400000.0625
166.12584280967712,-58933.41015625,-45346.69140625,-65947.640625,-400000.0625,-42275.2890625,-400000.0625,-400000.0625,-400000.0625
166.15577816963196,-58958.62890625,-45401.1015625,-65977.34375,-400000.0625,-42277.91015625,-400000.0625,-400000.0625,-400000.0625
166.2002158164978,-58964.96875,-45422.55859375,-65981.15625,-400000.0625,-42256.21875,-400000.0625,-400000.0625,-400000.0625
166.23214626312256,-58955.2890625,-45427.23046875,-65958.4609375,-400000.0625,-42217.828125,-400000.0625,-400000.0625,-400000.0625
