time,ch1,ch2,ch3,ch4,ch5,ch6,ch7,ch8
0.06622648239135742,-64891.19921875,-50791.21875,-73022.7578125,-400000.0625,-47046.51953125,-400000.0625,-400000.0625,-400000.0625
0.06650996208190918,-64909.078125,-50809.76953125,-73044.59375,-400000.0625,-47061.87890625,-400000.0625,-400000.0625,-400000.0625
0.06655263900756836,-64906.80078125,-50800.94921875,-73041.3984375,-400000.0625,-47054.390625,-400000.0625,-400000.0625,-400000.0625
0.06658458709716797,-64881.23828125,-50780.3515625,-73014.359375,-400000.0625,-47042.5703125,-400000.0625,-400000.0625,-400000.0625
0.06661200523376465,-64872.94140625,-50765.51953125,-72997.4375,-400000.0625,-47032.9296875,-400000.0625,-400000.0625,-400000.0625
0.06662678718566895,-64887.87109375,-50781.828125,-73010.2578125,-400000.0625,-47045.08984375,-400000.0625,-400000.0625,-400000.0625
0.06664037704467773,-64905.83984375,-50814.44140625,-73038.4921875,-400000.0625,-47064.828125,-400000.0625,-400000.0625,-400000.0625
0.06665349006652832,-64904.7890625,-50801.76171875,-73034.1015625,-400000.0625,-47059.828125,-400000.0625,-400000.0625,-400000.0625
0.06667447090148926,-64887.578125,-50774.2890625,-73007.3515625,-400000.0625,-47023.3515625,-400000.0625,-400000.0625,-400000.0625
0.06668353080749512,-64881.140625,-50765.19140625,-72997.53125,-400000.0625,-47028.30859375,-400000.0625,-400000.0625,-400000.0625
0.06669163703918457,-64889.9609375,-50781.30078125,-73016.703125,-400000.0625,-47052.9609375,-400000.0625,-400000.0625,-400000.0625
0.06670427322387695,-64908.23046875,-50794.55859375,-73035.6328125,-400000.0625,-47061.30859375,-400000.0625,-400000.0625,-400000.0625
0.0667121410369873,-64905.26953125,-50792.41015625,-73030.34375,-400000.0625,-47053.05859375,-400000.0625,-400000.0625,-400000.0625
0.06671929359436035,-64881.51953125,-50777.16015625,-73008.3125,-400000.0625,-47033.69921875,-400000.0625,-400000.0625,-400000.0625
0.0667264461517334,-64876.37109375,-50758.80078125,-72994.6171875,-400000.0625,-47023.58984375,-400000.0625,-400000.0625,-400000.0625
0.06673336029052734,-64886.390625,-50789.30859375,-73019.1796875,-400000.0625,-47040.37109375,-400000.0625,-400000.0625,-400000.0625
0.14009904861450195,-64904.6015625,-50803.94921875,-73039.5390625,-400000.0625,-47057.109375,-400000.0625,-400000.0625,-400000.0625
0.1403191089630127,-64903.69921875,-50794.421875,-73037.6796875,-400000.0625,-47053.62890625,-400000.0625,-400000.0625,-400000.0625
0.14034628868103027,-64877.23046875,-50789.30859375,-73025.28125,-400000.0625,-47040.609375,-400000.0625,-400000.0625,-400000.0625
0.1403641700744629,-64875.3203125,-50799.46875,-73032.34375,-400000.0625,-47045.4296875,-400000.0625,-400000.0625,-400000.0625
0.1403799057006836,-64903.6484375,-50804.94921875,-73021.1796875,-400000.0625,-47056.5390625,-400000.0625,-400000.0625,-400000.0625
0.15991783142089844,-64926.16015625,-50798.7109375,-73010.40625,-400000.0625,-47049.19140625,-400000.0625,-400000.0625,-400000.0625
0.1600484848022461,-64933.44921875,-50796.08984375,-73013.171875,-400000.0625,-47044.80859375,-400000.0625,-400000.0625,-400000.0625
0.1600806713104248,-64930.78125,-50785.98046875,-72989.5234375,-400000.0625,-47032.21875,-400000.0625,-400000.0625,-400000.0625
0.160111665725708,-64936.171875,-50775.87109375,-72968.78125,-400000.0625,-47019.44140625,-400000.0625,-400000.0625,-400000.0625
0.16013836860656738,-64970.9296875,-50791.12890625,-72974.546875,-400000.0625,-47025.30078125,-400000.0625,-400000.0625,-400000.0625
0.16014814376831055,-65006.12109375,-50814.01171875,-72982.6484375,-400000.0625,-47040.51953125,-400000.0625,-400000.0625,-400000.0625
0.1601564884185791,-65018.7109375,-50808.9609375,-72963.0625,-400000.0625,-47030.83984375,-400000.0625,-400000.0625,-400000.0625
0.16016435623168945,-65010.83984375,-50795.12890625,-72935.4921875,-400000.0625,-47016.91015625,-400000.0625,-400000.0625,-400000.0625
0.1601724624633789,-65010.83984375,-50783.73828125,-72905.6875,-400000.0625,-47004.1796875,-400000.0625,-400000.0625,-400000.0625
0.16018009185791016,-65040.41015625,-50789.98046875,-72917.796875,-400000.0625,-47013.23828125,-400000.0625,-400000.0625,-400000.0625
0.1601877212524414,-65070.3515625,-50801.66015625,-72940.453125,-400000.0625,-47031.9296875,-400000.0625,-400000.0625,-400000.0625
0.235490083694458,-65079.21875,-50802.08984375,-72923.4765625,-400000.0625,-47025.16015625,-400000.0625,-400000.0625,-400000.0625
0.2357935905456543,-65059.05078125,-50784.640625,-72895.6328125,-400000.0625,-47002.75,-400000.0625,-400000.0625,-400000.0625
0.23583006858825684,-65040.9296875,-50773.01171875,-72887.5234375,-400000.0625,-46992.359375,-400000.0625,-400000.0625,-400000.0625
0.23586773872375488,-65057.328125,-50783.2109375,-72905.1171875,-400000.0625,-47011.51953125,-400000.0625,-400000.0625,-400000.0625
0.23591041564941406,-65071.109375,-50804.62109375,-72924.34375,-400000.0625,-47030.7890625,-400000.0625,-400000.0625,-400000.0625
0.23596668243408203,-65064.390625,-50804.5703125,-72914.46875,-400000.0625,-47025.44921875,-400000.0625,-400000.0625,-400000.0625
0.23604345321655273,-65048.4609375,-50789.69921875,-72889.046875,-400000.0625,-47000.12890625,-400000.0625,-400000.0625,-400000.0625
0.2362222671508789,-65040.0703125,-50775.390625,-72879.796875,-400000.0625,-46993.12109375,-400000.0625,-400000.0625,-400000.0625
0.2363872528076172,-65057.37890625,-50785.12109375,-72895.9609375,-400000.0625,-47012.76171875,-400000.0625,-400000.0625,-400000.0625
0.23647594451904297,-65075.73828125,-50796.75,-72910.703125,-400000.0625,-47032.5,-400000.0625,-400000.0625,-400000.0625
0.23654699325561523,-65070.828125,-50791.6015625,-72911.890625,-400000.0625,-47024.01953125,-400000.0625,-400000.0625,-400000.0625
0.23663783073425293,-65047.078125,-50781.0703125,-72894.4921875,-400000.0625,-47001.1796875,-400000.0625,-400000.0625,-400000.0625
0.23670339584350586,-65040.41015625,-50777.78125,-72880.09375,-400000.0625,-46989.96875,-400000.0625,-400000.0625,-400000.0625
0.23673558235168457,-65050.421875,-50782.5,-72891.71875,-400000.0625,-46998.51171875,-400000.0625,-400000.0625,-400000.0625
0.2368006706237793,-65074.44921875,-50800.5703125,-72913.078125,-400000.0625,-47020.76953125,-400000.0625,-400000.0625,-400000.0625
0.2368326187133789,-65069.30078125,-50802.19140625,-72912.9921875,-400000.0625,-47017.87109375,-400000.0625,-400000.0625,-400000.0625
0.25876617431640625,-65044.69921875,-50782.640625,-72890.6171875,-400000.0625,-46981.48046875,-400000.0625,-400000.0625,-400000.0625
0.26264500617980957,-65033.87109375,-50774.390625,-72873.546875,-400000.0625,-46985.6796875,-400000.0625,-400000.0625,-400000.0625
0.2626762390136719,-65048.94140625,-50791.6484375,-72888.046875,-400000.0625,-47019.33984375,-400000.0625,-400000.0625,-400000.0625
0.2626974582672119,-65066.73046875,-50807.859375,-72914.2265625,-400000.0625,-47029.73828125,-400000.0625,-400000.0625,-400000.0625
0.26271772384643555,-65068.8203125,-50816.3515625,-72912.5078125,-400000.0625,-47021.25,-400000.0625,-400000.0625,-400000.0625
0.2627444267272949,-65045.171875,-50796.55859375,-72892.90625,-400000.0625,-46998.94140625,-400000.0625,-400000.0625,-400000.0625
0.26276540756225586,-65036.3984375,-50784.55078125,-72879.0390625,-400000.0625,-46989.16015625,-400000.0625,-400000.0625,-400000.0625
0.2627854347229004,-65052.609375,-50806.76953125,-72888.90625,-400000.0625,-46995.6484375,-400000.0625,-400000.0625,-400000.0625
0.2628052234649658,-65074.58984375,-50832.80078125,-72914.078125,-400000.0625,-47008.80859375,-400000.0625,-400000.0625,-400000.0625
0.26282477378845215,-65076.69140625,-50849.01171875,-72913.2734375,-400000.0625,-46998.69921875,-400000.0625,-400000.0625,-400000.0625
0.2628450393676758,-65058.76171875,-50865.12890625,-72903.2578125,-400000.0625,-46977.5703125,-400000.0625,-400000.0625,-400000.0625
0.2628650665283203,-65059.62109375,-50859.6015625,-72897.7265625,-400000.0625,-46962.12109375,-400000.0625,-400000.0625,-400000.0625
0.26288485527038574,-65083.69921875,-50883.6796875,-72923.6171875,-400000.0625,-46954.3515625,-400000.0625,-400000.0625,-400000.0625
0.26290392875671387,-65131.578125,-50931.83984375,-72948.0390625,-400000.0625,-46962.171875,-400000.0625,-400000.0625,-400000.0625
0.2629225254058838,-65162.05078125,-50967.171875,-72947.421875,-400000.0625,-46950.87109375,-400000.0625,-400000.0625,-400000.0625
0.2629430294036865,-65151.12890625,-50970.1796875,-72927.203125,-400000.0625,-46922.87890625,-400000.0625,-400000.0625,-400000.0625
0.3359086513519287,-65142.58984375,-50973.28125,-72927.2890625,-400000.0625,-46902.5703125,-400000.0625,-400000.0625,-400000.0625
0.38248634338378906,-65171.6796875,-51012.37890625,-72955.7109375,-400000.0625,-46917.25,-400000.0625,-400000.0625,-400000.0625
0.42434096336364746,-65194.66015625,-51039.421875,-72970.4921875,-400000.0625,-46927.890625,-400000.0625,-400000.0625,-400000.0625
0.4413447380065918,-65193.328125,-51037.6484375,-72981.21875,-400000.0625,-46925.98046875,-400000.0625,-400000.0625,-400000.0625
0.4622035026550293,-65181.44921875,-51014.19140625,-72956.046875,-400000.0625,-46909.859375,-400000.0625,-400000.0625,-400000.0625
0.47507214546203613,-65176.26171875,-50999.26953125,-72933.3984375,-400000.0625,-46898.80078125,-400000.0625,-400000.0625,-400000.0625
0.4908440113067627,-65189.421875,-51006.80078125,-72941.9765625,-400000.0625,-46916.25,-400000.0625,-400000.0625,-400000.0625
0.5343978404998779,-65199.76171875,-51018.05078125,-72959.7734375,-400000.0625,-46938.28125,-400000.0625,-400000.0625,-400000.0625
0.5536370277404785,-65189.1796875,-51004.23046875,-72960.0,-400000.0625,-46938.28125,-400000.0625,-400000.0625,-400000.0625
0.5681257247924805,-65158.1796875,-50977.80859375,-72935.5390625,-400000.0625,-46925.83984375,-400000.0625,-400000.0625,-400000.0625
0.5881137847900391,-65151.171875,-50956.30078125,-72919.7109375,-400000.0625,-46925.7890625,-400000.0625,-400000.0625,-400000.0625
0.6032464504241943,-65160.94921875,-50952.390625,-72925.390625,-400000.0625,-46941.4296875,-400000.0625,-400000.0625,-400000.0625
0.6414461135864258,-65173.62890625,-50962.0703125,-72942.359375,-400000.0625,-46960.44921875,-400000.0625,-400000.0625,-400000.0625
0.6580934524536133,-65170.25,-50966.359375,-72945.9375,-400000.0625,-46965.6484375,-400000.0625,-400000.0625,-400000.0625
0.6774976253509521,-65149.51171875,-50938.66015625,-72917.65625,-400000.0625,-46948.6796875,-400000.0625,-400000.0625,-400000.0625
0.6915740966796875,-65137.6796875,-50917.5390625,-72897.6796875,-400000.0625,-46939.5703125,-400000.0625,-400000.0625,-400000.0625
0.7068884372711182,-65151.98828125,-50930.55078125,-72914.9375,-400000.0625,-46957.01953125,-400000.0625,-400000.0625,-400000.0625
0.7496201992034912,-65169.390625,-50941.80859375,-72931.8671875,-400000.0625,-46975.37890625,-400000.0625,-400000.0625,-400000.0625
0.7724266052246094,-65161.08984375,-50920.58984375,-72928.203125,-400000.0625,-46974.62109375,-400000.0625,-400000.0625,-400000.0625
0.7902247905731201,-65138.44140625,-50908.62109375,-72922.046875,-400000.0625,-46960.0703125,-400000.0625,-400000.0625,-400000.0625
0.8111865520477295,-65124.94921875,-50904.23046875,-72903.546875,-400000.0625,-46943.1484375,-400000.0625,-400000.0625,-400000.0625
0.856623649597168,-65134.8203125,-50916.62890625,-72915.609375,-400000.0625,-46958.30859375,-400000.0625,-400000.0625,-400000.0625
0.8744335174560547,-65156.08984375,-50929.7890625,-72943.4609375,-400000.0625,-46981.91015625,-400000.0625,-400000.0625,-400000.0625
0.8956763744354248,-65152.4609375,-50917.921875,-72933.8671875,-400000.0625,-46979.23828125,-400000.0625,-400000.0625,-400000.0625
0.9113037586212158,-65128.19140625,-50895.83984375,-72905.6875,-400000.0625,-46962.359375,-400000.0625,-400000.0625,-400000.0625
0.9494836330413818,-65115.75,-50883.87109375,-72894.8671875,-400000.0625,-46950.390625,-400000.0625,-400000.0625,-400000.0625
0.9674837589263916,-65130.91015625,-50882.921875,-72903.828125,-400000.0625,-46959.98046875,-400000.0625,-400000.0625,-400000.0625
0.9840803146362305,-65150.6015625,-50904.1796875,-72924.7734375,-400000.0625,-46978.76953125,-400000.0625,-400000.0625,-400000.0625
1.0002222061157227,-65144.98046875,-50909.0,-72924.9609375,-400000.0625,-46982.1484375,-400000.0625,-400000.0625,-400000.0625
1.0225920677185059,-65120.37109375,-50888.3515625,-72902.3984375,-400000.0625,-46960.87890625,-400000.0625,-400000.0625,-400000.0625
1.0537307262420654,-65109.73828125,-50880.71875,-72888.71875,-400000.0625,-46952.30078125,-400000.0625,-400000.0625,-400000.0625
1.0716993808746338,-65124.609375,-50889.2109375,-72902.7421875,-400000.0625,-46966.83984375,-400000.0625,-400000.0625,-400000.0625
1.0894834995269775,-65144.7890625,-50905.80859375,-72926.859375,-400000.0625,-46983.44140625,-400000.0625,-400000.0625,-400000.0625
1.105719804763794,-65142.30859375,-50911.62109375,-72926.671875,-400000.0625,-46980.2890625,-400000.0625,-400000.0625,-400000.0625
1.1274757385253906,-65121.51953125,-50888.3984375,-72895.6328125,-400000.0625,-46961.6015625,-400000.0625,-400000.0625,-400000.0625
1.1616392135620117,-65102.5390625,-50874.80859375,-72878.5625,-400000.0625,-46952.2109375,-400000.0625,-400000.0625,-400000.0625
1.1816821098327637,-65109.9296875,-50884.2109375,-72900.453125,-400000.0625,-46966.609375,-400000.0625,-400000.0625,-400000.0625
1.199756383895874,-65133.2890625,-50886.921875,-72910.171875,-400000.0625,-46981.76953125,-400000.0625,-400000.0625,-400000.0625
1.221435546875,-65131.62109375,-50891.171875,-72908.359375,-400000.0625,-46978.2890625,-400000.0625,-400000.0625,-400000.0625
1.236691951751709,-65107.87890625,-50874.76171875,-72889.2421875,-400000.0625,-46960.03125,-400000.0625,-400000.0625,-400000.0625
1.2712581157684326,-65091.28125,-50861.41015625,-72880.75,-400000.0625,-46951.16015625,-400000.0625,-400000.0625,-400000.0625
1.2874071598052979,-65109.55078125,-50879.2890625,-72894.8203125,-400000.0625,-46965.75,-400000.0625,-400000.0625,-400000.0625
1.3075830936431885,-65135.76953125,-50895.171875,-72912.6484375,-400000.0625,-46978.5703125,-400000.0625,-400000.0625,-400000.0625
1.3324222564697266,-65128.51953125,-50890.87890625,-72909.3203125,-400000.0625,-46980.671875,-400000.0625,-400000.0625,-400000.0625
1.3495159149169922,-65107.87890625,-50868.55859375,-72882.8515625,-400000.0625,-46961.12109375,-400000.0625,-400000.0625,-400000.0625
1.3881118297576904,-65091.94921875,-50862.890625,-72871.5,-400000.0625,-46947.62890625,-400000.0625,-400000.0625,-400000.0625
1.407588243484497,-65110.87890625,-50871.80859375,-72885.5703125,-400000.0625,-46961.41015625,-400000.0625,-400000.0625,-400000.0625
1.4336435794830322,-65127.80859375,-50888.44921875,-72902.59375,-400000.0625,-46978.9609375,-400000.0625,-400000.0625,-400000.0625
1.4515283107757568,-65126.28125,-50889.2109375,-72898.4375,-400000.0625,-46977.80859375,-400000.0625,-400000.0625,-400000.0625
1.4879233837127686,-65105.828125,-50863.55859375,-72878.609375,-400000.0625,-46958.640625,-400000.0625,-400000.0625,-400000.0625
1.5208303928375244,-65096.8203125,-50854.640625,-72868.5,-400000.0625,-46948.8203125,-400000.0625,-400000.0625,-400000.0625
1.5392751693725586,-65109.828125,-50859.21875,-72880.3671875,-400000.0625,-46955.3984375,-400000.0625,-400000.0625,-400000.0625
1.5589733123779297,-65131.76953125,-50873.94921875,-72901.640625,-400000.0625,-46976.19140625,-400000.0625,-400000.0625,-400000.0625
1.5936756134033203,-65133.9609375,-50877.4296875,-72885.046875,-400000.0625,-46976.76171875,-400000.0625,-400000.0625,-400000.0625
1.6122944355010986,-65112.03125,-50857.83984375,-72866.3984375,-400000.0625,-46950.44140625,-400000.0625,-400000.0625,-400000.0625
1.6368498802185059,-65092.7109375,-50845.33984375,-72857.25,-400000.0625,-46942.859375,-400000.0625,-400000.0625,-400000.0625
1.6531105041503906,-65105.828125,-50852.828125,-72872.2734375,-400000.0625,-46959.01953125,-400000.0625,-400000.0625,-400000.0625
1.6714088916778564,-65128.2890625,-50869.140625,-72892.046875,-400000.0625,-46977.140625,-400000.0625,-400000.0625,-400000.0625
1.7044909000396729,-65127.62109375,-50868.08984375,-72884.46875,-400000.0625,-46977.62109375,-400000.0625,-400000.0625,-400000.0625
1.7255172729492188,-65110.41015625,-50854.55078125,-72868.2109375,-400000.0625,-46957.44921875,-400000.0625,-400000.0625,-400000.0625
1.740082025527954,-65098.87109375,-50846.6796875,-72860.296875,-400000.0625,-46943.53125,-400000.0625,-400000.0625,-400000.0625
1.7571358680725098,-65106.0703125,-50853.58984375,-72876.9921875,-400000.0625,-46954.69140625,-400000.0625,-400000.0625,-400000.0625
1.7726051807403564,-65123.609375,-50871.62109375,-72901.3125,-400000.0625,-46980.71875,-400000.0625,-400000.0625,-400000.0625
1.8079237937927246,-65125.28125,-50874.91015625,-72897.0625,-400000.0625,-46980.9609375,-400000.0625,-400000.0625,-400000.0625
1.8366079330444336,-65106.3515625,-50861.078125,-72871.171875,-400000.0625,-46955.921875,-400000.0625,-400000.0625,-400000.0625
1.8545174598693848,-65097.578125,-50851.96875,-72862.5390625,-400000.0625,-46936.609375,-400000.0625,-400000.0625,-400000.0625
1.8760859966278076,-65114.6015625,-50855.73828125,-72878.5625,-400000.0625,-46942.76171875,-400000.0625,-400000.0625,-400000.0625
1.9193062782287598,-65137.3515625,-50875.2890625,-72903.1171875,-400000.0625,-46981.1484375,-400000.0625,-400000.0625,-400000.0625
1.9375786781311035,-65138.3984375,-50880.53125,-72903.5,-400000.0625,-46982.53125,-400000.0625,-400000.0625,-400000.0625
1.9526560306549072,-65110.2109375,-50856.69140625,-72882.8984375,-400000.0625,-46957.69140625,-400000.0625,-400000.0625,-400000.0625
1.9703176021575928,-65093.94921875,-50845.44140625,-72863.828125,-400000.0625,-46946.1015625,-400000.0625,-400000.0625,-400000.0625
1.9895780086517334,-65111.12109375,-50864.37109375,-72888.7578125,-400000.0625,-46959.9296875,-400000.0625,-400000.0625,-400000.0625
2.0248172283172607,-65132.01171875,-50883.390625,-72902.3984375,-400000.0625,-46971.98828125,-400000.0625,-400000.0625,-400000.0625
2.040372610092163,-65122.609375,-50878.9609375,-72898.6796875,-400000.0625,-46965.3203125,-400000.0625,-400000.0625,-400000.0625
2.057938814163208,-65105.640625,-50870.0390625,-72882.7578125,-400000.0625,-46943.9609375,-400000.0625,-400000.0625,-400000.0625
2.0733776092529297,-65095.05078125,-50857.21875,-72870.359375,-400000.0625,-46928.6484375,-400000.0625,-400000.0625,-400000.0625
2.090641975402832,-65113.41015625,-50876.71875,-72874.171875,-400000.0625,-46938.28125,-400000.0625,-400000.0625,-400000.0625
2.125274419784546,-65141.44921875,-50899.37109375,-72902.15625,-400000.0625,-46952.87109375,-400000.0625,-400000.0625,-400000.0625
2.144139289855957,-65146.87890625,-50921.5390625,-72915.0390625,-400000.0625,-46944.71875,-400000.0625,-400000.0625,-400000.0625
2.1603405475616455,-65130.4296875,-50924.73828125,-72889.671875,-400000.0625,-46912.87109375,-400000.0625,-400000.0625,-400000.0625
2.176098108291626,-65111.01953125,-50919.5390625,-72868.8828125,-400000.0625,-46893.4609375,-400000.0625,-400000.0625,-400000.0625
2.1975491046905518,-65138.87109375,-50958.3515625,-72901.7265625,-400000.0625,-46897.37109375,-400000.0625,-400000.0625,-400000.0625
2.231137752532959,-65182.9296875,-51015.91015625,-72943.9765625,-400000.0625,-46912.25,-400000.0625,-400000.0625,-400000.0625
2.2509143352508545,-65193.98828125,-51036.55078125,-72949.8515625,-400000.0625,-46901.80078125,-400000.0625,-400000.0625,-400000.0625
2.264735698699951,-65183.98046875,-51041.37109375,-72928.1484375,-400000.0625,-46855.41015625,-400000.0625,-400000.0625,-400000.0625
2.2845253944396973,-65199.23828125,-51056.33984375,-72931.390625,-400000.0625,-46823.83984375,-400000.0625,-400000.0625,-400000.0625
2.30068302154541,-65241.578125,-51102.26171875,-72965.0625,-400000.0625,-46825.3203125,-400000.0625,-400000.0625,-400000.0625
2.3439695835113525,-65273.25,-51156.9609375,-73001.8671875,-400000.0625,-46827.890625,-400000.0625,-400000.0625,-400000.0625
2.359663963317871,-65277.87109375,-51193.76953125,-73016.5078125,-400000.0625,-46805.62890625,-400000.0625,-400000.0625,-400000.0625
2.379188060760498,-65259.80078125,-51207.640625,-72992.5703125,-400000.0625,-46772.19921875,-400000.0625,-400000.0625,-400000.0625
2.3974854946136475,-65259.55859375,-51213.83984375,-72985.9921875,-400000.0625,-46750.9296875,-400000.0625,-400000.0625,-400000.0625
2.420032024383545,-65281.58984375,-51236.25,-73005.296875,-400000.0625,-46750.21875,-400000.0625,-400000.0625,-400000.0625
2.465869903564453,-65308.2890625,-51267.9609375,-73034.34375,-400000.0625,-46758.98828125,-400000.0625,-400000.0625,-400000.0625
2.481769323348999,-65315.05859375,-51270.16015625,-73030.6171875,-400000.0625,-46750.98046875,-400000.0625,-400000.0625,-400000.0625
2.5006468296051025,-65296.28125,-51261.05078125,-73013.5078125,-400000.0625,-46722.8515625,-400000.0625,-400000.0625,-400000.0625
2.520228147506714,-65283.5390625,-51267.44140625,-73003.4375,-400000.0625,-46704.30078125,-400000.0625,-400000.0625,-400000.0625
2.5592169761657715,-65293.83984375,-51278.12109375,-73018.8515625,-400000.0625,-46717.98046875,-400000.0625,-400000.0625,-400000.0625
2.573742628097534,-65309.33984375,-51287.37109375,-73045.5,-400000.0625,-46735.390625,-400000.0625,-400000.0625,-400000.0625
2.5917551517486572,-65309.87109375,-51288.23046875,-73044.7421875,-400000.0625,-46739.73046875,-400000.0625,-400000.0625,-400000.0625
2.610339403152466,-65275.30078125,-51261.859375,-73024.8125,-400000.0625,-46727.51953125,-400000.0625,-400000.0625,-400000.0625
2.6354379653930664,-65254.03125,-51239.44921875,-73014.4609375,-400000.0625,-46720.37109375,-400000.0625,-400000.0625,-400000.0625
2.6725618839263916,-65265.19140625,-51237.05859375,-73027.328125,-400000.0625,-46739.3515625,-400000.0625,-400000.0625,-400000.0625
2.693362236022949,-65280.640625,-51250.94140625,-73053.3203125,-400000.0625,-46769.671875,-400000.0625,-400000.0625,-400000.0625
2.7080979347229004,-65275.30078125,-51238.828125,-73051.75,-400000.0625,-46776.01171875,-400000.0625,-400000.0625,-400000.0625
2.7311437129974365,-65240.19921875,-51204.16015625,-73026.5234375,-400000.0625,-46766.62109375,-400000.0625,-400000.0625,-400000.0625
2.7471046447753906,-65221.69921875,-51170.73828125,-73006.828125,-400000.0625,-46761.94921875,-400000.0625,-400000.0625,-400000.0625
2.777439832687378,-65232.62109375,-51167.96875,-73022.5234375,-400000.0625,-46784.9296875,-400000.0625,-400000.0625,-400000.0625
2.7954583168029785,-65241.1484375,-51177.890625,-73043.59375,-400000.0625,-46815.2109375,-400000.0625,-400000.0625,-400000.0625
2.820869207382202,-65240.05859375,-51161.1484375,-73035.7734375,-400000.0625,-46821.078125,-400000.0625,-400000.0625,-400000.0625
2.8385164737701416,-65208.87109375,-51131.58984375,-73010.171875,-400000.0625,-46816.3984375,-400000.0625,-400000.0625,-400000.0625
2.8564178943634033,-65186.078125,-51102.01953125,-72994.3828125,-400000.0625,-46812.48828125,-400000.0625,-400000.0625,-400000.0625
2.8912839889526367,-65193.37109375,-51104.98046875,-73010.171875,-400000.0625,-46832.66015625,-400000.0625,-400000.0625,-400000.0625
2.908629894256592,-65208.05859375,-51118.671875,-73030.1015625,-400000.0625,-46859.171875,-400000.0625,-400000.0625,-400000.0625
2.9352543354034424,-65203.76953125,-51101.69140625,-73022.7109375,-400000.0625,-46860.6484375,-400000.0625,-400000.0625,-400000.0625
2.9541542530059814,-65180.828125,-51071.359375,-72993.5703125,-400000.0625,-46851.44921875,-400000.0625,-400000.0625,-400000.0625
2.9667298793792725,-65158.7109375,-51052.19140625,-72972.96875,-400000.0625,-46849.48828125,-400000.0625,-400000.0625,-400000.0625
2.999218463897705,-65165.48046875,-51052.19140625,-72987.8515625,-400000.0625,-46864.8515625,-400000.0625,-400000.0625,-400000.0625
3.0205750465393066,-65188.83984375,-51051.2890625,-73000.390625,-400000.0625,-46883.30078125,-400000.0625,-400000.0625,-400000.0625
3.037905216217041,-65185.51171875,-51043.609375,-72988.2265625,-400000.0625,-46887.640625,-400000.0625,-400000.0625,-400000.0625
3.05857253074646,-65160.51953125,-51021.6796875,-72963.90625,-400000.0625,-46873.91015625,-400000.0625,-400000.0625,-400000.0625
3.0746231079101562,-65139.3984375,-51002.37109375,-72946.75,-400000.0625,-46865.8515625,-400000.0625,-400000.0625,-400000.0625
3.106326103210449,-65147.21875,-50993.44921875,-72953.28125,-400000.0625,-46882.3515625,-400000.0625,-400000.0625,-400000.0625
3.1275148391723633,-65162.7109375,-51006.28125,-72969.3984375,-400000.0625,-46901.421875,-400000.0625,-400000.0625,-400000.0625
3.1425981521606445,-65157.80078125,-51003.21875,-72967.96875,-400000.0625,-46902.7109375,-400000.0625,-400000.0625,-400000.0625
3.1552748680114746,-65136.109375,-50977.37890625,-72941.84375,-400000.0625,-46889.0703125,-400000.0625,-400000.0625,-400000.0625
3.1717114448547363,-65125.94921875,-50945.62109375,-72915.1328125,-400000.0625,-46876.2890625,-400000.0625,-400000.0625,-400000.0625
3.1866681575775146,-65132.23828125,-50961.69140625,-72929.71875,-400000.0625,-46893.171875,-400000.0625,-400000.0625,-400000.0625
3.2247350215911865,-65144.30859375,-50979.71875,-72953.0390625,-400000.0625,-46915.921875,-400000.0625,-400000.0625,-400000.0625
3.2410032749176025,-65143.69140625,-50970.55859375,-72951.421875,-400000.0625,-46918.109375,-400000.0625,-400000.0625,-400000.0625
3.2557661533355713,-65120.078125,-50955.3515625,-72929.921875,-400000.0625,-46895.41015625,-400000.0625,-400000.0625,-400000.0625
3.270646810531616,-65101.19921875,-50933.55859375,-72902.0703125,-400000.0625,-46885.9296875,-400000.0625,-400000.0625,-400000.0625
3.2874021530151367,-65106.3515625,-50934.12890625,-72911.4609375,-400000.0625,-46898.609375,-400000.0625,-400000.0625,-400000.0625
3.3197648525238037,-65127.4296875,-50952.30078125,-72938.3125,-400000.0625,-46919.109375,-400000.0625,-400000.0625,-400000.0625
3.3392693996429443,-65127.37890625,-50948.9609375,-72938.359375,-400000.0625,-46918.640625,-400000.0625,-400000.0625,-400000.0625
3.354804039001465,-65111.7890625,-50930.359375,-72907.890625,-400000.0625,-46901.76171875,-400000.0625,-400000.0625,-400000.0625
3.3712518215179443,-65096.33984375,-50910.671875,-72883.328125,-400000.0625,-46890.98046875,-400000.0625,-400000.0625,-400000.0625
3.3877639770507812,-65099.53125,-50916.53125,-72896.6796875,-400000.0625,-46902.328125,-400000.0625,-400000.0625,-400000.0625
3.425736665725708,-65117.890625,-50928.6484375,-72919.140625,-400000.0625,-46917.25,-400000.0625,-400000.0625,-400000.0625
3.444465398788452,-65123.8515625,-50936.66015625,-72927.390625,-400000.0625,-46921.96875,-400000.0625,-400000.0625,-400000.0625
3.4616239070892334,-65107.5390625,-50920.3515625,-72898.7265625,-400000.0625,-46903.66015625,-400000.0625,-400000.0625,-400000.0625
3.479017972946167,-65095.91015625,-50905.80859375,-72879.28125,-400000.0625,-46889.359375,-400000.0625,-400000.0625,-400000.0625
3.5022826194763184,-65102.8203125,-50914.8203125,-72892.671875,-400000.0625,-46903.5703125,-400000.0625,-400000.0625,-400000.0625
3.5400338172912598,-65118.8515625,-50926.0703125,-72913.0390625,-400000.0625,-46922.5,-400000.0625,-400000.0625,-400000.0625
3.558272123336792,-65117.6484375,-50917.5390625,-72912.6484375,-400000.0625,-46924.12109375,-400000.0625,-400000.0625,-400000.0625
3.5764553546905518,-65095.53125,-50898.94140625,-72886.671875,-400000.0625,-46906.0,-400000.0625,-400000.0625,-400000.0625
3.594283103942871,-65069.96875,-50896.03125,-72879.0390625,-400000.0625,-46896.890625,-400000.0625,-400000.0625,-400000.0625
3.6194498538970947,-65076.0703125,-50906.51953125,-72891.203125,-400000.0625,-46907.5703125,-400000.0625,-400000.0625,-400000.0625
3.655566692352295,-65105.87890625,-50913.8203125,-72908.9296875,-400000.0625,-46921.0703125,-400000.0625,-400000.0625,-400000.0625
3.673006057739258,-65113.9296875,-50911.33984375,-72903.0234375,-400000.0625,-46918.96875,-400000.0625,-400000.0625,-400000.0625
3.6912312507629395,-65081.75,-50895.94140625,-72884.5234375,-400000.0625,-46910.1484375,-400000.0625,-400000.0625,-400000.0625
3.7081425189971924,-65068.2109375,-50882.44140625,-72872.5,-400000.0625,-46895.078125,-400000.0625,-400000.0625,-400000.0625
3.732342004776001,-65087.51953125,-50889.828125,-72879.609375,-400000.0625,-46905.76171875,-400000.0625,-400000.0625,-400000.0625
3.7736566066741943,-65105.30078125,-50909.859375,-72900.4921875,-400000.0625,-46929.41015625,-400000.0625,-400000.0625,-400000.0625
3.7898857593536377,-65101.19921875,-50911.37890625,-72903.59375,-400000.0625,-46926.171875,-400000.0625,-400000.0625,-400000.0625
3.8056342601776123,-65083.3203125,-50900.421875,-72883.421875,-400000.0625,-46907.05078125,-400000.0625,-400000.0625,-400000.0625
3.8253068923950195,-65070.73046875,-50879.2890625,-72865.0234375,-400000.0625,-46892.6015625,-400000.0625,-400000.0625,-400000.0625
3.8406734466552734,-65081.55859375,-50891.26171875,-72876.609375,-400000.0625,-46900.7109375,-400000.0625,-400000.0625,-400000.0625
3.8726208209991455,-65098.62890625,-50907.4296875,-72897.59375,-400000.0625,-46921.78125,-400000.0625,-400000.0625,-400000.0625
3.889314889907837,-65099.48828125,-50906.19140625,-72896.390625,-400000.0625,-46925.359375,-400000.0625,-400000.0625,-400000.0625
3.908674955368042,-65078.4609375,-50895.078125,-72874.21875,-400000.0625,-46908.80859375,-400000.0625,-400000.0625,-400000.0625
3.932990550994873,-65064.1484375,-50883.44140625,-72858.390625,-400000.0625,-46896.75,-400000.0625,-400000.0625,-400000.0625
3.9512875080108643,-65073.78125,-50881.33984375,-72857.203125,-400000.0625,-46902.23046875,-400000.0625,-400000.0625,-400000.0625
3.982227087020874,-65089.80859375,-50902.94140625,-72889.4765625,-400000.0625,-46923.3984375,-400000.0625,-400000.0625,-400000.0625
3.998102903366089,-65096.23828125,-50900.8515625,-72893.1484375,-400000.0625,-46923.30859375,-400000.0625,-400000.0625,-400000.0625
4.0241310596466064,-65069.44140625,-50874.37890625,-72866.3125,-400000.0625,-46904.7109375,-400000.0625,-400000.0625,-400000.0625
4.043138742446899,-65047.21875,-50872.4296875,-72855.1484375,-400000.0625,-46894.41015625,-400000.0625,-400000.0625,-400000.0625
4.060728073120117,-65062.23828125,-50883.19921875,-72861.7265625,-400000.0625,-46906.37890625,-400000.0625,-400000.0625,-400000.0625
4.097676753997803,-65088.8984375,-50900.55859375,-72886.046875,-400000.0625,-46922.3984375,-400000.0625,-400000.0625,-400000.0625
4.11181902885437,-65091.05078125,-50901.7109375,-72887.859375,-400000.0625,-46923.5,-400000.0625,-400000.0625,-400000.0625
4.130609035491943,-65070.921875,-50886.73046875,-72863.59375,-400000.0625,-46906.328125,-400000.0625,-400000.0625,-400000.0625
4.147812128067017,-65054.0390625,-50869.8515625,-72847.8984375,-400000.0625,-46895.6015625,-400000.0625,-400000.0625,-400000.0625
4.167101860046387,-65058.53125,-50872.8984375,-72861.4921875,-400000.0625,-46906.2890625,-400000.0625,-400000.0625,-400000.0625
4.201837778091431,-65080.26953125,-50886.96875,-72872.703125,-400000.0625,-46922.78125,-400000.0625,-400000.0625,-400000.0625
4.222480058670044,-65079.83984375,-50899.80078125,-72880.0390625,-400000.0625,-46928.03125,-400000.0625,-400000.0625,-400000.0625
4.23866605758667,-65062.33984375,-50878.8203125,-72858.0078125,-400000.0625,-46906.71875,-400000.0625,-400000.0625,-400000.0625
4.255112171173096,-65049.98828125,-50860.359375,-72834.546875,-400000.0625,-46891.6484375,-400000.0625,-400000.0625,-400000.0625
4.274169206619263,-65060.23828125,-50863.26953125,-72846.28125,-400000.0625,-46897.421875,-400000.0625,-400000.0625,-400000.0625
4.3045103549957275,-65080.94140625,-50871.0390625,-72869.2578125,-400000.0625,-46910.1484375,-400000.0625,-400000.0625,-400000.0625
4.3229148387908936,-65083.55859375,-50876.19140625,-72869.9765625,-400000.0625,-46918.2109375,-400000.0625,-400000.0625,-400000.0625
4.3390443325042725,-65061.53125,-50866.55859375,-72846.0390625,-400000.0625,-46906.1015625,-400000.0625,-400000.0625,-400000.0625
4.356582164764404,-65039.73828125,-50851.921875,-72832.6875,-400000.0625,-46891.078125,-400000.0625,-400000.0625,-400000.0625
4.373849868774414,-65054.0390625,-50861.55859375,-72843.65625,-400000.0625,-46900.12890625,-400000.0625,-400000.0625,-400000.0625
4.3906755447387695,-65078.6484375,-50884.78125,-72866.0703125,-400000.0625,-46922.69140625,-400000.0625,-400000.0625,-400000.0625
4.426532506942749,-65081.12890625,-50878.44140625,-72869.0234375,-400000.0625,-46917.3984375,-400000.0625,-400000.0625,-400000.0625
4.442502975463867,-65059.91015625,-50871.37890625,-72851.7109375,-400000.0625,-46900.8515625,-400000.0625,-400000.0625,-400000.0625
4.456798553466797,-65047.3203125,-50856.2109375,-72838.9765625,-400000.0625,-46890.26171875,-400000.0625,-400000.0625,-400000.0625
4.475882053375244,-65056.328125,-50846.6796875,-72844.9921875,-400000.0625,-46897.8515625,-400000.0625,-400000.0625,-400000.0625
4.49258828163147,-65073.69140625,-50866.12890625,-72867.828125,-400000.0625,-46917.30078125,-400000.0625,-400000.0625,-400000.0625
4.527033567428589,-65070.109375,-50872.76171875,-72874.171875,-400000.0625,-46919.2109375,-400000.0625,-400000.0625,-400000.0625
4.544885635375977,-65051.3203125,-50857.30859375,-72851.2890625,-400000.0625,-46903.328125,-400000.0625,-400000.0625,-400000.0625
4.558836460113525,-65042.7890625,-50841.671875,-72826.0078125,-400000.0625,-46889.640625,-400000.0625,-400000.0625,-400000.0625
4.575761795043945,-65050.75,-50851.3984375,-72831.5,-400000.0625,-46896.80078125,-400000.0625,-400000.0625,-400000.0625
4.595031261444092,-65067.16015625,-50873.37890625,-72857.34375,-400000.0625,-46915.48828125,-400000.0625,-400000.0625,-400000.0625
4.63488245010376,-65068.87109375,-50868.8984375,-72863.5390625,-400000.0625,-46919.3515625,-400000.0625,-400000.0625,-400000.0625
4.6524553298950195,-65048.421875,-50852.828125,-72837.703125,-400000.0625,-46904.62109375,-400000.0625,-400000.0625,-400000.0625
4.669099569320679,-65034.01953125,-50843.2890625,-72827.296875,-400000.0625,-46893.83984375,-400000.0625,-400000.0625,-400000.0625
4.6865692138671875,-65046.26953125,-50857.41015625,-72845.75,-400000.0625,-46909.671875,-400000.0625,-400000.0625,-400000.0625
4.70360541343689,-65066.25,-50870.23046875,-72856.0078125,-400000.0625,-46925.5,-400000.0625,-400000.0625,-400000.0625
4.7384397983551025,-65072.12109375,-50851.87890625,-72841.75,-400000.0625,-46916.3984375,-400000.0625,-400000.0625,-400000.0625
4.7529613971710205,-65060.37890625,-50843.671875,-72827.6328125,-400000.0625,-46898.69921875,-400000.0625,-400000.0625,-400000.0625
4.773374080657959,-65049.609375,-50841.80859375,-72812.7109375,-400000.0625,-46892.26953125,-400000.0625,-400000.0625,-400000.0625
4.7898640632629395,-65071.640625,-50839.1015625,-72800.1171875,-400000.0625,-46892.6015625,-400000.0625,-400000.0625,-400000.0625
4.806043863296509,-65104.921875,-50852.921875,-72819.671875,-400000.0625,-46914.44140625,-400000.0625,-400000.0625,-400000.0625
4.842034101486206,-65108.58984375,-50863.3203125,-72823.6328125,-400000.0625,-46922.26171875,-400000.0625,-400000.0625,-400000.0625
4.855247974395752,-65086.0390625,-50849.05859375,-72805.5078125,-400000.0625,-46901.46875,-400000.0625,-400000.0625,-400000.0625
4.8707990646362305,-65061.4296875,-50831.1796875,-72791.8203125,-400000.0625,-46890.0703125,-400000.0625,-400000.0625,-400000.0625
4.890047550201416,-65069.921875,-50830.55859375,-72801.359375,-400000.0625,-46895.41015625,-400000.0625,-400000.0625,-400000.0625
4.904065132141113,-65086.46875,-50844.01171875,-72816.09375,-400000.0625,-46911.53125,-400000.0625,-400000.0625,-400000.0625
4.929785966873169,-65084.890625,-50847.48828125,-72821.9609375,-400000.0625,-46918.30078125,-400000.0625,-400000.0625,-400000.0625
4.96192479133606,-65069.01953125,-50832.28125,-72806.21875,-400000.0625,-46901.66015625,-400000.0625,-400000.0625,-400000.0625
4.979257583618164,-65049.0390625,-50811.48828125,-72778.09375,-400000.0625,-46878.921875,-400000.0625,-400000.0625,-400000.0625
4.995285987854004,-65061.390625,-50818.16015625,-72782.4296875,-400000.0625,-46891.26953125,-400000.0625,-400000.0625,-400000.0625
5.0118842124938965,-65087.23046875,-50843.05078125,-72806.796875,-400000.0625,-46912.19921875,-400000.0625,-400000.0625,-400000.0625
5.032641172409058,-65080.75,-50849.16015625,-72814.7578125,-400000.0625,-46913.53125,-400000.0625,-400000.0625,-400000.0625
5.058293342590332,-65061.4296875,-50829.94140625,-72793.109375,-400000.0625,-46899.55859375,-400000.0625,-400000.0625,-400000.0625
5.071356296539307,-65051.12890625,-50817.3515625,-72781.046875,-400000.0625,-46884.26171875,-400000.0625,-400000.0625,-400000.0625
5.088241815567017,-65056.23828125,-50816.26171875,-72787.1015625,-400000.0625,-46891.359375,-400000.0625,-400000.0625,-400000.0625
5.1026835441589355,-65084.890625,-50828.3203125,-72808.9375,-400000.0625,-46907.19140625,-400000.0625,-400000.0625,-400000.0625
5.124721527099609,-65086.46875,-50838.76171875,-72812.8984375,-400000.0625,-46910.71875,-400000.0625,-400000.0625,-400000.0625
5.14284348487854,-65064.53125,-50829.3203125,-72795.6875,-400000.0625,-46905.62109375,-400000.0625,-400000.0625,-400000.0625
5.178780794143677,-65045.078125,-50818.828125,-72774.28125,-400000.0625,-46886.55078125,-400000.0625,-400000.0625,-400000.0625
5.197893857955933,-65057.62109375,-50822.44921875,-72783.90625,-400000.0625,-46889.5,-400000.0625,-400000.0625,-400000.0625
5.214286804199219,-65077.73828125,-50832.328125,-72814.5703125,-400000.0625,-46923.171875,-400000.0625,-400000.0625,-400000.0625
5.233181476593018,-65081.41015625,-50830.80078125,-72816.2421875,-400000.0625,-46920.96875,-400000.0625,-400000.0625,-400000.0625
5.247072696685791,-65058.140625,-50810.87109375,-72792.0078125,-400000.0625,-46904.51953125,-400000.0625,-400000.0625,-400000.0625
5.280974388122559,-65043.03125,-50806.62109375,-72779.140625,-400000.0625,-46888.0703125,-400000.0625,-400000.0625,-400000.0625
5.293745756149292,-65046.75,-50810.6796875,-72776.46875,-400000.0625,-46888.87890625,-400000.0625,-400000.0625,-400000.0625
5.308759689331055,-65062.48046875,-50829.75,-72793.921875,-400000.0625,-46908.671875,-400000.0625,-400000.0625,-400000.0625
5.334025859832764,-65067.25,-50841.1484375,-72803.84375,-400000.0625,-46915.578125,-400000.0625,-400000.0625,-400000.0625
5.34957218170166,-65048.55859375,-50828.37109375,-72780.09375,-400000.0625,-46892.21875,-400000.0625,-400000.0625,-400000.0625
5.3774378299713135,-65037.26171875,-50812.96875,-72768.4609375,-400000.0625,-46876.25,-400000.0625,-400000.0625,-400000.0625
5.389551639556885,-65045.6484375,-50807.1015625,-72779.3828125,-400000.0625,-46898.3203125,-400000.0625,-400000.0625,-400000.0625
5.4049391746521,-65063.01171875,-50824.12109375,-72806.703125,-400000.0625,-46915.96875,-400000.0625,-400000.0625,-400000.0625
5.423702001571655,-65065.109375,-50836.51953125,-72816.4765625,-400000.0625,-46915.3515625,-400000.0625,-400000.0625,-400000.0625
5.4405198097229,-65045.3203125,-50823.5,-72790.8671875,-400000.0625,-46898.75,-400000.0625,-400000.0625,-400000.0625
5.454569578170776,-65022.08984375,-50806.76953125,-72770.890625,-400000.0625,-46884.26171875,-400000.0625,-400000.0625,-400000.0625
5.4891040325164795,-65035.73046875,-50808.8203125,-72782.0,-400000.0625,-46891.41015625,-400000.0625,-400000.0625,-400000.0625
5.505154371261597,-65053.76171875,-50824.21875,-72806.890625,-400000.0625,-46916.3984375,-400000.0625,-400000.0625,-400000.0625
5.528294324874878,-65051.66015625,-50822.87890625,-72807.2265625,-400000.0625,-46918.640625,-400000.0625,-400000.0625,-400000.0625
5.548517465591431,-65026.859375,-50802.76171875,-72781.671875,-400000.0625,-46900.80078125,-400000.0625,-400000.0625,-400000.0625
5.564622640609741,-65010.171875,-50795.98828125,-72771.3671875,-400000.0625,-46883.16015625,-400000.0625,-400000.0625,-400000.0625
5.60086989402771,-65018.37890625,-50811.1484375,-72782.71875,-400000.0625,-46897.66015625,-400000.0625,-400000.0625,-400000.0625
5.627485275268555,-65038.73828125,-50825.12890625,-72793.296875,-400000.0625,-46906.80859375,-400000.0625,-400000.0625,-400000.0625
5.651530504226685,-65045.94140625,-50816.58984375,-72799.8828125,-400000.0625,-46910.91015625,-400000.0625,-400000.0625,-400000.0625
5.66892147064209,-65029.390625,-50794.609375,-72776.421875,-400000.0625,-46899.28125,-400000.0625,-400000.0625,-400000.0625
5.6998066902160645,-65007.73828125,-50781.73046875,-72759.96875,-400000.0625,-46882.01953125,-400000.0625,-400000.0625,-400000.0625
5.720310926437378,-65017.0390625,-50792.75,-72763.3125,-400000.0625,-46874.23828125,-400000.0625,-400000.0625,-400000.0625
5.736844062805176,-65037.5390625,-50810.44140625,-72785.578125,-400000.0625,-46887.58984375,-400000.0625,-400000.0625,-400000.0625
5.754215478897095,-65040.44921875,-50812.578125,-72800.21875,-400000.0625,-46916.8203125,-400000.0625,-400000.0625,-400000.0625
5.7718682289123535,-65029.87109375,-50789.69921875,-72772.796875,-400000.0625,-46893.41015625,-400000.0625,-400000.0625,-400000.0625
5.800215005874634,-65006.7890625,-50766.23828125,-72751.671875,-400000.0625,-46880.05859375,-400000.0625,-400000.0625,-400000.0625
5.825000762939453,-65011.69921875,-50769.05078125,-72763.6875,-400000.0625,-46882.73046875,-400000.0625,-400000.0625,-400000.0625
5.842617750167847,-65038.0703125,-50797.23046875,-72786.2421875,-400000.0625,-46905.48046875,-400000.0625,-400000.0625,-400000.0625
5.859476089477539,-65047.98828125,-50797.75,-72783.53125,-400000.0625,-46903.08984375,-400000.0625,-400000.0625,-400000.0625
5.878798246383667,-65022.5703125,-50790.890625,-72768.21875,-400000.0625,-46886.58984375,-400000.0625,-400000.0625,-400000.0625
5.907049655914307,-64990.62109375,-50771.53125,-72758.15625,-400000.0625,-46871.859375,-400000.0625,-400000.0625,-400000.0625
5.93247652053833,-64978.3203125,-50768.5703125,-72776.5234375,-400000.0625,-46873.76953125,-400000.0625,-400000.0625,-400000.0625
5.950222969055176,-64979.078125,-50784.26171875,-72810.9375,-400000.0625,-46891.890625,-400000.0625,-400000.0625,-400000.0625
5.968010902404785,-64979.75,-50784.87890625,-72832.453125,-400000.0625,-46900.1796875,-400000.0625,-400000.0625,-400000.0625
5.9836180210113525,-64955.578125,-50778.73046875,-72825.25,-400000.0625,-46885.58984375,-400000.0625,-400000.0625,-400000.0625
6.01567816734314,-64927.30078125,-50758.83984375,-72811.609375,-400000.0625,-46869.7109375,-400000.0625,-400000.0625,-400000.0625
6.03455662727356,-64926.6796875,-50755.98046875,-72820.1484375,-400000.0625,-46875.76953125,-400000.0625,-400000.0625,-400000.0625
6.04703164100647,-64948.28125,-50780.3515625,-72840.9375,-400000.0625,-46892.6484375,-400000.0625,-400000.0625,-400000.0625
6.062278509140015,-64952.91015625,-50781.5390625,-72834.828125,-400000.0625,-46893.3203125,-400000.0625,-400000.0625,-400000.0625
6.077415227890015,-64924.53125,-50754.890625,-72813.1875,-400000.0625,-46874.71875,-400000.0625,-400000.0625,-400000.0625
6.094465970993042,-64905.6015625,-50736.671875,-72798.9296875,-400000.0625,-46856.890625,-400000.0625,-400000.0625,-400000.0625
6.134657621383667,-64914.8515625,-50746.828125,-72804.1328125,-400000.0625,-46863.8515625,-400000.0625,-400000.0625,-400000.0625
6.153550624847412,-64932.2109375,-50761.23046875,-72821.4765625,-400000.0625,-46888.73828125,-400000.0625,-400000.0625,-400000.0625
6.169199466705322,-64940.12890625,-50765.0,-72828.6796875,-400000.0625,-46893.6015625,-400000.0625,-400000.0625,-400000.0625
6.184872627258301,-64927.19921875,-50747.73046875,-72815.1875,-400000.0625,-46868.19140625,-400000.0625,-400000.0625,-400000.0625
6.1971094608306885,-64903.359375,-50724.8515625,-72790.6796875,-400000.0625,-46850.3515625,-400000.0625,-400000.0625,-400000.0625
6.237982988357544,-64908.69921875,-50738.8203125,-72799.6015625,-400000.0625,-46865.66015625,-400000.0625,-400000.0625,-400000.0625
6.254448413848877,-64938.26953125,-50755.03125,-72830.7265625,-400000.0625,-46890.41015625,-400000.0625,-400000.0625,-400000.0625
6.274032354354858,-64942.21875,-50761.98828125,-72841.9375,-400000.0625,-46897.8515625,-400000.0625,-400000.0625,-400000.0625
6.2894861698150635,-64918.19140625,-50752.98046875,-72826.7265625,-400000.0625,-46880.96875,-400000.0625,-400000.0625,-400000.0625
6.304664611816406,-64898.69140625,-50731.28125,-72800.21875,-400000.0625,-46858.55078125,-400000.0625,-400000.0625,-400000.0625
6.3437819480896,-64902.30859375,-50733.62109375,-72802.5,-400000.0625,-46864.94140625,-400000.0625,-400000.0625,-400000.0625
6.3686535358428955,-64920.4296875,-50751.44921875,-72826.203125,-400000.0625,-46887.828125,-400000.0625,-400000.0625,-400000.0625
6.394033670425415,-64926.578125,-50743.87109375,-72827.203125,-400000.0625,-46890.69140625,-400000.0625,-400000.0625,-400000.0625
6.419686794281006,-64910.37109375,-50729.7109375,-72798.828125,-400000.0625,-46868.76171875,-400000.0625,-400000.0625,-400000.0625
6.462027311325073,-64885.91015625,-50714.01953125,-72779.6171875,-400000.0625,-46850.73046875,-400000.0625,-400000.0625,-400000.0625
6.488457918167114,-64892.48828125,-50714.12109375,-72786.9609375,-400000.0625,-46851.828125,-400000.0625,-400000.0625,-400000.0625
6.504464626312256,-64917.19140625,-50725.28125,-72806.4609375,-400000.0625,-46872.48046875,-400000.0625,-400000.0625,-400000.0625
6.524677038192749,-64917.859375,-50733.859375,-72808.3203125,-400000.0625,-46865.08984375,-400000.0625,-400000.0625,-400000.0625
6.5549156665802,-64897.3515625,-50713.96875,-72788.6796875,-400000.0625,-46850.109375,-400000.0625,-400000.0625,-400000.0625
6.5705671310424805,-64872.078125,-50694.328125,-72769.890625,-400000.0625,-46848.3984375,-400000.0625,-400000.0625,-400000.0625
6.584946393966675,-64878.421875,-50699.05078125,-72777.09375,-400000.0625,-46844.921875,-400000.0625,-400000.0625,-400000.0625
6.602704286575317,-64904.03125,-50717.5,-72800.6875,-400000.0625,-46860.1796875,-400000.0625,-400000.0625,-400000.0625
6.620980978012085,-64906.12890625,-50716.26171875,-72801.2578125,-400000.0625,-46860.3203125,-400000.0625,-400000.0625,-400000.0625
6.636440753936768,-64876.8515625,-50694.19140625,-72779.5234375,-400000.0625,-46843.44140625,-400000.0625,-400000.0625,-400000.0625
6.672551870346069,-64854.8203125,-50675.640625,-72756.0078125,-400000.0625,-46818.2109375,-400000.0625,-400000.0625,-400000.0625
6.689921140670776,-64859.828125,-50678.44921875,-72767.4609375,-400000.0625,-46828.94140625,-400000.0625,-400000.0625,-400000.0625
6.706144571304321,-64885.33984375,-50686.55859375,-72787.390625,-400000.0625,-46849.828125,-400000.0625,-400000.0625,-400000.0625
6.727188587188721,-64895.2109375,-50692.37109375,-72790.0625,-400000.0625,-46853.0703125,-400000.0625,-400000.0625,-400000.0625
6.74439811706543,-64870.7890625,-50678.0703125,-72764.2578125,-400000.0625,-46833.37890625,-400000.0625,-400000.0625,-400000.0625
6.780451059341431,-64848.9609375,-50653.55859375,-72749.2890625,-400000.0625,-46814.87890625,-400000.0625,-400000.0625,-400000.0625
6.793869972229004,-64847.94921875,-50647.55078125,-72750.4765625,-400000.0625,-46821.078125,-400000.0625,-400000.0625,-400000.0625
6.80824613571167,-64866.83984375,-50666.2890625,-72775.46875,-400000.0625,-46840.71875,-400000.0625,-400000.0625,-400000.0625
6.831767320632935,-64869.4609375,-50663.51953125,-72782.953125,-400000.0625,-46844.73046875,-400000.0625,-400000.0625,-400000.0625
6.848610877990723,-64844.08984375,-50645.55078125,-72754.8203125,-400000.0625,-46828.3203125,-400000.0625,-400000.0625,-400000.0625
6.881805658340454,-64819.53125,-50633.2890625,-72727.3984375,-400000.0625,-46812.25,-400000.0625,-400000.0625,-400000.0625
6.8928234577178955,-64819.109375,-50631.33984375,-72736.703125,-400000.0625,-46816.58984375,-400000.0625,-400000.0625,-400000.0625
6.9094929695129395,-64840.12890625,-50653.4609375,-72759.828125,-400000.0625,-46833.37890625,-400000.0625,-400000.0625,-400000.0625
6.934952735900879,-64851.859375,-50664.5703125,-72761.8828125,-400000.0625,-46836.0,-400000.0625,-400000.0625,-400000.0625
6.95106840133667,-64831.6015625,-50638.62890625,-72740.421875,-400000.0625,-46822.26953125,-400000.0625,-400000.0625,-400000.0625
6.992764472961426,-64809.8984375,-50616.26953125,-72725.5,-400000.0625,-46797.08984375,-400000.0625,-400000.0625,-400000.0625
7.012078046798706,-64810.94921875,-50631.2890625,-72731.0703125,-400000.0625,-46795.66015625,-400000.0625,-400000.0625,-400000.0625
7.030932664871216,-64836.890625,-50653.03125,-72756.390625,-400000.0625,-46840.19921875,-400000.0625,-400000.0625,-400000.0625
7.044750690460205,-64847.80859375,-50653.55859375,-72762.6875,-400000.0625,-46841.671875,-400000.0625,-400000.0625,-400000.0625
7.0617780685424805,-64822.96875,-50634.6796875,-72744.0390625,-400000.0625,-46817.87890625,-400000.0625,-400000.0625,-400000.0625
7.094285726547241,-64798.3203125,-50624.7109375,-72732.546875,-400000.0625,-46806.48046875,-400000.0625,-400000.0625,-400000.0625
7.111169338226318,-64808.80859375,-50622.1796875,-72736.703125,-400000.0625,-46813.26171875,-400000.0625,-400000.0625,-400000.0625
7.134025573730469,-64832.171875,-50628.76171875,-72744.09375,-400000.0625,-46823.94140625,-400000.0625,-400000.0625,-400000.0625
7.147565841674805,-64840.37109375,-50623.80078125,-72741.2265625,-400000.0625,-46819.69140625,-400000.0625,-400000.0625,-400000.0625
7.16698431968689,-64824.5390625,-50604.01953125,-72711.7578125,-400000.0625,-46803.578125,-400000.0625,-400000.0625,-400000.0625
7.194813251495361,-64808.66015625,-50577.03125,-72682.6796875,-400000.0625,-46784.7890625,-400000.0625,-400000.0625,-400000.0625
7.219128847122192,-64819.30078125,-50578.30859375,-72682.4765625,-400000.0625,-46783.26171875,-400000.0625,-400000.0625,-400000.0625
7.237358331680298,-64839.609375,-50604.2109375,-72701.9921875,-400000.0625,-46805.8203125,-400000.0625,-400000.0625,-400000.0625
7.254433631896973,-64838.3203125,-50601.6796875,-72708.2265625,-400000.0625,-46812.25,-400000.0625,-400000.0625,-400000.0625
7.270958662033081,-64815.1484375,-50583.3203125,-72683.390625,-400000.0625,-46787.94140625,-400000.0625,-400000.0625,-400000.0625
7.304177522659302,-64787.8203125,-50569.30078125,-72660.9296875,-400000.0625,-46772.76953125,-400000.0625,-400000.0625,-400000.0625
7.32492208480835,-64792.58984375,-50570.3984375,-72662.890625,-400000.0625,-46776.78125,-400000.0625,-400000.0625,-400000.0625
7.342130899429321,-64816.53125,-50582.4609375,-72687.5390625,-400000.0625,-46794.12890625,-400000.0625,-400000.0625,-400000.0625
7.359393119812012,-64817.76953125,-50587.51953125,-72697.703125,-400000.0625,-46802.37890625,-400000.0625,-400000.0625,-400000.0625
7.375471830368042,-64802.26953125,-50574.2109375,-72679.578125,-400000.0625,-46779.0703125,-400000.0625,-400000.0625,-400000.0625
7.4066009521484375,-64778.4296875,-50553.609375,-72656.6875,-400000.0625,-46764.94921875,-400000.0625,-400000.0625,-400000.0625
7.428840637207031,-64780.2890625,-50555.62109375,-72661.21875,-400000.0625,-46770.671875,-400000.0625,-400000.0625,-400000.0625
7.44369912147522,-64804.0390625,-50579.890625,-72678.8125,-400000.0625,-46787.55078125,-400000.0625,-400000.0625,-400000.0625
7.45784330368042,-64814.578125,-50580.55859375,-72685.203125,-400000.0625,-46792.98828125,-400000.0625,-400000.0625,-400000.0625
7.470764398574829,-64792.828125,-50558.62109375,-72665.1328125,-400000.0625,-46774.1484375,-400000.0625,-400000.0625,-400000.0625
7.4868316650390625,-64769.8515625,-50530.578125,-72642.6171875,-400000.0625,-46750.4609375,-400000.0625,-400000.0625,-400000.0625
7.522817850112915,-64765.94140625,-50527.91015625,-72640.328125,-400000.0625,-46752.83984375,-400000.0625,-400000.0625,-400000.0625
7.539423227310181,-64780.19921875,-50550.12890625,-72662.9296875,-400000.0625,-46771.01171875,-400000.0625,-400000.0625,-400000.0625
7.5564470291137695,-64781.1484375,-50544.359375,-72667.5078125,-400000.0625,-46772.76953125,-400000.0625,-400000.0625,-400000.0625
7.571737766265869,-64761.69140625,-50525.05078125,-72645.2890625,-400000.0625,-46754.41015625,-400000.0625,-400000.0625,-400000.0625
7.587365627288818,-64740.28125,-50509.6484375,-72620.15625,-400000.0625,-46735.1484375,-400000.0625,-400000.0625,-400000.0625
7.622749090194702,-64746.1015625,-50506.171875,-72618.5390625,-400000.0625,-46719.98828125,-400000.0625,-400000.0625,-400000.0625
7.635814905166626,-64764.98046875,-50517.66015625,-72642.4765625,-400000.0625,-46744.109375,-400000.0625,-400000.0625,-400000.0625
7.650675058364868,-64763.7890625,-50515.46875,-72650.390625,-400000.0625,-46773.30078125,-400000.0625,-400000.0625,-400000.0625
7.665838003158569,-64739.51953125,-50494.30078125,-72623.9765625,-400000.0625,-46748.359375,-400000.0625,-400000.0625,-400000.0625
7.67942476272583,-64724.98046875,-50485.0,-72605.4296875,-400000.0625,-46720.83984375,-400000.0625,-400000.0625,-400000.0625
7.697386741638184,-64723.69140625,-50486.328125,-72607.4765625,-400000.0625,-46723.66015625,-400000.0625,-400000.0625,-400000.0625
7.736211538314819,-64745.05078125,-50499.109375,-72624.40625,-400000.0625,-46742.44140625,-400000.0625,-400000.0625,-400000.0625
7.750710964202881,-64747.01171875,-50505.171875,-72632.5078125,-400000.0625,-46746.828125,-400000.0625,-400000.0625,-400000.0625
7.766657114028931,-64724.5,-50478.12890625,-72607.4765625,-400000.0625,-46723.80078125,-400000.0625,-400000.0625,-400000.0625
7.780805587768555,-64705.28125,-50453.71875,-72583.0234375,-400000.0625,-46701.05859375,-400000.0625,-400000.0625,-400000.0625
7.795983076095581,-64706.23828125,-50467.5,-72587.8828125,-400000.0625,-46709.01953125,-400000.0625,-400000.0625,-400000.0625
7.807632923126221,-64728.6015625,-50481.98828125,-72611.578125,-400000.0625,-46730.62109375,-400000.0625,-400000.0625,-400000.0625
7.84345817565918,-64726.55078125,-50480.23046875,-72613.0078125,-400000.0625,-46736.01171875,-400000.0625,-400000.0625,-400000.0625
7.858014822006226,-64697.6484375,-50460.921875,-72595.40625,-400000.0625,-46714.98046875,-400000.0625,-400000.0625,-400000.0625
7.870814800262451,-64673.37890625,-50440.37109375,-72564.1328125,-400000.0625,-46692.0390625,-400000.0625,-400000.0625,-400000.0625
7.882669925689697,-64672.80859375,-50440.83984375,-72569.7109375,-400000.0625,-46702.921875,-400000.0625,-400000.0625,-400000.0625
7.899947881698608,-64695.078125,-50444.3203125,-72591.40625,-400000.0625,-46719.55859375,-400000.0625,-400000.0625,-400000.0625
7.921403884887695,-64698.66015625,-50444.8984375,-72588.3125,-400000.0625,-46711.30859375,-400000.0625,-400000.0625,-400000.0625
7.954144239425659,-64675.859375,-50438.73828125,-72572.6171875,-400000.0625,-46693.94921875,-400000.0625,-400000.0625,-400000.0625
7.968740701675415,-64648.109375,-50412.46875,-72548.5390625,-400000.0625,-46690.80078125,-400000.0625,-400000.0625,-400000.0625
7.989733695983887,-64647.921875,-50412.46875,-72547.3984375,-400000.0625,-46686.12890625,-400000.0625,-400000.0625,-400000.0625
8.008717060089111,-64670.140625,-50425.01171875,-72566.09375,-400000.0625,-46703.05859375,-400000.0625,-400000.0625,-400000.0625
8.034364461898804,-64669.328125,-50428.78125,-72572.4296875,-400000.0625,-46701.2890625,-400000.0625,-400000.0625,-400000.0625
8.075584650039673,-64650.01953125,-50409.1796875,-72549.8828125,-400000.0625,-46683.359375,-400000.0625,-400000.0625,-400000.0625
8.095070362091064,-64631.23046875,-50384.33984375,-72528.3203125,-400000.0625,-46665.76953125,-400000.0625,-400000.0625,-400000.0625
8.112380504608154,-64631.94921875,-50387.33984375,-72538.71875,-400000.0625,-46668.01171875,-400000.0625,-400000.0625,-400000.0625
8.133936882019043,-64650.828125,-50409.80078125,-72563.75,-400000.0625,-46675.0703125,-400000.0625,-400000.0625,-400000.0625
8.148958444595337,-64655.26171875,-50404.3203125,-72559.21875,-400000.0625,-46684.078125,-400000.0625,-400000.0625,-400000.0625
8.175400733947754,-64632.421875,-50382.71875,-72536.953125,-400000.0625,-46674.16015625,-400000.0625,-400000.0625,-400000.0625
8.189971446990967,-64607.53125,-50364.98046875,-72517.0234375,-400000.0625,-46650.83984375,-400000.0625,-400000.0625,-400000.0625
8.20872950553894,-64602.48046875,-50364.2109375,-72524.171875,-400000.0625,-46641.3984375,-400000.0625,-400000.0625,-400000.0625
8.229494094848633,-64621.30859375,-50388.91015625,-72545.25,-400000.0625,-46664.91015625,-400000.0625,-400000.0625,-400000.0625
8.243524074554443,-64623.4609375,-50389.53125,-72542.6328125,-400000.0625,-46687.55859375,-400000.0625,-400000.0625,-400000.0625
8.260570764541626,-64604.71875,-50368.3203125,-72526.03125,-400000.0625,-46660.48046875,-400000.0625,-400000.0625,-400000.0625
8.291358232498169,-64587.171875,-50340.1796875,-72505.4765625,-400000.0625,-46633.87109375,-400000.0625,-400000.0625,-400000.0625
8.31118392944336,-64587.7890625,-50339.37109375,-72504.7734375,-400000.0625,-46631.05859375,-400000.0625,-400000.0625,-400000.0625
8.33402395248413,-64606.25,-50355.6796875,-72527.609375,-400000.0625,-46660.19140625,-400000.0625,-400000.0625,-400000.0625
8.354122877120972,-64611.390625,-50358.2109375,-72533.65625,-400000.0625,-46665.859375,-400000.0625,-400000.0625,-400000.0625
8.367059230804443,-64590.03125,-50344.19140625,-72518.9296875,-400000.0625,-46645.55078125,-400000.0625,-400000.0625,-400000.0625
8.400195598602295,-64569.80859375,-50326.16015625,-72491.9921875,-400000.0625,-46623.7109375,-400000.0625,-400000.0625,-400000.0625
8.421559810638428,-64569.05078125,-50324.73046875,-72490.40625,-400000.0625,-46622.80859375,-400000.0625,-400000.0625,-400000.0625
8.438772439956665,-64583.3984375,-50332.69921875,-72510.4375,-400000.0625,-46641.01953125,-400000.0625,-400000.0625,-400000.0625
8.456342697143555,-64586.9296875,-50339.8515625,-72514.2578125,-400000.0625,-46645.98046875,-400000.0625,-400000.0625,-400000.0625
8.471242427825928,-64561.51953125,-50322.5390625,-72493.9375,-400000.0625,-46625.4296875,-400000.0625,-400000.0625,-400000.0625
8.506199598312378,-64537.9609375,-50303.80078125,-72471.90625,-400000.0625,-46606.01953125,-400000.0625,-400000.0625,-400000.0625
8.526565074920654,-64540.96875,-50301.609375,-72468.6171875,-400000.0625,-46608.640625,-400000.0625,-400000.0625,-400000.0625
8.542251110076904,-64557.75,-50311.328125,-72476.0078125,-400000.0625,-46622.80859375,-400000.0625,-400000.0625,-400000.0625
8.558953762054443,-64554.890625,-50320.6796875,-72489.5625,-400000.0625,-46630.1015625,-400000.0625,-400000.0625,-400000.0625
8.57157015800476,-64536.2890625,-50300.078125,-72477.6796875,-400000.0625,-46613.890625,-400000.0625,-400000.0625,-400000.0625
8.597704887390137,-64519.21875,-50277.671875,-72454.3203125,-400000.0625,-46583.12890625,-400000.0625,-400000.0625,-400000.0625
8.619550943374634,-64520.75,-50278.859375,-72447.6875,-400000.0625,-46580.21875,-400000.0625,-400000.0625,-400000.0625
8.636289596557617,-64537.25,-50289.30078125,-72467.1875,-400000.0625,-46619.51953125,-400000.0625,-400000.0625,-400000.0625
8.654922485351562,-64540.6796875,-50296.12109375,-72472.203125,-400000.0625,-46619.609375,-400000.0625,-400000.0625,-400000.0625
8.669590950012207,-64523.80078125,-50276.859375,-72451.890625,-400000.0625,-46601.5390625,-400000.0625,-400000.0625,-400000.0625
8.687828063964844,-64496.1015625,-50259.828125,-72439.8203125,-400000.0625,-46579.80078125,-400000.0625,-400000.0625,-400000.0625
8.72408938407898,-64495.859375,-50258.01953125,-72434.0,-400000.0625,-46577.6015625,-400000.0625,-400000.0625,-400000.0625
8.741061687469482,-64516.98046875,-50267.03125,-72440.4375,-400000.0625,-46587.28125,-400000.0625,-400000.0625,-400000.0625
8.75625491142273,-64519.83984375,-50272.51953125,-72450.9296875,-400000.0625,-46599.578125,-400000.0625,-400000.0625,-400000.0625
8.772526741027832,-64505.78125,-50250.578125,-72425.8984375,-400000.0625,-46582.80078125,-400000.0625,-400000.0625,-400000.0625
8.786049127578735,-64479.21875,-50232.078125,-72406.6328125,-400000.0625,-46563.76953125,-400000.0625,-400000.0625,-400000.0625
8.801560640335083,-64481.4609375,-50225.44921875,-72407.78125,-400000.0625,-46563.6796875,-400000.0625,-400000.0625,-400000.0625
8.845289707183838,-64502.91015625,-50251.58984375,-72430.5703125,-400000.0625,-46582.28125,-400000.0625,-400000.0625,-400000.0625
8.863322496414185,-64516.171875,-50262.5,-72443.0625,-400000.0625,-46593.80859375,-400000.0625,-400000.0625,-400000.0625
8.880446434020996,-64497.4296875,-50240.19140625,-72414.7421875,-400000.0625,-46578.6015625,-400000.0625,-400000.0625,-400000.0625
8.89548397064209,-64464.671875,-50201.0390625,-72379.0703125,-400000.0625,-46546.3203125,-400000.0625,-400000.0625,-400000.0625
8.911026000976562,-64456.37890625,-50173.91015625,-72366.7734375,-400000.0625,-46542.359375,-400000.0625,-400000.0625,-400000.0625
8.95053744316101,-64481.30859375,-50171.1015625,-72374.296875,-400000.0625,-46565.78125,-400000.0625,-400000.0625,-400000.0625
8.967628479003906,-64490.8515625,-50152.16015625,-72365.8203125,-400000.0625,-46569.26171875,-400000.0625,-400000.0625,-400000.0625
8.985981225967407,-64469.05859375,-50128.66015625,-72342.640625,-400000.0625,-46556.1015625,-400000.0625,-400000.0625,-400000.0625
9.002525806427002,-64443.73828125,-50094.8984375,-72307.453125,-400000.0625,-46539.98046875,-400000.0625,-400000.0625,-400000.0625
9.022556781768799,-64443.171875,-50062.609375,-72284.0390625,-400000.0625,-46535.640625,-400000.0625,-400000.0625,-400000.0625
9.060825109481812,-64452.66015625,-50049.41015625,-72286.8125,-400000.0625,-46553.0,-400000.0625,-400000.0625,-400000.0625
9.078492403030396,-64452.890625,-50048.3984375,-72291.1015625,-400000.0625,-46570.2109375,-400000.0625,-400000.0625,-400000.0625
9.095311164855957,-64441.3515625,-50012.87890625,-72245.890625,-400000.0625,-46550.1796875,-400000.0625,-400000.0625,-400000.0625
9.121081352233887,-64411.69921875,-49975.26171875,-72210.9921875,-400000.0625,-46534.109375,-400000.0625,-400000.0625,-400000.0625
9.141387701034546,-64409.55078125,-49951.26953125,-72191.8203125,-400000.0625,-46533.3515625,-400000.0625,-400000.0625,-400000.0625
9.173693656921387,-64417.46875,-49945.98046875,-72198.7265625,-400000.0625,-46551.94921875,-400000.0625,-400000.0625,-400000.0625
9.192296981811523,-64427.1484375,-49923.66015625,-72189.578125,-400000.0625,-46559.33984375,-400000.0625,-400000.0625,-400000.0625
9.211145401000977,-64404.0703125,-49894.9609375,-72151.2890625,-400000.0625,-46549.421875,-400000.0625,-400000.0625,-400000.0625
9.230031967163086,-64370.73828125,-49851.140625,-72111.421875,-400000.0625,-46536.5,-400000.0625,-400000.0625,-400000.0625
9.246930837631226,-64359.9609375,-49829.25,-72091.2109375,-400000.0625,-46535.16015625,-400000.0625,-400000.0625,-400000.0625
9.281786441802979,-64375.69140625,-49822.1015625,-72090.828125,-400000.0625,-46555.71875,-400000.0625,-400000.0625,-400000.0625
9.296815633773804,-64380.94140625,-49804.30859375,-72081.6171875,-400000.0625,-46564.6796875,-400000.0625,-400000.0625,-400000.0625
9.311724424362183,-64355.0,-49772.55078125,-72051.578125,-400000.0625,-46549.8515625,-400000.0625,-400000.0625,-400000.0625
9.334742307662964,-64324.23828125,-49737.69921875,-72016.7734375,-400000.0625,-46530.6796875,-400000.0625,-400000.0625,-400000.0625
9.350610256195068,-64318.23828125,-49725.25,-72004.0390625,-400000.0625,-46531.640625,-400000.0625,-400000.0625,-400000.0625
9.381482362747192,-64333.78125,-49730.828125,-72005.46875,-400000.0625,-46548.8984375,-400000.0625,-400000.0625,-400000.0625
9.40108036994934,-64337.359375,-49718.671875,-71989.5,-400000.0625,-46554.37890625,-400000.0625,-400000.0625,-400000.0625
9.423395872116089,-64323.671875,-49696.828125,-71957.5,-400000.0625,-46541.6484375,-400000.0625,-400000.0625,-400000.0625
9.44215726852417,-64296.3515625,-49666.94140625,-71930.5625,-400000.0625,-46528.8203125,-400000.0625,-400000.0625,-400000.0625
9.458269357681274,-64290.01171875,-49658.828125,-71921.828125,-400000.0625,-46526.48828125,-400000.0625,-400000.0625,-400000.0625
9.491997718811035,-64298.3515625,-49673.8515625,-71943.9609375,-400000.0625,-46540.26953125,-400000.0625,-400000.0625,-400000.0625
9.508012294769287,-64298.69140625,-49674.66015625,-71948.3515625,-400000.0625,-46542.83984375,-400000.0625,-400000.0625,-400000.0625
9.524522304534912,-64275.69921875,-49657.921875,-71928.4609375,-400000.0625,-46531.73046875,-400000.0625,-400000.0625,-400000.0625
9.538060426712036,-64251.62109375,-49636.26953125,-71902.5234375,-400000.0625,-46512.98828125,-400000.0625,-400000.0625,-400000.0625
9.55502724647522,-64250.2890625,-49634.80078125,-71902.046875,-400000.0625,-46513.37109375,-400000.0625,-400000.0625,-400000.0625
9.569762706756592,-64270.6484375,-49649.390625,-71922.21875,-400000.0625,-46527.6796875,-400000.0625,-400000.0625,-400000.0625
9.599739789962769,-64278.12890625,-49653.96875,-71926.9375,-400000.0625,-46533.5390625,-400000.0625,-400000.0625,-400000.0625
9.61988091468811,-64259.96875,-49643.80859375,-71911.0625,-400000.0625,-46520.23828125,-400000.0625,-400000.0625,-400000.0625
9.637037992477417,-64235.73828125,-49627.41015625,-71888.8828125,-400000.0625,-46503.30859375,-400000.0625,-400000.0625,-400000.0625
9.654321432113647,-64232.98046875,-49620.48828125,-71881.8828125,-400000.0625,-46503.83984375,-400000.0625,-400000.0625,-400000.0625
9.667890548706055,-64249.19140625,-49633.37109375,-71901.6171875,-400000.0625,-46519.23828125,-400000.0625,-400000.0625,-400000.0625
9.682804346084595,-64258.48828125,-49633.7890625,-71912.4375,-400000.0625,-46519.08984375,-400000.0625,-400000.0625,-400000.0625
9.707326889038086,-64239.98828125,-49622.44921875,-71894.609375,-400000.0625,-46511.26953125,-400000.0625,-400000.0625,-400000.0625
9.731083154678345,-64211.8984375,-49609.91015625,-71876.0078125,-400000.0625,-46497.6796875,-400000.0625,-400000.0625,-400000.0625
9.745792388916016,-64207.1796875,-49608.140625,-71873.2421875,-400000.0625,-46491.1015625,-400000.0625,-400000.0625,-400000.0625
9.7616868019104,-64226.2109375,-49621.48828125,-71885.3984375,-400000.0625,-46505.9296875,-400000.0625,-400000.0625,-400000.0625
9.7754967212677,-64229.44921875,-49621.109375,-71886.828125,-400000.0625,-46513.28125,-400000.0625,-400000.0625,-400000.0625
9.79413914680481,-64208.94140625,-49601.23046875,-71866.46875,-400000.0625,-46496.96875,-400000.0625,-400000.0625,-400000.0625
9.835835933685303,-64183.671875,-49586.01953125,-71846.921875,-400000.0625,-46473.6484375,-400000.0625,-400000.0625,-400000.0625
9.849894285202026,-64178.23828125,-49584.16015625,-71842.390625,-400000.0625,-46467.9296875,-400000.0625,-400000.0625,-400000.0625
9.867151498794556,-64199.12109375,-49593.21875,-71861.5625,-400000.0625,-46483.328125,-400000.0625,-400000.0625,-400000.0625
9.883570194244385,-64203.75,-49604.28125,-71872.90625,-400000.0625,-46489.19921875,-400000.0625,-400000.0625,-400000.0625
9.900767087936401,-64187.33984375,-49583.8203125,-71856.7890625,-400000.0625,-46477.0390625,-400000.0625,-400000.0625,-400000.0625
9.939374446868896,-64163.55078125,-49562.171875,-71835.0,-400000.0625,-46457.33984375,-400000.0625,-400000.0625,-400000.0625
9.95677924156189,-64162.69140625,-49565.078125,-71830.8125,-400000.0625,-46459.01171875,-400000.0625,-400000.0625,-400000.0625
9.973198890686035,-64173.80078125,-49577.91015625,-71850.3125,-400000.0625,-46474.98828125,-400000.0625,-400000.0625,-400000.0625
9.991456508636475,-64181.05078125,-49585.05859375,-71856.75,-400000.0625,-46479.76171875,-400000.0625,-400000.0625,-400000.0625
10.007305383682251,-64169.609375,-49572.7109375,-71843.0078125,-400000.0625,-46468.6015625,-400000.0625,-400000.0625,-400000.0625
10.045204401016235,-64147.671875,-49554.0703125,-71821.75,-400000.0625,-46446.28125,-400000.0625,-400000.0625,-400000.0625
10.061915636062622,-64141.421875,-49552.921875,-71815.7890625,-400000.0625,-46443.08984375,-400000.0625,-400000.0625,-400000.0625
10.082311868667603,-64163.41015625,-49566.8515625,-71831.09375,-400000.0625,-46454.2890625,-400000.0625,-400000.0625,-400000.0625
10.097975730895996,-64167.6484375,-49575.19140625,-71839.390625,-400000.0625,-46460.25,-400000.0625,-400000.0625,-400000.0625
10.119993925094604,-64149.62890625,-49558.12109375,-71824.3671875,-400000.0625,-46441.55859375,-400000.0625,-400000.0625,-400000.0625
10.15364384651184,-64127.26171875,-49536.76171875,-71799.4765625,-400000.0625,-46437.03125,-400000.0625,-400000.0625,-400000.0625
10.173694849014282,-64123.78125,-49532.80078125,-71800.671875,-400000.0625,-46438.94140625,-400000.0625,-400000.0625,-400000.0625
10.189862251281738,-64136.23046875,-49542.671875,-71817.5,-400000.0625,-46449.859375,-400000.0625,-400000.0625,-400000.0625
10.212114810943604,-64140.0390625,-49562.41015625,-71834.6171875,-400000.0625,-46458.44140625,-400000.0625,-400000.0625,-400000.0625
10.232621192932129,-64127.30859375,-49545.390625,-71813.96875,-400000.0625,-46442.69921875,-400000.0625,-400000.0625,-400000.0625
10.265418767929077,-64104.94921875,-49526.55078125,-71781.1171875,-400000.0625,-46423.73046875,-400000.0625,-400000.0625,-400000.0625
10.28422474861145,-64105.7109375,-49520.0703125,-71774.7265625,-400000.0625,-46417.671875,-400000.0625,-400000.0625,-400000.0625
10.30274224281311,-64117.73046875,-49532.12890625,-71791.28125,-400000.0625,-46430.55078125,-400000.0625,-400000.0625,-400000.0625
10.322359800338745,-64119.6796875,-49538.5703125,-71799.8125,-400000.0625,-46436.03125,-400000.0625,-400000.0625,-400000.0625
10.340835332870483,-64103.08984375,-49515.05859375,-71778.0234375,-400000.0625,-46422.30078125,-400000.0625,-400000.0625,-400000.0625
10.369868278503418,-64082.44140625,-49500.8984375,-71754.2734375,-400000.0625,-46404.03125,-400000.0625,-400000.0625,-400000.0625
10.386925458908081,-64073.859375,-49508.91015625,-71756.65625,-400000.0625,-46401.359375,-400000.0625,-400000.0625,-400000.0625
10.402961730957031,-64091.30859375,-49519.44921875,-71777.921875,-400000.0625,-46408.98828125,-400000.0625,-400000.0625,-400000.0625
10.422826766967773,-64100.80078125,-49520.44921875,-71782.9296875,-400000.0625,-46424.58984375,-400000.0625,-400000.0625,-400000.0625
10.439706802368164,-64085.2109375,-49507.1015625,-71767.6171875,-400000.0625,-46412.76171875,-400000.0625,-400000.0625,-400000.0625
10.455902338027954,-64061.21875,-49486.69140625,-71742.640625,-400000.0625,-46392.640625,-400000.0625,-400000.0625,-400000.0625
10.494769811630249,-64052.78125,-49482.3984375,-71736.7734375,-400000.0625,-46388.01171875,-400000.0625,-400000.0625,-400000.0625
10.514625310897827,-64067.66015625,-49495.94140625,-71755.1796875,-400000.0625,-46400.6484375,-400000.0625,-400000.0625,-400000.0625
10.5347421169281,-64075.859375,-49499.51953125,-71764.3828125,-400000.0625,-46409.0390625,-400000.0625,-400000.0625,-400000.0625
10.550496101379395,-64059.9296875,-49481.3515625,-71745.7890625,-400000.0625,-46395.12109375,-400000.0625,-400000.0625,-400000.0625
10.565243005752563,-64039.2890625,-49471.91015625,-71725.328125,-400000.0625,-46379.62109375,-400000.0625,-400000.0625,-400000.0625
10.599501609802246,-64034.328125,-49472.578125,-71720.609375,-400000.0625,-46379.05078125,-400000.0625,-400000.0625,-400000.0625
10.62288761138916,-64048.19921875,-49481.01953125,-71735.4921875,-400000.0625,-46396.0703125,-400000.0625,-400000.0625,-400000.0625
10.64274549484253,-64054.73828125,-49488.83984375,-71747.40625,-400000.0625,-46407.08984375,-400000.0625,-400000.0625,-400000.0625
10.658385038375854,-64041.671875,-49477.5390625,-71728.8125,-400000.0625,-46389.73046875,-400000.0625,-400000.0625,-400000.0625
10.675150632858276,-64012.109375,-49464.98828125,-71713.890625,-400000.0625,-46373.421875,-400000.0625,-400000.0625,-400000.0625
10.70780062675476,-64010.87109375,-49456.41015625,-71709.546875,-400000.0625,-46371.3203125,-400000.0625,-400000.0625,-400000.0625
10.73297381401062,-64025.4609375,-49469.5703125,-71724.28125,-400000.0625,-46386.1015625,-400000.0625,-400000.0625,-400000.0625
10.744310140609741,-64036.5703125,-49473.9609375,-71728.1875,-400000.0625,-46393.5,-400000.0625,-400000.0625,-400000.0625
10.761983156204224,-64021.5,-49467.51953125,-71714.2734375,-400000.0625,-46374.66015625,-400000.0625,-400000.0625,-400000.0625
10.776882648468018,-64003.08984375,-49453.6484375,-71694.3828125,-400000.0625,-46358.87890625,-400000.0625,-400000.0625,-400000.0625
10.808320999145508,-63998.08984375,-49451.3984375,-71691.6171875,-400000.0625,-46379.62109375,-400000.0625,-400000.0625,-400000.0625
10.830024719238281,-64018.2109375,-49462.37109375,-71708.2109375,-400000.0625,-46389.16015625,-400000.0625,-400000.0625,-400000.0625
10.845881462097168,-64028.078125,-49473.390625,-71721.3203125,-400000.0625,-46395.01953125,-400000.0625,-400000.0625,-400000.0625
10.85731029510498,-64011.48828125,-49462.0390625,-71710.2578125,-400000.0625,-46381.2890625,-400000.0625,-400000.0625,-400000.0625
10.871891975402832,-63985.16015625,-49450.01953125,-71692.4296875,-400000.0625,-46364.6015625,-400000.0625,-400000.0625,-400000.0625
10.8840491771698,-63985.9296875,-49443.8203125,-71688.953125,-400000.0625,-46361.55078125,-400000.0625,-400000.0625,-400000.0625
10.923935651779175,-64005.328125,-49453.6015625,-71701.4921875,-400000.0625,-46370.75,-400000.0625,-400000.0625,-400000.0625
10.938987731933594,-64016.48828125,-49458.1796875,-71711.0234375,-400000.0625,-46377.0390625,-400000.0625,-400000.0625,-400000.0625
10.955121994018555,-63997.8515625,-49451.44921875,-71693.7578125,-400000.0625,-46365.41015625,-400000.0625,-400000.0625,-400000.0625
10.970389366149902,-63971.1484375,-49438.1484375,-71672.5390625,-400000.0625,-46349.62890625,-400000.0625,-400000.0625,-400000.0625
10.98316478729248,-63968.7109375,-49434.19140625,-71671.6875,-400000.0625,-46347.71875,-400000.0625,-400000.0625,-400000.0625
11.000417947769165,-63981.58984375,-49442.9609375,-71676.3125,-400000.0625,-46359.44921875,-400000.0625,-400000.0625,-400000.0625
11.03690791130066,-63990.4609375,-49453.26171875,-71682.1796875,-400000.0625,-46366.7890625,-400000.0625,-400000.0625,-400000.0625
11.049358367919922,-63977.8203125,-49438.19921875,-71670.5390625,-400000.0625,-46356.2109375,-400000.0625,-400000.0625,-400000.0625
11.065523862838745,-63954.7890625,-49416.26171875,-71651.421875,-400000.0625,-46340.421875,-400000.0625,-400000.0625,-400000.0625
11.082337379455566,-63952.73828125,-49414.2109375,-71649.421875,-400000.0625,-46340.51953125,-400000.0625,-400000.0625,-400000.0625
11.100244283676147,-63967.140625,-49431.8515625,-71666.4375,-400000.0625,-46356.25,-400000.0625,-400000.0625,-400000.0625
11.124104261398315,-63973.8203125,-49436.62109375,-71675.3984375,-400000.0625,-46362.640625,-400000.0625,-400000.0625,-400000.0625
11.156392812728882,-63962.80078125,-49419.83984375,-71652.28125,-400000.0625,-46349.71875,-400000.0625,-400000.0625,-400000.0625
11.172938585281372,-63933.5703125,-49403.859375,-71637.453125,-400000.0625,-46333.12890625,-400000.0625,-400000.0625,-400000.0625
11.186946153640747,-63934.140625,-49401.62109375,-71628.90625,-400000.0625,-46325.30859375,-400000.0625,-400000.0625,-400000.0625
11.211310625076294,-63947.26171875,-49417.5,-71641.84375,-400000.0625,-46343.94921875,-400000.0625,-400000.0625,-400000.0625
11.232120275497437,-63953.41015625,-49418.6015625,-71648.1328125,-400000.0625,-46355.73046875,-400000.0625,-400000.0625,-400000.0625
11.265992164611816,-63946.05859375,-49411.640625,-71636.96875,-400000.0625,-46340.76171875,-400000.0625,-400000.0625,-400000.0625
11.281449794769287,-63922.26953125,-49399.19140625,-71616.0390625,-400000.0625,-46331.12890625,-400000.0625,-400000.0625,-400000.0625
11.297702074050903,-63911.73046875,-49389.80078125,-71610.171875,-400000.0625,-46327.828125,-400000.0625,-400000.0625,-400000.0625
11.312119722366333,-63928.51953125,-49400.33984375,-71625.2890625,-400000.0625,-46337.28125,-400000.0625,-400000.0625,-400000.0625
11.333892583847046,-63937.71875,-49409.109375,-71637.0234375,-400000.0625,-46343.8984375,-400000.0625,-400000.0625,-400000.0625
11.36435317993164,-63922.3203125,-49402.859375,-71626.390625,-400000.0625,-46337.12890625,-400000.0625,-400000.0625,-400000.0625
11.38012409210205,-63904.578125,-49383.83984375,-71607.0703125,-400000.0625,-46318.5390625,-400000.0625,-400000.0625,-400000.0625
11.391466617584229,-63898.4296875,-49380.87890625,-71605.5,-400000.0625,-46314.671875,-400000.0625,-400000.0625,-400000.0625
11.405694961547852,-63904.53125,-49393.55859375,-71614.2734375,-400000.0625,-46323.109375,-400000.0625,-400000.0625,-400000.0625
11.427867889404297,-63917.0703125,-49403.76953125,-71617.7109375,-400000.0625,-46329.30859375,-400000.0625,-400000.0625,-400000.0625
11.442531824111938,-63905.6796875,-49392.08984375,-71602.2578125,-400000.0625,-46319.3515625,-400000.0625,-400000.0625,-400000.0625
11.474152326583862,-63882.21875,-49381.171875,-71588.2421875,-400000.0625,-46304.76171875,-400000.0625,-400000.0625,-400000.0625
11.487420558929443,-63883.98046875,-49385.83984375,-71584.8125,-400000.0625,-46298.80078125,-400000.0625,-400000.0625,-400000.0625
11.498871564865112,-63900.0,-49409.05859375,-71594.90625,-400000.0625,-46311.1484375,-400000.0625,-400000.0625,-400000.0625
11.511768579483032,-63909.30078125,-49407.33984375,-71604.59375,-400000.0625,-46317.5390625,-400000.0625,-400000.0625,-400000.0625
11.5330228805542,-63922.03125,-49399.5703125,-71610.9375,-400000.0625,-46309.37890625,-400000.0625,-400000.0625,-400000.0625
11.548527717590332,-63908.25,-49396.140625,-71585.2265625,-400000.0625,-46293.359375,-400000.0625,-400000.0625,-400000.0625
11.583832502365112,-63893.23046875,-49423.55859375,-71586.328125,-400000.0625,-46279.25,-400000.0625,-400000.0625,-400000.0625
11.599549293518066,-63913.5390625,-49447.87890625,-71609.5078125,-400000.0625,-46273.7109375,-400000.0625,-400000.0625,-400000.0625
11.622880697250366,-63921.4609375,-49479.921875,-71618.796875,-400000.0625,-46265.94140625,-400000.0625,-400000.0625,-400000.0625
11.635510921478271,-63928.98828125,-49504.51953125,-71631.578125,-400000.0625,-46242.23828125,-400000.0625,-400000.0625,-400000.0625
11.650799989700317,-63932.140625,-49514.01171875,-71634.8671875,-400000.0625,-46215.05859375,-400000.0625,-400000.0625,-400000.0625
11.677530527114868,-63939.05078125,-49550.6796875,-71653.0390625,-400000.0625,-46194.51171875,-400000.0625,-400000.0625,-400000.0625
11.691272020339966,-63966.8515625,-49600.890625,-71681.359375,-400000.0625,-46185.828125,-400000.0625,-400000.0625,-400000.0625
11.707291603088379,-63986.98046875,-49660.12109375,-71714.6015625,-400000.0625,-46175.91015625,-400000.0625,-400000.0625,-400000.0625
11.730018615722656,-63996.1796875,-49683.05078125,-71740.109375,-400000.0625,-46155.171875,-400000.0625,-400000.0625,-400000.0625
11.750335454940796,-63986.171875,-49703.6484375,-71741.453125,-400000.0625,-46120.03125,-400000.0625,-400000.0625,-400000.0625
11.766921281814575,-63993.6484375,-49745.0390625,-71767.859375,-400000.0625,-46108.48828125,-400000.0625,-400000.0625,-400000.0625
11.794355630874634,-64011.62890625,-49786.2890625,-71803.046875,-400000.0625,-46120.73828125,-400000.0625,-400000.0625,-400000.0625
11.812316179275513,-64021.0703125,-49825.01171875,-71837.71875,-400000.0625,-46122.26953125,-400000.0625,-400000.0625,-400000.0625
11.836889743804932,-64019.16015625,-49837.44921875,-71852.640625,-400000.0625,-46110.44140625,-400000.0625,-400000.0625,-400000.0625
11.85357403755188,-63988.69140625,-49845.51171875,-71838.2421875,-400000.0625,-46093.08984375,-400000.0625,-400000.0625,-400000.0625
11.87296724319458,-63984.3984375,-49845.078125,-71851.6015625,-400000.0625,-46089.75,-400000.0625,-400000.0625,-400000.0625
11.902138710021973,-64006.33984375,-49856.71875,-71875.90625,-400000.0625,-46104.01171875,-400000.0625,-400000.0625,-400000.0625
11.924482345581055,-64013.05859375,-49872.2109375,-71892.6015625,-400000.0625,-46119.21875,-400000.0625,-400000.0625,-400000.0625
11.940402030944824,-64005.71875,-49868.3984375,-71895.5625,-400000.0625,-46115.44921875,-400000.0625,-400000.0625,-400000.0625
11.954961061477661,-63982.78125,-49860.33984375,-71891.21875,-400000.0625,-46111.6796875,-400000.0625,-400000.0625,-400000.0625
11.967540979385376,-63972.9609375,-49848.421875,-71895.2265625,-400000.0625,-46116.87890625,-400000.0625,-400000.0625,-400000.0625
11.984526872634888,-63986.01953125,-49859.9609375,-71901.8515625,-400000.0625,-46129.421875,-400000.0625,-400000.0625,-400000.0625
12.015296936035156,-63985.5,-49871.12109375,-71923.6875,-400000.0625,-46147.2109375,-400000.0625,-400000.0625,-400000.0625
12.02705693244934,-63979.58984375,-49862.44140625,-71923.21875,-400000.0625,-46146.05859375,-400000.0625,-400000.0625,-400000.0625
12.041245222091675,-63961.078125,-49848.609375,-71905.9609375,-400000.0625,-46133.48046875,-400000.0625,-400000.0625,-400000.0625
12.05734634399414,-63955.078125,-49849.46875,-71917.828125,-400000.0625,-46140.01171875,-400000.0625,-400000.0625,-400000.0625
12.069432497024536,-63963.0390625,-49855.4296875,-71935.2265625,-400000.0625,-46157.4609375,-400000.0625,-400000.0625,-400000.0625
12.085026741027832,-63964.140625,-49860.578125,-71950.15625,-400000.0625,-46172.71875,-400000.0625,-400000.0625,-400000.0625
12.124433040618896,-63946.25,-49843.171875,-71935.8515625,-400000.0625,-46173.859375,-400000.0625,-400000.0625,-400000.0625
12.142486333847046,-63920.69921875,-49820.0,-71911.6796875,-400000.0625,-46160.078125,-400000.0625,-400000.0625,-400000.0625
12.157861471176147,-63913.9296875,-49810.26953125,-71906.3828125,-400000.0625,-46163.1796875,-400000.0625,-400000.0625,-400000.0625
12.173627138137817,-63924.98828125,-49817.19140625,-71917.640625,-400000.0625,-46186.30859375,-400000.0625,-400000.0625,-400000.0625
12.187434911727905,-63938.48046875,-49822.76953125,-71928.1328125,-400000.0625,-46197.12890625,-400000.0625,-400000.0625,-400000.0625
12.226240396499634,-63928.328125,-49812.37109375,-71913.6796875,-400000.0625,-46192.69921875,-400000.0625,-400000.0625,-400000.0625
12.247593402862549,-63907.33984375,-49790.9609375,-71888.9296875,-400000.0625,-46180.3515625,-400000.0625,-400000.0625,-400000.0625
12.265647411346436,-63893.7109375,-49785.94921875,-71885.2578125,-400000.0625,-46176.05859375,-400000.0625,-400000.0625,-400000.0625
12.281710147857666,-63894.80078125,-49787.4296875,-71895.8515625,-400000.0625,-46189.5,-400000.0625,-400000.0625,-400000.0625
12.299514532089233,-63908.62890625,-49784.08984375,-71903.09375,-400000.0625,-46202.51953125,-400000.0625,-400000.0625,-400000.0625
12.334282159805298,-63898.05078125,-49773.26953125,-71894.9375,-400000.0625,-46196.3203125,-400000.0625,-400000.0625,-400000.0625
12.351425409317017,-63879.0703125,-49753.4296875,-71876.296875,-400000.0625,-46183.0703125,-400000.0625,-400000.0625,-400000.0625
12.366984605789185,-63868.671875,-49749.19140625,-71864.953125,-400000.0625,-46180.78125,-400000.0625,-400000.0625,-400000.0625
12.37707805633545,-63881.26171875,-49756.53125,-71877.25,-400000.0625,-46197.3203125,-400000.0625,-400000.0625,-400000.0625
12.393820762634277,-63888.98828125,-49762.2109375,-71884.640625,-400000.0625,-46210.1015625,-400000.0625,-400000.0625,-400000.0625
12.410691976547241,-63875.640625,-49755.1484375,-71871.1484375,-400000.0625,-46203.94921875,-400000.0625,-400000.0625,-400000.0625
12.450722694396973,-63854.98828125,-49733.73828125,-71844.8203125,-400000.0625,-46184.828125,-400000.0625,-400000.0625,-400000.0625
12.468043804168701,-63845.44921875,-49722.53125,-71841.7734375,-400000.0625,-46179.01171875,-400000.0625,-400000.0625,-400000.0625
12.482064247131348,-63861.37890625,-49736.21875,-71855.2734375,-400000.0625,-46191.98046875,-400000.0625,-400000.0625,-400000.0625
12.501529693603516,-63875.25,-49743.8515625,-71861.9375,-400000.0625,-46203.23828125,-400000.0625,-400000.0625,-400000.0625
12.523573875427246,-63866.9609375,-49731.828125,-71852.640625,-400000.0625,-46196.55859375,-400000.0625,-400000.0625,-400000.0625
12.553654193878174,-63843.640625,-49717.23828125,-71839.53125,-400000.0625,-46183.78125,-400000.0625,-400000.0625,-400000.0625
12.568291664123535,-63831.91015625,-49714.05078125,-71837.1484375,-400000.0625,-46183.0703125,-400000.0625,-400000.0625,-400000.0625
12.584192514419556,-63847.98046875,-49717.2890625,-71847.78125,-400000.0625,-46190.3203125,-400000.0625,-400000.0625,-400000.0625
12.59953498840332,-63851.94140625,-49722.9609375,-71844.7265625,-400000.0625,-46198.1796875,-400000.0625,-400000.0625,-400000.0625
12.621068716049194,-63842.69140625,-49718.0,-71839.203125,-400000.0625,-46202.51953125,-400000.0625,-400000.0625,-400000.0625
12.635422945022583,-63825.80859375,-49705.37109375,-71829.28125,-400000.0625,-46184.3984375,-400000.0625,-400000.0625,-400000.0625
12.669820070266724,-63811.171875,-49698.55078125,-71816.0703125,-400000.0625,-46176.05859375,-400000.0625,-400000.0625,-400000.0625
12.684829711914062,-63821.421875,-49700.21875,-71822.75,-400000.0625,-46187.26171875,-400000.0625,-400000.0625,-400000.0625
12.702481508255005,-63831.9609375,-49714.140625,-71839.90625,-400000.0625,-46198.55859375,-400000.0625,-400000.0625,-400000.0625
12.721808195114136,-63819.37109375,-49706.078125,-71831.0,-400000.0625,-46189.98046875,-400000.0625,-400000.0625,-400000.0625
12.736300706863403,-63801.05859375,-49683.19921875,-71804.2890625,-400000.0625,-46173.390625,-400000.0625,-400000.0625,-400000.0625
12.775759935379028,-63795.76171875,-49673.609375,-71798.7109375,-400000.0625,-46169.859375,-400000.0625,-400000.0625,-400000.0625
12.790940761566162,-63805.73046875,-49689.48828125,-71813.59375,-400000.0625,-46184.30859375,-400000.0625,-400000.0625,-400000.0625
12.811601638793945,-63820.078125,-49695.12109375,-71825.703125,-400000.0625,-46194.1796875,-400000.0625,-400000.0625,-400000.0625
12.838377952575684,-63807.3515625,-49694.3984375,-71823.21875,-400000.0625,-46186.359375,-400000.0625,-400000.0625,-400000.0625
12.87425184249878,-63783.83984375,-49693.3984375,-71811.59375,-400000.0625,-46173.23828125,-400000.0625,-400000.0625,-400000.0625
12.891817331314087,-63777.0703125,-49677.80859375,-71800.1875,-400000.0625,-46165.0390625,-400000.0625,-400000.0625,-400000.0625
12.90689492225647,-63789.1796875,-49685.19921875,-71807.7265625,-400000.0625,-46168.91015625,-400000.0625,-400000.0625,-400000.0625
12.92782974243164,-63799.01171875,-49699.7890625,-71820.359375,-400000.0625,-46179.3984375,-400000.0625,-400000.0625,-400000.0625
12.941847085952759,-63795.4296875,-49691.96875,-71808.296875,-400000.0625,-46196.1796875,-400000.0625,-400000.0625,-400000.0625
12.97975492477417,-63776.98046875,-49669.21875,-71782.6875,-400000.0625,-46173.71875,-400000.0625,-400000.0625,-400000.0625
12.992128610610962,-63771.44921875,-49665.7890625,-71780.640625,-400000.0625,-46167.80859375,-400000.0625,-400000.0625,-400000.0625
13.00537657737732,-63785.75,-49679.5703125,-71798.046875,-400000.0625,-46180.30078125,-400000.0625,-400000.0625,-400000.0625
13.028095483779907,-63796.71875,-49686.19921875,-71807.25,-400000.0625,-46190.12109375,-400000.0625,-400000.0625,-400000.0625
13.05037546157837,-63792.4296875,-49685.8203125,-71804.9609375,-400000.0625,-46181.44921875,-400000.0625,-400000.0625,-400000.0625
13.090634107589722,-63771.109375,-49678.05078125,-71790.421875,-400000.0625,-46166.140625,-400000.0625,-400000.0625,-400000.0625
13.105226993560791,-63762.578125,-49668.6015625,-71784.9765625,-400000.0625,-46162.55859375,-400000.0625,-400000.0625,-400000.0625
13.126938581466675,-63783.12890625,-49683.1484375,-71798.140625,-400000.0625,-46176.578125,-400000.0625,-400000.0625,-400000.0625
13.145915031433105,-63793.08984375,-49692.3515625,-71802.4765625,-400000.0625,-46186.9296875,-400000.0625,-400000.0625,-400000.0625
13.160593271255493,-63774.73828125,-49681.0,-71792.9375,-400000.0625,-46181.30078125,-400000.0625,-400000.0625,-400000.0625
13.19921588897705,-63753.66015625,-49667.26953125,-71771.390625,-400000.0625,-46164.1796875,-400000.0625,-400000.0625,-400000.0625
13.221638441085815,-63750.12890625,-49660.3515625,-71767.671875,-400000.0625,-46158.3203125,-400000.0625,-400000.0625,-400000.0625
13.237590551376343,-63767.5390625,-49665.69921875,-71781.2578125,-400000.0625,-46171.37890625,-400000.0625,-400000.0625,-400000.0625
13.25309157371521,-63781.078125,-49677.80859375,-71790.5625,-400000.0625,-46179.62890625,-400000.0625,-400000.0625,-400000.0625
13.272713661193848,-63768.48828125,-49683.1484375,-71793.0390625,-400000.0625,-46176.30078125,-400000.0625,-400000.0625,-400000.0625
13.302636623382568,-63753.37109375,-49670.1796875,-71777.0703125,-400000.0625,-46165.28125,-400000.0625,-400000.0625,-400000.0625
13.32471752166748,-63750.1796875,-49665.12109375,-71768.34375,-400000.0625,-46161.37109375,-400000.0625,-400000.0625,-400000.0625
13.340022802352905,-63758.23828125,-49673.8515625,-71784.9296875,-400000.0625,-46174.1484375,-400000.0625,-400000.0625,-400000.0625
13.358935832977295,-63765.8203125,-49682.1015625,-71794.140625,-400000.0625,-46184.16015625,-400000.0625,-400000.0625,-400000.0625
13.37574315071106,-63760.33984375,-49677.7109375,-71784.078125,-400000.0625,-46175.6796875,-400000.0625,-400000.0625,-400000.0625
13.410114288330078,-63745.26953125,-49662.2109375,-71758.9921875,-400000.0625,-46162.28125,-400000.0625,-400000.0625,-400000.0625
13.430078744888306,-63737.69140625,-49651.48828125,-71747.40625,-400000.0625,-46154.359375,-400000.0625,-400000.0625,-400000.0625
13.44652533531189,-63748.75,-49671.55859375,-71769.0625,-400000.0625,-46168.62109375,-400000.0625,-400000.0625,-400000.0625
13.465071678161621,-63765.44140625,-49687.921875,-71783.03125,-400000.0625,-46181.78125,-400000.0625,-400000.0625,-400000.0625
13.481091260910034,-63756.5703125,-49681.4296875,-71768.2421875,-400000.0625,-46174.71875,-400000.0625,-400000.0625,-400000.0625
13.508845329284668,-63741.87890625,-49682.76953125,-71755.2265625,-400000.0625,-46159.4609375,-400000.0625,-400000.0625,-400000.0625
13.528675079345703,-63737.44921875,-49683.4296875,-71748.0703125,-400000.0625,-46153.30859375,-400000.0625,-400000.0625,-400000.0625
13.547852277755737,-63744.98046875,-49701.26953125,-71750.21875,-400000.0625,-46157.37109375,-400000.0625,-400000.0625,-400000.0625
13.563882112503052,-63752.8515625,-49705.8515625,-71763.1875,-400000.0625,-46163.8515625,-400000.0625,-400000.0625,-400000.0625
13.580427408218384,-63763.05078125,-49720.8203125,-71768.859375,-400000.0625,-46153.69140625,-400000.0625,-400000.0625,-400000.0625
13.597163677215576,-63756.80859375,-49718.4296875,-71760.09375,-400000.0625,-46134.2890625,-400000.0625,-400000.0625,-400000.0625
13.631723165512085,-63752.609375,-49741.0390625,-71761.953125,-400000.0625,-46120.41015625,-400000.0625,-400000.0625,-400000.0625
13.645907163619995,-63767.5390625,-49767.26171875,-71779.453125,-400000.0625,-46121.94140625,-400000.0625,-400000.0625,-400000.0625
13.664299011230469,-63784.55859375,-49812.0390625,-71797.7578125,-400000.0625,-46124.51171875,-400000.0625,-400000.0625,-400000.0625
13.678658723831177,-63807.44921875,-49844.1796875,-71814.78125,-400000.0625,-46117.171875,-400000.0625,-400000.0625,-400000.0625
13.695236682891846,-63806.58984375,-49827.76953125,-71802.90625,-400000.0625,-46093.1796875,-400000.0625,-400000.0625,-400000.0625
13.711411237716675,-63804.05859375,-49847.3203125,-71794.8515625,-400000.0625,-46054.98828125,-400000.0625,-400000.0625,-400000.0625
13.74686598777771,-63850.98046875,-49896.91015625,-71819.546875,-400000.0625,-46045.9296875,-400000.0625,-400000.0625,-400000.0625
13.76274037361145,-63884.69921875,-49959.28125,-71841.7734375,-400000.0625,-46052.94140625,-400000.0625,-400000.0625,-400000.0625
13.779558897018433,-63885.6484375,-49990.140625,-71853.21875,-400000.0625,-46035.01171875,-400000.0625,-400000.0625,-400000.0625
13.795104742050171,-63882.7890625,-50004.19921875,-71842.1484375,-400000.0625,-45995.1015625,-400000.0625,-400000.0625,-400000.0625
13.80881953239441,-63892.55859375,-50018.03125,-71845.25,-400000.0625,-45969.96875,-400000.0625,-400000.0625,-400000.0625
13.831665992736816,-63906.19921875,-50052.51171875,-71878.6328125,-400000.0625,-45974.55078125,-400000.0625,-400000.0625,-400000.0625
13.86617636680603,-63916.55078125,-50081.3515625,-71904.90625,-400000.0625,-45978.890625,-400000.0625,-400000.0625,-400000.0625
13.887104988098145,-63914.0703125,-50084.55078125,-71903.1875,-400000.0625,-45966.19921875,-400000.0625,-400000.0625,-400000.0625
13.902175664901733,-63897.0,-50068.4296875,-71881.109375,-400000.0625,-45947.75,-400000.0625,-400000.0625,-400000.0625
13.92521595954895,-63880.55078125,-50074.5390625,-71881.59375,-400000.0625,-45947.75,-400000.0625,-400000.0625,-400000.0625
13.937928676605225,-63877.73046875,-50082.58984375,-71898.8984375,-400000.0625,-45966.5390625,-400000.0625,-400000.0625,-400000.0625
13.969995260238647,-63883.7890625,-50077.640625,-71912.1484375,-400000.0625,-45988.28125,-400000.0625,-400000.0625,-400000.0625
13.985766172409058,-63872.6796875,-50059.609375,-71897.8515625,-400000.0625,-45989.5703125,-400000.0625,-400000.0625,-400000.0625
13.999851703643799,-63855.75,-50037.91015625,-71876.6328125,-400000.0625,-45977.41015625,-400000.0625,-400000.0625,-400000.0625
14.021876096725464,-63838.96875,-50025.76171875,-71868.2890625,-400000.0625,-45985.1796875,-400000.0625,-400000.0625,-400000.0625
14.037307977676392,-63843.828125,-50020.078125,-71877.8203125,-400000.0625,-46008.0703125,-400000.0625,-400000.0625,-400000.0625
14.051635026931763,-63842.73046875,-50014.26171875,-71889.9765625,-400000.0625,-46029.140625,-400000.0625,-400000.0625,-400000.0625
14.083718299865723,-63832.390625,-49987.12890625,-71878.296875,-400000.0625,-46030.53125,-400000.0625,-400000.0625,-400000.0625
14.099434852600098,-63808.0703125,-49954.94140625,-71845.4375,-400000.0625,-46018.55859375,-400000.0625,-400000.0625,-400000.0625
14.110904455184937,-63798.19921875,-49942.0703125,-71832.953125,-400000.0625,-46024.421875,-400000.0625,-400000.0625,-400000.0625
14.133771896362305,-63804.48828125,-49939.921875,-71841.8203125,-400000.0625,-46047.03125,-400000.0625,-400000.0625,-400000.0625
14.14841628074646,-63811.828125,-49928.859375,-71852.453125,-400000.0625,-46064.19140625,-400000.0625,-400000.0625,-400000.0625
14.16257357597351,-63795.671875,-49915.1796875,-71842.7734375,-400000.0625,-46068.44140625,-400000.0625,-400000.0625,-400000.0625
14.196408033370972,-63767.30078125,-49887.328125,-71819.84375,-400000.0625,-46064.0,-400000.0625,-400000.0625,-400000.0625
14.213313341140747,-63753.76171875,-49867.828125,-71811.3984375,-400000.0625,-46066.390625,-400000.0625,-400000.0625,-400000.0625
14.234977960586548,-63759.76171875,-49869.96875,-71823.21875,-400000.0625,-46086.51171875,-400000.0625,-400000.0625,-400000.0625
14.249282121658325,-63764.6796875,-49871.16015625,-71833.7109375,-400000.0625,-46107.578125,-400000.0625,-400000.0625,-400000.0625
14.264097929000854,-63760.859375,-49851.0390625,-71818.21875,-400000.0625,-46104.1015625,-400000.0625,-400000.0625,-400000.0625
14.290553569793701,-63743.73828125,-49832.2109375,-71794.7109375,-400000.0625,-46095.0390625,-400000.0625,-400000.0625,-400000.0625
14.303373336791992,-63728.19921875,-49826.01171875,-71782.7890625,-400000.0625,-46097.328125,-400000.0625,-400000.0625,-400000.0625
14.321648120880127,-63734.96875,-49831.828125,-71792.65625,-400000.0625,-46112.01953125,-400000.0625,-400000.0625,-400000.0625
14.337414503097534,-63741.7890625,-49828.390625,-71804.25,-400000.0625,-46125.51171875,-400000.0625,-400000.0625,-400000.0625
14.351342916488647,-63730.8203125,-49817.19140625,-71796.0390625,-400000.0625,-46124.94140625,-400000.0625,-400000.0625,-400000.0625
14.366109848022461,-63715.890625,-49796.2109375,-71771.25,-400000.0625,-46109.16015625,-400000.0625,-400000.0625,-400000.0625
14.398677825927734,-63703.5390625,-49789.1484375,-71763.8125,-400000.0625,-46108.05859375,-400000.0625,-400000.0625,-400000.0625
14.411704301834106,-63717.1796875,-49793.44140625,-71776.2578125,-400000.0625,-46116.73828125,-400000.0625,-400000.0625,-400000.0625
14.439240217208862,-63730.578125,-49798.2109375,-71784.9296875,-400000.0625,-46133.94921875,-400000.0625,-400000.0625,-400000.0625
14.455239057540894,-63717.23046875,-49797.73046875,-71777.2109375,-400000.0625,-46135.91015625,-400000.0625,-400000.0625,-400000.0625
14.472713708877563,-63698.3515625,-49779.94921875,-71752.890625,-400000.0625,-46119.7890625,-400000.0625,-400000.0625,-400000.0625
14.504412412643433,-63690.80859375,-49775.3203125,-71742.921875,-400000.0625,-46114.55078125,-400000.0625,-400000.0625,-400000.0625
14.530864953994751,-63701.3515625,-49782.5703125,-71754.421875,-400000.0625,-46130.08984375,-400000.0625,-400000.0625,-400000.0625
14.551323413848877,-63714.609375,-49789.390625,-71764.53125,-400000.0625,-46140.44140625,-400000.0625,-400000.0625,-400000.0625
14.569159507751465,-63708.4609375,-49782.23046875,-71760.2265625,-400000.0625,-46141.48828125,-400000.0625,-400000.0625,-400000.0625
14.58529543876648,-63686.4296875,-49764.109375,-71739.109375,-400000.0625,-46129.8984375,-400000.0625,-400000.0625,-400000.0625
14.62368106842041,-63671.69140625,-49752.9609375,-71738.0625,-400000.0625,-46126.98828125,-400000.0625,-400000.0625,-400000.0625
14.638901472091675,-63688.37890625,-49756.6796875,-71744.8828125,-400000.0625,-46141.109375,-400000.0625,-400000.0625,-400000.0625
14.65375280380249,-63705.828125,-49766.12109375,-71758.5625,-400000.0625,-46153.98046875,-400000.0625,-400000.0625,-400000.0625
14.671719074249268,-63698.48828125,-49766.98046875,-71751.359375,-400000.0625,-46149.44921875,-400000.0625,-400000.0625,-400000.0625
14.684784889221191,-63680.66015625,-49746.8515625,-71729.046875,-400000.0625,-46135.19140625,-400000.0625,-400000.0625,-400000.0625
14.702107906341553,-63674.98046875,-49738.41015625,-71730.4296875,-400000.0625,-46134.1015625,-400000.0625,-400000.0625,-400000.0625
14.739702463150024,-63685.23046875,-49745.421875,-71740.15625,-400000.0625,-46142.05859375,-400000.0625,-400000.0625,-400000.0625
14.755412340164185,-63688.0,-49751.859375,-71740.6796875,-400000.0625,-46147.2109375,-400000.0625,-400000.0625,-400000.0625
14.769943475723267,-63684.609375,-49746.8515625,-71742.15625,-400000.0625,-46150.55078125,-400000.0625,-400000.0625,-400000.0625
14.783532857894897,-63667.58984375,-49730.5,-71726.09375,-400000.0625,-46134.2890625,-400000.0625,-400000.0625,-400000.0625
14.79765009880066,-63657.859375,-49728.0703125,-71724.28125,-400000.0625,-46135.37890625,-400000.0625,-400000.0625,-400000.0625
14.822182893753052,-63675.4609375,-49734.87890625,-71729.53125,-400000.0625,-46147.640625,-400000.0625,-400000.0625,-400000.0625
14.851398944854736,-63684.28125,-49739.078125,-71735.0625,-400000.0625,-46155.3203125,-400000.0625,-400000.0625,-400000.0625
14.869954586029053,-63675.83984375,-49735.890625,-71729.5703125,-400000.0625,-46147.78125,-400000.0625,-400000.0625,-400000.0625
14.886261463165283,-63667.69140625,-49724.87109375,-71712.359375,-400000.0625,-46121.4609375,-400000.0625,-400000.0625,-400000.0625
14.905016899108887,-63663.48828125,-49715.05078125,-71708.640625,-400000.0625,-46138.390625,-400000.0625,-400000.0625,-400000.0625
15.443456649780273,-64126.44921875,-49698.87890625,-72198.0234375,-400000.0625,-46476.94140625,-400000.0625,-400000.0625,-400000.0625
15.502682209014893,-64084.16015625,-49656.5390625,-72156.4375,-400000.0625,-46446.8515625,-400000.0625,-400000.0625,-400000.0625
15.619363069534302,-64034.1796875,-49628.5,-72107.3671875,-400000.0625,-46414.94921875,-400000.0625,-400000.0625,-400000.0625
15.696791172027588,-64028.94140625,-49603.8984375,-72095.7421875,-400000.0625,-46415.23828125,-400000.0625,-400000.0625,-400000.0625
15.758647680282593,-64066.51171875,-49635.078125,-72144.609375,-400000.0625,-46447.37890625,-400000.0625,-400000.0625,-400000.0625
15.813649415969849,-64047.01171875,-49611.33984375,-72071.2265625,-400000.0625,-46428.01953125,-400000.0625,-400000.0625,-400000.0625
15.95227861404419,-64059.12109375,-49613.23828125,-72126.59375,-400000.0625,-46439.03125,-400000.0625,-400000.0625,-400000.0625
16.068910598754883,-64054.12109375,-49637.37109375,-72129.59375,-400000.0625,-46442.12890625,-400000.0625,-400000.0625,-400000.0625
16.138846397399902,-64070.8515625,-49656.44140625,-72135.546875,-400000.0625,-46454.578125,-400000.0625,-400000.0625,-400000.0625
16.237624406814575,-64006.37890625,-49611.80859375,-72081.046875,-400000.0625,-46411.7109375,-400000.0625,-400000.0625,-400000.0625
16.34434223175049,-64032.75,-49655.3515625,-72074.46875,-400000.0625,-46434.98046875,-400000.0625,-400000.0625,-400000.0625
16.404783964157104,-64079.05078125,-49705.12890625,-72149.8125,-400000.0625,-46485.859375,-400000.0625,-400000.0625,-400000.0625
16.45218515396118,-64073.140625,-49672.46875,-72130.640625,-400000.0625,-46468.12109375,-400000.0625,-400000.0625,-400000.0625
16.588828563690186,-64093.171875,-49718.48046875,-72137.3203125,-400000.0625,-46489.05078125,-400000.0625,-400000.0625,-400000.0625
16.792229652404785,-64097.75,-49757.33984375,-72146.3828125,-400000.0625,-46511.75,-400000.0625,-400000.0625,-400000.0625
16.902149438858032,-64092.69140625,-49769.55078125,-72107.5078125,-400000.0625,-46494.8203125,-400000.0625,-400000.0625,-400000.0625
16.970078468322754,-64130.26953125,-49786.140625,-72149.0,-400000.0625,-46525.76953125,-400000.0625,-400000.0625,-400000.0625
17.04154944419861,-64152.109375,-49833.01953125,-72168.3125,-400000.0625,-46544.83984375,-400000.0625,-400000.0625,-400000.0625
17.102412462234497,-64150.19921875,-49816.609375,-72171.7890625,-400000.0625,-46540.55078125,-400000.0625,-400000.0625,-400000.0625
17.159757614135742,-64130.171875,-49832.96875,-72134.359375,-400000.0625,-46528.921875,-400000.0625,-400000.0625,-400000.0625
17.217565774917603,-64097.98046875,-49803.359375,-72101.21875,-400000.0625,-46500.01953125,-400000.0625,-400000.0625,-400000.0625
17.290311098098755,-64094.26171875,-49820.859375,-72091.6796875,-400000.0625,-46490.8203125,-400000.0625,-400000.0625,-400000.0625
17.41147494316101,-64301.44921875,-49873.2109375,-72019.4375,-400000.0625,-46539.6484375,-400000.0625,-400000.0625,-400000.0625
17.497626066207886,-64316.51953125,-49864.25,-72012.8125,-400000.0625,-46525.8203125,-400000.0625,-400000.0625,-400000.0625
17.560285806655884,-64269.41015625,-49845.6484375,-71960.4609375,-400000.0625,-46525.87109375,-400000.0625,-400000.0625,-400000.0625
17.60619854927063,-64258.1484375,-49852.7109375,-71966.28125,-400000.0625,-46517.28125,-400000.0625,-400000.0625,-400000.0625
17.749438285827637,-64302.26171875,-49935.05859375,-71999.75,-400000.0625,-46546.12890625,-400000.0625,-400000.0625,-400000.0625
17.794191360473633,-64256.25,-49896.390625,-72002.46875,-400000.0625,-46518.76171875,-400000.0625,-400000.0625,-400000.0625
17.865785121917725,-64304.0703125,-49920.94921875,-72014.6328125,-400000.0625,-46538.12109375,-400000.0625,-400000.0625,-400000.0625
17.951305627822876,-64319.08984375,-49951.26953125,-72033.21875,-400000.0625,-46566.6796875,-400000.0625,-400000.0625,-400000.0625
17.99981117248535,-64329.48828125,-49981.7890625,-72063.8828125,-400000.0625,-46567.44921875,-400000.0625,-400000.0625,-400000.0625
18.151169061660767,-64268.7890625,-49922.5703125,-71994.2734375,-400000.0625,-46522.37890625,-400000.0625,-400000.0625,-400000.0625
18.251421213150024,-64323.859375,-49980.87890625,-72055.78125,-400000.0625,-46590.37890625,-400000.0625,-400000.0625,-400000.0625
18.312525272369385,-64290.1015625,-49959.51953125,-72037.65625,-400000.0625,-46558.578125,-400000.0625,-400000.0625,-400000.0625
18.39399528503418,-64307.69921875,-49967.87109375,-72044.671875,-400000.0625,-46581.23046875,-400000.0625,-400000.0625,-400000.0625
18.516124486923218,-64307.3203125,-49962.23828125,-72006.3828125,-400000.0625,-46562.6796875,-400000.0625,-400000.0625,-400000.0625
18.629937410354614,-64298.69140625,-49971.3984375,-72031.21875,-400000.0625,-46568.921875,-400000.0625,-400000.0625,-400000.0625
18.784088134765625,-64292.62890625,-49982.12109375,-72025.15625,-400000.0625,-46551.51953125,-400000.0625,-400000.0625,-400000.0625
18.819965362548828,-64296.73046875,-49969.8203125,-72020.5390625,-400000.0625,-46546.51171875,-400000.0625,-400000.0625,-400000.0625
18.899378299713135,-64340.98046875,-49993.23046875,-72056.78125,-400000.0625,-46570.69140625,-400000.0625,-400000.0625,-400000.0625
19.097808599472046,-64321.80859375,-49974.5390625,-72009.2421875,-400000.0625,-46553.23828125,-400000.0625,-400000.0625,-400000.0625
19.163533687591553,-64333.87890625,-49973.73046875,-72009.4296875,-400000.0625,-46558.4296875,-400000.0625,-400000.0625,-400000.0625
19.267734050750732,-64371.78125,-50012.30859375,-72050.6328125,-400000.0625,-46586.8984375,-400000.0625,-400000.0625,-400000.0625
19.34962296485901,-64316.23046875,-50001.44140625,-72124.0625,-400000.0625,-46584.66015625,-400000.0625,-400000.0625,-400000.0625
19.42107844352722,-64191.3984375,-49968.53125,-72166.1171875,-400000.0625,-46590.0,-400000.0625,-400000.0625,-400000.0625
19.532172679901123,-64175.46875,-50134.62109375,-72250.328125,-400000.0625,-46506.12109375,-400000.0625,-400000.0625,-400000.0625
19.787195920944214,-64166.69921875,-49990.23046875,-72152.7734375,-400000.0625,-46562.05859375,-400000.0625,-400000.0625,-400000.0625
19.8581759929657,-64155.44140625,-49971.3984375,-72130.3984375,-400000.0625,-46561.91015625,-400000.0625,-400000.0625,-400000.0625
19.91462278366089,-64212.37890625,-50009.5,-72177.609375,-400000.0625,-46601.3984375,-400000.0625,-400000.0625,-400000.0625
19.978459358215332,-64224.8203125,-50008.828125,-72185.4765625,-400000.0625,-46598.9609375,-400000.0625,-400000.0625,-400000.0625
20.062265157699585,-64169.83984375,-49966.62890625,-72148.140625,-400000.0625,-46559.671875,-400000.0625,-400000.0625,-400000.0625
20.164905548095703,-64200.98046875,-49984.26953125,-72154.578125,-400000.0625,-46590.62109375,-400000.0625,-400000.0625,-400000.0625
20.3064923286438,-64242.3203125,-50018.171875,-72188.71875,-400000.0625,-46619.8515625,-400000.0625,-400000.0625,-400000.0625
20.35541534423828,-64203.4609375,-49997.19140625,-72178.8984375,-400000.0625,-46606.30859375,-400000.0625,-400000.0625,-400000.0625
20.493648529052734,-64181.19140625,-49971.48828125,-72144.953125,-400000.0625,-46578.4609375,-400000.0625,-400000.0625,-400000.0625
20.552306652069092,-64176.66015625,-49971.48828125,-72137.359375,-400000.0625,-46579.83984375,-400000.0625,-400000.0625,-400000.0625
20.61401915550232,-64218.23828125,-50003.390625,-72196.5390625,-400000.0625,-46622.76171875,-400000.0625,-400000.0625,-400000.0625
20.707148551940918,-64225.01171875,-49996.71875,-72162.453125,-400000.0625,-46612.890625,-400000.0625,-400000.0625,-400000.0625
20.739255666732788,-64216.76171875,-49966.33984375,-72175.75,-400000.0625,-46583.7109375,-400000.0625,-400000.0625,-400000.0625
20.88672161102295,-64188.33984375,-49984.12890625,-72165.8828125,-400000.0625,-46584.66015625,-400000.0625,-400000.0625,-400000.0625
20.940739154815674,-64199.5,-49970.96875,-72141.5625,-400000.0625,-46593.80859375,-400000.0625,-400000.0625,-400000.0625
21.003890991210938,-64234.21875,-49989.55859375,-72154.1015625,-400000.0625,-46618.51171875,-400000.0625,-400000.0625,-400000.0625
21.065691232681274,-64237.4609375,-50007.01953125,-72177.0390625,-400000.0625,-46615.1796875,-400000.0625,-400000.0625,-400000.0625
21.132776737213135,-64208.3203125,-49995.62109375,-72134.40625,-400000.0625,-46584.80078125,-400000.0625,-400000.0625,-400000.0625
21.191110372543335,-64197.44921875,-49985.21875,-72159.59375,-400000.0625,-46578.6015625,-400000.0625,-400000.0625,-400000.0625
21.402465105056763,-64182.671875,-50055.80078125,-72269.5,-400000.0625,-46603.96875,-400000.0625,-400000.0625,-400000.0625
21.472688674926758,-63987.44921875,-50219.05859375,-72505.53125,-400000.0625,-46568.921875,-400000.0625,-400000.0625,-400000.0625
21.57140302658081,-64080.91015625,-50060.98828125,-72355.46875,-400000.0625,-46613.890625,-400000.0625,-400000.0625,-400000.0625
21.64997911453247,-64035.23046875,-49988.8515625,-72277.4609375,-400000.0625,-46590.71875,-400000.0625,-400000.0625,-400000.0625
21.70489192008972,-64040.94921875,-50008.73046875,-72273.8828125,-400000.0625,-46617.609375,-400000.0625,-400000.0625,-400000.0625
21.771145582199097,-64088.58984375,-50039.109375,-72310.6875,-400000.0625,-46633.05859375,-400000.0625,-400000.0625,-400000.0625
21.843222618103027,-64097.75,-50012.5,-72273.84375,-400000.0625,-46623.62109375,-400000.0625,-400000.0625,-400000.0625
21.904074668884277,-64087.3515625,-50015.7890625,-72289.0,-400000.0625,-46621.8984375,-400000.0625,-400000.0625,-400000.0625
21.98841667175293,-64126.26171875,-50041.62890625,-72313.2734375,-400000.0625,-46650.69921875,-400000.0625,-400000.0625,-400000.0625
22.09140419960022,-64075.5703125,-50018.4609375,-72290.1875,-400000.0625,-46611.51171875,-400000.0625,-400000.0625,-400000.0625
22.15236473083496,-64055.9296875,-50037.25,-72280.3671875,-400000.0625,-46597.53125,-400000.0625,-400000.0625,-400000.0625
22.212368488311768,-64088.0703125,-50042.2109375,-72322.953125,-400000.0625,-46619.08984375,-400000.0625,-400000.0625,-400000.0625
22.29332447052002,-64104.23046875,-50051.9296875,-72333.9609375,-400000.0625,-46637.58984375,-400000.0625,-400000.0625,-400000.0625
22.41403293609619,-64072.37890625,-50025.55859375,-72293.9609375,-400000.0625,-46601.30078125,-400000.0625,-400000.0625,-400000.0625
22.46884536743164,-64054.640625,-49995.140625,-72254.0,-400000.0625,-46592.671875,-400000.0625,-400000.0625,-400000.0625
22.622844457626343,-64080.91015625,-50028.19140625,-72296.71875,-400000.0625,-46612.03125,-400000.0625,-400000.0625,-400000.0625
22.72464156150818,-64068.80078125,-50018.21875,-72290.4296875,-400000.0625,-46608.7890625,-400000.0625,-400000.0625,-400000.0625
22.789812564849854,-64053.96875,-49975.69140625,-72290.5703125,-400000.0625,-46585.66015625,-400000.0625,-400000.0625,-400000.0625
22.91649079322815,-64108.5703125,-50039.578125,-72338.78125,-400000.0625,-46630.9609375,-400000.0625,-400000.0625,-400000.0625
22.996200561523438,-64120.05859375,-50043.921875,-72344.7421875,-400000.0625,-46629.23828125,-400000.0625,-400000.0625,-400000.0625
23.043090105056763,-64086.05859375,-50041.87109375,-72312.3203125,-400000.0625,-46596.71875,-400000.0625,-400000.0625,-400000.0625
23.10648465156555,-64068.80078125,-49995.62109375,-72279.4609375,-400000.0625,-46582.80078125,-400000.0625,-400000.0625,-400000.0625
23.12987732887268,-64083.96875,-50013.5,-72297.6796875,-400000.0625,-46601.73046875,-400000.0625,-400000.0625,-400000.0625
23.146899223327637,-64118.30078125,-50018.75,-72331.6796875,-400000.0625,-46632.1015625,-400000.0625,-400000.0625,-400000.0625
23.179412364959717,-64116.578125,-50022.1796875,-72328.1875,-400000.0625,-46632.8203125,-400000.0625,-400000.0625,-400000.0625
23.195491552352905,-64078.8203125,-50011.30859375,-72302.15625,-400000.0625,-46601.30078125,-400000.0625,-400000.0625,-400000.0625
23.210815906524658,-64053.69140625,-50014.359375,-72292.2421875,-400000.0625,-46583.609375,-400000.0625,-400000.0625,-400000.0625
23.223697900772095,-64070.80078125,-50019.6484375,-72301.5390625,-400000.0625,-46602.25,-400000.0625,-400000.0625,-400000.0625
23.2397723197937,-64109.328125,-50022.1796875,-72329.1484375,-400000.0625,-46634.44140625,-400000.0625,-400000.0625,-400000.0625
23.25504469871521,-64113.1484375,-50014.55078125,-72326.328125,-400000.0625,-46629.9609375,-400000.0625,-400000.0625,-400000.0625
23.285332441329956,-64080.1484375,-50014.9296875,-72300.203125,-400000.0625,-46599.578125,-400000.0625,-400000.0625,-400000.0625
23.304215908050537,-64064.80078125,-49997.5703125,-72296.578125,-400000.0625,-46586.0390625,-400000.0625,-400000.0625,-400000.0625
23.322522163391113,-64085.44140625,-49998.1015625,-72307.546875,-400000.0625,-46603.69140625,-400000.0625,-400000.0625,-400000.0625
23.341076135635376,-64113.859375,-50030.0,-72343.546875,-400000.0625,-46629.62890625,-400000.0625,-400000.0625,-400000.0625
23.35706853866577,-64115.390625,-50029.328125,-72343.5,-400000.0625,-46630.671875,-400000.0625,-400000.0625,-400000.0625
23.38631796836853,-64071.8984375,-49999.9609375,-72297.7734375,-400000.0625,-46605.5,-400000.0625,-400000.0625,-400000.0625
23.40542984008789,-64051.3515625,-49984.55859375,-72273.7421875,-400000.0625,-46585.609375,-400000.0625,-400000.0625,-400000.0625
23.421311855316162,-64086.16015625,-50004.96875,-72294.71875,-400000.0625,-46598.76953125,-400000.0625,-400000.0625,-400000.0625
23.436526775360107,-64116.8203125,-50030.0,-72334.4921875,-400000.0625,-46627.23828125,-400000.0625,-400000.0625,-400000.0625
23.451738357543945,-64114.62890625,-50025.98828125,-72339.8828125,-400000.0625,-46627.1484375,-400000.0625,-400000.0625,-400000.0625
23.4705011844635,-64080.01171875,-50015.03125,-72309.8828125,-400000.0625,-46600.58984375,-400000.0625,-400000.0625,-400000.0625
23.50336265563965,-64059.30859375,-49995.7109375,-72282.75,-400000.0625,-46586.76171875,-400000.0625,-400000.0625,-400000.0625
23.521862268447876,-64078.859375,-50014.12109375,-72313.6015625,-400000.0625,-46602.109375,-400000.0625,-400000.0625,-400000.0625
23.53799271583557,-64117.62890625,-50021.55859375,-72354.5234375,-400000.0625,-46627.9609375,-400000.0625,-400000.0625,-400000.0625
23.553465604782104,-64117.9609375,-50026.23046875,-72346.9296875,-400000.0625,-46630.33984375,-400000.0625,-400000.0625,-400000.0625
23.57435417175293,-64082.8203125,-50013.12109375,-72300.0625,-400000.0625,-46605.16015625,-400000.0625,-400000.0625,-400000.0625
23.603360176086426,-64057.171875,-49992.51953125,-72273.84375,-400000.0625,-46593.71875,-400000.0625,-400000.0625,-400000.0625
23.621463298797607,-64075.76171875,-50000.1015625,-72301.4921875,-400000.0625,-46607.30859375,-400000.0625,-400000.0625,-400000.0625
23.64090371131897,-64106.46875,-50017.7890625,-72334.78125,-400000.0625,-46637.25,-400000.0625,-400000.0625,-400000.0625
23.655105113983154,-64114.48046875,-50031.48046875,-72347.6015625,-400000.0625,-46641.2109375,-400000.0625,-400000.0625,-400000.0625
23.668132781982422,-64087.16015625,-50002.9609375,-72331.90625,-400000.0625,-46614.890625,-400000.0625,-400000.0625,-400000.0625
23.683661699295044,-64072.08984375,-49999.859375,-72298.4921875,-400000.0625,-46594.48046875,-400000.0625,-400000.0625,-400000.0625
23.71822452545166,-64093.6484375,-50032.9609375,-72314.1796875,-400000.0625,-46609.12109375,-400000.0625,-400000.0625,-400000.0625
23.73434352874756,-64110.671875,-50016.12109375,-72336.15625,-400000.0625,-46641.9296875,-400000.0625,-400000.0625,-400000.0625
23.75332498550415,-64120.05859375,-50029.0,-72336.296875,-400000.0625,-46644.98046875,-400000.0625,-400000.0625,-400000.0625
23.76855492591858,-64087.2109375,-50043.16015625,-72307.3125,-400000.0625,-46617.12890625,-400000.0625,-400000.0625,-400000.0625
23.78545641899109,-64064.80078125,-49988.3203125,-72278.703125,-400000.0625,-46598.30078125,-400000.0625,-400000.0625,-400000.0625
23.822172164916992,-64088.921875,-49980.5,-72295.0078125,-400000.0625,-46610.171875,-400000.0625,-400000.0625,-400000.0625
23.837448835372925,-64108.80859375,-50020.4609375,-72330.8203125,-400000.0625,-46639.01953125,-400000.0625,-400000.0625,-400000.0625
23.854057788848877,-64111.80859375,-50019.55859375,-72344.1171875,-400000.0625,-46637.44921875,-400000.0625,-400000.0625,-400000.0625
23.866223573684692,-64084.05859375,-49993.66015625,-72302.0234375,-400000.0625,-46610.55078125,-400000.0625,-400000.0625,-400000.0625
23.8819260597229,-64066.26953125,-50005.578125,-72282.3671875,-400000.0625,-46591.140625,-400000.0625,-400000.0625,-400000.0625
23.89839267730713,-64087.640625,-50000.05078125,-72313.3671875,-400000.0625,-46614.4609375,-400000.0625,-400000.0625,-400000.0625
23.936307668685913,-64106.66015625,-50008.109375,-72337.3515625,-400000.0625,-46642.98046875,-400000.0625,-400000.0625,-400000.0625
23.954132556915283,-64105.609375,-50022.8515625,-72323.0390625,-400000.0625,-46640.828125,-400000.0625,-400000.0625,-400000.0625
23.977285385131836,-64072.19140625,-49997.33984375,-72290.859375,-400000.0625,-46614.1796875,-400000.0625,-400000.0625,-400000.0625
23.992379426956177,-64050.30078125,-49976.69140625,-72260.671875,-400000.0625,-46595.8203125,-400000.0625,-400000.0625,-400000.0625
24.010579347610474,-64068.12890625,-49996.37890625,-72287.2265625,-400000.0625,-46609.98046875,-400000.0625,-400000.0625,-400000.0625
24.044790744781494,-64103.421875,-50021.8515625,-72331.0625,-400000.0625,-46640.12109375,-400000.0625,-400000.0625,-400000.0625
24.064958095550537,-64106.5703125,-50040.8203125,-72335.3515625,-400000.0625,-46641.30859375,-400000.0625,-400000.0625,-400000.0625
24.082047700881958,-64076.37890625,-50018.890625,-72302.15625,-400000.0625,-46610.30859375,-400000.0625,-400000.0625,-400000.0625
24.09862780570984,-64049.44140625,-49960.859375,-72285.5234375,-400000.0625,-46588.80859375,-400000.0625,-400000.0625,-400000.0625
24.11558985710144,-64072.4296875,-49968.05859375,-72302.296875,-400000.0625,-46614.03125,-400000.0625,-400000.0625,-400000.0625
24.153538703918457,-64111.48046875,-50014.98046875,-72318.46875,-400000.0625,-46643.26171875,-400000.0625,-400000.0625,-400000.0625
24.17261505126953,-64106.19140625,-50011.828125,-72324.2421875,-400000.0625,-46644.359375,-400000.0625,-400000.0625,-400000.0625
24.192538261413574,-64074.62109375,-49990.51953125,-72296.71875,-400000.0625,-46615.421875,-400000.0625,-400000.0625,-400000.0625
24.207629919052124,-64066.23046875,-49976.640625,-72270.3515625,-400000.0625,-46595.9609375,-400000.0625,-400000.0625,-400000.0625
24.22737693786621,-64092.171875,-49983.7890625,-72287.5234375,-400000.0625,-46613.41015625,-400000.0625,-400000.0625,-400000.0625
24.261281490325928,-64116.53125,-50035.4296875,-72321.28125,-400000.0625,-46642.26171875,-400000.0625,-400000.0625,-400000.0625
24.277228832244873,-64123.96875,-50029.08984375,-72327.4765625,-400000.0625,-46644.0703125,-400000.0625,-400000.0625,-400000.0625
24.289236307144165,-64094.87890625,-49990.37109375,-72302.4921875,-400000.0625,-46615.69921875,-400000.0625,-400000.0625,-400000.0625
24.30400061607361,-64069.1796875,-49985.03125,-72287.5234375,-400000.0625,-46604.26171875,-400000.0625,-400000.0625,-400000.0625
24.319974422454834,-64093.44921875,-50010.5390625,-72306.5,-400000.0625,-46617.12890625,-400000.0625,-400000.0625,-400000.0625
24.3410587310791,-64155.30078125,-50026.328125,-72306.828125,-400000.0625,-46643.55078125,-400000.0625,-400000.0625,-400000.0625
24.374261140823364,-64167.69921875,-49998.80859375,-72286.8984375,-400000.0625,-46641.0703125,-400000.0625,-400000.0625,-400000.0625
24.389764070510864,-64123.2109375,-49973.640625,-72255.671875,-400000.0625,-46608.87890625,-400000.0625,-400000.0625,-400000.0625
24.40981435775757,-64115.1015625,-49960.140625,-72233.2109375,-400000.0625,-46588.37890625,-400000.0625,-400000.0625,-400000.0625
24.42400074005127,-64156.01953125,-49970.109375,-72237.453125,-400000.0625,-46602.3515625,-400000.0625,-400000.0625,-400000.0625
24.44119143486023,-64206.1796875,-50006.3984375,-72260.9609375,-400000.0625,-46628.53125,-400000.0625,-400000.0625,-400000.0625
24.473478078842163,-64224.62890625,-50004.73046875,-72254.859375,-400000.0625,-46625.23828125,-400000.0625,-400000.0625,-400000.0625
24.49212121963501,-64218.62109375,-49957.140625,-72206.078125,-400000.0625,-46597.30078125,-400000.0625,-400000.0625,-400000.0625
24.51024341583252,-64206.078125,-49946.83984375,-72164.59375,-400000.0625,-46578.94140625,-400000.0625,-400000.0625,-400000.0625
24.531563758850098,-64214.62109375,-49950.21875,-72182.6171875,-400000.0625,-46594.671875,-400000.0625,-400000.0625,-400000.0625
24.55064630508423,-64238.12890625,-49964.671875,-72224.90625,-400000.0625,-46621.140625,-400000.0625,-400000.0625,-400000.0625
24.58995485305786,-64238.171875,-49991.328125,-72230.6796875,-400000.0625,-46623.5703125,-400000.0625,-400000.0625,-400000.0625
24.608457803726196,-64208.75,-49961.140625,-72188.9609375,-400000.0625,-46597.9609375,-400000.0625,-400000.0625,-400000.0625
24.629408359527588,-64190.30078125,-49932.578125,-72155.4375,-400000.0625,-46574.73828125,-400000.0625,-400000.0625,-400000.0625
24.654217958450317,-64213.671875,-49954.7109375,-72172.6015625,-400000.0625,-46590.23828125,-400000.0625,-400000.0625,-400000.0625
24.693846940994263,-64237.078125,-49998.859375,-72229.0625,-400000.0625,-46623.76171875,-400000.0625,-400000.0625,-400000.0625
24.712865829467773,-64249.48046875,-49994.94921875,-72218.859375,-400000.0625,-46622.62109375,-400000.0625,-400000.0625,-400000.0625
